Data from hue_130_FLMS001491_00073.txt Node
Date: Tue Feb 07 16:58:04 GMT 2017
User: dcchb
Spectrometer: FLMS00149
Trigger mode: 0
Integration Time (sec): 2.000000E-2
Scans to average: 10
Electric dark correction enabled: true
Nonlinearity correction enabled: false
Boxcar width: 0
XAxis mode: Wavelengths
Number of Pixels in Spectrum: 2048
>>>>>Begin Spectral Data<<<<<
341.393	-12.49
341.776	-12.49
342.16	-12.49
342.543	-78.92
342.927	-64.91
343.31	-62.88
343.693	-65.14
344.077	-65.37
344.46	-58.13
344.843	-44.8
345.226	-56.33
345.61	-26.5
345.993	-30.11
346.376	-7.06
346.759	-2.99
347.142	40.62
347.525	37.23
347.908	54.41
348.291	63.9
348.674	93.95
349.057	129.21
349.44	126.27
349.823	153.61
350.206	145.02
350.588	199.26
350.971	222.99
351.354	213.72
351.737	237.68
352.119	255.3
352.502	268.19
352.884	279.26
353.267	278.58
353.65	293.95
354.032	297.11
354.414	303.66
354.797	308.41
355.179	317.9
355.562	339.37
355.944	315.64
356.326	329.2
356.709	326.26
357.091	339.82
357.473	332.59
357.855	354.06
358.238	332.82
358.62	333.27
359.002	315.87
359.384	336.66
359.766	335.98
360.148	335.53
360.53	338.47
360.912	337.56
361.294	299.82
361.676	341.18
362.057	318.81
362.439	322.65
362.821	336.21
363.203	342.31
363.584	317
363.966	338.24
364.348	326.49
364.729	310.22
365.111	314.29
365.493	325.81
365.874	321.74
366.256	319.48
366.637	321.74
367.019	322.65
367.4	308.64
367.781	315.42
368.163	320.16
368.544	301.86
368.925	315.19
369.306	317.22
369.688	297.56
370.069	290.78
370.45	304.12
370.831	309.09
371.212	295.3
371.593	304.34
371.974	311.8
372.355	320.39
372.736	319.71
373.117	291.69
373.498	321.07
373.879	311.8
374.26	309.09
374.641	305.02
375.021	316.55
375.402	314.29
375.783	312.48
376.163	334.62
376.544	309.09
376.925	320.61
377.305	343.44
377.686	326.26
378.066	300.5
378.447	315.64
378.827	339.6
379.208	330.78
379.588	346.38
379.968	326.26
380.349	340.5
380.729	329.43
381.109	322.87
381.489	316.77
381.87	320.39
382.25	339.37
382.63	335.75
383.01	346.15
383.39	343.89
383.77	339.82
384.15	349.31
384.53	333.72
384.91	352.02
385.29	347.73
385.67	352.93
386.049	334.17
386.429	352.93
386.809	333.49
387.189	349.76
387.568	356.32
387.948	356.77
388.328	348.86
388.707	356.09
389.087	379.59
389.466	356.54
389.846	345.25
390.225	355.87
390.605	362.42
390.984	382.08
391.363	378.01
391.743	370.33
392.122	375.3
392.501	362.19
392.881	370.1
393.26	361.29
393.639	376.43
394.018	384.11
394.397	401.29
394.776	378.69
395.155	374.4
395.534	381.4
395.913	361.06
396.292	370.1
396.671	393.38
397.05	368.3
397.429	392.25
397.808	373.49
398.186	388.41
398.565	382.76
398.944	411.46
399.323	376.43
399.701	372.59
400.08	391.8
400.458	410.1
400.837	407.39
401.215	394.51
401.594	381.18
401.972	401.74
402.351	404.23
402.729	402.64
403.107	408.75
403.486	395.87
403.864	428.63
404.242	411.91
404.62	413.94
404.999	399.03
405.377	416.43
405.755	423.21
406.133	428.18
406.511	410.78
406.889	434.96
407.267	444.45
407.645	434.73
408.023	431.12
408.401	418.46
408.779	443.77
409.156	445.36
409.534	442.19
409.912	448.07
410.29	446.49
410.667	452.36
411.045	461.85
411.422	440.16
411.8	457.33
412.178	458.24
412.555	474.73
412.933	471.12
413.31	483.55
413.687	482.87
414.065	478.12
414.442	482.19
414.819	475.41
415.197	484.68
415.574	480.61
415.951	486.94
416.328	476.32
416.705	475.86
417.082	491.91
417.46	488.07
417.837	501.63
418.214	502.98
418.591	504.34
418.967	509.76
419.344	517.9
419.721	524.45
420.098	519.93
420.475	531.68
420.852	519.25
421.228	522.87
421.605	512.7
421.982	516.77
422.358	536.43
422.735	538.91
423.111	528.74
423.488	535.07
423.864	540.49
424.241	557.67
424.617	539.59
424.994	562.19
425.37	561.51
425.746	557.44
426.123	562.87
426.499	569.87
426.875	545.69
427.251	575.07
427.627	602.64
428.003	561.28
428.379	595.63
428.756	578.46
429.132	631.79
429.507	602.87
429.883	609.42
430.259	601.51
430.635	611.23
431.011	611.68
431.387	639.47
431.763	636.08
432.138	639.93
432.514	646.03
432.89	659.59
433.265	634.28
433.641	656.65
434.016	648.51
434.392	677.89
434.767	666.59
435.143	687.61
435.518	681.73
435.894	686.48
436.269	698.23
436.644	708.17
437.02	716.76
437.395	713.82
437.77	713.37
438.145	688.74
438.52	741.84
438.895	724.9
439.271	736.87
439.646	719.7
440.021	770.77
440.395	741.17
440.77	775.52
441.145	763.99
441.52	763.77
441.895	775.06
442.27	762.41
442.645	789.53
443.019	805.12
443.394	780.94
443.769	788.17
444.143	789.3
444.518	807.61
444.892	813.03
445.267	825.01
445.641	814.39
446.016	814.84
446.39	812.35
446.764	828.62
447.139	819.81
447.513	842.86
447.887	846.7
448.262	842.41
448.636	854.16
449.01	852.8
449.384	888.28
449.758	879.69
450.132	878.79
450.506	913.82
450.88	900.03
451.254	900.26
451.628	906.36
452.002	908.62
452.376	928.96
452.75	912.24
453.123	932.12
453.497	931.67
453.871	928.51
454.244	951.56
454.618	966.47
454.992	972.57
455.365	967.83
455.739	1013.7
456.112	1002.18
456.486	1011.67
456.859	1031.55
457.232	1052.57
457.606	1012.35
457.979	1052.12
458.352	1077.88
458.725	1105.45
459.099	1116.98
459.472	1130.31
459.845	1122.63
460.218	1154.49
460.591	1146.58
460.964	1135.96
461.337	1188.39
461.71	1195.17
462.083	1196.97
462.456	1220.02
462.829	1206.92
463.201	1254.15
463.574	1254.37
463.947	1269.97
464.32	1282.62
464.692	1319.46
465.065	1350.42
465.438	1352.68
465.81	1330.98
466.183	1374.37
466.555	1409.85
466.928	1424.31
467.3	1432.67
467.672	1473.13
468.045	1483.97
468.417	1492.11
468.789	1493.01
469.161	1544.76
469.534	1601.94
469.906	1606.68
470.278	1620.92
470.65	1645.78
471.022	1699.11
471.394	1731.42
471.766	1741.59
472.138	1772.1
472.51	1836.96
472.882	1854.58
473.253	1888.48
473.625	1913.79
473.997	1979.1
474.369	2027.69
474.74	2045.54
475.112	2078.08
475.484	2128.93
475.855	2173.22
476.227	2194.46
476.598	2313.55
476.97	2389.26
477.341	2426.09
477.713	2467
478.084	2544.51
478.455	2618.63
478.827	2692.53
479.198	2746.99
479.569	2812.52
479.94	2920.77
480.311	2951.28
480.682	3047.55
481.053	3126.87
481.424	3233.3
481.795	3278.28
482.166	3382
482.537	3452.73
482.908	3601.2
483.279	3638.04
483.65	3729.34
484.021	3874.64
484.391	3972.27
484.762	4054.98
485.133	4152.38
485.503	4239.83
485.874	4408.42
486.244	4478.47
486.615	4625.13
486.985	4758.91
487.356	4890.44
487.726	4951.45
488.097	5076.65
488.467	5195.51
488.837	5369.07
489.207	5431.89
489.578	5557.09
489.948	5720.92
490.318	5898.09
490.688	5922.05
491.058	6071.65
491.428	6227.58
491.798	6329.04
492.168	6531.98
492.538	6594.12
492.908	6729.71
493.278	6921.8
493.648	6962.7
494.017	7113.65
494.387	7290.6
494.757	7390.48
495.126	7488.11
495.496	7561.33
495.866	7711.15
496.235	7881.54
496.605	7919.96
496.974	8075.44
497.344	8141.42
497.713	8310.46
498.082	8392.49
498.452	8538.02
498.821	8578.7
499.19	8713.61
499.559	8836.55
499.928	8957
500.298	8986.37
500.667	9142.08
501.036	9196.09
501.405	9385.46
501.774	9342.07
502.143	9507.04
502.512	9542.52
502.88	9707.71
503.249	9641.27
503.618	9826.8
503.987	9846.46
504.356	9988.38
504.724	10012.34
505.093	10105.21
505.462	10209.17
505.83	10271.99
506.199	10306.57
506.567	10493.68
506.936	10456.17
507.304	10652.32
507.672	10642.83
508.041	10692.32
508.409	10734.12
508.777	10845.08
509.145	10954.01
509.514	10945.42
509.882	11073.1
510.25	11028.13
510.618	11214.56
510.986	11177.73
511.354	11292.98
511.722	11359.87
512.09	11493.2
512.458	11386.54
512.826	11434.67
513.193	11520.54
513.561	11552.18
513.929	11704.95
514.297	11737.04
514.664	11768.22
515.032	11750.14
515.4	11843.93
515.767	11929.8
516.135	11925.51
516.502	11862.91
516.869	12049.8
517.237	12007.09
517.604	11998.72
517.972	12091.38
518.339	12116.46
518.706	12099.06
519.073	12156.91
519.44	12231.26
519.808	12297.93
520.175	12182.9
520.542	12423.35
520.909	12337.25
521.276	12338.6
521.643	12483.68
522.009	12425.61
522.376	12485.26
522.743	12642.55
523.11	12622.21
523.477	12711.02
523.843	12725.94
524.21	12759.61
524.577	12816.56
524.943	12787.86
525.31	12753.51
525.676	12896.33
526.043	12895.2
526.409	12873.5
526.776	13036.66
527.142	12912.37
527.508	13009.54
527.874	13050.22
528.241	13068.07
528.607	13016.78
528.973	13075.98
529.339	13019.26
529.705	13125.02
530.071	13109.66
530.437	13127.73
530.803	13187.85
531.169	13154.63
531.535	13036.44
531.901	13106.49
532.267	13070.56
532.632	13144.46
532.998	13126.6
533.364	13176.55
533.73	13186.49
534.095	13059.04
534.461	13059.94
534.826	13086.15
535.192	13057
535.557	13125.7
535.923	13093.61
536.288	12996.66
536.653	13026.27
537.019	12932.26
537.384	12952.15
537.749	12999.83
538.114	12930.22
538.479	12912.82
538.845	12950.79
539.21	12851.58
539.575	12845.03
539.94	12850.45
540.305	12854.07
540.67	12826.5
541.034	12737.69
541.399	12753.96
541.764	12690.01
542.129	12720.06
542.494	12626.28
542.858	12659.72
543.223	12628.31
543.587	12609.78
543.952	12482.78
544.316	12591.25
544.681	12490.69
545.045	12550.35
545.41	12463.34
545.774	12444.36
546.138	12381.99
546.503	12388.09
546.867	12282.56
547.231	12352.84
547.595	12342.44
547.959	12276.91
548.324	12253.18
548.688	12230.81
549.052	12125.73
549.416	12082.79
549.779	12099.74
550.143	12073.52
550.507	12045.28
550.871	12039.63
551.235	11984.49
551.599	12080.98
551.962	12000.08
552.326	12035.11
552.689	12002.34
553.053	11859.07
553.417	11873.76
553.78	11939.06
554.143	11772.74
554.507	11830.14
554.87	11834.43
555.234	11855.9
555.597	11759.41
555.96	11759.18
556.323	11760.54
556.686	11647.32
557.05	11762.35
557.413	11728.67
557.776	11618.85
558.139	11657.94
558.502	11667.66
558.865	11664.5
559.228	11706.08
559.59	11675.34
559.953	11739.75
560.316	11711.95
560.679	11772.06
561.041	11746.75
561.404	11698.84
561.767	11770.71
562.129	11712.86
562.492	11794.89
562.854	11658.85
563.217	11650.94
563.579	11691.84
563.941	11733.87
564.304	11722.8
564.666	11779.75
565.028	11722.8
565.39	11713.99
565.753	11720.99
566.115	11788.79
566.477	11833.08
566.839	11825.4
567.201	11881.66
567.563	11822.68
567.925	11890.25
568.287	11854.32
568.648	11859.29
569.01	11863.13
569.372	11894.55
569.734	11878.73
570.095	11879.63
570.457	11933.64
570.819	11936.8
571.18	11999.4
571.542	11974.09
571.903	11960.98
572.265	11929.8
572.626	12017.71
572.987	12019.51
573.349	12029.91
573.71	11979.06
574.071	12074.88
574.432	12031.72
574.794	12039.17
575.155	12151.94
575.516	12019.74
575.877	12039.85
576.238	12075.56
576.599	12003.47
576.96	12047.76
577.32	11992.17
577.681	12130.92
578.042	12102.68
578.403	11990.14
578.763	12004.15
579.124	12075.33
579.485	12060.19
579.845	12070.13
580.206	11998.05
580.566	12104.48
580.927	12138.83
581.287	12047.99
581.648	12066.97
582.008	12129.34
582.368	12109.68
582.728	12128.21
583.089	12146.06
583.449	12053.41
583.809	12048.44
584.169	12082.11
584.529	12014.32
584.889	12150.13
585.249	12085.05
585.609	12063.58
585.969	12089.12
586.329	11949.01
586.688	12036.24
587.048	12007.31
587.408	11941.1
587.768	11903.13
588.127	11901.33
588.487	11876.02
588.846	12021.55
589.206	11924.15
589.565	11870.59
589.925	11935.22
590.284	11931.38
590.643	11910.14
591.003	11877.37
591.362	11980.19
591.721	11885.73
592.08	11859.07
592.44	11902.91
592.799	11888.22
593.158	11939.97
593.517	11830.37
593.876	11833.08
594.235	11787.43
594.593	11831.95
594.952	11907.2
595.311	11781.33
595.67	11807.09
596.029	11867.65
596.387	11890.48
596.746	11886.41
597.104	11868.56
597.463	11835.34
597.822	11828.56
598.18	11826.75
598.538	11741.56
598.897	11819.07
599.255	11752.18
599.613	11862.91
599.972	11722.12
600.33	11769.35
600.688	11784.04
601.046	11808.67
601.404	11793.08
601.762	11802.8
602.12	11881.66
602.478	11882.12
602.836	11825.4
603.194	11804.38
603.552	11773.87
603.91	11735.68
604.268	11831.5
604.625	11755.11
604.983	11846.64
605.341	11789.69
605.698	11805.51
606.056	11857.71
606.413	11788.11
606.771	11876.02
607.128	11781.1
607.485	11783.14
607.843	11737.94
608.2	11860.65
608.557	11911.95
608.914	11867.2
609.272	11899.74
609.629	11932.29
609.986	11943.58
610.343	11955.11
610.7	11984.94
611.057	11879.63
611.414	11922.34
611.771	11928.67
612.127	11901.33
612.484	12005.5
612.841	11967.09
613.198	11952.62
613.554	11958.05
613.911	11953.98
614.267	12021.32
614.624	11942.91
614.98	12042.11
615.337	12015.22
615.693	11980.65
616.05	11957.82
616.406	12029.23
616.762	12030.14
617.118	12007.76
617.475	11926.64
617.831	12094.77
618.187	12066.52
618.543	12080.98
618.899	12184.48
619.255	12038.95
619.611	12096.8
619.967	12110.59
620.323	12186.97
620.678	12097.93
621.034	12075.11
621.39	12106.07
621.746	12126.86
622.101	12276
622.457	12141.55
622.812	12142.68
623.168	12156.01
623.523	12185.84
623.879	12213.86
624.234	12091.6
624.589	12141.55
624.945	12117.14
625.3	12147.65
625.655	12146.74
626.01	12052.28
626.365	12090.47
626.72	12047.99
627.075	12061.32
627.43	12138.16
627.785	12055.22
628.14	12093.18
628.495	12116.69
628.85	12111.26
629.205	12057.25
629.559	12077.14
629.914	12026.29
630.269	12132.05
630.623	12026.07
630.978	12031.72
631.332	12056.8
631.687	11963.02
632.041	11963.47
632.396	12046.86
632.75	11925.73
633.104	11974.54
633.459	11892.96
633.813	11996.01
634.167	11985.62
634.521	11842.8
634.875	11896.35
635.229	11996.46
635.583	11846.64
635.937	11854.1
636.291	11897.48
636.645	11823.59
636.999	11850.03
637.352	11872.17
637.706	11800.09
638.06	11751.05
638.413	11760.31
638.767	11739.97
639.121	11707.66
639.474	11644.84
639.828	11680.31
640.181	11778.84
640.534	11700.43
640.888	11629.92
641.241	11609.58
641.594	11615.01
641.947	11682.8
642.301	11650.48
642.654	11680.09
643.007	11649.58
643.36	11562.13
643.713	11535.46
644.066	11655.46
644.419	11564.61
644.771	11501.79
645.124	11418.63
645.477	11348.12
645.83	11341.79
646.182	11279.65
646.535	11164.62
646.888	11268.12
647.24	11182.93
647.593	11276.26
647.945	11265.64
648.298	11254.56
648.65	11227.67
649.002	11170.72
649.355	11237.39
649.707	11142.48
650.059	11252.53
650.411	11398.29
650.763	11388.57
651.115	11552.18
651.467	11452.07
651.819	11540.21
652.171	11393.54
652.523	11454.56
652.875	11402.36
653.227	11456.59
653.578	11484.61
653.93	11466.76
654.282	11347.22
654.633	11434.9
654.985	11460.66
655.337	11461.56
655.688	11447.78
656.039	11484.39
656.391	11394.45
656.742	11438.06
657.094	11542.46
657.445	11582.92
657.796	11391.51
658.147	11414.56
658.498	11501.11
658.849	11544.72
659.2	11430.38
659.551	11491.17
659.902	11577.27
660.253	11408.46
660.604	11464.27
660.955	11435.12
661.306	11539.53
661.656	11518.28
662.007	11484.16
662.358	11443.94
662.708	11554.44
663.059	11542.92
663.409	11446.87
663.76	11510.6
664.11	11535.46
664.461	11498.4
664.811	11622.69
665.161	11511.28
665.511	11487.78
665.862	11528
666.212	11539.3
666.562	11534.78
666.912	11539.75
667.262	11483.71
667.612	11510.83
667.962	11514.67
668.312	11445.97
668.662	11556.7
669.011	11482.35
669.361	11506.53
669.711	11513.77
670.06	11463.14
670.41	11483.26
670.76	11445.29
671.109	11548.11
671.459	11421.79
671.808	11532.75
672.157	11573.2
672.507	11423.6
672.856	11431.96
673.205	11389.02
673.554	11415.24
673.904	11428.12
674.253	11434.9
674.602	11456.59
674.951	11262.7
675.3	11230.61
675.649	11410.26
675.998	11375.46
676.346	11348.35
676.695	11371.85
677.044	11255.92
677.393	11341.34
677.741	11304.96
678.09	11313.09
678.438	11197.39
678.787	11264.51
679.135	11269.93
679.484	11218.18
679.832	11228.57
680.181	11193.55
680.529	11164.62
680.877	11117.39
681.225	11183.38
681.573	11210.95
681.922	11105.19
682.27	11122.81
682.618	11092.76
682.966	11040.33
683.314	11091.63
683.661	11012.54
684.009	10968.24
684.357	10983.84
684.705	10928.92
685.053	10951.07
685.4	10906.55
685.748	10870.62
686.095	10910.39
686.443	10838.08
686.79	10786.55
687.138	10807.57
687.485	10790.62
687.832	10794.01
688.18	10772.54
688.527	10714.46
688.874	10697.06
689.221	10715.59
689.568	10635.82
689.915	10625.43
690.262	10581.81
690.609	10528.03
690.956	10528.71
691.303	10486.9
691.65	10467.46
691.997	10437.64
692.344	10386.79
692.69	10336.62
693.037	10397.64
693.383	10248.94
693.73	10275.15
694.077	10133.46
694.423	10153.57
694.769	10143.41
695.116	10050.53
695.462	10018.66
695.808	10002.39
696.155	10059.34
696.501	9953.13
696.847	9976.4
697.193	9893.69
697.539	9954.94
697.885	9863.41
698.231	9711.33
698.577	9749.97
698.923	9668.16
699.269	9680.37
699.614	9643.98
699.96	9617.77
700.306	9676.98
700.651	9555.85
700.997	9548.84
701.342	9554.27
701.688	9488.06
702.033	9378
702.379	9465.01
702.724	9418.45
703.069	9372.35
703.415	9267.27
703.76	9329.42
704.105	9222.07
704.45	9281.96
704.795	9245.8
705.14	9121.29
705.485	9152.92
705.83	9088.52
706.175	9155.41
706.52	9052.59
706.865	9008.07
707.209	9020.27
707.554	8968.75
707.899	9011.23
708.243	8975.75
708.588	8910.44
708.932	8861.18
709.277	8793.61
709.621	8869.54
709.966	8821.86
710.31	8786.83
710.654	8707.06
710.998	8720.62
711.342	8684.23
711.687	8702.54
712.031	8679.04
712.375	8625.48
712.719	8664.35
713.063	8689.43
713.407	8633.61
713.75	8646.5
714.094	8607.4
714.438	8535.54
714.782	8541.41
715.125	8541.64
715.469	8506.61
715.812	8487.86
716.156	8401.3
716.499	8438.82
716.843	8479.49
717.186	8361.31
717.53	8501.64
717.873	8431.59
718.216	8399.27
718.559	8417.12
718.902	8312.27
719.246	8305.49
719.589	8335.77
719.932	8314.53
720.275	8307.07
720.617	8287.86
720.96	8282.89
721.303	8218.03
721.646	8254.19
721.989	8277.47
722.331	8295.77
722.674	8290.8
723.016	8324.92
723.359	8219.39
723.701	8240.63
724.044	8234.53
724.386	8155.21
724.729	8231.14
725.071	8173.97
725.413	8201.08
725.755	8178.03
726.097	8169.9
726.439	8053.74
726.782	8107.75
727.124	8128.77
727.465	8096.23
727.807	8167.41
728.149	8112.5
728.491	8090.35
728.833	8099.84
729.175	8096
729.516	8052.39
729.858	8087.64
730.199	8056.91
730.541	8095.32
730.882	7974.65
731.224	8051.03
731.565	8018.04
731.906	8088.09
732.248	8037.02
732.589	8032.05
732.93	8055.32
733.271	8018.72
733.612	8033.4
733.953	8041.09
734.294	7993.86
734.635	7998.6
734.976	8090.35
735.317	8038.38
735.658	8013.52
735.999	8008.55
736.339	8039.05
736.68	8085.61
737.021	8070.92
737.361	8018.49
737.702	8072.5
738.042	8032.5
738.383	8051.48
738.723	8096.23
739.063	8035.21
739.404	8140.52
739.744	8083.57
740.084	8088.09
740.424	8123.12
740.764	8092.84
741.104	8175.77
741.444	8093.74
741.784	8164.02
742.124	8155.44
742.464	8253.06
742.804	8122.67
743.143	8233.17
743.483	8264.36
743.823	8228.88
744.162	8309.78
744.502	8322.66
744.841	8338.71
745.181	8393.62
745.52	8364.7
745.86	8365.6
746.199	8457.57
746.538	8475.88
746.877	8556.33
747.216	8600.17
747.556	8622.32
747.895	8638.81
748.234	8749.09
748.573	8826.6
748.911	8756.55
749.25	8858.92
749.589	8895.75
749.928	8997.22
750.267	9048.75
750.605	9061.63
750.944	9194.5
751.283	9203.09
751.621	9396.31
751.96	9463.42
752.298	9491.45
752.636	9635.4
752.975	9570.99
753.313	9761.04
753.651	9900.7
753.989	9924.43
754.327	10093.01
754.666	10150.64
755.004	10270.18
755.342	10403.29
755.679	10461.14
756.017	10615.94
756.355	10751.3
756.693	10822.94
757.031	11098.18
757.368	11120.1
757.706	11231.96
758.044	11328.23
758.381	11533.2
758.719	11643.48
759.056	11817.49
759.394	12028.78
759.731	12041.43
760.068	12195.56
760.405	12354.19
760.743	12591.7
761.08	12731.59
761.417	12868.98
761.754	13012.03
762.091	13182.2
762.428	13311.01
762.765	13353.72
763.102	13592.13
763.438	13699.24
763.775	13856.53
764.112	14004.1
764.449	14146.69
764.785	14350.07
765.122	14282.28
765.458	14611.31
765.795	14731.08
766.131	14782.83
766.467	14978.53
766.804	15116.83
767.14	15180.11
767.476	15407.45
767.812	15416.71
768.148	15642.02
768.485	15663.49
768.821	15764.27
769.157	15917.04
769.492	16068
769.828	16195.45
770.164	16129.46
770.5	16218.05
770.836	16448.1
771.171	16403.13
771.507	16465.05
771.842	16565.61
772.178	16722.44
772.513	16696.45
772.849	16815.55
773.184	17009.89
773.519	16950.91
773.855	16998.82
774.19	17075.2
774.525	17168.53
774.86	17205.59
775.195	17317
775.53	17374.18
775.865	17252.82
776.2	17359.71
776.535	17338.7
776.87	17303.67
777.205	17401.75
777.539	17448.3
777.874	17497.11
778.209	17385.93
778.543	17522.19
778.878	17455.76
779.212	17655.3
779.547	17494.17
779.881	17649.87
780.215	17517.9
780.55	17656.65
780.884	17568.52
781.218	17577.79
781.552	17651
781.886	17528.52
782.22	17602.64
782.554	17634.96
782.888	17527.84
783.222	17434.06
783.556	17422.31
783.889	17449.43
784.223	17368.53
784.557	17396.32
784.89	17506.38
785.224	17460.95
785.557	17404.46
785.891	17368.53
786.224	17399.71
786.558	17458.69
786.891	17320.84
787.224	17282.65
787.557	17304.12
787.891	17289.88
788.224	17237.23
788.557	17277.68
788.89	17244.24
789.223	17295.76
789.556	17114.3
789.888	17157.91
790.221	17158.81
790.554	16934.41
790.887	17027.74
791.219	16859.16
791.552	17008.54
791.884	16970.8
792.217	16886.05
792.549	16794.53
792.882	16832.27
793.214	16767.64
793.546	16797.69
793.879	16689.9
794.211	16554.08
794.543	16676.34
794.875	16562.45
795.207	16622.78
795.539	16573.52
795.871	16556.8
796.203	16416.01
796.535	16349.8
796.867	16452.39
797.198	16377.14
797.53	16323.81
797.862	16236.58
798.193	16358.16
798.525	16118.62
798.856	16233.87
799.188	16217.6
799.519	16060.54
799.85	15942.58
800.182	16079.97
800.513	16001.1
800.844	15852.41
801.175	16010.14
801.506	15980.99
801.837	15838.62
802.168	15785.07
802.499	15855.57
802.83	15657.38
803.161	15620.78
803.491	15662.81
803.822	15712.75
804.153	15603.38
804.483	15459.65
804.814	15386.66
805.145	15465.3
805.475	15389.6
805.805	15342.59
806.136	15364.29
806.466	15379.65
806.796	15260.56
807.126	15142.14
807.457	15266.89
807.787	15175.59
808.117	15183.73
808.447	15095.59
808.777	15178.3
809.107	14917.97
809.436	14972.43
809.766	14982.6
810.096	15000.45
810.426	14910.74
810.755	14921.13
811.085	14903.96
811.414	14873.68
811.744	14749.84
812.073	14726.34
812.403	14716.39
812.732	14657.86
813.061	14715.04
813.39	14555.94
813.719	14579.22
814.049	14674.81
814.378	14538.77
814.707	14494.93
815.036	14491.99
815.365	14402.05
815.693	14282.73
816.022	14314.37
816.351	14303.52
816.68	14290.19
817.008	14321.6
817.337	14238.67
817.665	14190.76
817.994	14178.78
818.322	14184.88
818.651	14070.76
818.979	14010.65
819.307	14102.85
819.636	14030.99
819.964	13999.12
820.292	14096.52
820.62	14035.51
820.948	13940.14
821.276	14033.25
821.604	13982.63
821.932	14016.75
822.259	13974.27
822.587	13996.86
822.915	13977.43
823.243	13993.93
823.57	13908.5
823.898	13974.72
824.225	13855.17
824.553	13917.32
824.88	14033.25
825.207	14031.89
825.535	13947.37
825.862	14009.07
826.189	13889.97
826.516	13981.04
826.843	14004.77
827.17	14044.77
827.497	13965
827.824	14016.98
828.151	14015.85
828.478	14018.78
828.805	14038.67
829.131	13963.42
829.458	13939.46
829.785	13931.33
830.111	13935.17
830.438	14019.91
830.764	13963.42
831.09	13975.4
831.417	13942.4
831.743	13956.64
832.069	13946.24
832.395	13922.06
832.722	13920.48
833.048	13874.38
833.374	13897.66
833.7	13893.82
834.026	13832.35
834.351	13841.39
834.677	13887.94
835.003	13809.98
835.329	13930.65
835.654	13774.72
835.98	13762.52
836.306	13807.26
836.631	13731.56
836.956	13803.42
837.282	13760.49
837.607	13841.61
837.932	13664.44
838.258	13702.86
838.583	13635.29
838.908	13602.07
839.233	13643.88
839.558	13546.48
839.883	13556.88
840.208	13413.6
840.533	13447.05
840.858	13558.68
841.182	13579.47
841.507	13487.5
841.832	13418.12
842.156	13397.56
842.481	13406.14
842.805	13348.75
843.13	13358.46
843.454	13257.22
843.778	13308.07
844.103	13233.49
844.427	13158.47
844.751	13243.44
845.075	13183.78
845.399	13149.43
845.723	13021.52
846.047	13051.58
846.371	13008.87
846.695	12974.97
847.019	12842.77
847.343	12887.29
847.666	12710.8
847.99	12641.65
848.313	12696.33
848.637	12569.56
848.96	12538.6
849.284	12595.32
849.607	12384.93
849.931	12463.34
850.254	12353.07
850.577	12289.34
850.9	12172.96
851.223	12219.28
851.546	12124.82
851.869	12069.46
852.192	12124.14
852.515	12014.32
852.838	11845.73
853.161	11969.35
853.483	11870.59
853.806	11818.62
854.129	11762.12
854.451	11786.53
854.774	11629.02
855.096	11683.93
855.419	11633.08
855.741	11710.37
856.063	11549.24
856.385	11509.25
856.708	11502.92
857.03	11438.29
857.352	11446.2
857.674	11483.48
857.996	11386.31
858.318	11270.83
858.64	11333.2
858.961	11291.62
859.283	11303.6
859.605	11121.91
859.926	11296.14
860.248	11153.1
860.57	11084.62
860.891	11125.3
861.212	11057.28
861.534	10956.72
861.855	10999.43
862.176	11032.65
862.498	11011.63
862.819	10970.73
863.14	10880.34
863.461	10931.41
863.782	10922.37
864.103	10881.92
864.424	10892.31
864.745	10840.11
865.065	10778.19
865.386	10789.04
865.707	10771.64
866.027	10808.25
866.348	10761.69
866.668	10731.86
866.989	10682.83
867.309	10679.21
867.63	10671.3
867.95	10627.23
868.27	10641.7
868.59	10627.23
868.91	10554.69
869.23	10550.63
869.55	10528.48
869.87	10540.23
870.19	10456.84
870.51	10581.81
870.83	10564.86
871.15	10476.05
871.469	10403.29
871.789	10508.82
872.109	10445.77
872.428	10431.31
872.748	10470.18
873.067	10455.71
873.386	10363.96
873.706	10381.37
874.025	10316.96
874.344	10295.72
874.663	10309.5
874.982	10211.88
875.301	10287.81
875.62	10212.56
875.939	10283.51
876.258	10174.59
876.577	10232.44
876.896	10209.62
877.214	10135.72
877.533	10095.27
877.852	10121.26
878.17	10094.14
878.489	10044.65
878.807	10050.53
879.125	10046.91
879.444	10038.32
879.762	9967.14
880.08	9958.78
880.398	10030.64
880.716	9998.78
881.034	9939.8
881.352	9890.53
881.67	9904.09
881.988	9936.86
882.306	9917.42
882.624	9809.86
882.941	9787.26
883.259	9772.34
883.577	9712.46
883.894	9674.72
884.212	9700.25
884.529	9732.57
884.846	9690.99
885.164	9669.97
885.481	9611.22
885.798	9671.1
886.115	9595.17
886.432	9529.41
886.75	9503.42
887.067	9576.41
887.383	9463.42
887.7	9499.13
888.017	9445.34
888.334	9483.76
888.651	9422.07
888.967	9354.27
889.284	9411.22
889.6	9375.06
889.917	9270.43
890.233	9261.39
890.55	9309.53
890.866	9304.33
891.182	9259.81
891.498	9188.85
891.815	9201.28
892.131	9128.52
892.447	9178.01
892.763	9019.14
893.079	9070.89
893.395	8986.15
893.71	9066.15
894.026	9042.42
894.342	8931.01
894.657	8940.73
894.973	8862.76
895.289	8837
895.604	8850.78
895.92	8730.11
896.235	8708.42
896.55	8719.04
896.865	8678.59
897.181	8727.85
897.496	8647.17
897.811	8567.63
898.126	8594.52
898.441	8541.87
898.756	8465.03
899.071	8470.23
899.386	8503.9
899.7	8411.25
900.015	8359.05
900.33	8304.81
900.644	8242.21
900.959	8382.32
901.273	8281.08
901.588	8260.07
901.902	8246.05
902.216	8144.14
902.531	8115.21
902.845	8096.91
903.159	8009.22
903.473	8058.94
903.787	8046.06
904.101	7995.89
904.415	8000.86
904.729	7889.45
905.042	7846.74
905.356	7849
905.67	7821.88
905.984	7904.14
906.297	7815.11
906.611	7754.09
906.924	7765.39
907.237	7722.23
907.551	7656.47
907.864	7672.96
908.177	7671.61
908.491	7567.2
908.804	7559.97
909.117	7515.45
909.43	7488.11
909.743	7392.52
910.056	7432.06
910.368	7423.93
910.681	7349.35
910.994	7354.33
911.307	7300.09
911.619	7245.85
911.932	7300.32
912.244	7246.98
912.557	7183.03
912.869	7166.08
913.181	7109.59
913.494	7135.35
913.806	7058.51
914.118	6990.04
914.43	7004.73
914.742	7016.26
915.054	6936.48
915.366	6928.12
915.678	6906.65
915.99	6863.94
916.302	6807.22
916.613	6762.25
916.925	6719.31
917.236	6772.87
917.548	6706.66
917.859	6723.16
918.171	6635.93
918.482	6648.13
918.794	6598.64
919.105	6664.63
919.416	6568.58
919.727	6535.59
920.038	6518.87
920.349	6473.45
920.66	6483.16
920.971	6445.42
921.282	6395.93
921.593	6339.66
921.903	6350.51
922.214	6333.34
922.525	6263.28
922.835	6294.02
923.146	6234.36
923.456	6218.99
923.767	6158.2
924.077	6184.87
924.387	6190.29
924.697	6175.6
925.008	6070.52
925.318	6086.56
925.628	6067.13
925.938	6074.36
926.248	6008.6
926.558	6017.41
926.867	5979
927.177	5918.88
927.487	5878.88
927.796	5803.63
928.106	5843.41
928.416	5831.65
928.725	5815.61
929.034	5781.49
929.344	5775.38
929.653	5740.13
929.962	5704.43
930.271	5678.21
930.581	5626.01
930.89	5626.91
931.199	5581.27
931.508	5573.58
931.817	5608.61
932.125	5566.35
932.434	5546.69
932.743	5460.14
933.051	5469.18
933.36	5449.52
933.669	5424.21
933.977	5404.55
934.286	5377.43
934.594	5394.38
934.902	5330.65
935.21	5333.59
935.519	5314.15
935.827	5256.98
936.135	5247.72
936.443	5201.84
936.751	5198
937.059	5161.16
937.367	5174.95
937.674	5194.84
937.982	5133.82
938.29	5120.03
938.597	5151.9
938.905	5050.43
939.213	5000.49
939.52	5015.86
939.827	5003.88
940.135	4951.45
940.442	4920.49
940.749	4906.71
941.056	4981.96
941.363	4936.99
941.67	4880.27
941.977	4873.71
942.284	4815.18
942.591	4837.56
942.898	4816.77
943.205	4769.99
943.511	4743.32
943.818	4803.43
944.125	4728.86
944.431	4661.29
944.738	4693.15
945.044	4673.27
945.35	4644.57
945.657	4591.91
945.963	4554.85
946.269	4587.17
946.575	4560.95
946.881	4525.02
947.187	4528.86
947.493	4498.13
947.799	4453.61
948.105	4421.07
948.41	4427.85
948.716	4435.53
949.022	4345.14
949.327	4386.27
949.633	4337.23
949.938	4344.01
950.244	4334.29
950.549	4281.86
950.854	4266.27
951.16	4245.26
951.465	4212.94
951.77	4244.58
952.075	4228.76
952.38	4216.56
952.685	4212.49
952.99	4132.49
953.294	4139.95
953.599	4129.33
953.904	4098.59
954.209	4085.49
954.513	4044.36
954.818	4043.68
955.122	3996.22
955.426	4008.2
955.731	4024.02
956.035	3948.54
956.339	3974.08
956.643	3935.66
956.948	3942.66
957.252	3894.53
957.556	3901.08
957.86	3923.68
958.163	3842.55
958.467	3867.19
958.771	3857.02
959.075	3820.63
959.378	3836.45
959.682	3715.78
959.985	3825.83
960.289	3821.54
960.592	3753.29
960.896	3750.35
961.199	3717.13
961.502	3722.33
961.805	3687.08
962.108	3685.5
962.411	3646.85
962.714	3623.35
963.017	3602.56
963.32	3645.95
963.623	3603.24
963.926	3578.38
964.228	3565.5
964.531	3544.48
964.833	3568.44
965.136	3494.31
965.438	3488.21
965.741	3467.42
966.043	3447.76
966.345	3452.51
966.648	3452.06
966.95	3379.06
967.252	3361.44
967.554	3371.83
967.856	3352.85
968.158	3341.32
968.46	3323.92
968.761	3345.17
969.063	3277.37
969.365	3285.05
969.666	3267.2
969.968	3251.61
970.269	3244.6
970.571	3269.01
970.872	3285.05
971.174	3224.49
971.475	3233.08
971.776	3201.22
972.077	3169.13
972.378	3150.6
972.679	3158.05
972.98	3103.82
973.281	3132.74
973.582	3112.86
973.883	3102.69
974.183	3063.82
974.484	3056.81
974.785	3046.19
975.085	3031.05
975.386	3024.27
975.686	3032.63
975.986	3003.93
976.287	2995.12
976.587	2985.85
976.887	2973.42
977.187	2975.91
977.487	2938.4
977.787	2907.44
978.087	2897.49
978.387	2883.48
978.687	2896.14
978.987	2871.28
979.286	2841.45
979.586	2828.34
979.885	2796.71
980.185	2788.8
980.484	2812.52
980.784	2787.67
981.083	2798.29
981.382	2773.88
981.682	2728.01
981.981	2756.71
982.28	2713.77
982.579	2740.89
982.878	2693.66
983.177	2676.48
983.475	2694.56
983.774	2662.47
984.073	2650.95
984.372	2664.96
984.67	2605.98
984.969	2646.2
985.267	2625.19
985.566	2604.85
985.864	2554.23
986.162	2586.77
986.461	2561.91
986.759	2566.2
987.057	2537.5
987.355	2516.26
987.653	2534.34
987.951	2510.16
988.249	2484.17
988.547	2507.67
988.844	2471.97
989.142	2480.78
989.44	2442.82
989.737	2464.51
990.035	2416.6
990.332	2405.98
990.63	2408.92
990.927	2389.03
991.224	2376.15
991.521	2393.55
991.819	2344.51
992.116	2367.79
992.413	2337.96
992.71	2309.71
993.006	2315.59
993.303	2302.71
993.6	2269.94
993.897	2278.98
994.193	2291.86
994.49	2257.96
994.787	2259.55
995.083	2237.4
995.379	2239.88
995.676	2236.72
995.972	2229.04
996.268	2221.35
996.565	2198.53
996.861	2181.13
997.157	2152.88
997.453	2186.33
997.749	2127.57
998.044	2183.16
998.34	2131.41
998.636	2122.37
998.932	2129.38
999.227	2082.83
999.523	2111.07
999.818	2080.57
1000.114	2080.11
1000.409	2043.51
1000.704	2041.25
1001	2003.05
1001.295	2012.32
1001.59	2016.16
1001.885	2007.8
1002.18	1967.8
1002.475	1999.89
1002.77	1961.25
1003.065	1951.08
1003.359	1913.79
1003.654	1935.26
1003.949	1923.73
1004.243	1933
1004.538	1925.09
1004.832	1886.9
1005.127	1886.45
1005.421	1846.9
1005.715	1865.66
1006.009	1860.91
1006.304	1847.8
1006.598	1820.69
1006.892	1815.94
1007.186	1807.58
1007.48	1799.22
1007.773	1794.47
1008.067	1786.11
1008.361	1769.39
1008.655	1748.6
1008.948	1728.94
1009.242	1754.7
1009.535	1732.55
1009.829	1707.47
1010.122	1717.86
1010.415	1699.33
1010.708	1676.74
1011.001	1663.63
1011.295	1629.28
1011.588	1655.72
1011.881	1657.98
1012.173	1671.99
1012.466	1641.03
1012.759	1632.22
1013.052	1643.29
1013.344	1622.5
1013.637	1601.94
1013.93	1599.9
1014.222	1559.22
1014.514	1552.45
1014.807	1565.33
1015.099	1602.16
1015.391	1531.2
1015.683	1553.8
1015.976	1540.24
1016.268	1515.84
1016.56	1509.96
1016.851	1499.11
1017.143	1511.99
1017.435	1489.85
1017.727	1460.02
1018.018	1451.2
1018.31	1437.19
1018.602	1435.39
1018.893	1444.88
1019.185	1429.28
1019.476	1434.48
1019.767	1422.96
1020.058	1397.65
1020.35	1372.34
1020.641	1375.95
1020.932	1368.04
1021.223	1333.69
1021.514	1380.92
1021.804	1341.15
1022.095	1327.37
1022.386	1328.04
1022.677	1334.37
1022.967	1323.98
1023.258	1274.71
1023.548	1300.25
1023.839	1287.59
1024.129	1297.99
1024.419	1303.86
1024.709	1281.72
1025	1241.94
1025.29	1240.81
1025.58	1213.47
1025.87	1239.91
1026.16	1187.71
1026.449	1238.1
1026.739	1202.62
1027.029	1228.61
1027.319	1198.56
1027.608	1168.73
1027.898	1177.54
1028.187	1192.68
1028.477	1166.69
1028.766	1146.81
1029.055	1138.67
1029.344	1126.69
1029.634	1127.37
1029.923	1101.38
1030.212	1123.98
1030.501	1128.5
1030.79	1092.12
1031.078	1142.29
1031.367	1097.54
1031.656	1070.65
1031.945	1056.86
1032.233	1075.62
1032.522	1050.76
1032.81	1029.52
1033.099	1027.26
1033.387	1057.99
1033.675	1031.33
1033.963	1032.46
1034.251	1046.92
1034.54	1016.64
1034.828	1008.73
1035.116	1019.8
1035.403	1009.18
1035.691	978.9
1035.979	989.97
1036.267	990.2
1036.554	972.8
1036.842	983.42
1037.129	967.6
1037.417	970.31
1037.704	946.36
1037.992	931.44
1038.279	932.57
1038.566	917.89
1038.853	917.89
1039.14	917.89
