Data from hue_210_FLMS001491_00019.txt Node
Date: Tue Feb 07 16:40:50 GMT 2017
User: dcchb
Spectrometer: FLMS00149
Trigger mode: 0
Integration Time (sec): 2.000000E-2
Scans to average: 10
Electric dark correction enabled: true
Nonlinearity correction enabled: false
Boxcar width: 0
XAxis mode: Wavelengths
Number of Pixels in Spectrum: 2048
>>>>>Begin Spectral Data<<<<<
341.393	-7.82
341.776	-7.82
342.16	-7.82
342.543	-67.48
342.927	-65.9
343.31	-81.04
343.693	-83.75
344.077	-63.19
344.46	-50.31
344.843	-54.38
345.226	-34.26
345.61	-20.93
345.993	-24.55
346.376	-15.73
346.759	10.03
347.142	39.86
347.525	35.11
347.908	58.16
348.291	82.57
348.674	86.18
349.057	116.24
349.44	100.42
349.823	130.02
350.206	168.22
350.588	185.84
350.971	203.02
351.354	228.33
351.737	227.65
352.119	259.96
352.502	246.86
352.884	246.86
353.267	275.33
353.65	282.56
354.032	293.86
354.414	295.67
354.797	287.53
355.179	300.42
355.562	328.89
355.944	346.06
356.326	316.69
356.709	331.6
357.091	332.28
357.473	325.27
357.855	308.1
358.238	330.47
358.62	321.43
359.002	339.06
359.384	349.23
359.766	337.25
360.148	331.15
360.53	330.02
360.912	331.38
361.294	339.74
361.676	344.03
362.057	339.06
362.439	319.62
362.821	312.39
363.203	312.84
363.584	332.51
363.966	308.1
364.348	336.12
364.729	307.87
365.111	306.52
365.493	330.25
365.874	314.65
366.256	298.38
366.637	326.4
367.019	300.42
367.4	297.25
367.781	313.97
368.163	300.19
368.544	281.89
368.925	290.47
369.306	305.61
369.688	295.22
370.069	336.8
370.45	306.52
370.831	304.94
371.212	302.45
371.593	306.97
371.974	294.09
372.355	308.55
372.736	332.51
373.117	307.65
373.498	324.37
373.879	316.46
374.26	331.38
374.641	301.09
375.021	319.85
375.402	314.43
375.783	310.81
376.163	310.81
376.544	328.44
376.925	316.46
377.305	331.38
377.686	320.53
378.066	308.1
378.447	328.89
378.827	329.12
379.208	335.22
379.588	319.17
379.968	338.15
380.349	319.17
380.729	308.55
381.109	320.75
381.489	335.44
381.87	322.34
382.25	312.17
382.63	331.6
383.01	339.28
383.39	309
383.77	335.67
384.15	337.48
384.53	314.2
384.91	346.29
385.29	334.77
385.67	337.93
386.049	359.62
386.429	353.3
386.809	361.43
387.189	345.39
387.568	363.47
387.948	363.69
388.328	350.36
388.707	366.4
389.087	375.44
389.466	346.06
389.846	377.02
390.225	353.3
390.605	376.57
390.984	362.79
391.363	366.85
391.743	358.95
392.122	350.36
392.501	359.4
392.881	379.51
393.26	356.91
393.639	376.57
394.018	382.22
394.397	384.93
394.776	403.69
395.155	380.19
395.534	374.09
395.913	398.94
396.292	413.63
396.671	372.96
397.05	405.72
397.429	402.33
397.808	391.71
398.186	376.35
398.565	393.29
398.944	412.5
399.323	415.67
399.701	390.13
400.08	399.62
400.458	424.25
400.837	405.72
401.215	433.75
401.594	419.73
401.972	423.58
402.351	426.74
402.729	430.81
403.107	446.17
403.486	419.73
403.864	432.62
404.242	439.62
404.62	445.27
404.999	435.55
405.377	455.67
405.755	446.17
406.133	459.51
406.511	466.06
406.889	460.64
407.267	466.06
407.645	504.03
408.023	504.48
408.401	492.95
408.779	509.45
409.156	511.48
409.534	516.46
409.912	517.59
410.29	542.22
410.667	556.23
411.045	549.45
411.422	542.44
411.8	570.24
412.178	544.7
412.555	591.03
412.933	587.87
413.31	600.07
413.687	610.01
414.065	625.15
414.442	609.33
414.819	632.38
415.197	631.48
415.574	655.66
415.951	645.04
416.328	655.43
416.705	644.81
417.082	668.99
417.46	665.6
417.837	698.37
418.214	688.43
418.591	710.57
418.967	704.25
419.344	725.72
419.721	730.24
420.098	743.12
420.475	754.64
420.852	794.41
421.228	777.47
421.605	796.67
421.982	792.83
422.358	809.33
422.735	865.82
423.111	850.91
423.488	855.66
423.864	880.74
424.241	883.23
424.617	907.63
424.994	901.76
425.37	913.96
425.746	951.7
426.123	972.49
426.499	981.3
426.875	963.45
427.251	998.48
427.627	1010.45
428.003	1014.97
428.379	1017.91
428.756	1044.13
429.132	1069.44
429.507	1089.77
429.883	1068.08
430.259	1090
430.635	1125.7
431.011	1111.92
431.387	1149.66
431.763	1152.82
432.138	1172.94
432.514	1199.83
432.89	1191.01
433.265	1226.95
433.641	1253.84
434.016	1270.33
434.392	1288.86
434.767	1344.23
435.143	1343.33
435.518	1378.35
435.894	1352.59
436.269	1402.53
436.644	1432.82
437.02	1442.98
437.395	1488.63
437.77	1519.59
438.145	1536.32
438.52	1511.23
438.895	1571.34
439.271	1594.17
439.646	1664.22
440.021	1662.87
440.395	1670.1
440.77	1666.03
441.145	1654.96
441.52	1745.35
441.895	1734.95
442.27	1752.58
442.645	1762.75
443.019	1799.81
443.394	1827.16
443.769	1832.8
444.143	1851.11
444.518	1896.98
444.892	1864.67
445.267	1913.25
445.641	1927.49
446.016	1936.31
446.39	1952.8
446.764	1963.87
447.139	1946.47
447.513	1982.41
447.887	2009.3
448.262	2015.62
448.636	2023.53
449.01	2061.05
449.384	2073.02
449.758	2086.58
450.132	2097.88
450.506	2156.86
450.88	2137.66
451.254	2118.67
451.628	2174.94
452.002	2192.57
452.376	2203.19
452.75	2263.3
453.123	2236.18
453.497	2291.78
453.871	2291.32
454.244	2334.71
454.618	2369.51
454.992	2384.43
455.365	2426.01
455.739	2446.8
456.112	2459.46
456.486	2489.51
456.859	2527.48
457.232	2540.36
457.606	2575.84
457.979	2569.73
458.352	2651.54
458.725	2657.42
459.099	2687.02
459.472	2715.04
459.845	2727.24
460.218	2747.36
460.591	2799.11
460.964	2789.84
461.337	2905.55
461.71	2916.62
462.083	2951.87
462.456	2929.73
462.829	2978.99
463.201	3019.21
463.574	3007.46
463.947	3084.75
464.32	3168.36
464.692	3184.41
465.065	3158.65
465.438	3195.03
465.81	3275.48
466.183	3258.08
466.555	3361.8
466.928	3420.79
467.3	3353.89
467.672	3394.57
468.045	3495.81
468.417	3512.08
468.789	3564.74
469.161	3567.67
469.534	3644.28
469.906	3735.13
470.278	3732.64
470.65	3792.3
471.022	3828.23
471.394	3897.38
471.766	3911.85
472.138	3974.22
472.51	4020.32
472.882	4077.49
473.253	4106.42
473.625	4193.87
473.997	4260.99
474.369	4300.54
474.74	4311.84
475.112	4425.51
475.484	4411.72
475.855	4529.46
476.227	4594.77
476.598	4661.21
476.97	4712.96
477.341	4772.84
477.713	4861.2
478.084	4845.16
478.455	5001.99
478.827	5064.58
479.198	5164.69
479.569	5150.91
479.94	5276.1
480.311	5311.58
480.682	5396.55
481.053	5485.36
481.424	5594.74
481.795	5642.87
482.166	5715.64
482.537	5771.01
482.908	5887.84
483.279	5933.04
483.65	6028.85
484.021	6122.64
484.391	6125.35
484.762	6241.28
485.133	6299.58
485.503	6380.03
485.874	6454.83
486.244	6533.47
486.615	6622.74
486.985	6657.08
487.356	6733.92
487.726	6841.71
488.097	6949.05
488.467	6971.65
488.837	7103.85
489.207	7162.83
489.578	7252.1
489.948	7365.77
490.318	7452.77
490.688	7428.59
491.058	7515.37
491.428	7592.2
491.798	7690.5
492.168	7739.77
492.538	7836.49
492.908	7923.94
493.278	7953.1
493.648	7966.2
494.017	8049.36
494.387	8120.78
494.757	8161.23
495.126	8283.03
495.496	8262.24
495.866	8290.71
496.235	8388.56
496.605	8389.02
496.974	8442.35
497.344	8471.73
497.713	8526.64
498.082	8594.89
498.452	8665.39
498.821	8626.98
499.19	8631.27
499.559	8715.56
499.928	8795.56
500.298	8877.82
500.667	8902.68
501.036	8785.16
501.405	8948.1
501.774	8894.77
502.143	8988.55
502.512	8997.36
502.88	9047.76
503.249	9080.98
503.618	9038.94
503.987	9088.43
504.356	9100.18
504.724	9194.65
505.093	9116.46
505.462	9147.87
505.83	9222.67
506.199	9277.81
506.567	9360.97
506.936	9369.33
507.304	9445.94
507.672	9478.71
508.041	9480.51
508.409	9530.91
508.777	9527.97
509.145	9597.12
509.514	9501.53
509.882	9555.77
510.25	9612.04
510.618	9577.23
510.986	9579.27
511.354	9644.35
511.722	9762.54
512.09	9708.76
512.458	9689.55
512.826	9759.15
513.193	9760.73
513.561	9788.98
513.929	9838.47
514.297	9870.56
514.664	9881.18
515.032	9892.48
515.4	9935.64
515.767	9927.28
516.135	9957.34
516.502	9840.28
516.869	9919.37
517.237	9957.79
517.604	9903.55
517.972	9920.05
518.339	10017
518.706	10017.67
519.073	9988.97
519.44	10055.19
519.808	10038.69
520.175	10028.07
520.542	10113.27
520.909	10133.83
521.276	10047.28
521.643	10039.14
522.009	10080.95
522.376	10157.11
522.743	10158.91
523.11	10216.99
523.477	10280.04
523.843	10229.42
524.21	10324.11
524.577	10296.76
524.943	10287.5
525.31	10298.57
525.676	10318.01
526.043	10302.86
526.409	10242.08
526.776	10336.76
527.142	10284.79
527.508	10294.73
527.874	10325.01
528.241	10356.2
528.607	10371.11
528.973	10380.6
529.339	10358.91
529.705	10363.2
530.071	10383.09
530.437	10357.78
530.803	10344.22
531.169	10346.93
531.535	10253.83
531.901	10307.61
532.267	10238.01
532.632	10327.04
532.998	10202.98
533.364	10291.57
533.73	10247.95
534.095	10261.51
534.461	10245.69
534.826	10196.2
535.192	10219.48
535.557	10204.79
535.923	10153.49
536.288	10125.92
536.653	10144.45
537.019	10111.91
537.384	10101.97
537.749	10043.44
538.114	10000.5
538.479	10034.4
538.845	10061.29
539.21	9929.77
539.575	9920.73
539.94	9907.17
540.305	9921.18
540.67	9880.95
541.034	9855.42
541.399	9786.72
541.764	9767.06
542.129	9725.25
542.494	9729.77
542.858	9690.9
543.223	9579.49
543.587	9705.82
543.952	9622.2
544.316	9585.82
544.681	9507.41
545.045	9562.32
545.41	9527.52
545.774	9519.61
546.138	9498.82
546.503	9463.11
546.867	9438.71
547.231	9487.97
547.595	9385.83
547.959	9333.17
548.324	9236
548.688	9287.07
549.052	9305.38
549.416	9256.56
549.779	9154.19
550.143	9194.42
550.507	9153.74
550.871	9180.63
551.235	9128.21
551.599	9108.55
551.962	9100.86
552.326	9039.4
552.689	9062.45
553.053	9002.56
553.417	9011.37
553.78	9018.15
554.143	8951.94
554.507	9021.54
554.87	8899.29
555.234	8964.37
555.597	8843.24
555.96	8851.15
556.323	8850.25
556.686	8898.61
557.05	8848.44
557.413	8866.97
557.776	8782.23
558.139	8835.78
558.502	8824.94
558.865	8772.06
559.228	8839.85
559.59	8793.98
559.953	8702
560.316	8816.35
560.679	8754.2
561.041	8801.44
561.404	8786.29
561.767	8872.62
562.129	8747.43
562.492	8853.86
562.854	8787.2
563.217	8732.74
563.579	8780.64
563.941	8819.97
564.304	8822.23
564.666	8819.06
565.028	8763.24
565.39	8800.76
565.753	8871.94
566.115	8844.6
566.477	8840.08
566.839	8882.34
567.201	8863.13
567.563	8906.74
567.925	8878.5
568.287	8881.66
568.648	8898.83
569.01	8878.04
569.372	8914.43
569.734	8934.09
570.095	8918.49
570.457	8946.97
570.819	8983.8
571.18	8918.95
571.542	9010.92
571.903	8937.93
572.265	9019.96
572.626	8926.4
572.987	9001.66
573.349	8984.48
573.71	9036.23
574.071	9060.64
574.432	9043.01
574.794	9101.31
575.155	9104.93
575.516	9029.68
575.877	9096.12
576.238	9112.16
576.599	9064.03
576.96	9070.58
577.32	9056.8
577.681	9134.76
578.042	9153.97
578.403	9132.95
578.763	9143.35
579.124	9151.93
579.485	9183.8
579.845	9182.44
580.206	9130.92
580.566	9123.01
580.927	9231.48
581.287	9250.69
581.648	9220.18
582.008	9300.86
582.368	9188.32
582.728	9273.51
583.089	9254.98
583.449	9288.65
583.809	9279.16
584.169	9270.35
584.529	9259.05
584.889	9321.2
585.249	9344.7
585.609	9213.18
585.969	9353.74
586.329	9273.74
586.688	9306.96
587.048	9307.18
587.408	9271.48
587.768	9294.98
588.127	9257.47
588.487	9278.26
588.846	9378.14
589.206	9281.65
589.565	9334.98
589.925	9328.43
590.284	9323.23
590.643	9359.84
591.003	9381.31
591.362	9358.93
591.721	9363.23
592.08	9368.43
592.44	9337.47
592.799	9395.09
593.158	9365.94
593.517	9384.92
593.876	9402.32
594.235	9363
594.593	9356
594.952	9312.38
595.311	9373.85
595.67	9362.32
596.029	9440.29
596.387	9472.38
596.746	9494.07
597.104	9393.06
597.463	9376.34
597.822	9348.99
598.18	9368.43
598.538	9355.77
598.897	9427.18
599.255	9363.91
599.613	9543.56
599.972	9406.17
600.33	9418.82
600.688	9412.49
601.046	9405.71
601.404	9419.95
601.762	9418.59
602.12	9491.13
602.478	9407.75
602.836	9482.32
603.194	9405.49
603.552	9458.82
603.91	9377.01
604.268	9369.33
604.625	9393.96
604.983	9452.27
605.341	9403.91
605.698	9480.51
606.056	9473.06
606.413	9506.5
606.771	9493.62
607.128	9503.56
607.485	9467.18
607.843	9476.22
608.2	9484.81
608.557	9548.76
608.914	9520.74
609.272	9509.21
609.629	9571.13
609.986	9592.6
610.343	9524.81
610.7	9550.57
611.057	9521.42
611.414	9548.76
611.771	9571.81
612.127	9616.1
612.484	9594.63
612.841	9591.02
613.198	9543.56
613.554	9582.43
613.911	9590.34
614.267	9549.21
614.624	9555.54
614.98	9683.67
615.337	9616.1
615.693	9678.7
616.05	9641.64
616.406	9663.79
616.762	9665.14
617.118	9715.54
617.475	9689.55
617.831	9677.12
618.187	9666.05
618.543	9685.03
618.899	9725.7
619.255	9687.51
619.611	9761.64
619.967	9713.05
620.323	9783.1
620.678	9755.99
621.034	9704.01
621.39	9704.24
621.746	9617.23
622.101	9816.1
622.457	9779.04
622.812	9764.57
623.168	9733.61
623.523	9751.92
623.879	9799.6
624.234	9661.98
624.589	9766.61
624.945	9758.25
625.3	9725.03
625.655	9717.57
626.01	9788.98
626.365	9756.21
626.72	9765.03
627.075	9794.4
627.43	9709.89
627.785	9707.4
628.14	9617.68
628.495	9759.15
628.85	9713.73
629.205	9694.97
629.559	9735.87
629.914	9714.18
630.269	9732.94
630.623	9697
630.978	9571.13
631.332	9685.71
631.687	9696.78
632.041	9645.25
632.396	9690.9
632.75	9612.71
633.104	9614.97
633.459	9525.48
633.813	9572.71
634.167	9545.14
634.521	9548.76
634.875	9581.3
635.229	9569.78
635.583	9506.95
635.937	9499.5
636.291	9513.51
636.645	9471.93
636.999	9499.04
637.352	9446.84
637.706	9429.44
638.06	9483.23
638.413	9421.76
638.767	9430.12
639.121	9437.8
639.474	9388.09
639.828	9359.39
640.181	9384.02
640.534	9420.85
640.888	9337.24
641.241	9318.26
641.594	9331.59
641.947	9317.58
642.301	9345.6
642.654	9305.15
643.007	9320.74
643.36	9318.48
643.713	9287.98
644.066	9355.09
644.419	9287.3
644.771	9193.97
645.124	9176.11
645.477	9141.54
645.83	9032.62
646.182	8986.74
646.535	8995.78
646.888	9047.3
647.24	9053.18
647.593	9018.83
647.945	9005.5
648.298	8902.22
648.65	8932.28
649.002	8887.31
649.355	9023.35
649.707	8965.5
650.059	8994.88
650.411	9114.2
650.763	9135.21
651.115	9242.33
651.467	9228.32
651.819	9186.74
652.171	9181.31
652.523	9129.79
652.875	9123.01
653.227	9092.5
653.578	9195.78
653.93	9204.81
654.282	9107.87
654.633	9127.75
654.985	9181.76
655.337	9236
655.688	9170.24
656.039	9201.2
656.391	9147.64
656.742	9196.45
657.094	9246.85
657.445	9223.57
657.796	9150.58
658.147	9156
658.498	9231.71
658.849	9214.08
659.2	9129.56
659.551	9175.44
659.902	9223.35
660.253	9184.93
660.604	9208.88
660.955	9153.97
661.306	9181.31
661.656	9209.33
662.007	9195.78
662.358	9238.94
662.708	9186.28
663.059	9216.34
663.409	9175.44
663.76	9205.72
664.11	9246.62
664.461	9133.86
664.811	9203.01
665.161	9207.53
665.511	9147.19
665.862	9195.78
666.212	9185.38
666.562	9271.48
666.912	9189.67
667.262	9182.44
667.612	9220.41
667.962	9209.56
668.312	9181.76
668.662	9242.1
669.011	9234.19
669.361	9234.19
669.711	9143.12
670.06	9198.26
670.41	9153.29
670.76	9139.96
671.109	9171.6
671.459	9118.49
671.808	9176.34
672.157	9249.56
672.507	9122.1
672.856	9100.64
673.205	9106.51
673.554	9179.96
673.904	9105.83
674.253	9158.26
674.602	9105.16
674.951	9010.24
675.3	8918.72
675.649	9121.65
675.998	9073.52
676.346	9121.2
676.695	9155.78
677.044	9012.28
677.393	9017.25
677.741	9024.71
678.09	9054.76
678.438	9003.24
678.787	8935.89
679.135	8982.9
679.484	8961.88
679.832	9018.38
680.181	8938.15
680.529	8957.82
680.877	8933.41
681.225	8882.56
681.573	8918.04
681.922	8899.51
682.27	8838.04
682.618	8845.28
682.966	8717.14
683.314	8821.77
683.661	8825.16
684.009	8745.62
684.357	8679.4
684.705	8722.34
685.053	8685.05
685.4	8708.1
685.748	8647.99
686.095	8598.73
686.443	8579.97
686.79	8619.97
687.138	8586.3
687.485	8581.33
687.832	8554.89
688.18	8541.78
688.527	8452.74
688.874	8455.91
689.221	8506.53
689.568	8455
689.915	8427.21
690.262	8445.96
690.609	8391.5
690.956	8384.5
691.303	8375.23
691.65	8272.86
691.997	8361.45
692.344	8218.4
692.69	8314.89
693.037	8224.73
693.383	8128.91
693.73	8156.25
694.077	8121.23
694.423	8097.95
694.769	8078.29
695.116	8069.48
695.462	8031.06
695.808	8004.62
696.155	7998.29
696.501	7928.01
696.847	7925.75
697.193	7867.45
697.539	7897.96
697.885	7788.35
698.231	7814.79
698.577	7773.21
698.923	7778.64
699.269	7716.27
699.614	7713.78
699.96	7675.36
700.306	7610.28
700.651	7640.34
700.997	7594.46
701.342	7575.48
701.688	7584.07
702.033	7455.93
702.379	7465.88
702.724	7490.74
703.069	7457.52
703.415	7406.9
703.76	7398.99
704.105	7372.09
704.45	7374.13
704.795	7343.85
705.14	7350.63
705.485	7328.25
705.83	7238.54
706.175	7240.12
706.52	7209.16
706.865	7151.54
707.209	7188.37
707.554	7173.91
707.899	7215.49
708.243	7082.61
708.588	7086.9
708.932	7050.29
709.277	7074.48
709.621	7050.52
709.966	6988.6
710.31	6978.21
710.654	6981.37
710.998	6999
711.342	6958.09
711.687	6880.81
712.031	6900.47
712.375	6854.59
712.719	6886.01
713.063	6805.56
713.407	6862.28
713.75	6836.29
714.094	6836.74
714.438	6851.66
714.782	6796.06
715.125	6756.97
715.469	6771.66
715.812	6765.56
716.156	6725.56
716.499	6711.09
716.843	6729.85
717.186	6657.76
717.53	6693.02
717.873	6737.08
718.216	6729.85
718.559	6714.94
718.902	6580.93
719.246	6612.11
719.589	6644.88
719.932	6578.89
720.275	6608.95
720.617	6608.27
720.96	6563.98
721.303	6560.82
721.646	6577.09
721.989	6566.92
722.331	6572.57
722.674	6566.01
723.016	6569.86
723.359	6532.57
723.701	6542.51
724.044	6535.96
724.386	6500.25
724.729	6529.63
725.071	6502.51
725.413	6522.4
725.755	6580.02
726.097	6481.5
726.439	6458.45
726.782	6432.68
727.124	6446.02
727.465	6462.06
727.807	6469.07
728.149	6460.93
728.491	6405.79
728.833	6390.65
729.175	6440.14
729.516	6499.57
729.858	6438.79
730.199	6500.48
730.541	6438.56
730.882	6431.78
731.224	6469.97
731.565	6414.38
731.906	6446.69
732.248	6457.54
732.589	6413.93
732.93	6434.27
733.271	6371.67
733.612	6389.3
733.953	6404.21
734.294	6408.05
734.635	6406.92
734.976	6407.15
735.317	6417.77
735.658	6443.31
735.999	6423.19
736.339	6393.36
736.68	6415.28
737.021	6462.06
737.361	6392.01
737.702	6467.49
738.042	6444.66
738.383	6440.82
738.723	6499.12
739.063	6475.62
739.404	6370.54
739.744	6496.41
740.084	6476.75
740.424	6486.92
740.764	6505.22
741.104	6526.24
741.444	6499.57
741.784	6500.48
742.124	6518.33
742.464	6569.18
742.804	6545.22
743.143	6568.27
743.483	6629.74
743.823	6646.69
744.162	6630.42
744.502	6710.87
744.841	6682.85
745.181	6780.7
745.52	6753.13
745.86	6810.3
746.199	6800.36
746.538	6748.61
746.877	6930.3
747.216	6963.52
747.556	6951.54
747.895	7000.8
748.234	7071.76
748.573	7024.31
748.911	7151.08
749.25	7129.61
749.589	7253
749.928	7334.13
750.267	7330.06
750.605	7388.59
750.944	7515.37
751.283	7558.53
751.621	7687.79
751.96	7727.57
752.298	7848.92
752.636	7878.52
752.975	8025.41
753.313	7983.6
753.651	8193.99
753.989	8250.26
754.327	8342.69
754.666	8406.19
755.004	8593.76
755.342	8657.94
755.679	8756.24
756.017	8911.94
756.355	9038.27
756.693	9069.22
757.031	9338.6
757.368	9410.91
757.706	9572.04
758.044	9653.16
758.381	9840.28
758.719	10010.44
759.056	10129.99
759.394	10365.24
759.731	10431.67
760.068	10588.73
760.405	10720.71
760.743	10905.11
761.08	11051.55
761.417	11220.35
761.754	11466.22
762.091	11561.14
762.428	11704.64
762.765	11861.69
763.102	12131.07
763.438	12298.52
763.775	12442.02
764.112	12584.84
764.449	12757.72
764.785	12918.39
765.122	13108.67
765.458	13169
765.795	13383.24
766.131	13540.07
766.467	13644.47
766.804	13790.23
767.14	14000.17
767.476	14181.41
767.812	14265.25
768.148	14461.4
768.485	14468.86
768.821	14632.24
769.157	14862.74
769.492	14943.65
769.828	15176.86
770.164	15237.65
770.5	15346.12
770.836	15416.18
771.171	15482.16
771.507	15615.04
771.842	15685.1
772.178	15854.58
772.513	15920.57
772.849	15997.4
773.184	16106.55
773.519	16286.89
773.855	16293.44
774.19	16323.5
774.525	16408.24
774.86	16664.96
775.195	16631.96
775.53	16619.53
775.865	16700.21
776.2	16714.67
776.535	16781.11
776.87	16869.92
777.205	16945.18
777.539	16975.68
777.874	17006.42
778.209	17079.64
778.543	16992.18
778.878	16991.28
779.212	17095.68
779.547	17057.26
779.881	17135
780.215	17279.18
780.55	17358.5
780.884	17261.33
781.218	17163.02
781.552	17401.66
781.886	17241.44
782.22	17347.88
782.554	17320.99
782.888	17232.85
783.222	17217.26
783.556	17216.36
783.889	17226.07
784.223	17257.71
784.557	17203.7
784.89	17296.58
785.224	17201.89
785.557	17153.31
785.891	17192.63
786.224	17221.55
786.558	17237.37
786.891	17194.66
787.224	17135
787.557	17097.49
787.891	17161.44
788.224	17197.6
788.557	17171.16
788.89	17196.69
789.223	17230.82
789.556	17075.34
789.888	17067.43
790.221	17125.96
790.554	16968.68
790.887	16982.46
791.219	16871.51
791.552	16970.26
791.884	16857.49
792.217	16824.95
792.549	16779.53
792.882	16749.7
793.214	16739.08
793.546	16864.95
793.879	16765.75
794.211	16719.42
794.543	16761.45
794.875	16638.07
795.207	16692.75
795.539	16579.76
795.871	16709.25
796.203	16548.35
796.535	16445.53
796.867	16444.4
797.198	16399.2
797.53	16483.72
797.862	16301.58
798.193	16357.62
798.525	16267.23
798.856	16326.21
799.188	16150.39
799.519	16091.87
799.85	16071.07
800.182	16027.46
800.513	16132.54
800.844	15965.31
801.175	16049.15
801.506	16008.03
801.837	15940.46
802.168	15961.47
802.499	15933.68
802.83	15850.06
803.161	15777.97
803.491	15760.35
803.822	15797.64
804.153	15780.01
804.483	15610.52
804.814	15619.34
805.145	15583.86
805.475	15579.34
805.805	15488.04
806.136	15491.88
806.466	15537.53
806.796	15562.16
807.126	15352.22
807.457	15300.47
807.787	15367.82
808.117	15277.88
808.447	15227.71
808.777	15229.74
809.107	15275.16
809.436	15231.32
809.766	15196.75
810.096	15086.69
810.426	15037.88
810.755	15149.74
811.085	14960.6
811.414	15051.21
811.744	14983.42
812.073	14864.55
812.403	14909.98
812.732	14872.91
813.061	14741.62
813.39	14837.89
813.719	14747.04
814.049	14795.63
814.378	14733.26
814.707	14676.08
815.036	14683.54
815.365	14620.94
815.693	14550.66
816.022	14599.25
816.351	14620.27
816.68	14495.52
817.008	14497.33
817.337	14394.73
817.665	14412.36
817.994	14442.19
818.322	14466.15
818.651	14378.69
818.979	14297.56
819.307	14355.64
819.636	14281.97
819.964	14251.24
820.292	14291.69
820.62	14237.68
820.948	14228.64
821.276	14290.56
821.604	14199.71
821.932	14267.28
822.259	14206.72
822.587	14267.05
822.915	14162.2
823.243	14307.73
823.57	14138.24
823.898	14213.5
824.225	14124.23
824.553	14137.57
824.88	14202.2
825.207	14208.98
825.535	14248.75
825.862	14202.42
826.189	14228.41
826.516	14272.93
826.843	14269.09
827.17	14231.8
827.497	14345.24
827.824	14309.31
828.151	14285.36
828.478	14281.52
828.805	14363.1
829.131	14244.91
829.458	14336.66
829.785	14187.73
830.111	14252.59
830.438	14286.94
830.764	14260.5
831.09	14263.89
831.417	14133.05
831.743	14287.84
832.069	14267.73
832.395	14226.38
832.722	14216.66
833.048	14174.85
833.374	14237
833.7	14167.17
834.026	14244.46
834.351	14160.39
834.677	14198.13
835.003	14141.18
835.329	14101.18
835.654	14112.71
835.98	14084.69
836.306	14026.16
836.631	14072.48
836.956	14081.52
837.282	14060.73
837.607	13998.36
837.932	14002.43
838.258	13977.12
838.583	13895.09
838.908	13869.32
839.233	13884.24
839.558	13895.99
839.883	13814.18
840.208	13771.7
840.533	13758.59
840.858	13743.68
841.182	13862.32
841.507	13731.48
841.832	13799.27
842.156	13613.06
842.481	13641.31
842.805	13605.6
843.13	13593.85
843.454	13585.26
843.778	13540.97
844.103	13511.59
844.427	13453.52
844.751	13456.91
845.075	13432.05
845.399	13426.17
845.723	13274.09
846.047	13354.08
846.371	13270.02
846.695	13296.46
847.019	13112.96
847.343	13125.62
847.666	12991.38
847.99	13009.01
848.313	12965.85
848.637	12858.05
848.96	12807.43
849.284	12814.44
849.607	12689.69
849.931	12729.02
850.254	12575.8
850.577	12576.48
850.9	12491.51
851.223	12406.09
851.546	12354.34
851.869	12345.97
852.192	12406.09
852.515	12250.38
852.838	12227.79
853.161	12220.1
853.483	12127.45
853.806	12127
854.129	12091.29
854.451	12058.3
854.774	11958.19
855.096	11951.41
855.419	11877.96
855.741	11838.42
856.063	11790.96
856.385	11792.32
856.708	11844.07
857.03	11671.42
857.352	11682.94
857.674	11668.7
857.996	11565.2
858.318	11527.24
858.64	11543.96
858.961	11541.02
859.283	11478.65
859.605	11434.81
859.926	11529.5
860.248	11404.3
860.57	11401.82
860.891	11442.5
861.212	11295.61
861.534	11339.45
861.855	11271.88
862.176	11229.85
862.498	11257.19
862.819	11202.5
863.14	11174.93
863.461	11144.88
863.782	11154.37
864.103	11134.93
864.424	11112.11
864.745	11092.22
865.065	11100.36
865.386	10972.23
865.707	10959.34
866.027	11011.55
866.348	11004.77
866.668	11061.26
866.989	10943.3
867.309	10837.09
867.63	10912.79
867.95	10899.46
868.27	10883.64
868.59	10775.39
868.91	10882.28
869.23	10708.28
869.55	10708.5
869.87	10811.33
870.19	10777.43
870.51	10750.76
870.83	10732.68
871.15	10746.24
871.469	10716.41
871.789	10620.14
872.109	10721.84
872.428	10599.81
872.748	10628.96
873.067	10657.66
873.386	10635.74
873.706	10599.35
874.025	10502.41
874.344	10512.8
874.663	10582.18
874.982	10461.73
875.301	10510.54
875.62	10434.16
875.939	10441.39
876.258	10489.75
876.577	10390.32
876.896	10392.13
877.214	10356.87
877.533	10435.29
877.852	10342.41
878.17	10350.55
878.489	10360.04
878.807	10331.56
879.125	10313.03
879.444	10266.48
879.762	10233.26
880.08	10292.7
880.398	10277.1
880.716	10190.78
881.034	10184
881.352	10147.61
881.67	10151.68
881.988	10126.37
882.306	10096.99
882.624	10068.29
882.941	10047.73
883.259	10088.86
883.577	9985.81
883.894	9906.26
884.212	9912.14
884.529	10010.44
884.846	9934.29
885.164	9903.1
885.481	9868.98
885.798	9854.29
886.115	9790.56
886.432	9805.02
886.75	9782.65
887.067	9714.18
887.383	9719.83
887.7	9727.29
888.017	9729.32
888.334	9687.29
888.651	9690.9
888.967	9638.48
889.284	9617.46
889.6	9602.32
889.917	9475.99
890.233	9525.26
890.55	9429.22
890.866	9480.06
891.182	9437.12
891.498	9394.41
891.815	9434.41
892.131	9387.86
892.447	9326.39
892.763	9278.94
893.079	9278.48
893.395	9200.52
893.71	9224.47
894.026	9176.34
894.342	9185.61
894.657	9125.04
894.973	9123.69
895.289	9113.97
895.604	9019.28
895.92	9028.55
896.235	8891.38
896.55	8953.52
896.865	8894.54
897.181	8869
897.496	8886.63
897.811	8809.34
898.126	8843.24
898.441	8775.45
898.756	8735.22
899.071	8705.84
899.386	8639.63
899.7	8607.77
900.015	8567.09
900.33	8495.45
900.644	8469.69
900.959	8488.9
901.273	8448.22
901.588	8408
901.902	8398.28
902.216	8316.93
902.531	8380.88
902.845	8320.54
903.159	8213.43
903.473	8247.78
903.787	8197.61
904.101	8143.37
904.415	8138.63
904.729	8140.66
905.042	8075.35
905.356	8066.77
905.67	7975.47
905.984	7974.56
906.297	7988.35
906.611	7890.95
906.924	7922.59
907.237	7862.48
907.551	7836.49
907.864	7784.29
908.177	7798.98
908.491	7793.1
908.804	7723.95
909.117	7618.64
909.43	7540.23
909.743	7587.23
910.056	7589.94
910.368	7531.86
910.681	7512.66
910.994	7498.64
911.307	7530.51
911.619	7399.66
911.932	7436.5
912.244	7396.95
912.557	7328.93
912.869	7298.88
913.181	7284.19
913.494	7289.38
913.806	7208.93
914.118	7206.45
914.43	7162.61
914.742	7192.66
915.054	7057.75
915.366	7054.81
915.678	7028.83
915.99	7035.83
916.302	6948.83
916.613	6880.58
916.925	6963.29
917.236	6938.89
917.548	6868.15
917.859	6888.49
918.171	6813.01
918.482	6765.56
918.794	6751.77
919.105	6728.27
919.416	6655.95
919.727	6702.96
920.038	6682.62
920.349	6628.39
920.66	6596.52
920.971	6573.47
921.282	6547.48
921.593	6485.79
921.903	6477.2
922.214	6457.99
922.525	6370.31
922.835	6435.4
923.146	6390.65
923.456	6414.83
923.767	6325.57
924.077	6319.47
924.387	6340.48
924.697	6253.25
925.008	6217.55
925.318	6200.15
925.628	6158.34
925.938	6149.3
926.248	6109.98
926.558	6116.53
926.867	6109.3
927.177	6043.77
927.487	6039.02
927.796	5996.99
928.106	5976.88
928.416	5947.95
928.725	5946.6
929.034	5934.39
929.344	5922.87
929.653	5905.24
929.962	5828.18
930.271	5792.7
930.581	5819.14
930.89	5761.52
931.199	5748.41
931.508	5720.16
931.817	5717.67
932.125	5703.66
932.434	5594.51
932.743	5635.19
933.051	5624.57
933.36	5598.36
933.669	5534.18
933.977	5526.95
934.286	5517.45
934.594	5529.66
934.902	5488.75
935.21	5461.41
935.519	5422.54
935.827	5447.17
936.135	5444.69
936.443	5313.17
936.751	5312.04
937.059	5285.82
937.367	5267.06
937.674	5316.78
937.982	5274.52
938.29	5212.6
938.597	5227.97
938.905	5166.05
939.213	5162.89
939.52	5125.15
939.827	5133.06
940.135	5067.3
940.442	5078.14
940.749	5108.2
941.056	5042.66
941.363	4991.59
941.67	4958.82
941.977	4903.46
942.284	4952.72
942.591	4898.04
942.898	4874.53
943.205	4898.94
943.511	4867.3
943.818	4846.74
944.125	4812.16
944.431	4801.09
944.738	4824.36
945.044	4791.15
945.35	4719.73
945.657	4689.68
945.963	4666.63
946.269	4667.31
946.575	4644.03
946.881	4668.66
947.187	4617.82
947.493	4632.28
947.799	4594.54
948.105	4558.83
948.41	4578.27
948.716	4538.27
949.022	4503.02
949.327	4455.33
949.633	4397.71
949.938	4441.1
950.244	4440.19
950.549	4410.14
950.854	4394.55
951.16	4383.92
951.465	4346.41
951.77	4326.07
952.075	4286.07
952.38	4295.11
952.685	4304.38
952.99	4232.74
953.294	4233.65
953.599	4218.5
953.904	4162.01
954.209	4183.03
954.513	4180.31
954.818	4131.28
955.122	4147.09
955.426	4094.67
955.731	4115.46
956.035	4086.3
956.339	4051.05
956.643	4020.32
956.948	4015.57
957.252	4023.26
957.556	3982.8
957.86	3981.67
958.163	3989.58
958.467	3926.99
958.771	3943.26
959.075	3884.05
959.378	3849.93
959.682	3870.72
959.985	3853.54
960.289	3838.63
960.592	3841.57
960.896	3759.08
961.199	3776.93
961.502	3785.75
961.805	3821.68
962.108	3741.68
962.411	3768.57
962.714	3733.09
963.017	3691.97
963.32	3711.4
963.623	3645.86
963.926	3656.26
964.228	3596.83
964.531	3604.06
964.833	3569.03
965.136	3585.75
965.438	3574.23
965.741	3524.29
966.043	3550.5
966.345	3500.33
966.648	3512.53
966.95	3464.85
967.252	3484.96
967.554	3458.98
967.856	3435.25
968.158	3399.09
968.46	3424.4
968.761	3378.53
969.063	3425.98
969.365	3380.79
969.666	3351.41
969.968	3340.34
970.269	3322.48
970.571	3319.77
970.872	3312.77
971.174	3305.99
971.475	3304.86
971.776	3272.99
972.077	3261.47
972.378	3266.44
972.679	3214.46
972.98	3222.37
973.281	3205.88
973.582	3177.63
973.883	3122.26
974.183	3164.07
974.484	3133.79
974.785	3116.84
975.085	3122.49
975.386	3129.27
975.686	3053.79
975.986	3066.9
976.287	3070.74
976.587	3013.11
976.887	3014.69
977.187	2995.71
977.487	3024.19
977.787	2986.45
978.087	2966.79
978.387	2955.94
978.687	2933.57
978.987	2942.83
979.286	2918.65
979.586	2913.23
979.885	2908.93
980.185	2875.72
980.484	2868.94
980.784	2880.24
981.083	2856.05
981.382	2840.69
981.682	2814.47
981.981	2830.74
982.28	2803.4
982.579	2779.22
982.878	2798.43
983.177	2747.13
983.475	2752.78
983.774	2746.23
984.073	2737.41
984.372	2708.49
984.67	2675.27
984.969	2675.27
985.267	2697.87
985.566	2642.28
985.864	2623.07
986.162	2645.89
986.461	2588.49
986.759	2635.04
987.057	2590.75
987.355	2563.41
987.653	2553.46
987.951	2513.24
988.249	2545.78
988.547	2556.85
988.844	2514.14
989.142	2527.93
989.44	2515.5
989.737	2492.45
990.035	2454.94
990.332	2455.84
990.63	2472.11
990.927	2428.5
991.224	2435.27
991.521	2434.15
991.819	2399.8
992.116	2400.02
992.413	2380.36
992.71	2375.16
993.006	2354.83
993.303	2382.62
993.6	2324.54
993.897	2336.97
994.193	2341.49
994.49	2294.04
994.787	2302.4
995.083	2262.85
995.379	2287.03
995.676	2258.33
995.972	2248.84
996.268	2234.6
996.565	2253.81
996.861	2217.88
997.157	2205.22
997.453	2172.91
997.749	2180.14
998.044	2165.45
998.34	2167.94
998.636	2167.26
998.932	2151.44
999.227	2150.76
999.523	2140.14
999.818	2097.66
1000.114	2102.63
1000.409	2067.15
1000.704	2106.24
1001	2081.61
1001.295	2044.55
1001.59	2038.9
1001.885	2058.11
1002.18	2036.87
1002.475	2043.42
1002.77	2049.75
1003.065	1989.64
1003.359	2002.97
1003.654	1970.65
1003.949	1976.53
1004.243	1936.53
1004.538	1939.92
1004.832	1943.54
1005.127	1929.3
1005.421	1863.99
1005.715	1867.15
1006.009	1922.29
1006.304	1893.82
1006.598	1853.82
1006.892	1861.5
1007.186	1838.68
1007.48	1824.44
1007.773	1827.38
1008.067	1820.6
1008.361	1791.22
1008.655	1757.78
1008.948	1783.54
1009.242	1768.4
1009.535	1771.11
1009.829	1732.24
1010.122	1741.96
1010.415	1746.03
1010.708	1762.75
1011.001	1710.77
1011.295	1694.5
1011.588	1693.15
1011.881	1694.05
1012.173	1672.36
1012.466	1678.01
1012.759	1636.65
1013.052	1645.47
1013.344	1668.97
1013.637	1639.82
1013.93	1599.59
1014.222	1645.01
1014.514	1610.44
1014.807	1578.57
1015.099	1567.95
1015.391	1539.48
1015.683	1567.28
1015.976	1551
1016.268	1554.17
1016.56	1556.88
1016.851	1520.27
1017.143	1500.38
1017.435	1500.16
1017.727	1500.61
1018.018	1512.36
1018.31	1447.28
1018.602	1464.9
1018.893	1487.73
1019.185	1453.15
1019.476	1422.19
1019.767	1437.34
1020.058	1414.74
1020.35	1405.02
1020.641	1383.55
1020.932	1384.91
1021.223	1405.02
1021.514	1363.44
1021.804	1371.8
1022.095	1366.38
1022.386	1338.13
1022.677	1383.78
1022.967	1346.04
1023.258	1331.58
1023.548	1301.29
1023.839	1311.01
1024.129	1286.6
1024.419	1280.73
1024.709	1292.71
1025	1273.27
1025.29	1254.52
1025.58	1264.68
1025.87	1238.7
1026.16	1221.07
1026.449	1247.06
1026.739	1214.06
1027.029	1247.51
1027.319	1202.31
1027.608	1239.37
1027.898	1208.41
1028.187	1195.08
1028.477	1182.2
1028.766	1169.77
1029.055	1160.05
1029.344	1130
1029.634	1171.81
1029.923	1128.42
1030.212	1113.95
1030.501	1126.61
1030.79	1136.55
1031.078	1124.35
1031.367	1130.68
1031.656	1092.49
1031.945	1089.32
1032.233	1082.32
1032.522	1081.64
1032.81	1074.41
1033.099	1059.27
1033.387	1061.98
1033.675	1058.59
1033.963	1039.61
1034.251	1044.35
1034.54	1027.85
1034.828	1009.1
1035.116	1022.2
1035.403	997.35
1035.691	999.61
1035.979	984.69
1036.267	985.82
1036.554	999.15
1036.842	974.52
1037.129	969.1
1037.417	940.62
1037.704	984.01
1037.992	936.78
1038.279	955.77
1038.566	931.13
1038.853	931.13
1039.14	931.13
