Data from hue_90_FLMS001491_56.txt Node
Date: Mon Feb 06 15:25:20 GMT 2017
User: dcchb
Spectrometer: FLMS00149
Trigger mode: 0
Integration Time (sec): 2.000000E-2
Scans to average: 10
Electric dark correction enabled: true
Nonlinearity correction enabled: false
Boxcar width: 0
XAxis mode: Wavelengths
Number of Pixels in Spectrum: 2048
>>>>>Begin Spectral Data<<<<<
341.393	-9.18
341.776	-9.18
342.16	-9.18
342.543	-44.89
342.927	-60.7
343.31	-75.17
343.693	-68.61
344.077	-79.01
344.46	-50.08
344.843	-55.06
345.226	-42.17
345.61	-18.67
345.993	-20.71
346.376	-20.93
346.759	19.75
347.142	29.01
347.525	48.22
347.908	60.65
348.291	73.53
348.674	90.93
349.057	108.33
349.44	129.8
349.823	116.92
350.206	161.44
350.588	210.02
350.971	187.88
351.354	198.5
351.737	240.08
352.119	263.13
352.502	261.32
352.884	265.39
353.267	289.57
353.65	299.74
354.032	296.12
354.414	299.06
354.797	285.95
355.179	318.04
355.562	317.14
355.944	330.7
356.326	314.65
356.709	320.08
357.091	341.32
357.473	345.84
357.855	339.06
358.238	336.35
358.62	334.54
359.002	332.73
359.384	353.75
359.766	307.65
360.148	311.04
360.53	340.41
360.912	335.22
361.294	331.15
361.676	328.21
362.057	341.09
362.439	327.99
362.821	342.9
363.203	335.44
363.584	327.76
363.966	338.38
364.348	338.83
364.729	321.88
365.111	313.75
365.493	309.23
365.874	304.03
366.256	325.73
366.637	313.97
367.019	321.21
367.4	309.91
367.781	306.52
368.163	303.81
368.544	298.61
368.925	330.47
369.306	313.97
369.688	308.78
370.069	294.99
370.45	326.18
370.831	315.78
371.212	295.22
371.593	297.48
371.974	315.56
372.355	307.2
372.736	304.26
373.117	320.75
373.498	295.67
373.879	321.88
374.26	315.56
374.641	322.79
375.021	302.45
375.402	312.62
375.783	316.23
376.163	309.23
376.544	316.01
376.925	320.75
377.305	334.77
377.686	326.86
378.066	323.69
378.447	315.56
378.827	309.46
379.208	303.35
379.588	320.98
379.968	310.59
380.349	321.43
380.729	320.53
381.109	326.63
381.489	326.4
381.87	338.61
382.25	327.99
382.63	325.05
383.01	305.39
383.39	321.21
383.77	321.43
384.15	318.72
384.53	324.82
384.91	346.74
385.29	347.87
385.67	339.06
386.049	346.97
386.429	341.32
386.809	358.49
387.189	353.07
387.568	337.93
387.948	367.31
388.328	352.62
388.707	341.09
389.087	328.44
389.466	364.37
389.846	360.08
390.225	350.58
390.605	364.14
390.984	369.57
391.363	339.06
391.743	358.72
392.122	366.85
392.501	363.01
392.881	381.77
393.26	367.31
393.639	380.64
394.018	368.44
394.397	372.05
394.776	362.56
395.155	360.08
395.534	352.62
395.913	355.33
396.292	357.59
396.671	382.22
397.05	370.47
397.429	366.4
397.808	387.19
398.186	359.17
398.565	381.32
398.944	400.53
399.323	398.04
399.701	389.68
400.08	370.47
400.458	390.36
400.837	375.89
401.215	405.72
401.594	389.91
401.972	395.78
402.351	378.38
402.729	382.45
403.107	404.37
403.486	386.52
403.864	402.56
404.242	417.47
404.62	415.44
404.999	419.51
405.377	388.78
405.755	411.83
406.133	415.22
406.511	418.38
406.889	433.75
407.267	421.77
407.645	432.39
408.023	429.45
408.401	421.32
408.779	433.75
409.156	433.07
409.534	434.2
409.912	440.98
410.29	455.89
410.667	438.94
411.045	458.83
411.422	434.65
411.8	455.89
412.178	453.86
412.555	469.9
412.933	469.9
413.31	472.84
413.687	483.24
414.065	459.06
414.442	458.83
414.819	478.26
415.197	447.53
415.574	471.48
415.951	491.15
416.328	471.03
416.705	463.12
417.082	479.39
417.46	506.06
417.837	504.48
418.214	516.46
418.591	491.82
418.967	500.86
419.344	498.15
419.721	493.41
420.098	503.12
420.475	526.4
420.852	511.48
421.228	501.54
421.605	511.03
421.982	506.74
422.358	488.43
422.735	522.78
423.111	532.73
423.488	536.12
423.864	541.31
424.241	559.17
424.617	549.45
424.994	538.38
425.37	566.17
425.746	545.61
426.123	556.45
426.499	574.31
426.875	529.34
427.251	578.83
427.627	574.08
428.003	554.65
428.379	568.88
428.756	581.31
429.132	580.63
429.507	591.26
429.883	610.92
430.259	610.69
430.635	614.53
431.011	590.58
431.387	611.14
431.763	631.03
432.138	622.67
432.514	645.49
432.89	625.61
433.265	646.85
433.641	636
434.016	649.11
434.392	659.28
434.767	647.53
435.143	665.15
435.518	675.77
435.894	672.61
436.269	707.64
436.644	700.86
437.02	687.3
437.395	681.65
437.77	678.03
438.145	705.6
438.52	715.55
438.895	720.97
439.271	735.21
439.646	724.36
440.021	735.43
440.395	733.85
440.77	702.21
441.145	736.56
441.52	780.18
441.895	756.45
442.27	749.67
442.645	745.83
443.019	765.71
443.394	780.63
443.769	772.95
444.143	777.92
444.518	798.03
444.892	776.11
445.267	786.05
445.641	803.23
446.016	791.02
446.39	786.05
446.764	796.22
447.139	789.44
447.513	804.13
447.887	814.98
448.262	849.55
448.636	832.38
449.01	827.86
449.384	845.71
449.758	843
450.132	840.51
450.506	878.93
450.88	890.23
451.254	864.24
451.628	900.85
452.002	876.67
452.376	892.49
452.75	901.76
453.123	883.45
453.497	898.82
453.871	914.41
454.244	942.21
454.618	940.4
454.992	955.99
455.365	951.92
455.739	996.44
456.112	998.48
456.486	988.31
456.859	1009.78
457.232	1014.3
457.606	1013.39
457.979	1039.61
458.352	1037.12
458.725	1052.26
459.099	1089.77
459.472	1073.05
459.845	1114.63
460.218	1095.88
460.591	1103.78
460.964	1124.35
461.337	1120.73
461.71	1163.22
462.083	1199.38
462.456	1208.87
462.829	1200.28
463.201	1211.13
463.574	1245.25
463.947	1197.12
464.32	1270.33
464.692	1278.24
465.065	1305.36
465.438	1287.06
465.81	1333.83
466.183	1356.21
466.555	1357.34
466.928	1367.05
467.3	1367.96
467.672	1388.07
468.045	1452.48
468.417	1465.81
468.789	1468.29
469.161	1504.68
469.534	1524.79
469.906	1558.01
470.278	1567.28
470.65	1613.83
471.022	1620.16
471.394	1661.28
471.766	1678.23
472.138	1697.89
472.51	1753.03
472.882	1795.07
473.253	1846.82
473.625	1867.83
473.997	1904.89
474.369	1914.61
474.74	1976.53
475.112	2016.3
475.484	2037.77
475.855	2066.25
476.227	2166.13
476.598	2216.52
476.97	2278.44
477.341	2342.62
477.713	2382.39
478.084	2421.26
478.455	2490.41
478.827	2516.4
479.198	2628.26
479.569	2656.96
479.94	2796.4
480.311	2848.15
480.682	2907.35
481.053	3005.66
481.424	3063.96
481.795	3144.63
482.166	3225.54
482.537	3282.94
482.908	3389.83
483.279	3508.24
483.65	3573.78
484.021	3722.92
484.391	3786.65
484.762	3890.15
485.133	3954.33
485.503	4025.74
485.874	4162.01
486.244	4293.53
486.615	4393.42
486.985	4499.4
487.356	4594.99
487.726	4687.87
488.097	4873.63
488.467	4948.2
488.837	5041.53
489.207	5184.36
489.578	5330.11
489.948	5422.99
490.318	5583.21
490.688	5658.24
491.058	5791.12
491.428	5935.3
491.798	6041.51
492.168	6210.32
492.538	6312.01
492.908	6404.21
493.278	6537.99
493.648	6635.62
494.017	6782.28
494.387	6917.87
494.757	7002.39
495.126	7128.94
495.496	7219.56
495.866	7310.63
496.235	7471.75
496.605	7611.18
496.974	7670.39
497.344	7829.03
497.713	7849.6
498.082	8008.24
498.452	8149.93
498.821	8255.01
499.19	8278.29
499.559	8419.52
499.928	8493.65
500.298	8630.37
500.667	8706.75
501.036	8809.8
501.405	8857.93
501.774	8916.23
502.143	9072.39
502.512	9151.93
502.88	9264.47
503.249	9314.42
503.618	9387.41
503.987	9475.32
504.356	9534.75
504.724	9611.13
505.093	9620.85
505.462	9720.06
505.83	9775.19
506.199	9934.74
506.567	10090.89
506.936	10010.44
507.304	10234.84
507.672	10208.63
508.041	10350.32
508.409	10324.56
508.777	10417.89
509.145	10541.28
509.514	10496.98
509.882	10642.52
510.25	10653.59
510.618	10727.49
510.986	10734.27
511.354	10823.75
511.722	10932
512.09	10984.2
512.458	10990.98
512.826	11068.49
513.193	11053.58
513.561	11136.74
513.929	11168.38
514.297	11366.11
514.664	11293.35
515.032	11381.93
515.4	11463.51
515.767	11461.03
516.135	11506.9
516.502	11463.29
516.869	11662.83
517.237	11569.05
517.604	11551.87
517.972	11701.7
518.339	11631.42
518.706	11768.59
519.073	11776.27
519.44	11764.75
519.808	11896.27
520.175	11831.41
520.542	11960.67
520.909	12004.06
521.276	11946.44
521.643	12025.08
522.009	12098.52
522.376	12170.61
522.743	12148.47
523.11	12223.94
523.477	12240.67
523.843	12314.11
524.21	12397.5
524.577	12512.75
524.943	12405.63
525.31	12500.1
525.676	12482.24
526.043	12545.97
526.409	12535.12
526.776	12629.36
527.142	12609.24
527.508	12607.89
527.874	12677.27
528.241	12720.43
528.607	12608.11
528.973	12734.67
529.339	12718.39
529.705	12773.53
530.071	12805.85
530.437	12791.39
530.803	12832.97
531.169	12884.27
531.535	12865.06
531.901	12759.07
532.267	12894.43
532.632	12799.07
532.998	12811.95
533.364	12798.17
533.73	12817.37
534.095	12856.7
534.461	12824.15
534.826	12789.8
535.192	12792.74
535.557	12825.74
535.923	12750.71
536.288	12724.5
536.653	12778.96
537.019	12724.04
537.384	12751.84
537.749	12694.67
538.114	12673.2
538.479	12688.11
538.845	12715.23
539.21	12632.97
539.575	12715.91
539.94	12589.58
540.305	12656.02
540.67	12469.59
541.034	12566.76
541.399	12498.51
541.764	12530.38
542.129	12522.47
542.494	12470.27
542.858	12502.13
543.223	12378.97
543.587	12397.5
543.952	12407.44
544.316	12261.23
544.681	12309.82
545.045	12220.55
545.41	12265.98
545.774	12286.77
546.138	12220.33
546.503	12221.91
546.867	12202.7
547.231	12257.62
547.595	12096.49
547.959	12079.54
548.324	12129.26
548.688	12097.62
549.052	12019.66
549.416	12019.2
549.779	11942.82
550.143	11949.83
550.507	11979.88
550.871	11997.96
551.235	11897.63
551.599	11936.27
551.962	11871.86
552.326	11815.82
552.689	11884.29
553.053	11826.67
553.417	11781.47
553.78	11883.39
554.143	11744.41
554.507	11895.82
554.87	11777.63
555.234	11788.25
555.597	11648.14
555.96	11627.8
556.323	11663.73
556.686	11623.73
557.05	11757.97
557.413	11593.9
557.776	11597.97
558.139	11734.01
558.502	11647.46
558.865	11650.17
559.228	11670.74
559.59	11631.42
559.953	11638.42
560.316	11688.14
560.679	11608.59
561.041	11694.01
561.404	11740.57
561.767	11730.17
562.129	11680.91
562.492	11750.96
562.854	11728.82
563.217	11669.61
563.579	11741.92
563.941	11703.73
564.304	11760.23
564.666	11795.25
565.028	11822.82
565.39	11795.03
565.753	11852.65
566.115	11788.93
566.477	11825.76
566.839	11883.61
567.201	11849.94
567.563	11835.71
567.925	11928.13
568.287	11888.59
568.648	11895.37
569.01	11904.18
569.372	11947.57
569.734	11843.16
570.095	11926.32
570.457	12001.35
570.819	12016.27
571.18	11960.22
571.542	11974.23
571.903	11927
572.265	11980.33
572.626	12061.01
572.987	12031.41
573.349	12050.16
573.71	12085.87
574.071	12109.37
574.432	12100.78
574.794	12125.87
575.155	12072.31
575.516	12043.84
575.877	12183.72
576.238	12119.09
576.599	12198.86
576.96	12071.41
577.32	12135.81
577.681	12102.82
578.042	12162.7
578.403	12119.77
578.763	12143.72
579.124	12127.45
579.485	12173.1
579.845	12204.06
580.206	12113.66
580.566	12129.26
580.927	12161.8
581.287	12131.74
581.648	12179.43
582.008	12219.88
582.368	12212.42
582.728	12157.96
583.089	12172.19
583.449	12116.15
583.809	12119.77
584.169	12151.18
584.529	12121.57
584.889	12199.99
585.249	12073.21
585.609	11996.15
585.969	12182.14
586.329	12046.77
586.688	12168.35
587.048	12042.03
587.408	12028.47
587.768	12021.46
588.127	12020.11
588.487	12042.48
588.846	12034.57
589.206	11991.86
589.565	12002.26
589.925	11963.61
590.284	11988.92
590.643	11986.21
591.003	11988.02
591.362	12051.97
591.721	11980.33
592.08	12062.59
592.44	11988.7
592.799	12029.15
593.158	11921.58
593.517	11968.58
593.876	11990.28
594.235	11955.02
594.593	12005.87
594.952	11916.38
595.311	11886.78
595.67	11842.71
596.029	12012.42
596.387	11967
596.746	11989.15
597.104	11940.56
597.463	11830.96
597.822	11904.18
598.18	11891.3
598.538	11837.06
598.897	11915.03
599.255	11837.97
599.613	11975.59
599.972	11811.07
600.33	11983.72
600.688	11863.05
601.046	11855.82
601.404	11883.16
601.762	11883.84
602.12	11940.34
602.478	11889.04
602.836	11889.49
603.194	11844.52
603.552	11940.79
603.91	11933.33
604.268	11847
604.625	11828.7
604.983	11897.4
605.341	11811.07
605.698	11925.87
606.056	11872.09
606.413	11889.49
606.771	11952.99
607.128	11944.86
607.485	11904.4
607.843	11800.23
608.2	12019.2
608.557	12026.66
608.914	11949.83
609.272	12020.11
609.629	11966.55
609.986	11983.72
610.343	11932.2
610.7	12009.26
611.057	11991.41
611.414	11987.11
611.771	11971.07
612.127	12085.19
612.484	12070.95
612.841	12108.24
613.198	12012.42
613.554	12042.03
613.911	12135.58
614.267	12164.28
614.624	12033.89
614.98	12138.75
615.337	12155.92
615.693	12132.87
616.05	12094.23
616.406	12256.94
616.762	12152.31
617.118	12107.56
617.475	12174.91
617.831	12241.34
618.187	12252.87
618.543	12159.31
618.899	12269.37
619.255	12246.09
619.611	12223.94
619.967	12267.78
620.323	12252.42
620.678	12242.93
621.034	12197.5
621.39	12168.13
621.746	12177.39
622.101	12284.73
622.457	12253.55
622.812	12253.1
623.168	12271.4
623.523	12303.26
623.879	12254.68
624.234	12251.06
624.589	12256.26
624.945	12291.74
625.3	12253.77
625.655	12221.01
626.01	12254.23
626.365	12208.13
626.72	12263.94
627.075	12179.88
627.43	12217.84
627.785	12145.3
628.14	12237.73
628.495	12238.18
628.85	12172.42
629.205	12184.62
629.559	12211.52
629.914	12207.45
630.269	12145.98
630.623	12112.31
630.978	12066.66
631.332	12140.1
631.687	12106.43
632.041	12143.72
632.396	12104.85
632.75	12073.21
633.104	12140.1
633.459	12127.9
633.813	12037.96
634.167	11990.5
634.521	12000
634.875	12011.07
635.229	11951.41
635.583	11977.17
635.937	11976.04
636.291	11984.18
636.645	11902.37
636.999	11946.44
637.352	11951.63
637.706	11899.88
638.06	11894.01
638.413	11878.19
638.767	11814.92
639.121	11822.82
639.474	11778.98
639.828	11822.15
640.181	11875.25
640.534	11837.51
640.888	11742.37
641.241	11735.14
641.594	11792.54
641.947	11773.11
642.301	11734.24
642.654	11757.97
643.007	11675.71
643.36	11781.47
643.713	11727.69
644.066	11793.67
644.419	11682.49
644.771	11622.38
645.124	11535.37
645.477	11509.39
645.83	11427.35
646.182	11419.9
646.535	11261.48
646.888	11339
647.24	11282.05
647.593	11358.66
647.945	11250.64
648.298	11226.46
648.65	11233.24
649.002	11247.02
649.355	11220.58
649.707	11270.52
650.059	11228.94
650.411	11452.44
650.763	11481.82
651.115	11513
651.467	11510.52
651.819	11550.29
652.171	11484.75
652.523	11482.95
652.875	11516.17
653.227	11452.66
653.578	11531.53
653.93	11542.83
654.282	11468.26
654.633	11411.31
654.985	11476.62
655.337	11449.95
655.688	11499.9
656.039	11580.12
656.391	11444.76
656.742	11495.6
657.094	11450.41
657.445	11502.16
657.796	11479.78
658.147	11472.1
658.498	11518.88
658.849	11487.24
659.2	11490.86
659.551	11540.12
659.902	11500.35
660.253	11589.16
660.604	11545.09
660.955	11502.38
661.306	11607.46
661.656	11594.58
662.007	11577.63
662.358	11596.39
662.708	11529.73
663.059	11619.21
663.409	11545.77
663.76	11590.06
664.11	11531.98
664.461	11627.35
664.811	11581.48
665.161	11588.25
665.511	11568.37
665.862	11619.89
666.212	11569.72
666.562	11658.99
666.912	11587.12
667.262	11599.55
667.612	11557.97
667.962	11609.27
668.312	11570.18
668.662	11578.54
669.011	11554.58
669.361	11551.42
669.711	11581.25
670.06	11494.92
670.41	11512.1
670.76	11492.44
671.109	11527.69
671.459	11477.3
671.808	11510.97
672.157	11582.61
672.507	11471.2
672.856	11472.78
673.205	11448.37
673.554	11515.04
673.904	11521.82
674.253	11527.92
674.602	11481.82
674.951	11374.02
675.3	11262.61
675.649	11434.59
675.998	11471.65
676.346	11481.36
676.695	11435.49
677.044	11382.38
677.393	11421.48
677.741	11461.25
678.09	11383.97
678.438	11367.47
678.787	11366.57
679.135	11365.44
679.484	11266.91
679.832	11222.84
680.181	11244.53
680.529	11227.36
680.877	11210.86
681.225	11174.71
681.573	11269.84
681.922	11195.95
682.27	11038.89
682.618	11141.26
682.966	11067.14
683.314	11117.98
683.661	11149.4
684.009	10998.89
684.357	10998.44
684.705	11047.93
685.053	10990.53
685.4	11025.56
685.748	10854.49
686.095	10879.35
686.443	10832.79
686.79	10837.09
687.138	10842.74
687.485	10866.47
687.832	10848.16
688.18	10833.25
688.527	10687.26
688.874	10678.22
689.221	10684.32
689.568	10616.98
689.915	10622.18
690.262	10551.22
690.609	10536.08
690.956	10576.3
691.303	10519.36
691.65	10527.49
691.997	10499.7
692.344	10377.21
692.69	10398.46
693.037	10409.98
693.383	10323.66
693.73	10326.82
694.077	10211.79
694.423	10263.32
694.769	10123.89
695.116	10199.59
695.462	10109.65
695.808	10084.57
696.155	10082.53
696.501	10014.06
696.847	9984.45
697.193	9936.55
697.539	9991.91
697.885	9847.06
698.231	9857.68
698.577	9749.43
698.923	9786.04
699.269	9704.91
699.614	9714.63
699.96	9653.16
700.306	9528.42
700.651	9589.89
700.997	9607.52
701.342	9499.04
701.688	9547.4
702.033	9474.64
702.379	9447.29
702.724	9412.49
703.069	9441.42
703.415	9338.82
703.76	9350.57
704.105	9376.11
704.45	9231.48
704.795	9270.12
705.14	9173.85
705.485	9223.12
705.83	9193.52
706.175	9177.7
706.52	9165.72
706.865	9126.85
707.209	9059.06
707.554	9020.19
707.899	9059.73
708.243	8990.36
708.588	8964.14
708.932	8899.06
709.277	8869.68
709.621	8952.84
709.966	8877.59
710.31	8811.6
710.654	8815.67
710.998	8787.42
711.342	8785.62
711.687	8751.49
712.031	8717.6
712.375	8661.33
712.719	8662.46
713.063	8647.54
713.407	8683.25
713.75	8650.7
714.094	8633.3
714.438	8591.5
714.782	8643.47
715.125	8509.92
715.469	8533.65
715.812	8483.25
716.156	8460.65
716.499	8502.01
716.843	8509.92
717.186	8433.99
717.53	8393.54
717.873	8459.07
718.216	8458.17
718.559	8425.17
718.902	8349.7
719.246	8377.94
719.589	8376.36
719.932	8323.26
720.275	8297.49
720.617	8354.44
720.96	8292.3
721.303	8292.07
721.646	8238.51
721.989	8196.25
722.331	8229.7
722.674	8230.15
723.016	8267.21
723.359	8227.21
723.701	8241.9
724.044	8139.31
724.386	8158.74
724.729	8208.91
725.071	8126.65
725.413	8119.65
725.755	8165.75
726.097	8108.57
726.439	8081.45
726.782	8149.02
727.124	8132.98
727.465	8136.37
727.807	8064.73
728.149	8135.46
728.491	8121.45
728.833	8161.45
729.175	8109.25
729.516	8135.92
729.858	8064.73
730.199	8127.33
730.541	8132.53
730.882	8072.19
731.224	8076.93
731.565	8090.49
731.906	8092.98
732.248	8104.5
732.589	8062.47
732.93	8062.7
733.271	8073.54
733.612	8025.41
733.953	8087.1
734.294	8033.09
734.635	8088.69
734.976	8070.83
735.317	8044.62
735.658	8047.33
735.999	8076.03
736.339	8048.91
736.68	8085.52
737.021	8142.02
737.361	8046.2
737.702	8057.95
738.042	8089.36
738.383	8090.27
738.723	8087.1
739.063	8069.7
739.404	8115.8
739.744	8089.14
740.084	8086.88
740.424	8112.64
740.764	8128.68
741.104	8149.7
741.444	8113.09
741.784	8109.7
742.124	8178.63
742.464	8211.17
742.804	8166.2
743.143	8164.84
743.483	8233.09
743.823	8232.64
744.162	8243.94
744.502	8305.18
744.841	8309.7
745.181	8360.77
745.52	8379.07
745.86	8451.39
746.199	8472.63
746.538	8486.64
746.877	8522.35
747.216	8566.64
747.556	8610.71
747.895	8621.1
748.234	8627.2
748.573	8655.45
748.911	8733.64
749.25	8761.66
749.589	8847.54
749.928	8928.44
750.267	8958.72
750.605	9020.86
750.944	9129.79
751.283	9137.7
751.621	9238.49
751.96	9186.28
752.298	9407.75
752.636	9515.77
752.975	9510.34
753.313	9512.6
753.651	9748.98
753.989	9779.49
754.327	9899.26
754.666	9926.83
755.004	10040.95
755.342	10182.87
755.679	10213.83
756.017	10369.3
756.355	10498.11
756.693	10595.51
757.031	10782.85
757.368	10852.91
757.706	11006.58
758.044	11019.46
758.381	11217.87
758.719	11326.57
759.056	11449.73
759.394	11615.82
759.731	11749.38
760.068	11864.18
760.405	11933.56
760.743	12042.03
761.08	12235.47
761.417	12390.72
761.754	12451.28
762.091	12584.61
762.428	12749.58
762.765	12811.95
763.102	13039.06
763.438	13101.66
763.775	13261.2
764.112	13406.29
764.449	13620.29
764.785	13672.27
765.122	13730.35
765.458	13915.65
765.795	14038.13
766.131	14178.02
766.467	14236.32
766.804	14416.88
767.14	14460.72
767.476	14691
767.812	14653.48
768.148	14907.26
768.485	14872.46
768.821	15000.37
769.157	15062.29
769.492	15177.54
769.828	15285.78
770.164	15319.68
770.5	15318.55
770.836	15479.68
771.171	15495.5
771.507	15535.95
771.842	15641.26
772.178	15754.7
772.513	15789.27
772.849	15925.99
773.184	15872.66
773.519	15900.23
773.855	16075.14
774.19	16061.36
774.525	16130.28
774.86	16191.52
775.195	16221.58
775.53	16246.21
775.865	16241.92
776.2	16231.97
776.535	16300.45
776.87	16242.6
777.205	16285.31
777.539	16306.1
777.874	16487.56
778.209	16315.36
778.543	16467.22
778.878	16366.43
779.212	16409.6
779.547	16348.13
779.881	16458.86
780.215	16375.47
780.55	16465.87
780.884	16439.43
781.218	16395.36
781.552	16506.32
781.886	16463.61
782.22	16412.76
782.554	16393.33
782.888	16344.97
783.222	16345.87
783.556	16229.04
783.889	16246.21
784.223	16211.18
784.557	16216.38
784.89	16357.62
785.224	16230.84
785.557	16169.15
785.891	16152.43
786.224	16173.44
786.558	16240.56
786.891	16090.51
787.224	16150.62
787.557	16075.14
787.891	16035.37
788.224	16072.2
788.557	16069.04
788.89	16107.68
789.223	16004.18
789.556	15927.8
789.888	15908.14
790.221	15800.35
790.554	15751.76
790.887	15832.89
791.219	15817.07
791.552	15845.32
791.884	15719.67
792.217	15720.35
792.549	15646.23
792.882	15538.21
793.214	15477.42
793.546	15551.09
793.879	15509.06
794.211	15518.55
794.543	15478.55
794.875	15418.21
795.207	15500.92
795.539	15347.48
795.871	15377.31
796.203	15291.66
796.535	15112.46
796.867	15137.77
797.198	15102.96
797.53	15191.78
797.862	15071.33
798.193	15135.96
798.525	14994.27
798.856	15091.89
799.188	14945.68
799.519	14905.68
799.85	14857.55
800.182	14862.07
800.513	14928.05
800.844	14725.12
801.175	14837.66
801.506	14787.72
801.837	14712.01
802.168	14671.56
802.499	14648.06
802.83	14528.74
803.161	14567.84
803.491	14481.29
803.822	14472.7
804.153	14452.81
804.483	14359.93
804.814	14298.92
805.145	14343.44
805.475	14312.25
805.805	14254.4
806.136	14275.42
806.466	14255.76
806.796	14192.93
807.126	14089.66
807.457	14125.14
807.787	14070.22
808.117	13985.48
808.447	13945.25
808.777	14010.56
809.107	13891.47
809.436	13944.58
809.766	13880.62
810.096	13810.8
810.426	13796.78
810.755	13810.12
811.085	13714.3
811.414	13768.31
811.744	13640.4
812.073	13632.72
812.403	13655.09
812.732	13534.64
813.061	13559.95
813.39	13544.14
813.719	13506.85
814.049	13530.35
814.378	13487.87
814.707	13407.87
815.036	13463.23
815.365	13405.38
815.693	13238.38
816.022	13293.97
816.351	13249.23
816.68	13160.42
817.008	13185.27
817.337	13076.35
817.665	13105.05
817.994	13140.3
818.322	13189.79
818.651	12977.6
818.979	12949.8
819.307	13071.83
819.636	13007.65
819.964	12897.6
820.292	13035
820.62	12987.31
820.948	12887.88
821.276	13110.7
821.604	12914.55
821.932	12945.96
822.259	13006.75
822.587	12896.02
822.915	12905.28
823.243	12865.28
823.57	12905.06
823.898	12909.12
824.225	12900.99
824.553	12900.99
824.88	12910.93
825.207	12943.93
825.535	12911.61
825.862	12931.04
826.189	12875.23
826.516	13009.69
826.843	12948.9
827.17	12966.52
827.497	12905.06
827.824	12985.28
828.151	12967.43
828.478	12910.93
828.805	12998.84
829.131	12909.12
829.458	12917.03
829.785	12849.69
830.111	12883.14
830.438	12917.94
830.764	12897.15
831.09	12967.43
831.417	12860.54
831.743	12931.04
832.069	12910.71
832.395	12855.57
832.722	12955.68
833.048	12765.4
833.374	12881.78
833.7	12738.96
834.026	12846.75
834.351	12849.69
834.677	12817.83
835.003	12849.46
835.329	12838.84
835.654	12819.41
835.98	12720.88
836.306	12760.65
836.631	12827.32
836.956	12769.24
837.282	12735.57
837.607	12699.19
837.932	12686.53
838.258	12684.5
838.583	12618.74
838.908	12560.88
839.233	12607.21
839.558	12586.65
839.883	12502.35
840.208	12495.12
840.533	12470.94
840.858	12571.51
841.182	12539.19
841.507	12521.11
841.832	12370.83
842.156	12382.81
842.481	12378.74
842.805	12372.19
843.13	12269.14
843.454	12356.14
843.778	12270.95
844.103	12261.68
844.427	12185.53
844.751	12155.25
845.075	12137.39
845.399	12126.09
845.723	12065.08
846.047	12031.18
846.371	12036.15
846.695	11941.24
847.019	11849.72
847.343	11855.82
847.666	11788.02
847.99	11741.02
848.313	11716.39
848.637	11639.33
848.96	11636.61
849.284	11570.18
849.607	11478.43
849.931	11501.48
850.254	11399.56
850.577	11336.96
850.9	11320.24
851.223	11224.2
851.546	11203.86
851.869	11106.01
852.192	11187.36
852.515	11040.25
852.838	11011.77
853.161	11038.21
853.483	10965.45
853.806	10932.45
854.129	10913.24
854.451	10884.54
854.774	10832.12
855.096	10780.82
855.419	10855.84
855.741	10764.32
856.063	10743.98
856.385	10712.12
856.708	10620.6
857.03	10564.55
857.352	10642.06
857.674	10539.69
857.996	10562.29
858.318	10456.98
858.64	10462.18
858.961	10419.47
859.283	10472.13
859.605	10293.37
859.926	10393.94
860.248	10331.34
860.57	10251.11
860.891	10327.5
861.212	10261.96
861.534	10219.25
861.855	10180.83
862.176	10221.51
862.498	10113.72
862.819	10208.86
863.14	10096.54
863.461	10145.13
863.782	10064.23
864.103	10104.9
864.424	10052.48
864.745	10047.05
865.065	9980.16
865.386	9961.86
865.707	9999.82
866.027	9970.22
866.348	9973.16
866.668	9988.97
866.989	9880.05
867.309	9830.79
867.63	9857.45
867.95	9859.03
868.27	9762.09
868.59	9819.49
868.91	9790.56
869.23	9784.69
869.55	9676.21
869.87	9723.44
870.19	9736.78
870.51	9664.01
870.83	9668.31
871.15	9722.31
871.469	9596.44
871.789	9687.29
872.109	9647.06
872.428	9617.91
872.748	9698.81
873.067	9650.68
873.386	9642.09
873.706	9621.3
874.025	9527.97
874.344	9494.3
874.663	9522.77
874.982	9529.33
875.301	9519.16
875.62	9413.85
875.939	9422.21
876.258	9453.62
876.577	9398.03
876.896	9392.38
877.214	9457.69
877.533	9367.3
877.852	9420.18
878.17	9365.04
878.489	9339.05
878.807	9297.24
879.125	9261.76
879.444	9252.27
879.762	9273.51
880.08	9235.77
880.398	9232.38
880.716	9291.59
881.034	9219.73
881.352	9199.62
881.67	9238.03
881.988	9197.81
882.306	9151.26
882.624	9097.47
882.941	9116.91
883.259	9083.01
883.577	9016.57
883.894	9047.3
884.212	9028.32
884.529	8940.64
884.846	8942.67
885.164	8959.62
885.481	8909.23
885.798	8945.16
886.115	8831.49
886.432	8856.12
886.75	8877.59
887.067	8810.25
887.383	8843.92
887.7	8809.57
888.017	8716.69
888.334	8781.32
888.651	8732.51
888.967	8647.09
889.284	8604.38
889.6	8682.12
889.917	8602.57
890.233	8634.21
890.55	8463.37
890.866	8583.14
891.182	8580.88
891.498	8460.65
891.815	8440.99
892.131	8415
892.447	8411.16
892.763	8352.86
893.079	8362.35
893.395	8309.92
893.71	8315.35
894.026	8287.1
894.342	8261.79
894.657	8266.08
894.973	8178.17
895.289	8185.63
895.604	8166.65
895.92	8135.24
896.235	8077.16
896.55	8115.58
896.865	8088.91
897.181	8019.99
897.496	8016.82
897.811	7954.45
898.126	7928.69
898.441	7949.03
898.756	7813.21
899.071	7870.84
899.386	7850.73
899.7	7803.95
900.015	7771.18
900.33	7741.58
900.644	7713.55
900.959	7685.76
901.273	7685.31
901.588	7655.7
901.902	7638.98
902.216	7583.16
902.531	7565.31
902.845	7490.74
903.159	7466.78
903.473	7447.8
903.787	7439.89
904.101	7376.61
904.415	7415.48
904.729	7393.34
905.042	7300.46
905.356	7190.63
905.67	7263.62
905.984	7282.83
906.297	7218.88
906.611	7150.63
906.924	7162.83
907.237	7133.46
907.551	7118.77
907.864	7101.14
908.177	7071.09
908.491	7058.66
908.804	6907.47
909.117	6945.66
909.43	6964.2
909.743	6878.32
910.056	6915.16
910.368	6839
910.681	6799
910.994	6743.41
911.307	6749.74
911.619	6723.3
911.932	6709.06
912.244	6668.38
912.557	6645.56
912.869	6608.95
913.181	6607.82
913.494	6626.13
913.806	6530.08
914.118	6504.55
914.43	6487.15
914.742	6483.08
915.054	6434.04
915.366	6414.15
915.678	6349.75
915.99	6355.17
916.302	6335.96
916.613	6337.55
916.925	6337.09
917.236	6311.11
917.548	6188.85
917.859	6241.5
918.171	6127.83
918.482	6150.88
918.794	6150.21
919.105	6123.54
919.416	6100.94
919.727	6030.21
920.038	6030.43
920.349	5960.38
920.66	6003.09
920.971	5970.1
921.282	5957.89
921.593	5934.62
921.903	5842.87
922.214	5888.74
922.525	5839.25
922.835	5844
923.146	5826.6
923.456	5799.93
923.767	5749.76
924.077	5729.88
924.387	5724.45
924.697	5694.4
925.008	5641.97
925.318	5638.58
925.628	5669.31
925.938	5598.13
926.248	5574.18
926.558	5572.82
926.867	5523.33
927.177	5488.08
927.487	5507.51
927.796	5391.58
928.106	5404.69
928.416	5386.61
928.725	5401.07
929.034	5374.63
929.344	5385.93
929.653	5379.83
929.962	5288.08
930.271	5281.08
930.581	5246.05
930.89	5225.48
931.199	5140.51
931.508	5199.95
931.817	5173.28
932.125	5215.54
932.434	5165.15
932.743	5108.88
933.051	5100.52
933.36	5062.55
933.669	5044.92
933.977	5001.99
934.286	5039.05
934.594	5005.6
934.902	4944.14
935.21	4954.53
935.519	4889.22
935.827	4912.05
936.135	4862.33
936.443	4816.46
936.751	4813.52
937.059	4791.15
937.367	4811.94
937.674	4859.17
937.982	4795.21
938.29	4732.84
938.597	4740.3
938.905	4653.3
939.213	4708.44
939.52	4627.76
939.827	4656.23
940.135	4646.52
940.442	4600.64
940.749	4600.87
941.056	4585.95
941.363	4524.49
941.67	4510.47
941.977	4485.62
942.284	4474.54
942.591	4457.59
942.898	4447.2
943.205	4442.68
943.511	4414.21
943.818	4412.17
944.125	4342.8
944.431	4340.99
944.738	4303.47
945.044	4307.99
945.35	4305.28
945.657	4293.53
945.963	4246.53
946.269	4281.33
946.575	4219.18
946.881	4230.26
947.187	4213.08
947.493	4164.5
947.799	4138.96
948.105	4077.27
948.41	4118.17
948.716	4092.41
949.022	4062.35
949.327	4061.22
949.633	4030.04
949.938	3993.65
950.244	4024.16
950.549	4015.8
950.854	3958.62
951.16	3966.31
951.465	3950.72
951.77	3931.51
952.075	3916.14
952.38	3915.69
952.685	3869.14
952.99	3863.71
953.294	3877.04
953.599	3832.98
953.904	3856.48
954.209	3756.14
954.513	3793.66
954.818	3768.12
955.122	3761.34
955.426	3736.71
955.731	3718.18
956.035	3675.24
956.339	3681.57
956.643	3716.82
956.948	3688.35
957.252	3681.34
957.556	3615.81
957.86	3643.6
958.163	3574.91
958.467	3620.1
958.771	3578.07
959.075	3563.83
959.378	3531.52
959.682	3549.6
959.985	3501.01
960.289	3495.36
960.592	3482.25
960.896	3464.4
961.199	3473.21
961.502	3428.24
961.805	3403.84
962.108	3418.07
962.411	3346.44
962.714	3366.78
963.017	3374.69
963.32	3329.94
963.623	3326.32
963.926	3360
964.228	3309.83
964.531	3288.81
964.833	3297.63
965.136	3255.59
965.438	3199.77
965.741	3233.45
966.043	3230.51
966.345	3198.42
966.648	3232.32
966.95	3185.76
967.252	3183.05
967.554	3130.62
967.856	3097.63
968.158	3096.95
968.46	3115.26
968.761	3075.48
969.063	3108.93
969.365	3081.81
969.666	3066.9
969.968	3019.21
970.269	3023.73
970.571	3041.81
970.872	3047.24
971.174	2978.31
971.475	2973.34
971.776	2999.1
972.077	2956.62
972.378	2914.13
972.679	2913
972.98	2983.28
973.281	2902.61
973.582	2870.29
973.883	2868.48
974.183	2859.9
974.484	2861.25
974.785	2858.77
975.085	2844.08
975.386	2860.8
975.686	2829.39
975.986	2791.65
976.287	2774.02
976.587	2750.75
976.887	2789.62
977.187	2707.36
977.487	2748.26
977.787	2714.14
978.087	2696.06
978.387	2668.04
978.687	2677.3
978.987	2674.59
979.286	2669.39
979.586	2637.53
979.885	2594.37
980.185	2602.95
980.484	2605.89
980.784	2615.16
981.083	2591.43
981.382	2587.59
981.682	2554.82
981.981	2581.49
982.28	2562.96
982.579	2560.24
982.878	2539
983.177	2533.58
983.475	2510.75
983.774	2485.9
984.073	2493.13
984.372	2461.71
984.67	2426.91
984.969	2449.74
985.267	2449.29
985.566	2452.45
985.864	2415.16
986.162	2431.89
986.461	2378.33
986.759	2388.95
987.057	2399.34
987.355	2385.33
987.653	2336.29
987.951	2336.75
988.249	2337.2
988.547	2326.13
988.844	2303.75
989.142	2289.06
989.44	2294.94
989.737	2283.19
990.035	2252.23
990.332	2255.84
990.63	2254.94
990.927	2239.57
991.224	2232.79
991.521	2228.95
991.819	2216.98
992.116	2178.11
992.413	2186.24
992.71	2163.19
993.006	2139.01
993.303	2152.12
993.6	2137.66
993.897	2141.5
994.193	2132.46
994.49	2115.74
994.787	2102.18
995.083	2068.73
995.379	2086.58
995.676	2069.18
995.972	2056.75
996.268	2055.17
996.565	2061.05
996.861	2036.19
997.157	2046.13
997.453	2018.79
997.749	2004.78
998.044	2003.65
998.34	2002.52
998.636	1989.86
998.932	1950.32
999.227	1933.82
999.523	1959.36
999.818	1940.37
1000.114	1926.81
1000.409	1925.01
1000.704	1913.71
1001	1894.27
1001.295	1887.72
1001.59	1880.04
1001.885	1891.56
1002.18	1874.61
1002.475	1866.7
1002.77	1845.91
1003.065	1820.38
1003.359	1838.23
1003.654	1811.34
1003.949	1814.27
1004.243	1777.67
1004.538	1787.38
1004.832	1795.07
1005.127	1785.12
1005.421	1759.36
1005.715	1755.74
1006.009	1737.89
1006.304	1738.57
1006.598	1696.76
1006.892	1714.16
1007.186	1697.44
1007.48	1706.03
1007.773	1663.32
1008.067	1656.99
1008.361	1651.79
1008.655	1664.9
1008.948	1624.45
1009.242	1654.05
1009.535	1622.87
1009.829	1631.45
1010.122	1602.75
1010.415	1587.84
1010.708	1615.64
1011.001	1553.72
1011.295	1537.67
1011.588	1555.75
1011.881	1524.34
1012.173	1565.92
1012.466	1533.6
1012.759	1514.4
1013.052	1527.28
1013.344	1530.89
1013.637	1513.94
1013.93	1515.53
1014.222	1480.27
1014.514	1460.39
1014.807	1476.43
1015.099	1462.65
1015.391	1441.63
1015.683	1467.39
1015.976	1437.11
1016.268	1417.9
1016.56	1424.23
1016.851	1388.52
1017.143	1405.92
1017.435	1405.7
1017.727	1386.94
1018.018	1381.74
1018.31	1373.83
1018.602	1347.85
1018.893	1371.12
1019.185	1313.27
1019.476	1300.39
1019.767	1314.17
1020.058	1339.03
1020.35	1301.97
1020.641	1296.55
1020.932	1304.46
1021.223	1276.89
1021.514	1275.76
1021.804	1257.45
1022.095	1274.4
1022.386	1235.76
1022.677	1224.46
1022.967	1237.11
1023.258	1224.01
1023.548	1226.27
1023.839	1202.54
1024.129	1211.35
1024.419	1217.68
1024.709	1165.7
1025	1183.33
1025.29	1177
1025.58	1163.67
1025.87	1163.22
1026.16	1102.2
1026.449	1157.34
1026.739	1137.23
1027.029	1116.67
1027.319	1130
1027.608	1090.68
1027.898	1116.67
1028.187	1092.71
1028.477	1117.8
1028.766	1125.93
1029.055	1096.78
1029.344	1095.2
1029.634	1066.95
1029.923	1050.68
1030.212	1046.84
1030.501	1058.81
1030.79	1046.61
1031.078	1027.4
1031.367	1042.09
1031.656	1000.06
1031.945	1007.97
1032.233	1020.17
1032.522	1026.5
1032.81	1021.75
1033.099	985.37
1033.387	967.52
1033.675	1000.74
1033.963	997.8
1034.251	968.87
1034.54	1011.58
1034.828	946.27
1035.116	955.09
1035.403	951.7
1035.691	939.5
1035.979	937.46
1036.267	925.03
1036.554	903.79
1036.842	918.7
1037.129	902.43
1037.417	911.02
1037.704	904.24
1037.992	886.16
1038.279	860.4
1038.566	871.47
1038.853	871.47
1039.14	871.47
