Data from hue_190_FLMS001491_00087.txt Node
Date: Tue Feb 07 16:45:54 GMT 2017
User: dcchb
Spectrometer: FLMS00149
Trigger mode: 0
Integration Time (sec): 2.000000E-2
Scans to average: 10
Electric dark correction enabled: true
Nonlinearity correction enabled: false
Boxcar width: 0
XAxis mode: Wavelengths
Number of Pixels in Spectrum: 2048
>>>>>Begin Spectral Data<<<<<
341.393	-21.79
341.776	-21.79
342.16	-21.79
342.543	-73.77
342.927	-56.37
343.31	-70.61
343.693	-76.26
344.077	-64.05
344.46	-65.86
344.843	-69.25
345.226	-17.27
345.61	-24.28
345.993	-3.94
346.376	-24.28
346.759	-2.58
347.142	47.36
347.525	46.45
347.908	66.79
348.291	73.57
348.674	70.18
349.057	114.02
349.44	140.24
349.823	156.51
350.206	167.81
350.588	208.26
350.971	205.77
351.354	230.18
351.737	256.39
352.119	260.69
352.502	264.98
352.884	297.29
353.267	309.5
353.65	294.58
354.032	299.78
354.414	286
354.797	322.6
355.179	333.68
355.562	326.22
355.944	340.68
356.326	328.03
356.709	327.8
357.091	330.74
357.473	349.72
357.855	328.93
358.238	365.77
358.62	353.56
359.002	344.3
359.384	371.19
359.766	321.02
360.148	324.41
360.53	329.38
360.912	329.61
361.294	342.04
361.676	349.04
362.057	342.04
362.439	333.9
362.821	320.57
363.203	337.29
363.584	326.9
363.966	337.29
364.348	318.76
364.729	325.77
365.111	331.19
365.493	336.39
365.874	312.89
366.256	296.84
366.637	324.41
367.019	319.89
367.4	314.24
367.781	337.75
368.163	313.79
368.544	312.44
368.925	313.11
369.306	307.92
369.688	321.02
370.069	294.13
370.45	318.99
370.831	309.27
371.212	308.37
371.593	303.62
371.974	305.43
372.355	320.57
372.736	298.88
373.117	324.86
373.498	336.62
373.879	325.54
374.26	323.06
374.641	331.42
375.021	311.76
375.402	309.95
375.783	327.58
376.163	316.28
376.544	319.44
376.925	319.21
377.305	321.7
377.686	326.9
378.066	344.07
378.447	330.06
378.827	341.59
379.208	356.28
379.588	333.45
379.968	329.16
380.349	342.49
380.729	332.32
381.109	344.3
381.489	316.5
381.87	351.53
382.25	349.95
382.63	373
383.01	323.96
383.39	345.65
383.77	344.98
384.15	331.64
384.53	355.37
384.91	346.78
385.29	340.68
385.67	344.52
386.049	347.01
386.429	363.51
386.809	370.06
387.189	349.72
387.568	358.99
387.948	350.17
388.328	365.54
388.707	368.7
389.087	372.77
389.466	372.32
389.846	364.19
390.225	356.5
390.605	369.61
390.984	350.85
391.363	379.78
391.743	351.98
392.122	375.26
392.501	358.54
392.881	379.55
393.26	384.3
393.639	374.81
394.018	374.81
394.397	384.07
394.776	377.29
395.155	385.88
395.534	378.87
395.913	377.52
396.292	385.2
396.671	402.83
397.05	394.92
397.429	394.24
397.808	417.74
398.186	407.8
398.565	396.5
398.944	401.47
399.323	397.63
399.701	425.65
400.08	412.77
400.458	418.2
400.837	412.32
401.215	388.82
401.594	396.05
401.972	416.84
402.351	412.09
402.729	408.93
403.107	414.81
403.486	445.54
403.864	434.24
404.242	439.66
404.62	437.4
404.999	450.28
405.377	469.95
405.755	467.01
406.133	443.05
406.511	454.58
406.889	465.65
407.267	467.46
407.645	488.48
408.023	449.61
408.401	476.95
408.779	473.56
409.156	497.97
409.534	495.93
409.912	516.72
410.29	538.42
410.667	515.59
411.045	529.15
411.422	558.53
411.8	533.45
412.178	550.17
412.555	588.59
412.933	547.01
413.31	592.88
413.687	561.02
414.065	617.29
414.442	594.46
414.819	608.02
415.197	615.25
415.574	603.5
415.951	633.78
416.328	658.87
416.705	631.07
417.082	645.53
417.46	663.16
417.837	652.31
418.214	667
418.591	679.21
418.967	676.49
419.344	703.16
419.721	706.78
420.098	710.39
420.475	709.49
420.852	737.96
421.228	758.98
421.605	747.9
421.982	783.38
422.358	770.5
422.735	794.46
423.111	774.34
423.488	819.31
423.864	856.15
424.241	852.53
424.617	853.21
424.994	857.05
425.37	878.75
425.746	895.24
426.123	889.6
426.499	913.78
426.875	945.86
427.251	930.95
427.627	929.37
428.003	965.53
428.379	983.6
428.756	987.22
429.132	1012.08
429.507	1011.4
429.883	1042.81
430.259	1050.27
430.635	1047.11
431.011	1068.57
431.387	1062.25
431.763	1097.05
432.138	1112.64
432.514	1106.09
432.89	1128.23
433.265	1149.93
433.641	1153.54
434.016	1182.92
434.392	1209.13
434.767	1242.35
435.143	1259.76
435.518	1269.02
435.894	1274.44
436.269	1313.76
436.644	1354.44
437.02	1372.75
437.395	1360.54
437.77	1395.12
438.145	1412.07
438.52	1470.14
438.895	1464.5
439.271	1507.88
439.646	1522.12
440.021	1520.77
440.395	1528.9
440.77	1543.14
441.145	1591.05
441.52	1640.54
441.895	1615.45
442.27	1653.87
442.645	1633.08
443.019	1669.46
443.394	1707.2
443.769	1728.22
444.143	1722.57
444.518	1742.68
444.892	1713.53
445.267	1758.05
445.641	1769.35
446.016	1772.74
446.39	1840.98
446.764	1838.04
447.139	1863.35
447.513	1896.57
447.887	1892.51
448.262	1880.08
448.636	1893.18
449.01	1936.57
449.384	1941.09
449.758	1988.78
450.132	2008.21
450.506	1996.46
450.88	2023.35
451.254	2024.25
451.628	2083.24
452.002	2124.14
452.376	2050.47
452.75	2157.13
453.123	2159.84
453.497	2176.57
453.871	2217.47
454.244	2250.01
454.618	2255.66
454.992	2281.65
455.365	2299.05
455.739	2346.73
456.112	2369.1
456.486	2413.62
456.859	2436.9
457.232	2470.34
457.606	2454.3
457.979	2467.18
458.352	2555.77
458.725	2597.35
459.099	2584.69
459.472	2650.68
459.845	2680.73
460.218	2663.56
460.591	2721.86
460.964	2737.46
461.337	2787.85
461.71	2855.65
462.083	2866.72
462.456	2890.67
462.829	2919.37
463.201	2946.94
463.574	2933.16
463.947	2997.79
464.32	3105.81
464.692	3082.31
465.065	3130.67
465.438	3201.85
465.81	3240.72
466.183	3288.18
466.555	3305.35
466.928	3353.49
467.3	3357.33
467.672	3405.69
468.045	3473.71
468.417	3503.99
468.789	3562.75
469.161	3632.35
469.534	3669.64
469.906	3781.27
470.278	3781.72
470.65	3787.37
471.022	3903.75
471.394	3968.61
471.766	4021.72
472.138	4040.02
472.51	4157.08
472.882	4175.84
473.253	4238.66
473.625	4310.75
473.997	4389.84
474.369	4404.31
474.74	4484.98
475.112	4582.83
475.484	4651.76
475.855	4767.46
476.227	4814.46
476.598	4920.45
476.97	4992.31
477.341	5072.08
477.713	5133.33
478.084	5174.91
478.455	5337.61
478.827	5365.64
479.198	5555.69
479.569	5549.13
479.94	5725.85
480.311	5797.71
480.682	5868
481.053	6007.65
481.424	6122.68
481.795	6150.02
482.166	6279.96
482.537	6382.56
482.908	6519.05
483.279	6599.73
483.65	6708.88
484.021	6833.85
484.391	6892.83
484.762	6980.51
485.133	7061.41
485.503	7163.33
485.874	7233.38
486.244	7363.1
486.615	7441.51
486.985	7581.85
487.356	7738.91
487.726	7799.24
488.097	7969.64
488.467	7959.92
488.837	8159.69
489.207	8219.35
489.578	8316.74
489.948	8384.99
490.318	8532.11
490.688	8546.34
491.058	8743.17
491.428	8804.19
491.798	8935.94
492.168	9036.05
492.538	9082.6
492.908	9076.5
493.278	9300.45
493.648	9330.73
494.017	9432.42
494.387	9490.27
494.757	9578.41
495.126	9679.87
495.496	9688.23
495.866	9811.62
496.235	9772.98
496.605	9910.38
496.974	10002.8
497.344	10086.87
497.713	10079.64
498.082	10163.7
498.452	10257.03
498.821	10301.33
499.19	10273.53
499.559	10337.03
499.928	10365.96
500.298	10436.01
500.667	10464.03
501.036	10476.69
501.405	10625.84
501.774	10546.29
502.143	10737.25
502.512	10703.12
502.88	10755.1
503.249	10747.19
503.618	10840.07
503.987	10808.88
504.356	10932.27
504.724	10946.05
505.093	10965.26
505.462	11030.12
505.83	11019.27
506.199	11118.48
506.567	11259.72
506.936	11110.12
507.304	11270.79
507.672	11300.62
508.041	11275.76
508.409	11309.43
508.777	11381.97
509.145	11415.42
509.514	11356.66
509.882	11465.59
510.25	11389.88
510.618	11513.95
510.986	11408.64
511.354	11546.04
511.722	11591.69
512.09	11679.37
512.458	11596.88
512.826	11636.21
513.193	11647.28
513.561	11652.48
513.929	11804.11
514.297	11765.24
514.664	11825.35
515.032	11862.41
515.4	11795.07
515.767	11850.89
516.135	11869.42
516.502	11746.03
516.869	11959.59
517.237	11898.57
517.604	11916.88
517.972	11915.29
518.339	11986.03
518.706	11894.05
519.073	11948.29
519.44	11947.16
519.808	12048.17
520.175	12015.63
520.542	12057.89
520.909	12060.6
521.276	12044.56
521.643	12102.86
522.009	12091.79
522.376	12060.83
522.743	12087.72
523.11	12128.62
523.477	12169.75
523.843	12174.04
524.21	12303.76
524.577	12330.88
524.943	12245.91
525.31	12250.43
525.676	12311.67
526.043	12362.74
526.409	12284.78
526.776	12328.16
527.142	12323.87
527.508	12349.63
527.874	12356.86
528.241	12331.55
528.607	12302.18
528.973	12298.79
529.339	12331.55
529.705	12397.77
530.071	12384.43
530.437	12304.44
530.803	12280.26
531.169	12334.49
531.535	12201.84
531.901	12210.88
532.267	12159.13
532.632	12160.94
532.998	12147.15
533.364	12221.73
533.73	12066.48
534.095	12128.85
534.461	12030.09
534.826	12107.61
535.192	12026.93
535.557	12016.31
535.923	11877.1
536.288	11947.38
536.653	11885.01
537.019	11783.09
537.384	11800.04
537.749	11733.83
538.114	11741.51
538.479	11671.68
538.845	11672.59
539.21	11589.65
539.575	11573.61
539.94	11497
540.305	11468.3
540.67	11473.95
541.034	11364.35
541.399	11329.77
541.764	11278.02
542.129	11234.86
542.494	11202.09
542.858	11200.74
543.223	11189.66
543.587	11110.12
543.952	10983.34
544.316	10994.19
544.681	10949.67
545.045	10937.24
545.41	10908.31
545.774	10816.34
546.138	10806.17
546.503	10776.34
546.867	10691.6
547.231	10679.17
547.595	10625.84
547.959	10647.3
548.324	10547.87
548.688	10475.56
549.052	10447.54
549.416	10382.45
549.779	10341.78
550.143	10312.4
550.507	10310.59
550.871	10299.97
551.235	10218.62
551.599	10235.11
551.962	10104.27
552.326	10125.28
552.689	10079.41
553.053	10074.44
553.417	10003.03
553.78	10055
554.143	10020.65
554.507	9911.28
554.87	9891.39
555.234	9948.79
555.597	9745.41
555.96	9830.83
556.323	9772.75
556.686	9741.11
557.05	9758.51
557.413	9708.8
557.776	9673.55
558.139	9686.2
558.502	9625.18
558.865	9569.37
559.228	9585.19
559.59	9599.42
559.953	9618.41
560.316	9601
560.679	9594.68
561.041	9594.45
561.404	9570.27
561.767	9650.49
562.129	9520.78
562.492	9643.72
562.854	9538.41
563.217	9528.46
563.579	9517.17
563.941	9523.04
564.304	9526.88
564.666	9555.36
565.028	9478.3
565.39	9506.09
565.753	9519.65
566.115	9566.43
566.477	9509.93
566.839	9545.41
567.201	9544.06
567.563	9518.97
567.925	9551.74
568.287	9570.04
568.648	9509.71
569.01	9565.98
569.372	9499.54
569.734	9487.11
570.095	9503.15
570.457	9529.59
570.819	9557.39
571.18	9526.66
571.542	9567.79
571.903	9543.83
572.265	9592.87
572.626	9468.13
572.987	9556.94
573.349	9537.5
573.71	9512.65
574.071	9631.06
574.432	9606.43
574.794	9602.13
575.155	9594.68
575.516	9549.71
575.877	9561.01
576.238	9581.12
576.599	9564.85
576.96	9625.41
577.32	9620.67
577.681	9589.03
578.042	9592.64
578.403	9515.58
578.763	9592.87
579.124	9611.17
579.485	9579.76
579.845	9540.67
580.206	9571.17
580.566	9516.94
580.927	9515.36
581.287	9566.2
581.648	9533.66
582.008	9578.63
582.368	9530.95
582.728	9586.32
583.089	9490.27
583.449	9457.73
583.809	9457.96
584.169	9491.85
584.529	9470.39
584.889	9564.85
585.249	9501.57
585.609	9477.17
585.969	9527.79
586.329	9432.42
586.688	9462.25
587.048	9426.77
587.408	9386.55
587.768	9421.12
588.127	9431.97
588.487	9382.03
588.846	9410.05
589.206	9362.59
589.565	9415.47
589.925	9428.58
590.284	9360.33
590.643	9402.14
591.003	9367.34
591.362	9365.76
591.721	9393.78
592.08	9376.83
592.44	9416.38
592.799	9383.16
593.158	9352.42
593.517	9339.54
593.876	9325.08
594.235	9263.16
594.593	9325.98
594.952	9250.73
595.311	9262.48
595.67	9255.48
596.029	9336.6
596.387	9312.42
596.746	9314.01
597.104	9320.33
597.463	9308.36
597.822	9269.04
598.18	9267.23
598.538	9213.22
598.897	9215.48
599.255	9173.67
599.613	9327.57
599.972	9223.84
600.33	9288.92
600.688	9200.56
601.046	9180.45
601.404	9261.35
601.762	9235.36
602.12	9278.75
602.478	9255.48
602.836	9220
603.194	9206.89
603.552	9253.67
603.91	9200.34
604.268	9234.01
604.625	9119.21
604.983	9179.09
605.341	9151.98
605.698	9168.93
606.056	9254.8
606.413	9258.87
606.771	9210.05
607.128	9245.53
607.485	9214.35
607.843	9216.38
608.2	9279.43
608.557	9299.77
608.914	9231.97
609.272	9292.99
609.629	9221.58
609.986	9344.74
610.343	9280.34
610.7	9278.08
611.057	9315.59
611.414	9308.36
611.771	9329.83
612.127	9317.85
612.484	9358.3
612.841	9337.28
613.198	9380.45
613.554	9311.97
613.911	9337.06
614.267	9346.55
614.624	9371.63
614.98	9298.64
615.337	9399.43
615.693	9389.71
616.05	9380.67
616.406	9387
616.762	9352.88
617.118	9386.55
617.475	9341.35
617.831	9359.2
618.187	9369.37
618.543	9393.33
618.899	9474.45
619.255	9450.27
619.611	9411.18
619.967	9531.18
620.323	9477.17
620.678	9445.53
621.034	9365.08
621.39	9436.49
621.746	9418.86
622.101	9479.65
622.457	9401.46
622.812	9397.85
623.168	9405.08
623.523	9471.52
623.879	9544.06
624.234	9444.62
624.589	9513.78
624.945	9461.57
625.3	9447.56
625.655	9460.67
626.01	9478.75
626.365	9462.03
626.72	9423.16
627.075	9469.26
627.43	9463.61
627.785	9420.67
628.14	9370.95
628.495	9391.52
628.85	9454.12
629.205	9411.41
629.559	9408.24
629.914	9370.95
630.269	9316.72
630.623	9356.49
630.978	9321.92
631.332	9313.78
631.687	9372.31
632.041	9328.02
632.396	9309.03
632.75	9328.92
633.104	9268.36
633.459	9314.91
633.813	9290.73
634.167	9275.82
634.521	9229.26
634.875	9253.67
635.229	9212.77
635.583	9196.95
635.937	9132.32
636.291	9140.9
636.645	9161.47
636.999	9167.57
637.352	9204.4
637.706	9112.66
638.06	9191.98
638.413	9174.35
638.767	9130.96
639.121	9153.56
639.474	9130.73
639.828	9055.48
640.181	9079.89
640.534	9118.98
640.888	9007.35
641.241	9036.73
641.594	9023.84
641.947	9099.77
642.301	8984.98
642.654	9077.4
643.007	9019.32
643.36	8970.06
643.713	8976.39
644.066	9030.85
644.419	8990.4
644.771	8922.83
645.124	8856.62
645.477	8834.7
645.83	8783.62
646.182	8766.22
646.535	8740.01
646.888	8709.95
647.24	8658.66
647.593	8776.39
647.945	8683.74
648.298	8643.97
648.65	8653.68
649.002	8641.03
649.355	8703.4
649.707	8637.87
650.059	8719.22
650.411	8854.81
650.763	8798.54
651.115	8900.68
651.467	8858.43
651.819	8851.65
652.171	8861.36
652.523	8866.56
652.875	8817.3
653.227	8785.21
653.578	8862.72
653.93	8784.98
654.282	8807.35
654.633	8751.08
654.985	8778.2
655.337	8813.23
655.688	8892.1
656.039	8897.29
656.391	8796.51
656.742	8796.51
657.094	8829.5
657.445	8814.81
657.796	8793.12
658.147	8853.23
658.498	8791.99
658.849	8893.23
659.2	8848.71
659.551	8793.79
659.902	8841.02
660.253	8880.8
660.604	8872.21
660.955	8784.3
661.306	8888.71
661.656	8861.59
662.007	8906.11
662.358	8834.25
662.708	8888.93
663.059	8879.89
663.409	8860.91
663.76	8909.05
664.11	8909.72
664.461	8873.79
664.811	8847.8
665.161	8923.06
665.511	8831.76
665.862	8861.14
666.212	8897.75
666.562	8968.7
666.912	8979.78
667.262	8897.97
667.612	8878.31
667.962	8879.44
668.312	8919.44
668.662	8972.77
669.011	8887.8
669.361	8913.11
669.711	8881.48
670.06	8901.36
670.41	8904.98
670.76	8872.21
671.109	8876.28
671.459	8887.8
671.808	8831.08
672.157	8867.46
672.507	8798.31
672.856	8805.55
673.205	8803.06
673.554	8809.16
673.904	8745.21
674.253	8840.12
674.602	8742.27
674.951	8684.87
675.3	8614.14
675.649	8753.8
675.998	8771.65
676.346	8731.2
676.695	8786.11
677.044	8700.01
677.393	8747.92
677.741	8767.35
678.09	8711.76
678.438	8694.36
678.787	8702.95
679.135	8759.67
679.484	8645.78
679.832	8614.82
680.181	8621.82
680.529	8601.71
680.877	8575.49
681.225	8568.04
681.573	8585.44
681.922	8577.53
682.27	8535.5
682.618	8593.12
682.966	8490.75
683.314	8512.22
683.661	8399.45
684.009	8443.29
684.357	8346.35
684.705	8425.44
685.053	8411.66
685.4	8383.41
685.748	8356.52
686.095	8317.87
686.443	8309.29
686.79	8289.17
687.138	8304.32
687.485	8314.48
687.832	8227.71
688.18	8246.92
688.527	8192
688.874	8190.19
689.221	8163.98
689.568	8166.92
689.915	8152.68
690.262	8116.98
690.609	8054.15
690.956	8090.54
691.303	8034.94
691.65	8073.59
691.997	8003.98
692.344	7971.22
692.69	7946.13
693.037	7939.81
693.383	7923.76
693.73	7884.89
694.077	7807.83
694.423	7822.29
694.769	7795.18
695.116	7765.57
695.462	7743.2
695.808	7743.2
696.155	7698.91
696.501	7621.62
696.847	7672.47
697.193	7565.35
697.539	7588.63
697.885	7568.74
698.231	7517.9
698.577	7484.45
698.923	7480.38
699.269	7462.98
699.614	7441.51
699.96	7375.3
700.306	7368.07
700.651	7364
700.997	7340.95
701.342	7280.16
701.688	7338.24
702.033	7223.21
702.379	7301.4
702.724	7159.03
703.069	7248.3
703.415	7090.11
703.76	7128.75
704.105	7128.98
704.45	7137.79
704.795	7084.01
705.14	6990.23
705.485	7014.41
705.83	6974.41
706.175	6943
706.52	6975.54
706.865	6887.86
707.209	6900.74
707.554	6853.05
707.899	6899.38
708.243	6870.23
708.588	6837.01
708.932	6741.42
709.277	6753.4
709.621	6732.38
709.966	6677.92
710.31	6744.13
710.654	6727.86
710.998	6655.55
711.342	6623.23
711.687	6651.7
712.031	6628.88
712.375	6638.14
712.719	6639.5
713.063	6650.8
713.407	6592.72
713.75	6606.73
714.094	6557.24
714.438	6514.53
714.782	6600.41
715.125	6492.61
715.469	6456.23
715.812	6477.02
716.156	6451.26
716.499	6471.6
716.843	6459.39
717.186	6467.98
717.53	6446.74
717.873	6400.18
718.216	6392.28
718.559	6439.05
718.902	6379.39
719.246	6431.82
719.589	6371.49
719.932	6376
720.275	6335.78
720.617	6350.92
720.96	6333.75
721.303	6303.92
721.646	6359.28
721.989	6335.78
722.331	6327.19
722.674	6272.96
723.016	6321.32
723.359	6347.98
723.701	6331.03
724.044	6233.64
724.386	6286.97
724.729	6314.09
725.071	6253.97
725.413	6288.32
725.755	6272.73
726.097	6276.12
726.439	6216.91
726.782	6231.6
727.124	6279.06
727.465	6237.93
727.807	6192.73
728.149	6214.88
728.491	6209
728.833	6263.24
729.175	6194.99
729.516	6222.56
729.858	6220.75
730.199	6258.49
730.541	6222.34
730.882	6251.71
731.224	6243.8
731.565	6153.64
731.906	6232.73
732.248	6173.75
732.589	6217.82
732.93	6172.17
733.271	6180.08
733.612	6209.23
733.953	6169.46
734.294	6216.01
734.635	6153.86
734.976	6228.89
735.317	6214.65
735.658	6187.99
735.999	6212.39
736.339	6209.68
736.68	6237.25
737.021	6228.66
737.361	6212.85
737.702	6256.46
738.042	6226.18
738.383	6187.31
738.723	6174.2
739.063	6253.52
739.404	6287.42
739.744	6308.21
740.084	6260.3
740.424	6283.35
740.764	6260.75
741.104	6310.02
741.444	6310.02
741.784	6282.22
742.124	6354.99
742.464	6348.66
742.804	6312.73
743.143	6337.81
743.483	6348.66
743.823	6408.55
744.162	6366.51
744.502	6434.31
744.841	6517.02
745.181	6535.32
745.52	6485.61
745.86	6567.41
746.199	6575.32
746.538	6572.38
746.877	6690.35
747.216	6748.65
747.556	6741.64
747.895	6788.65
748.234	6778.25
748.573	6830.23
748.911	6865.48
749.25	6885.6
749.589	6985.48
749.928	7057.34
750.267	7108.87
750.605	7173.27
750.944	7224.34
751.283	7295.75
751.621	7445.13
751.96	7493.04
752.298	7552.92
752.636	7611.9
752.975	7749.3
753.313	7723.99
753.651	7992.01
753.989	8025.23
754.327	8136.86
754.666	8161.04
755.004	8378.44
755.342	8498.21
755.679	8595.38
756.017	8700.01
756.355	8799.9
756.693	8861.59
757.031	9130.96
757.368	9161.69
757.706	9382.03
758.044	9534.57
758.381	9622.25
758.719	9855.01
759.056	9979.75
759.394	10102.23
759.731	10247.54
760.068	10435.11
760.405	10536.35
760.743	10706.06
761.08	10889.78
761.417	11065.82
761.754	11235.76
762.091	11424.91
762.428	11576.09
762.765	11680.05
763.102	11891.34
763.438	12016.31
763.775	12224.66
764.112	12446.81
764.449	12618.78
764.785	12706.91
765.122	12872.78
765.458	13010.86
765.795	13213.79
766.131	13402.49
766.467	13509.83
766.804	13646.32
767.14	13789.82
767.476	14021.68
767.812	14148.68
768.148	14415.34
768.485	14467.09
768.821	14470.48
769.157	14649.23
769.492	14784.37
769.828	14988.21
770.164	15037.47
770.5	15060.97
770.836	15296.9
771.171	15298.71
771.507	15497.57
771.842	15438.82
772.178	15593.84
772.513	15760.84
772.849	15924.91
773.184	15954.74
773.519	16117.67
773.855	16134.39
774.19	16101.4
774.525	16255.07
774.86	16352.92
775.195	16417.1
775.53	16493.7
775.865	16595.62
776.2	16539.35
776.535	16531.44
776.87	16667.26
777.205	16803.98
777.539	16837.65
777.874	16967.36
778.209	16867.48
778.543	16898.67
778.878	17026.12
779.212	16989.96
779.547	17025.67
779.881	17160.58
780.215	17101.37
780.55	17179.56
780.884	17154.7
781.218	17188.6
781.552	17280.35
781.886	17221.82
782.22	17297.07
782.554	17364.87
782.888	17124.2
783.222	17229.96
783.556	17231.09
783.889	17227.92
784.223	17234.25
784.557	17178.21
784.89	17246.45
785.224	17197.87
785.557	17104.99
785.891	17257.07
786.224	17271.54
786.558	17304.53
786.891	17114.25
787.224	17179.56
787.557	17137.08
787.891	17183.18
788.224	17164.87
788.557	17160.35
788.89	17181.6
789.223	17178.66
789.556	17077.19
789.888	17046.91
790.221	16976.4
790.554	16917.87
790.887	16909.51
791.219	16992.9
791.552	16961.26
791.884	16896.41
792.217	16939.79
792.549	16815.73
792.882	16738.22
793.214	16753.81
793.546	16770.31
793.879	16725.34
794.211	16705.68
794.543	16685.56
794.875	16655.28
795.207	16777.77
795.539	16629.52
795.871	16582.06
796.203	16542.29
796.535	16467.26
796.867	16560.14
797.198	16513.14
797.53	16432.92
797.862	16306.82
798.193	16375.29
798.525	16337.55
798.856	16329.64
799.188	16194.5
799.519	16083.55
799.85	16091.91
800.182	16109.99
800.513	16062.76
800.844	15948.86
801.175	16069.99
801.506	16138.23
801.837	16039.25
802.168	15983.44
802.499	15974.17
802.83	15904.79
803.161	15815.76
803.491	15891.23
803.822	15818.47
804.153	15830.45
804.483	15698.02
804.814	15716.78
805.145	15647.85
805.475	15622.32
805.805	15626.38
806.136	15624.8
806.466	15559.04
806.796	15528.31
807.126	15437.91
807.457	15398.14
807.787	15385.03
808.117	15369.44
808.447	15275.43
808.777	15333.96
809.107	15211.93
809.436	15257.81
809.766	15194.3
810.096	15190.46
810.426	15152.72
810.755	15134.87
811.085	15144.14
811.414	14994.76
811.744	15008.32
812.073	14987.3
812.403	14980.98
812.732	14884.48
813.061	14940.75
813.39	14914.09
813.719	14804.71
814.049	14875.22
814.378	14834.31
814.707	14762.22
815.036	14841.32
815.365	14728.1
815.693	14651.72
816.022	14609.46
816.351	14594.32
816.68	14425.06
817.008	14531.72
817.337	14498.5
817.665	14424.38
817.994	14545.96
818.322	14401.78
818.651	14405.4
818.979	14307.1
819.307	14384.38
819.636	14423.48
819.964	14255.57
820.292	14335.12
820.62	14355.91
820.948	14298.73
821.276	14345.96
821.604	14303.25
821.932	14286.31
822.259	14312.07
822.587	14296.7
822.915	14290.6
823.243	14342.35
823.57	14300.77
823.898	14281.56
824.225	14208.57
824.553	14252.41
824.88	14195.69
825.207	14317.72
825.535	14293.08
825.862	14261
826.189	14249.92
826.516	14345.74
826.843	14327.89
827.17	14265.06
827.497	14305.29
827.824	14260.32
828.151	14391.39
828.478	14294.89
828.805	14383.7
829.131	14372.86
829.458	14297.6
829.785	14282.01
830.111	14324.5
830.438	14312.52
830.764	14345.51
831.09	14364.04
831.417	14302.12
831.743	14308.9
832.069	14336.47
832.395	14252.63
832.722	14250.6
833.048	14315
833.374	14181.9
833.7	14225.97
834.026	14190.49
834.351	14192.97
834.677	14217.38
835.003	14322.24
835.329	14243.14
835.654	14276.36
835.98	14093.32
836.306	14137.61
836.631	14099.19
836.956	14191.39
837.282	14185.52
837.607	14100.1
837.932	14013.54
838.258	14024.84
838.583	14072.53
838.908	13950.04
839.233	14009.7
839.558	13954.34
839.883	13894.45
840.208	13892.87
840.533	13817.39
840.858	13888.8
841.182	13858.52
841.507	13856.26
841.832	13778.75
842.156	13742.36
842.481	13774.68
842.805	13688.13
843.13	13665.08
843.454	13580.11
843.778	13613.33
844.103	13532.88
844.427	13523.84
844.751	13563.61
845.075	13463.95
845.399	13487.46
845.723	13434.8
846.047	13369.95
846.371	13345.09
846.695	13271.42
847.019	13162.27
847.343	13152.1
847.666	13034.81
847.99	13059.9
848.313	12983.29
848.637	12901.48
848.96	12966.34
849.284	12907.36
849.607	12847.92
849.931	12767.02
850.254	12662.85
850.577	12616.97
850.9	12553.24
851.223	12562.73
851.546	12466.92
851.869	12346.47
852.192	12460.59
852.515	12348.5
852.838	12271.44
853.161	12268.28
853.483	12274.61
853.806	12252.69
854.129	12312.35
854.451	12137.66
854.774	12007.27
855.096	12048.85
855.419	11923.66
855.741	11970.43
856.063	11905.35
856.385	11901.28
856.708	11790.78
857.03	11798.69
857.352	11804.11
857.674	11739.48
857.996	11736.32
858.318	11666.04
858.64	11711.91
858.961	11633.95
859.283	11539.26
859.605	11516.21
859.926	11473.72
860.248	11532.71
860.57	11413.39
860.891	11532.25
861.212	11441.41
861.534	11347.17
861.855	11296.1
862.176	11270.34
862.498	11412.03
862.819	11370.45
863.14	11190.12
863.461	11224.46
863.782	11186.05
864.103	11178.59
864.424	11123
864.745	11209.1
865.065	11127.07
865.386	11112.83
865.707	11038.93
866.027	11083.9
866.348	10986.73
866.668	11026.73
866.989	11061.31
867.309	11026.5
867.63	10976.79
867.95	10965.04
868.27	10818.83
868.59	10925.26
868.91	10891.82
869.23	10881.42
869.55	10785.61
869.87	10916.68
870.19	10857.47
870.51	10850.46
870.83	10853.63
871.15	10814.08
871.469	10736.79
871.789	10787.64
872.109	10647.98
872.428	10827.19
872.748	10715.1
873.067	10669.45
873.386	10618.15
873.706	10699.05
874.025	10595.1
874.344	10618.15
874.663	10617.02
874.982	10548.55
875.301	10610.7
875.62	10492.51
875.939	10555.33
876.258	10493.64
876.577	10456.8
876.896	10416.58
877.214	10454.99
877.533	10380.65
877.852	10418.61
878.17	10471.72
878.489	10394.66
878.807	10364.15
879.125	10367.09
879.444	10313.53
879.762	10347.65
880.08	10303.36
880.398	10329.57
880.716	10240.99
881.034	10264.94
881.352	10241.67
881.67	10189.92
881.988	10175.23
882.306	10198.05
882.624	10152.85
882.941	10025.63
883.259	10020.2
883.577	10048.68
883.894	10040.54
884.212	10070.14
884.529	9959.87
884.846	10018.62
885.164	9970.94
885.481	9979.53
885.798	9994.67
886.115	9869.47
886.432	9866.31
886.75	9814.33
887.067	9876.93
887.383	9822.92
887.7	9760.32
888.017	9757.61
888.334	9813.88
888.651	9677.61
888.967	9646.65
889.284	9619.99
889.6	9635.13
889.917	9592.19
890.233	9559.88
890.55	9579.76
890.866	9578.18
891.182	9494.79
891.498	9479.43
891.815	9431.07
892.131	9361.46
892.447	9376.83
892.763	9333.22
893.079	9353.78
893.395	9268.81
893.71	9308.36
894.026	9232.2
894.342	9189.94
894.657	9169.38
894.973	9104.97
895.289	9090.96
895.604	9047.57
895.92	8979.55
896.235	8958.99
896.55	9008.7
896.865	8941.13
897.181	8923.28
897.496	8918.08
897.811	8866.33
898.126	8838.76
898.441	8787.69
898.756	8749.95
899.071	8693.68
899.386	8745.21
899.7	8633.35
900.015	8629.96
900.33	8538.21
900.644	8544.99
900.959	8541.37
901.273	8514.93
901.588	8491.43
901.902	8402.39
902.216	8362.39
902.531	8394.26
902.845	8392.9
903.159	8360.13
903.473	8250.31
903.787	8267.03
904.101	8169.4
904.415	8224.32
904.729	8178.22
905.042	8107.94
905.356	8170.08
905.67	8032.23
905.984	8020.26
906.297	8022.06
906.611	7979.13
906.924	7923.99
907.237	7971.89
907.551	7915.17
907.864	7848.51
908.177	7848.73
908.491	7818
908.804	7784.1
909.117	7698.68
909.43	7661.85
909.743	7623.43
910.056	7693.03
910.368	7605.12
910.681	7573.49
910.994	7641.51
911.307	7476.77
911.619	7467.73
911.932	7478.8
912.244	7359.03
912.557	7368.97
912.869	7292.59
913.181	7246.72
913.494	7336.66
913.806	7233.38
914.118	7219.82
914.43	7237.68
914.742	7172.37
915.054	7196.1
915.366	7169.2
915.678	7068.19
915.99	7103.22
916.302	7010.79
916.613	6951.13
916.925	7005.37
917.236	6982.32
917.548	6872.94
917.859	6946.84
918.171	6852.38
918.482	6860.51
918.794	6841.98
919.105	6792.49
919.416	6782.55
919.727	6700.06
920.038	6737.35
920.349	6683.57
920.66	6649.9
920.971	6659.61
921.282	6629.11
921.593	6586.62
921.903	6559.73
922.214	6523.12
922.525	6475.66
922.835	6496
923.146	6450.35
923.456	6466.85
923.767	6448.55
924.077	6325.38
924.387	6347.98
924.697	6273.18
925.008	6301.66
925.318	6286.29
925.628	6253.07
925.938	6206.74
926.248	6166.52
926.558	6180.76
926.867	6141.43
927.177	6095.79
927.487	6083.58
927.796	6064.15
928.106	6011.04
928.416	6036.13
928.725	5984.6
929.034	5981.66
929.344	6005.62
929.653	5916.81
929.962	5929.91
930.271	5842.01
930.581	5818.73
930.89	5786.42
931.199	5747.77
931.508	5803.82
931.817	5743.03
932.125	5734.44
932.434	5763.37
932.743	5645.18
933.051	5649.24
933.36	5615.35
933.669	5587.55
933.977	5577.61
934.286	5540.32
934.594	5545.29
934.902	5520.66
935.21	5433.66
935.519	5496.48
935.827	5460.77
936.135	5404.05
936.443	5320.21
936.751	5360.21
937.059	5315.24
937.367	5318.86
937.674	5296.94
937.982	5302.81
938.29	5242.93
938.597	5247.45
938.905	5229.14
939.213	5174.45
939.52	5138.75
939.827	5150.5
940.135	5076.83
940.442	5138.75
940.749	5081.8
941.056	5081.12
941.363	5020.33
941.67	4962.71
941.977	4995.25
942.284	4923.39
942.591	4961.13
942.898	4933.1
943.205	4952.77
943.511	4863.5
943.818	4902.82
944.125	4827.12
944.431	4818.53
944.738	4832.32
945.044	4790.96
945.35	4760.45
945.657	4753.45
945.963	4755.48
946.269	4768.14
946.575	4666.22
946.881	4640.46
947.187	4671.19
947.493	4639.1
947.799	4648.82
948.105	4616.5
948.41	4589.16
948.716	4607.92
949.022	4561.59
949.327	4507.35
949.633	4484.3
949.938	4456.51
950.244	4463.74
950.549	4432.1
950.854	4412.21
951.16	4398.43
951.465	4376.51
951.77	4361.14
952.075	4369.05
952.38	4337.87
952.685	4294.93
952.99	4275.27
953.294	4249.05
953.599	4247.02
953.904	4249.73
954.209	4212.9
954.513	4209.96
954.818	4198.89
955.122	4125.89
955.426	4195.05
955.731	4153.92
956.035	4103.97
956.339	4106.01
956.643	4088.38
956.948	4053.13
957.252	4046.8
957.556	4047.48
957.86	4017.87
958.163	4030.3
958.467	3984.2
958.771	3936.29
959.075	3958.22
959.378	3933.36
959.682	3927.03
959.985	3926.13
960.289	3910.98
960.592	3835.28
960.896	3847.71
961.199	3762.74
961.502	3814.04
961.805	3756.64
962.108	3794.83
962.411	3732.68
962.714	3748.05
963.017	3737.43
963.32	3727.03
963.623	3707.37
963.926	3733.81
964.228	3683.42
964.531	3652.01
964.833	3631.9
965.136	3609.52
965.438	3573.59
965.741	3607.04
966.043	3597.09
966.345	3584.89
966.648	3529.98
966.95	3570.43
967.252	3486.14
967.554	3514.38
967.856	3472.58
968.158	3462.18
968.46	3487.72
968.761	3424.22
969.063	3459.92
969.365	3418.79
969.666	3386.7
969.968	3376.54
970.269	3349.64
970.571	3374.95
970.872	3329.53
971.174	3315.97
971.475	3328.63
971.776	3279.36
972.077	3265.35
972.378	3265.58
972.679	3283.43
972.98	3271.91
973.281	3214.73
973.582	3193.72
973.883	3226.03
974.183	3140.61
974.484	3201.62
974.785	3175.64
975.085	3160.27
975.386	3159.82
975.686	3153.49
975.986	3097.67
976.287	3070.33
976.587	3062.87
976.887	3073.49
977.187	3017.45
977.487	3027.84
977.787	3003.21
978.087	3008.64
978.387	2993.95
978.687	2990.33
978.987	2982.42
979.286	2880.5
979.586	2953.95
979.885	2942.2
980.185	2948.98
980.484	2875.31
980.784	2908.53
981.083	2890.67
981.382	2858.13
981.682	2854.52
981.981	2849.09
982.28	2814.97
982.579	2793.5
982.878	2812.26
983.177	2758.25
983.475	2791.24
983.774	2772.48
984.073	2738.36
984.372	2716.67
984.67	2773.61
984.969	2722.32
985.267	2715.31
985.566	2710.11
985.864	2711.47
986.162	2664.69
986.461	2626.05
986.759	2603.22
987.057	2616.1
987.355	2627.63
987.653	2566.39
987.951	2554.64
988.249	2612.26
988.547	2569.55
988.844	2538.59
989.142	2519.83
989.44	2560.29
989.737	2515.09
990.035	2551.02
990.332	2495.43
990.63	2478.25
990.927	2443.9
991.224	2450.91
991.521	2474.41
991.819	2436.67
992.116	2442.77
992.413	2422.66
992.71	2430.35
993.006	2387.86
993.303	2399.39
993.6	2431.02
993.897	2370.46
994.193	2374.53
994.49	2330.01
994.787	2292.95
995.083	2284.36
995.379	2321.65
995.676	2328.43
995.972	2284.59
996.268	2231.93
996.565	2268.54
996.861	2253.85
997.157	2246.62
997.453	2222.89
997.749	2235.77
998.044	2201.43
998.34	2190.35
998.636	2167.3
998.932	2205.49
999.227	2139.28
999.523	2181.09
999.818	2173.4
1000.114	2123.24
1000.409	2101.09
1000.704	2116.68
1001	2105.16
1001.295	2077.59
1001.59	2061.32
1001.885	2088.43
1002.18	2033.75
1002.475	2036.01
1002.77	1998.04
1003.065	2023.8
1003.359	1993.75
1003.654	2003.01
1003.949	1994.65
1004.243	1972.05
1004.538	1963.92
1004.832	1982.9
1005.127	1941.09
1005.421	1947.65
1005.715	1913.75
1006.009	1936.57
1006.304	1920.08
1006.598	1894.54
1006.892	1876.24
1007.186	1851.15
1007.48	1846.41
1007.773	1835.11
1008.067	1814.99
1008.361	1793.98
1008.655	1844.15
1008.948	1782.23
1009.242	1774.54
1009.535	1776.8
1009.829	1785.16
1010.122	1780.42
1010.415	1768.89
1010.708	1737.93
1011.001	1755.34
1011.295	1682.79
1011.588	1720.99
1011.881	1681.44
1012.173	1689.57
1012.466	1675.56
1012.759	1672.85
1013.052	1704.26
1013.344	1645.06
1013.637	1655.45
1013.93	1647.32
1014.222	1621.33
1014.514	1638.95
1014.807	1615.45
1015.099	1585.17
1015.391	1568.22
1015.683	1596.02
1015.976	1552.63
1016.268	1580.42
1016.56	1543.14
1016.851	1536.58
1017.143	1532.97
1017.435	1517.6
1017.727	1512.18
1018.018	1528.9
1018.31	1495.91
1018.602	1484.83
1018.893	1474.21
1019.185	1450.94
1019.476	1458.85
1019.767	1451.61
1020.058	1471.05
1020.35	1428.34
1020.641	1412.75
1020.932	1405.51
1021.223	1402.35
1021.514	1393.54
1021.804	1369.81
1022.095	1370.94
1022.386	1378.17
1022.677	1354.67
1022.967	1334.78
1023.258	1332.75
1023.548	1341.56
1023.839	1311.96
1024.129	1334.78
1024.419	1309.47
1024.709	1299.08
1025	1273.99
1025.29	1269.7
1025.58	1291.17
1025.87	1240.09
1026.16	1264.27
1026.449	1238.29
1026.739	1227.89
1027.029	1264.27
1027.319	1225.41
1027.608	1227.44
1027.898	1224.28
1028.187	1215.46
1028.477	1203.49
1028.766	1219.08
1029.055	1203.03
1029.344	1154.45
1029.634	1150.61
1029.923	1136.82
1030.212	1155.12
1030.501	1146.09
1030.79	1102.47
1031.078	1128.01
1031.367	1117.61
1031.656	1133.2
1031.945	1096.82
1032.233	1060.89
1032.522	1092.98
1032.81	1086.2
1033.099	1083.94
1033.387	1080.78
1033.675	1057.5
1033.963	1045.98
1034.251	1041.23
1034.54	1036.03
1034.828	1062.7
1035.116	1041.68
1035.403	1011.4
1035.691	1007.33
1035.979	1010.04
1036.267	999.2
1036.554	999.65
1036.842	998.07
1037.129	968.69
1037.417	972.76
1037.704	970.05
1037.992	976.82
1038.279	957.39
1038.566	931.85
1038.853	931.85
1039.14	931.85
