Data from hue_90_FLMS001491_68.txt Node
Date: Mon Feb 06 15:25:29 GMT 2017
User: dcchb
Spectrometer: FLMS00149
Trigger mode: 0
Integration Time (sec): 2.000000E-2
Scans to average: 10
Electric dark correction enabled: true
Nonlinearity correction enabled: false
Boxcar width: 0
XAxis mode: Wavelengths
Number of Pixels in Spectrum: 2048
>>>>>Begin Spectral Data<<<<<
341.393	-15.3
341.776	-15.3
342.16	-15.3
342.543	-55.07
342.927	-74.28
343.31	-62.07
343.693	-69.76
344.077	-62.3
344.46	-56.65
344.843	-51.45
345.226	-51.68
345.61	-3.77
345.993	-33.37
346.376	14.99
346.759	1.88
347.142	19.28
347.525	23.35
347.908	67.19
348.291	59.73
348.674	89.11
349.057	115.55
349.44	132.95
349.823	154.19
350.206	170.46
350.588	184.92
350.971	221.08
351.354	221.53
351.737	244.81
352.119	242.55
352.502	271.93
352.884	268.09
353.267	294.53
353.65	286.84
354.032	301.53
354.414	306.5
354.797	313.06
355.179	323.9
355.562	327.07
355.944	326.62
356.326	340.63
356.709	316.22
357.091	331.59
357.473	351.7
357.855	335.43
358.238	343.56
358.62	329.33
359.002	335.88
359.384	330.46
359.766	328.65
360.148	347.41
360.53	334.75
360.912	327.97
361.294	340.63
361.676	328.2
362.057	338.59
362.439	329.1
362.821	322.55
363.203	317.35
363.584	341.98
363.966	317.58
364.348	314.19
364.729	311.47
365.111	329.1
365.493	313.73
365.874	314.41
366.256	324.81
366.637	311.25
367.019	328.42
367.4	315.54
367.781	294.3
368.163	336.11
368.544	304.92
368.925	291.36
369.306	327.07
369.688	323.23
370.069	307.63
370.45	312.6
370.831	301.76
371.212	313.96
371.593	307.41
371.974	326.16
372.355	318.71
372.736	320.06
373.117	311.7
373.498	314.41
373.879	295.2
374.26	313.96
374.641	336.11
375.021	318.03
375.402	340.85
375.783	324.81
376.163	327.97
376.544	342.21
376.925	320.74
377.305	324.81
377.686	319.61
378.066	340.63
378.447	343.56
378.827	333.17
379.208	342.89
379.588	335.43
379.968	334.75
380.349	333.17
380.729	332.94
381.109	335.43
381.489	338.14
381.87	334.3
382.25	344.47
382.63	331.81
383.01	337.24
383.39	360.51
383.77	355.09
384.15	348.54
384.53	361.19
384.91	351.7
385.29	354.41
385.67	334.98
386.049	343.11
386.429	355.77
386.809	350.57
387.189	351.7
387.568	362.55
387.948	347.18
388.328	361.42
388.707	374.52
389.087	360.51
389.466	358.71
389.846	357.58
390.225	394.18
390.605	379.27
390.984	399.61
391.363	370.46
391.743	374.98
392.122	384.47
392.501	385.6
392.881	390.34
393.26	353.73
393.639	369.33
394.018	379.27
394.397	391.02
394.776	360.74
395.155	406.16
395.534	381.98
395.913	384.69
396.292	397.12
396.671	400.74
397.05	405.71
397.429	397.12
397.808	405.48
398.186	390.79
398.565	411.59
398.944	403.45
399.323	402.32
399.701	409.78
400.08	390.79
400.458	405.71
400.837	398.93
401.215	396.44
401.594	402.77
401.972	418.14
402.351	420.62
402.729	409.33
403.107	428.99
403.486	426.95
403.864	425.37
404.242	416.33
404.62	422.66
404.999	439.16
405.377	446.39
405.755	419.95
406.133	418.82
406.511	425.37
406.889	446.16
407.267	430.57
407.645	446.84
408.023	434.41
408.401	466.95
408.779	457.69
409.156	471.47
409.534	456.78
409.912	454.97
410.29	456.33
410.667	481.19
411.045	468.98
411.422	479.61
411.8	480.96
412.178	496.55
412.555	471.92
412.933	467.63
413.31	506.95
413.687	504.69
414.065	495.42
414.442	487.74
414.819	510.11
415.197	508.53
415.574	502.2
415.951	504.69
416.328	513.96
416.705	530
417.082	519.38
417.46	520.73
417.837	525.93
418.214	515.76
418.591	554.86
418.967	537.46
419.344	523.9
419.721	561.19
420.098	547.63
420.475	546.04
420.852	559.6
421.228	558.02
421.605	553.28
421.982	560.28
422.358	556.21
422.735	588.76
423.111	579.04
423.488	586.72
423.864	593.5
424.241	599.83
424.617	590.34
424.994	601.86
425.37	579.26
425.746	614.29
426.123	599.38
426.499	590.79
426.875	605.48
427.251	627.17
427.627	622.43
428.003	642.31
428.379	617.68
428.756	636.44
429.132	629.88
429.507	661.3
429.883	678.02
430.259	650.67
430.635	670.34
431.011	672.82
431.387	674.63
431.763	686.38
432.138	681.41
432.514	673.05
432.89	687.96
433.265	697.23
433.641	713.5
434.016	720.05
434.392	749.66
434.767	728.87
435.143	725.7
435.518	742.42
435.894	753.05
436.269	733.38
436.644	752.14
437.02	748.07
437.395	767.28
437.77	786.72
438.145	767.96
438.52	780.62
438.895	790.56
439.271	794.4
439.646	839.37
440.021	816.55
440.395	816.77
440.77	814.74
441.145	845.92
441.52	833.04
441.895	821.52
442.27	820.84
442.645	852.48
443.019	837.56
443.394	863.1
443.769	857.45
444.143	842.76
444.518	876.88
444.892	874.85
445.267	879.14
445.641	890.44
446.016	895.64
446.39	904.91
446.764	896.54
447.139	892.93
447.513	915.53
447.887	897.67
448.262	920.95
448.636	932.7
449.01	930.44
449.384	936.09
449.758	963.21
450.132	968.18
450.506	943.1
450.88	966.82
451.254	967.05
451.628	1002.3
452.002	998.46
452.376	1014.96
452.75	999.59
453.123	1030.78
453.497	1038.01
453.871	1047.27
454.244	1062.64
454.618	1069.87
454.992	1083.66
455.365	1067.61
455.739	1076.43
456.112	1094.96
456.486	1091.57
456.859	1148.51
457.232	1158.23
457.606	1153.71
457.979	1160.49
458.352	1180.83
458.725	1197.55
459.099	1214.5
459.472	1230.55
459.845	1222.64
460.218	1243.88
460.591	1276.87
460.964	1271
461.337	1314.61
461.71	1318.45
462.083	1322.3
462.456	1377.44
462.829	1350.77
463.201	1374.27
463.574	1360.03
463.947	1411.78
464.32	1460.37
464.692	1447.26
465.065	1499.01
465.438	1473.03
465.81	1489.97
466.183	1540.6
466.555	1582.85
466.928	1572.46
467.3	1555.06
467.672	1616.75
468.045	1654.49
468.417	1690.42
468.789	1683.87
469.161	1657.43
469.534	1751.66
469.906	1776.3
470.278	1808.16
470.65	1799.8
471.022	1866.46
471.394	1903.3
471.766	1912.11
472.138	2005.89
472.51	2016.51
472.882	2065.1
473.253	2105.78
473.625	2128.38
473.997	2223.06
474.369	2228.26
474.74	2261.71
475.112	2334.7
475.484	2386.45
475.855	2410.85
476.227	2466.22
476.598	2548.48
476.97	2625.31
477.341	2661.02
477.713	2754.57
478.084	2792.09
478.455	2900.11
478.827	2950.73
479.198	3084.06
479.569	3089.93
479.94	3216.03
480.311	3300.55
480.682	3395.91
481.053	3476.82
481.424	3566.98
481.795	3628.68
482.166	3759.29
482.537	3843.59
482.908	3978.27
483.279	4050.59
483.65	4156.8
484.021	4309.11
484.391	4418.03
484.762	4483.34
485.133	4629.78
485.503	4682.89
485.874	4869.55
486.244	4948.64
486.615	5075.19
486.985	5255.98
487.356	5385.69
487.726	5467.5
488.097	5698.45
488.467	5711.11
488.837	5909.52
489.207	6082.62
489.578	6180.47
489.948	6298.21
490.318	6470.41
490.688	6569.84
491.058	6755.37
491.428	6944.75
491.798	7016.38
492.168	7279.43
492.538	7415.47
492.908	7485.75
493.278	7681
493.648	7744.5
494.017	7947.66
494.387	8033.98
494.757	8169.8
495.126	8360.98
495.496	8433.75
495.866	8586.51
496.235	8738.82
496.605	8905.15
496.974	8959.84
497.344	9100.4
497.713	9253.84
498.082	9359.82
498.452	9547.39
498.821	9654.73
499.19	9672.36
499.559	9878.91
499.928	9986.25
500.298	10134.27
500.667	10277.09
501.036	10276.18
501.405	10455.61
501.774	10529.06
502.143	10694.03
502.512	10741.48
502.88	10880.69
503.249	10921.14
503.618	10998.43
503.987	11106.22
504.356	11225.54
504.724	11379.21
505.093	11409.94
505.462	11464.63
505.83	11665.07
506.199	11700.55
506.567	11853.77
506.936	11958.17
507.304	12016.25
507.672	12094.89
508.041	12094.44
508.409	12239.3
508.777	12288.11
509.145	12461.44
509.514	12398.39
509.882	12484.49
510.25	12567.2
510.618	12661.21
510.986	12712.96
511.354	12862.78
511.722	12984.36
512.09	13049.22
512.458	12992.5
512.826	13102.32
513.193	13161.31
513.561	13209.21
513.929	13336.44
514.297	13383.22
514.664	13413.05
515.032	13438.14
515.4	13484.24
515.767	13572.82
516.135	13607.17
516.502	13564.69
516.869	13764.91
517.237	13782.76
517.604	13683.78
517.972	13876.99
518.339	13967.16
518.706	13952.47
519.073	13882.87
519.44	14017.78
519.808	14121.28
520.175	14010.1
520.542	14200.38
520.909	14221.17
521.276	14194.05
521.643	14333.48
522.009	14326.47
522.376	14358.56
522.743	14458.9
523.11	14505
523.477	14489.41
523.843	14577.99
524.21	14754.48
524.577	14755.84
524.943	14776.63
525.31	14799
525.676	14886.23
526.043	14889.62
526.409	14928.49
526.776	14977.08
527.142	14967.36
527.508	15013.46
527.874	15116.74
528.241	15029.96
528.607	15093.46
528.973	15020.24
529.339	15046
529.705	15094.14
530.071	15126.9
530.437	15175.72
530.803	15235.15
531.169	15244.87
531.535	15149.73
531.901	15159.22
532.267	15140.92
532.632	15162.84
532.998	15100.46
533.364	15198.99
533.73	15133.91
534.095	15157.64
534.461	15185.89
534.826	15219.11
535.192	15094.81
535.557	15221.37
535.923	15107.92
536.288	15128.94
536.653	15155.83
537.019	15020.92
537.384	15097.75
537.749	15104.53
538.114	15125.55
538.479	15015.27
538.845	14956.51
539.21	14895.5
539.575	14890.75
539.94	14919
540.305	14997.19
540.67	14844.43
541.034	14822.28
541.399	14900.24
541.764	14844.88
542.129	14796.74
542.494	14815.95
542.858	14654.83
543.223	14645.56
543.587	14696.41
543.952	14551.1
544.316	14617.31
544.681	14472.01
545.045	14566.69
545.41	14599.01
545.774	14526.02
546.138	14539.12
546.503	14423.87
546.867	14369.18
547.231	14403.76
547.595	14291.45
547.959	14288.96
548.324	14228.85
548.688	14183.88
549.052	14201.28
549.416	14164.9
549.779	14113.15
550.143	14045.58
550.507	14190.66
550.871	14097.1
551.235	14042.41
551.599	14127.83
551.962	14051.45
552.326	14014.84
552.689	14026.59
553.053	13916.31
553.417	13868.86
553.78	14068.18
554.143	13813.94
554.507	13893.72
554.87	13920.61
555.234	13907.28
555.597	13827.96
555.96	13824.57
556.323	13844.23
556.686	13672.93
557.05	13777.79
557.413	13824.11
557.776	13718.81
558.139	13837.22
558.502	13727.17
558.865	13666.83
559.228	13824.34
559.59	13699.6
559.953	13658.47
560.316	13872.25
560.679	13716.77
561.041	13689.2
561.404	13841.51
561.767	13817.11
562.129	13713.38
562.492	13780.05
562.854	13750.9
563.217	13636.55
563.579	13732.82
563.941	13770.78
564.304	13857.11
564.666	13822.53
565.028	13824.11
565.39	13834.96
565.753	13795.64
566.115	13810.1
566.477	13792.02
566.839	13923.32
567.201	13898.69
567.563	13841.51
567.925	13989.08
568.287	13887.16
568.648	13959.93
569.01	13989.31
569.372	14006.03
569.734	14000.15
570.095	14016.65
570.457	14027.72
570.819	14038.8
571.18	14011
571.542	14066.82
571.903	14095.07
572.265	14087.38
572.626	14127.38
572.987	14005.13
573.349	14086.03
573.71	14162.18
574.071	14150.21
574.432	14107.27
574.794	14215.06
575.155	14146.14
575.516	14096.2
575.877	14221.39
576.238	14214.16
576.599	14161.96
576.96	14235.85
577.32	14100.04
577.681	14242.41
578.042	14230.88
578.403	14237.89
578.763	14216.42
579.124	14231.33
579.485	14260.71
579.845	14260.26
580.206	14239.24
580.566	14249.19
580.927	14255.06
581.287	14240.6
581.648	14191.34
582.008	14224.78
582.368	14232.46
582.728	14262.75
583.089	14246.93
583.449	14165.8
583.809	14133.03
584.169	14148.17
584.529	14134.16
584.889	14207.61
585.249	14164.9
585.609	14072.02
585.969	14218.45
586.329	14157.89
586.688	14056.42
587.048	14085.12
587.408	14097.1
587.768	14109.53
588.127	14049.64
588.487	14041.51
588.846	14076.76
589.206	14043.09
589.565	13972.58
589.925	14077.89
590.284	14009.19
590.643	13948.63
591.003	14092.81
591.362	14075.41
591.721	13996.09
592.08	14074.95
592.44	13991.57
592.799	13994.73
593.158	13985.24
593.517	14012.58
593.876	14020.94
594.235	13937.11
594.593	13912.25
594.952	13940.04
595.311	13875.19
595.67	13929.42
596.029	14013.04
596.387	14045.8
596.746	13980.04
597.104	13895.98
597.463	13917.22
597.822	14008.97
598.18	13888.52
598.538	13807.17
598.897	13938.24
599.255	13777.56
599.613	13966.26
599.972	13908.18
600.33	13891.91
600.688	13836.54
601.046	13850.78
601.404	13955.18
601.762	13863.21
602.12	14006.26
602.478	13969.42
602.836	14005.58
603.194	13827.96
603.552	13866.82
603.91	13768.97
604.268	13787.96
604.625	13808.97
604.983	13827.05
605.341	13807.39
605.698	13914.28
606.056	13870.21
606.413	13820.05
606.771	13990.89
607.128	13945.69
607.485	13826.15
607.843	13779.82
608.2	13866.82
608.557	13915.64
608.914	13897.11
609.272	13932.81
609.629	13907.95
609.986	14051.68
610.343	13937.11
610.7	13978.91
611.057	13979.14
611.414	14004.22
611.771	14061.4
612.127	14008.06
612.484	14056.2
612.841	14035.18
613.198	14032.24
613.554	14105.01
613.911	14106.14
614.267	14074.28
614.624	14147.72
614.98	14044.45
615.337	14186.59
615.693	14148.85
616.05	14097.1
616.406	14215.29
616.762	14119.7
617.118	14119.93
617.475	14185.91
617.831	14119.47
618.187	14138.68
618.543	14238.34
618.899	14309.52
619.255	14256.64
619.611	14169.87
619.967	14359.47
620.323	14313.37
620.678	14210.32
621.034	14176.2
621.39	14175.07
621.746	14297.55
622.101	14303.88
622.457	14239.47
622.812	14281.05
623.168	14188.4
623.523	14325.34
623.879	14292.35
624.234	14188.85
624.589	14283.31
624.945	14311.33
625.3	14286.25
625.655	14234.5
626.01	14269.3
626.365	14264.1
626.72	14310.43
627.075	14270.43
627.43	14181.17
627.785	14161.28
628.14	14246.7
628.495	14233.59
628.85	14227.27
629.205	14132.13
629.559	14277.21
629.914	14157.21
630.269	14101.62
630.623	14083.09
630.978	14057.78
631.332	14088.74
631.687	14164.67
632.041	14111.79
632.396	14072.02
632.75	14130.77
633.104	14099.81
633.459	14058.91
633.813	13959.03
634.167	13990.21
634.521	13943.66
634.875	14021.62
635.229	14003.09
635.583	13959.93
635.937	13891.91
636.291	13904.34
636.645	13942.3
636.999	13923.09
637.352	13895.07
637.706	13799.93
638.06	13906.82
638.413	13822.31
638.767	13853.27
639.121	13778.92
639.474	13732.36
639.828	13753.16
640.181	13759.26
640.534	13752.03
640.888	13688.07
641.241	13669.77
641.594	13698.69
641.947	13704.8
642.301	13686.94
642.654	13682.65
643.007	13706.15
643.36	13723.55
643.713	13649.43
644.066	13714.29
644.419	13593.84
644.771	13415.31
645.124	13421.86
645.477	13360.17
645.83	13347.52
646.182	13217.35
646.535	13152.72
646.888	13201.98
647.24	13168.54
647.593	13200.85
647.945	13153.85
648.298	13115.88
648.65	13016.68
649.002	13125.6
649.355	13208.31
649.707	13137.35
650.059	13213.28
650.411	13283.11
650.763	13394.07
651.115	13488.53
651.467	13412.37
651.819	13482.2
652.171	13473.16
652.523	13427.97
652.875	13360.17
653.227	13390.45
653.578	13484.46
653.93	13472.03
654.282	13481.3
654.633	13404.92
654.985	13437.01
655.337	13411.92
655.688	13384.8
656.039	13491.92
656.391	13399.72
656.742	13430
657.094	13390.68
657.445	13456.44
657.796	13419.83
658.147	13411.47
658.498	13461.41
658.849	13435.65
659.2	13510.22
659.551	13482.2
659.902	13470
660.253	13451.69
660.604	13458.7
660.955	13399.94
661.306	13515.65
661.656	13481.98
662.007	13414.41
662.358	13466.84
662.708	13496.44
663.059	13486.5
663.409	13438.14
663.76	13487.4
664.11	13498.92
664.461	13538.25
664.811	13606.94
665.161	13511.81
665.511	13539.83
665.862	13457.34
666.212	13509.32
666.562	13567.17
666.912	13494.63
667.262	13554.52
667.612	13519.72
667.962	13569.21
668.312	13602.88
668.662	13646.27
669.011	13486.95
669.361	13511.81
669.711	13491.69
670.06	13443.33
670.41	13472.71
670.76	13434.97
671.109	13524.46
671.459	13488.53
671.808	13391.13
672.157	13486.04
672.507	13423.22
672.856	13467.51
673.205	13421.41
673.554	13426.16
673.904	13397.46
674.253	13434.52
674.602	13446.72
674.951	13273.39
675.3	13147.75
675.649	13309.55
675.998	13327.63
676.346	13295.99
676.695	13376.44
677.044	13269.1
677.393	13324.92
677.741	13363.56
678.09	13251.93
678.438	13251.93
678.787	13315.65
679.135	13145.49
679.484	13187.52
679.832	13208.31
680.181	13095.09
680.529	13254.41
680.877	13122.44
681.225	13126.28
681.573	13092.61
681.922	13101.2
682.27	13028.65
682.618	13002.44
682.966	12934.19
683.314	13002.89
683.661	12995.44
684.009	12873.86
684.357	12881.99
684.705	12804.93
685.053	12906.85
685.4	12751.6
685.748	12727.87
686.095	12766.06
686.443	12670.47
686.79	12652.62
687.138	12738.94
687.485	12631.83
687.832	12674.77
688.18	12615.78
688.527	12597.71
688.874	12515.9
689.221	12517.26
689.568	12466.64
689.915	12455.79
690.262	12366.07
690.609	12318.16
690.956	12256.92
691.303	12254.89
691.65	12295.57
691.997	12145.97
692.344	12185.74
692.69	12150.26
693.037	12107.1
693.383	11982.81
693.73	12050.15
694.077	11975.12
694.423	11950.72
694.769	11929.7
695.116	11756.82
695.462	11817.61
695.808	11741.91
696.155	11745.52
696.501	11641.57
696.847	11681.57
697.193	11573.1
697.539	11591.63
697.885	11534
698.231	11425.98
698.577	11450.17
698.923	11382.37
699.269	11389.6
699.614	11360.45
699.96	11269.38
700.306	11290.85
700.651	11197.06
700.997	11189.83
701.342	11129.95
701.688	11109.83
702.033	11073.68
702.379	10972.21
702.724	10962.95
703.069	11020.57
703.415	10763.4
703.76	10849.5
704.105	10819.9
704.45	10773.35
704.795	10721.37
705.14	10666.23
705.485	10635.5
705.83	10559.57
706.175	10595.95
706.52	10588.49
706.865	10596.63
707.209	10496.29
707.554	10549.4
707.899	10558.21
708.243	10404.54
708.588	10398.89
708.932	10338.78
709.277	10339.23
709.621	10284.55
709.966	10288.61
710.31	10297.65
710.654	10212.46
710.998	10223.53
711.342	10195.51
711.687	10291.33
712.031	10167.03
712.375	10123.87
712.719	10144.44
713.063	10039.13
713.407	10129.52
713.75	10047.04
714.094	10073.48
714.438	9982.18
714.782	10007.27
715.125	9957.1
715.469	9955.52
715.812	9817.67
716.156	9795.52
716.499	9867.61
716.843	9912.35
717.186	9829.87
717.53	9843.88
717.873	9859.25
718.216	9821.06
718.559	9713.71
718.902	9745.35
719.246	9737.44
719.589	9696.09
719.932	9707.61
720.275	9626.94
720.617	9660.83
720.96	9657.9
721.303	9635.3
721.646	9627.84
721.989	9564.56
722.331	9616.99
722.674	9591.46
723.016	9556.88
723.359	9559.37
723.701	9610.89
724.044	9492.93
724.386	9488.86
724.729	9551.01
725.071	9463.55
725.413	9533.61
725.755	9466.71
726.097	9422.2
726.439	9444.79
726.782	9479.14
727.124	9431.24
727.465	9441.4
727.807	9523.66
728.149	9476.88
728.491	9425.36
728.833	9404.8
729.175	9403.21
729.516	9407.96
729.858	9387.62
730.199	9430.11
730.541	9403.67
730.882	9414.29
731.224	9459.71
731.565	9312.14
731.906	9346.72
732.248	9451.35
732.589	9372.03
732.93	9369.32
733.271	9267.4
733.612	9276.89
733.953	9401.18
734.294	9343.33
734.635	9325.02
734.976	9285.93
735.317	9310.33
735.658	9363.44
735.999	9313.5
736.339	9385.13
736.68	9418.58
737.021	9363.21
737.361	9358.92
737.702	9477.56
738.042	9445.47
738.383	9420.39
738.723	9432.82
739.063	9390.78
739.404	9452.25
739.744	9456.77
740.084	9421.97
740.424	9461.52
740.764	9495.87
741.104	9507.39
741.444	9415.19
741.784	9490.44
742.124	9545.81
742.464	9556.43
742.804	9553.27
743.143	9524.34
743.483	9638.24
743.823	9580.61
744.162	9643.21
744.502	9679.36
744.841	9627.84
745.181	9758.23
745.52	9799.13
745.86	9862.41
746.199	9876.87
746.538	9864.22
746.877	9984.21
747.216	9957.77
747.556	10012.91
747.895	10062.86
748.234	10133.82
748.573	10076.19
748.911	10215.62
749.25	10293.59
749.589	10299.91
749.928	10371.55
750.267	10499.23
750.605	10529.74
750.944	10525.9
751.283	10687.47
751.621	10769.05
751.96	10889.28
752.298	10971.76
752.636	11005.66
752.975	11164.07
753.313	11184.86
753.651	11364.07
753.989	11555.02
754.327	11661.91
754.666	11649.93
755.004	11884.05
755.342	12084.27
755.679	12125.63
756.017	12263.25
756.355	12437.71
756.693	12488.1
757.031	12741.43
757.368	12854.87
757.706	12912.27
758.044	13133.51
758.381	13213.96
758.719	13378.02
759.056	13587.74
759.394	13728.52
759.731	13792.7
760.068	13984.11
760.405	14140.72
760.743	14241.28
761.08	14559.69
761.417	14713.36
761.754	14844.2
762.091	14916.97
762.428	15143.18
762.765	15255.49
763.102	15530.74
763.438	15564.41
763.775	15818.41
764.112	15877.62
764.449	16197.16
764.785	16166.88
765.122	16332.97
765.458	16420.2
765.795	16633.53
766.131	16795.79
766.467	16980.42
766.804	16990.58
767.14	17198.94
767.476	17295.44
767.812	17522.77
768.148	17654.52
768.485	17719.15
768.821	17764.58
769.157	17818.36
769.492	18048.64
769.828	18127.05
770.164	18182.19
770.5	18357.1
770.836	18499.02
771.171	18467.16
771.507	18688.17
771.842	18644.1
772.178	18860.14
772.513	18845
772.849	18964.77
773.184	19018.1
773.519	19099.68
773.855	19130.64
774.19	19211.32
774.525	19288.6
774.86	19426
775.195	19361.14
775.53	19486.56
775.865	19495.83
776.2	19378.09
776.535	19461.48
776.87	19548.48
777.205	19503.29
777.539	19510.97
777.874	19603.85
778.209	19571.08
778.543	19568.6
778.878	19508.94
779.212	19725.65
779.547	19566.34
779.881	19687.24
780.215	19596.62
780.55	19752.09
780.884	19633.68
781.218	19608.59
781.552	19763.39
781.886	19738.76
782.22	19628.26
782.554	19734.02
782.888	19509.61
783.222	19493.12
783.556	19508.03
783.889	19522.04
784.223	19406.34
784.557	19450.86
784.89	19470.07
785.224	19494.93
785.557	19449.95
785.891	19409.5
786.224	19323.4
786.558	19328.38
786.891	19231.66
787.224	19217.42
787.557	19226.91
787.891	19258.32
788.224	19160.02
788.557	19214.25
788.89	19167.93
789.223	19140.58
789.556	19072.79
789.888	19020.59
790.221	19050.42
790.554	18995.28
790.887	18982.17
791.219	18975.16
791.552	19036.41
791.884	18888.39
792.217	18804.1
792.549	18780.59
792.882	18617.43
793.214	18695.17
793.546	18670.09
793.879	18480.49
794.211	18406.59
794.543	18553.48
794.875	18510.54
795.207	18550.09
795.539	18545.57
795.871	18418.57
796.203	18293.37
796.535	18277.56
796.867	18216.54
797.198	18258.57
797.53	18120.05
797.862	18132.25
798.193	18132.02
798.525	18036.43
798.856	18080.05
799.188	17842.99
799.519	17796.44
799.85	17755.54
800.182	17897.68
800.513	17687.29
800.844	17605.71
801.175	17660.62
801.506	17667.18
801.837	17590.12
802.168	17534.75
802.499	17527.52
802.83	17459.27
803.161	17419.05
803.491	17342.89
803.822	17441.87
804.153	17380.4
804.483	17216.79
804.814	17147.42
805.145	17076.01
805.475	17130.92
805.805	17003.01
806.136	17024.48
806.466	17094.54
806.796	17059.96
807.126	16892.28
807.457	16887.76
807.787	16809.8
808.117	16793.98
808.447	16775.45
808.777	16766.86
809.107	16758.73
809.436	16626.75
809.766	16603.93
810.096	16641.21
810.426	16484.16
810.755	16539.07
811.085	16539.52
811.414	16538.17
811.744	16382.92
812.073	16288.23
812.403	16362.35
812.732	16279.87
813.061	16304.05
813.39	16221.56
813.719	16100.21
814.049	16280.32
814.378	16126.43
814.707	16077.61
815.036	16111.96
815.365	15998.07
815.693	15866.09
816.022	15919.2
816.351	15911.06
816.68	15778.64
817.008	15898.64
817.337	15779.09
817.665	15725.08
817.994	15688.92
818.322	15683.27
818.651	15640.56
818.979	15597.17
819.307	15654.8
819.636	15631.3
819.964	15530.96
820.292	15617.74
820.62	15603.5
820.948	15440.34
821.276	15626.1
821.604	15479.66
821.932	15508.82
822.259	15468.82
822.587	15466.78
822.915	15465.43
823.243	15517.63
823.57	15509.04
823.898	15440.79
824.225	15376.62
824.553	15441.47
824.88	15525.76
825.207	15536.84
825.535	15446.44
825.862	15475.82
826.189	15491.64
826.516	15491.64
826.843	15547.01
827.17	15562.37
827.497	15558.98
827.824	15514.01
828.151	15589.49
828.478	15480.57
828.805	15581.58
829.131	15444.41
829.458	15380.01
829.785	15332.77
830.111	15383.17
830.438	15550.85
830.764	15453.9
831.09	15563.28
831.417	15433.34
831.743	15411.42
832.069	15469.04
832.395	15357.63
832.722	15418.87
833.048	15379.78
833.374	15445.54
833.7	15319.44
834.026	15363.06
834.351	15399.21
834.677	15411.19
835.003	15301.82
835.329	15330.29
835.654	15387.46
835.98	15264.53
836.306	15328.48
836.631	15252.78
836.956	15328.26
837.282	15219.78
837.607	15107.02
837.932	15182.95
838.258	15110.86
838.583	15131.42
838.908	15090.3
839.233	15097.3
839.558	15080.58
839.883	15014.14
840.208	14955.38
840.533	15011.88
840.858	14919.45
841.182	14901.37
841.507	14959
841.832	14856.63
842.156	14818.89
842.481	14842.39
842.805	14817.08
843.13	14723.53
843.454	14668.16
843.778	14648.72
844.103	14711.1
844.427	14560.82
844.751	14677.88
845.075	14548.61
845.399	14529.86
845.723	14416.41
846.047	14443.53
846.371	14299.81
846.695	14338.45
847.019	14237.21
847.343	14149.3
847.666	14054.39
847.99	14046.93
848.313	13963.32
848.637	13898.91
848.96	13922.87
849.284	13850.33
849.607	13742.99
849.931	13644.68
850.254	13687.85
850.577	13596.32
850.9	13473.39
851.223	13510
851.546	13400.17
851.869	13322.88
852.192	13369.44
852.515	13287.18
852.838	13222.55
853.161	13217.58
853.483	13122.89
853.806	13065.26
854.129	13072.04
854.451	13041.99
854.774	12919.28
855.096	12888.77
855.419	12872.73
855.741	12847.64
856.063	12740.75
856.385	12725.61
856.708	12684.93
857.03	12558.16
857.352	12696.46
857.674	12588.44
857.996	12494.21
858.318	12506.18
858.64	12576.92
858.961	12469.35
859.283	12419.18
859.605	12428.22
859.926	12416.02
860.248	12369.01
860.57	12242.23
860.891	12253.76
861.212	12222.12
861.534	12209.92
861.855	12150.71
862.176	12222.8
862.498	12159.52
862.819	12229.13
863.14	12082.69
863.461	12078.62
863.782	12023.26
864.103	12034.1
864.424	12021.22
864.745	12052.86
865.065	11816.48
865.386	11869.14
865.707	11830.95
866.027	11890.38
866.348	11901
866.668	11876.37
866.989	11764.28
867.309	11744.39
867.63	11818.29
867.95	11788.24
868.27	11721.34
868.59	11734.23
868.91	11745.3
869.23	11683.15
869.55	11588.24
869.87	11759.54
870.19	11631.86
870.51	11635.92
870.83	11573.33
871.15	11506.89
871.469	11496.27
871.789	11560.67
872.109	11497.85
872.428	11491.07
872.748	11518.86
873.067	11479.32
873.386	11554.8
873.706	11438.64
874.025	11414.91
874.344	11388.02
874.663	11398.41
874.982	11361.58
875.301	11260.34
875.62	11302.82
875.939	11255.82
876.258	11233
876.577	11222.37
876.896	11200.45
877.214	11138.08
877.533	11148.93
877.852	11116.61
878.17	11227.12
878.489	11138.31
878.807	11142.83
879.125	11109.83
879.444	11100.57
879.762	11064.86
880.08	11043.85
880.398	11015.37
880.716	10976.73
881.034	11017.41
881.352	11011.31
881.67	10894.25
881.988	10930.86
882.306	10925.21
882.624	10874.59
882.941	10777.19
883.259	10803.18
883.577	10761.37
883.894	10732.22
884.212	10685.44
884.529	10667.13
884.846	10713.69
885.164	10664.2
885.481	10575.84
885.798	10641.15
886.115	10533.35
886.432	10482.73
886.75	10560.47
887.067	10501.49
887.383	10473.24
887.7	10476.18
888.017	10403.64
888.334	10421.49
888.651	10424.43
888.967	10350.76
889.284	10246.35
889.6	10277.99
889.917	10261.5
890.233	10261.95
890.55	10205.23
890.866	10226.02
891.182	10222.4
891.498	10098.56
891.815	10124.1
892.131	10018.79
892.447	10072.12
892.763	10018.11
893.079	9996.87
893.395	9916.19
893.71	9827.83
894.026	9877.1
894.342	9820.38
894.657	9823.32
894.973	9727.05
895.289	9743.32
895.604	9748.74
895.92	9634.62
896.235	9586.94
896.55	9599.82
896.865	9613.15
897.181	9559.37
897.496	9634.62
897.811	9501.52
898.126	9454.96
898.441	9434.4
898.756	9342.42
899.071	9343.78
899.386	9360.05
899.7	9266.49
900.015	9211.81
900.33	9219.26
900.644	9185.37
900.959	9174.07
901.273	9116.22
901.588	9032.6
901.902	9024.47
902.216	8961.87
902.531	8985.6
902.845	8951.47
903.159	8951.25
903.473	8872.38
903.787	8852.49
904.101	8773.17
904.415	8725.26
904.729	8754.19
905.042	8757.81
905.356	8684.59
905.67	8631.71
905.984	8627.19
906.297	8651.82
906.611	8509.23
906.924	8533.63
907.237	8471.94
907.551	8537.47
907.864	8439.4
908.177	8428.32
908.491	8353.3
908.804	8304.03
909.117	8292.96
909.43	8230.81
909.743	8179.06
910.056	8195.34
910.368	8190.82
910.681	8130.03
910.994	8044.15
911.307	8043.47
911.619	7974.32
911.932	8058.62
912.244	7919.86
912.557	7932.52
912.869	7851.16
913.181	7871.28
913.494	7807.32
913.806	7758.51
914.118	7722.35
914.43	7753.77
914.742	7639.87
915.054	7623.6
915.366	7615.01
915.678	7612.75
915.99	7577.5
916.302	7533.43
916.613	7477.61
916.925	7510.83
917.236	7438.75
917.548	7361.91
917.859	7396.71
918.171	7332.31
918.482	7286.88
918.794	7253.21
919.105	7276.94
919.416	7218.64
919.727	7186.32
920.038	7201.46
920.349	7126.21
920.66	7123.05
920.971	7078.08
921.282	7052.77
921.593	7010.73
921.903	6979.1
922.214	6944.07
922.525	6882.15
922.835	6960.79
923.146	6882.38
923.456	6877.18
923.767	6799.21
924.077	6801.47
924.387	6813.9
924.697	6776.16
925.008	6711.98
925.318	6682.38
925.628	6686.67
925.938	6647.81
926.248	6576.17
926.558	6569.84
926.867	6536.85
927.177	6550.18
927.487	6469.51
927.796	6434.7
928.106	6439
928.416	6380.24
928.725	6373.69
929.034	6338.66
929.344	6343.18
929.653	6335.5
929.962	6295.27
930.271	6235.84
930.581	6201.26
930.89	6245.33
931.199	6206.91
931.508	6117.42
931.817	6101.61
932.125	6084.43
932.434	6064.09
932.743	6013.02
933.051	5983.19
933.36	5969.41
933.669	5981.61
933.977	5900.71
934.286	5943.42
934.594	5874.72
934.902	5876.98
935.21	5824.78
935.519	5836.75
935.827	5804.21
936.135	5778.9
936.443	5709.98
936.751	5681.73
937.059	5681.05
937.367	5681.73
937.674	5662.07
937.982	5664.55
938.29	5584.33
938.597	5551.11
938.905	5554.73
939.213	5491
939.52	5508.17
939.827	5501.39
940.135	5424.33
940.442	5438.8
940.749	5378.23
941.056	5477.67
941.363	5350.21
941.67	5370.55
941.977	5273.38
942.284	5236.54
942.591	5265.02
942.898	5248.52
943.205	5237.22
943.511	5166.49
943.818	5176.66
944.125	5155.42
944.431	5130.11
944.738	5137.79
945.044	5156.77
945.35	5093.5
945.657	5034.51
945.963	5049.66
946.269	4990.67
946.575	4935.53
946.881	4947.06
947.187	4934.4
947.493	4911.35
947.799	4918.81
948.105	4888.98
948.41	4874.07
948.716	4818.02
949.022	4811.02
949.327	4760.85
949.633	4811.7
949.938	4712.04
950.244	4742.09
950.549	4728.08
950.854	4674.75
951.16	4650.57
951.465	4667.07
951.77	4619.16
952.075	4608.31
952.38	4564.24
952.685	4579.84
952.99	4531.7
953.294	4550.01
953.599	4512.49
953.904	4531.25
954.209	4474.76
954.513	4529.9
954.818	4428.2
955.122	4406.51
955.426	4416.68
955.731	4388.43
956.035	4354.53
956.339	4320.86
956.643	4338.04
956.948	4354.08
957.252	4292.39
957.556	4282.22
957.86	4197.7
958.163	4259.39
958.467	4263.46
958.771	4218.49
959.075	4192.73
959.378	4175.78
959.682	4134.88
959.985	4143.46
960.289	4110.25
960.592	4117.02
960.896	4077.48
961.199	4078.83
961.502	4062.34
961.805	4026.18
962.108	3988.44
962.411	4000.42
962.714	3982.79
963.017	3910.93
963.32	3954.99
963.623	3878.84
963.926	3914.09
964.228	3897.6
964.531	3879.29
964.833	3871.16
965.136	3834.77
965.438	3803.36
965.741	3787.77
966.043	3774.43
966.345	3747.32
966.648	3720.2
966.95	3763.14
967.252	3696.02
967.554	3762.23
967.856	3638.17
968.158	3655.57
968.46	3653.08
968.761	3628
969.063	3592.29
969.365	3607.66
969.666	3556.36
969.968	3571.28
970.269	3580.99
970.571	3512.29
970.872	3511.84
971.174	3430.49
971.475	3527.21
971.776	3487.89
972.077	3480.66
972.378	3445.63
972.679	3446.08
972.98	3424.16
973.281	3403.6
973.582	3376.7
973.883	3402.24
974.183	3359.08
974.484	3328.12
974.785	3310.49
975.085	3338.51
975.386	3334.9
975.686	3298.97
975.986	3295.58
976.287	3284.28
976.587	3227.78
976.887	3239.31
977.187	3232.3
977.487	3197.05
977.787	3146.2
978.087	3177.39
978.387	3140.78
978.687	3160.21
978.987	3061.91
979.286	3125.64
979.586	3116.37
979.885	3057.17
980.185	3080.89
980.484	3065.53
980.784	3023.04
981.083	3035.25
981.382	2992.08
981.682	2969.71
981.981	2969.03
982.28	2961.12
982.579	2980.33
982.878	2938.75
983.177	2953.44
983.475	2895.14
983.774	2931.97
984.073	2910.28
984.372	2894.91
984.67	2878.86
984.969	2868.47
985.267	2877.74
985.566	2884.74
985.864	2848.13
986.162	2794.12
986.461	2808.81
986.759	2779.21
987.057	2760.45
987.355	2764.52
987.653	2737.63
987.951	2743.28
988.249	2713.22
988.547	2692.2
988.844	2689.04
989.142	2692.66
989.44	2635.48
989.737	2675.71
990.035	2662.83
990.332	2655.82
990.63	2589.16
990.927	2635.26
991.224	2591.41
991.521	2608.14
991.819	2562.26
992.116	2570.4
992.413	2550.96
992.71	2517.97
993.006	2523.85
993.303	2527.24
993.6	2505.09
993.897	2503.96
994.193	2491.76
994.49	2479.1
994.787	2480.68
995.083	2432.78
995.379	2416.28
995.676	2427.35
995.972	2419.22
996.268	2388.93
996.565	2371.99
996.861	2361.59
997.157	2332.44
997.453	2351.65
997.749	2355.49
998.044	2354.36
998.34	2300.8
998.636	2308.03
998.932	2257.86
999.227	2273.01
999.523	2263.97
999.818	2273.23
1000.114	2201.82
1000.409	2221.48
1000.704	2203.18
1001	2185.1
1001.295	2175.15
1001.59	2150.75
1001.885	2177.64
1002.18	2150.07
1002.475	2136.51
1002.77	2145.32
1003.065	2132.67
1003.359	2125.44
1003.654	2130.64
1003.949	2123.4
1004.243	2060.81
1004.538	2032.33
1004.832	2050.41
1005.127	2041.15
1005.421	2018.77
1005.715	2026.01
1006.009	1992.11
1006.304	1967.02
1006.598	1995.72
1006.892	2021.71
1007.186	1954.37
1007.48	1968.38
1007.773	1936.52
1008.067	1931.77
1008.361	1915.27
1008.655	1899.46
1008.948	1893.58
1009.242	1875.5
1009.535	1905.33
1009.829	1865.56
1010.122	1860.13
1010.415	1820.81
1010.708	1836.41
1011.001	1808.16
1011.295	1808.61
1011.588	1824.43
1011.881	1796.63
1012.173	1803.41
1012.466	1740.82
1012.759	1748.5
1013.052	1769.06
1013.344	1728.16
1013.637	1722.51
1013.93	1720.93
1014.222	1693.36
1014.514	1719.8
1014.807	1677.99
1015.099	1694.49
1015.391	1646.36
1015.683	1671.89
1015.976	1647.94
1016.268	1596.41
1016.56	1591.89
1016.851	1620.82
1017.143	1618.33
1017.435	1567.94
1017.727	1565.68
1018.018	1577.2
1018.31	1564.1
1018.602	1567.26
1018.893	1557.54
1019.185	1521.16
1019.476	1523.19
1019.767	1521.39
1020.058	1499.47
1020.35	1460.6
1020.641	1503.76
1020.932	1493.36
1021.223	1464.89
1021.514	1454.72
1021.804	1440.26
1022.095	1437.09
1022.386	1435.97
1022.677	1411.78
1022.967	1390.77
1023.258	1418.34
1023.548	1413.14
1023.839	1395.29
1024.129	1370.88
1024.419	1375.85
1024.709	1363.88
1025	1352.58
1025.29	1341.28
1025.58	1304.44
1025.87	1315.06
1026.16	1329.75
1026.449	1309.41
1026.739	1327.72
1027.029	1295.4
1027.319	1286.14
1027.608	1277.55
1027.898	1259.02
1028.187	1252.69
1028.477	1247.27
1028.766	1241.39
1029.055	1251.56
1029.344	1244.11
1029.634	1241.62
1029.923	1206.37
1030.212	1213.6
1030.501	1181.96
1030.79	1170.89
1031.078	1191.68
1031.367	1174.95
1031.656	1140.61
1031.945	1149.19
1032.233	1157.55
1032.522	1121.17
1032.81	1134.96
1033.099	1114.17
1033.387	1104.67
1033.675	1105.8
1033.963	1113.26
1034.251	1090.44
1034.54	1082.98
1034.828	1093.38
1035.116	1068.52
1035.403	1068.74
1035.691	1054.96
1035.979	1048.86
1036.267	1026.94
1036.554	1027.16
1036.842	1037.78
1037.129	1024
1037.417	1000.95
1037.704	1020.83
1037.992	1002.53
1038.279	1007.95
1038.566	991.46
1038.853	991.46
1039.14	991.46
