Data from hue_300_FLMS001491_00050.txt Node
Date: Tue Feb 07 15:50:54 GMT 2017
User: dcchb
Spectrometer: FLMS00149
Trigger mode: 0
Integration Time (sec): 2.000000E-2
Scans to average: 10
Electric dark correction enabled: true
Nonlinearity correction enabled: false
Boxcar width: 0
XAxis mode: Wavelengths
Number of Pixels in Spectrum: 2048
>>>>>Begin Spectral Data<<<<<
341.393	4.05
341.776	4.05
342.16	4.05
342.543	-52.22
342.927	-78.43
343.31	-91.54
343.693	-73.01
344.077	-66
344.46	-62.16
344.843	-49.96
345.226	-18.09
345.61	-40.92
345.993	-21.48
346.376	-14.48
346.759	13.32
347.142	30.72
347.525	25.52
347.908	63.49
348.291	83.83
348.674	99.19
349.057	121.56
349.44	112.07
349.823	132.19
350.206	160.21
350.588	187.55
350.971	207.66
351.354	209.92
351.737	228.68
352.119	239.98
352.502	231.17
352.884	255.8
353.267	285.63
353.65	284.27
354.032	283.82
354.414	300.09
354.797	312.75
355.179	335.8
355.562	321.56
355.944	327.43
356.326	343.48
356.709	318.85
357.091	328.56
357.473	328.79
357.855	322.46
358.238	315.46
358.62	328.79
359.002	343.03
359.384	334.89
359.766	338.06
360.148	346.64
360.53	339.64
360.912	319.53
361.294	327.21
361.676	334.89
362.057	325.18
362.439	349.36
362.821	320.88
363.203	325.85
363.584	313.2
363.966	319.75
364.348	319.3
364.729	312.75
365.111	310.49
365.493	319.3
365.874	302.12
366.256	300.54
366.637	327.66
367.019	288.79
367.4	314.33
367.781	296.48
368.163	302.58
368.544	297.83
368.925	292.63
369.306	317.72
369.688	312.29
370.069	318.85
370.45	309.81
370.831	286.98
371.212	286.08
371.593	322.92
371.974	298.28
372.355	312.97
372.736	307.55
373.117	303.25
373.498	323.37
373.879	326.76
374.26	305.29
374.641	317.27
375.021	315.68
375.402	342.8
375.783	316.14
376.163	316.81
376.544	331.95
376.925	310.26
377.305	333.76
377.686	312.52
378.066	310.49
378.447	325.4
378.827	324.72
379.208	318.62
379.588	338.73
379.968	319.53
380.349	338.96
380.729	326.53
381.109	310.94
381.489	324.5
381.87	345.29
382.25	377.6
382.63	346.42
383.01	341.9
383.39	339.19
383.77	335.8
384.15	348.68
384.53	345.51
384.91	324.05
385.29	358.39
385.67	332.86
386.049	360.65
386.429	349.13
386.809	329.69
387.189	358.85
387.568	354.33
387.948	333.31
388.328	363.14
388.707	349.81
389.087	352.07
389.466	361.11
389.846	337.6
390.225	387.09
390.605	355.91
390.984	382.57
391.363	365.4
391.743	365.63
392.122	370.37
392.501	354.78
392.881	367.89
393.26	360.65
393.639	392.07
394.018	372.86
394.397	390.94
394.776	392.97
395.155	384.61
395.534	401.78
395.913	377.6
396.292	384.16
396.671	383.48
397.05	387.32
397.429	392.97
397.808	381.67
398.186	380.54
398.565	399.75
398.944	401.11
399.323	406.08
399.701	402.24
400.08	396.59
400.458	420.31
400.837	430.03
401.215	433.42
401.594	416.02
401.972	410.6
402.351	429.81
402.729	434.32
403.107	439.3
403.486	435.68
403.864	433.42
404.242	448.79
404.62	448.79
404.999	438.62
405.377	444.04
405.755	433.65
406.133	446.98
406.511	443.36
406.889	442.91
407.267	457.83
407.645	474.78
408.023	453.99
408.401	477.71
408.779	463.02
409.156	489.24
409.534	488.79
409.912	522.68
410.29	527.88
410.667	517.94
411.045	540.76
411.422	523.59
411.8	540.54
412.178	541.44
412.555	542.34
412.933	582.12
413.31	556.13
413.687	546.19
414.065	581.89
414.442	582.34
414.819	612.17
415.197	616.69
415.574	625.96
415.951	613.98
416.328	610.82
416.705	624.15
417.082	665.28
417.46	661.21
417.837	660.99
418.214	660.76
418.591	667.31
418.967	686.3
419.344	667.09
419.721	718.84
420.098	694.66
420.475	695.79
420.852	731.04
421.228	743.92
421.605	742.34
421.982	742.34
422.358	750.02
422.735	775.11
423.111	770.14
423.488	784.15
423.864	782.11
424.241	799.06
424.617	820.3
424.994	816.69
425.37	815.56
425.746	836.8
426.123	832.73
426.499	866.4
426.875	841.77
427.251	870.02
427.627	882.67
428.003	901.66
428.379	906.85
428.756	912.73
429.132	907.98
429.507	916.12
429.883	937.81
430.259	950.47
430.635	955.21
431.011	981.43
431.387	973.75
431.763	968.77
432.138	1029.34
432.514	1012.39
432.89	1030.47
433.265	1052.39
433.641	1050.13
434.016	1046.51
434.392	1090.8
434.767	1093.52
435.143	1108.21
435.518	1102.1
435.894	1105.49
436.269	1145.04
436.644	1132.39
437.02	1141.42
437.395	1152.95
437.77	1168.99
438.145	1203.8
438.52	1182.33
438.895	1201.08
439.271	1204.7
439.646	1222.33
440.021	1239.28
440.395	1241.54
440.77	1234.53
441.145	1242.21
441.52	1287.18
441.895	1252.16
442.27	1260.74
442.645	1289.9
443.019	1307.52
443.394	1272.49
443.769	1274.53
444.143	1310.91
444.518	1328.09
444.892	1298.03
445.267	1308.65
445.641	1322.66
446.016	1315.66
446.39	1350.46
446.764	1338.26
447.139	1324.7
447.513	1350.46
447.887	1328.54
448.262	1347.97
448.636	1342.1
449.01	1376.67
449.384	1408.08
449.758	1403.34
450.132	1413.73
450.506	1397.01
450.88	1399.72
451.254	1398.59
451.628	1409.21
452.002	1439.5
452.376	1436.56
452.75	1426.39
453.123	1438.14
453.497	1433.17
453.871	1453.51
454.244	1509.1
454.618	1485.37
454.992	1512.94
455.365	1495.09
455.739	1497.8
456.112	1548.65
456.486	1560.85
456.859	1565.37
457.232	1565.82
457.606	1543
457.979	1557.23
458.352	1583.67
458.725	1596.55
459.099	1584.58
459.472	1608.31
459.845	1652.82
460.218	1668.64
460.591	1644.69
460.964	1678.13
461.337	1679.94
461.71	1708.64
462.083	1718.81
462.456	1700.28
462.829	1709.55
463.201	1738.02
463.574	1717.45
463.947	1749.32
464.32	1783.89
464.692	1789.54
465.065	1779.15
465.438	1824.57
465.81	1790.45
466.183	1811.46
466.555	1865.93
466.928	1847.39
467.3	1890.33
467.672	1911.12
468.045	1922.42
468.417	1905.92
468.789	1919.26
469.161	1962.42
469.534	1970.56
469.906	1974.85
470.278	1991.35
470.65	2024.34
471.022	2055.07
471.394	2077.45
471.766	2032.02
472.138	2067.28
472.51	2111.34
472.882	2132.13
473.253	2160.38
473.625	2172.13
473.997	2159.03
474.369	2183.66
474.74	2233.83
475.112	2251.23
475.484	2280.83
475.855	2258.46
476.227	2256.65
476.598	2342.3
476.97	2367.83
477.341	2377.55
477.713	2403.09
478.084	2407.15
478.455	2460.49
478.827	2471.33
479.198	2544.78
479.569	2549.3
479.94	2556.75
480.311	2562.18
480.682	2602.4
481.053	2625.68
481.424	2652.57
481.795	2676.3
482.166	2726.47
482.537	2747.71
482.908	2745
483.279	2796.75
483.65	2829.74
484.021	2858.44
484.391	2881.27
484.762	2897.54
485.133	2898.44
485.503	2904.99
485.874	2978.66
486.244	2982.05
486.615	3020.7
486.985	3060.24
487.356	3102.96
487.726	3091.66
488.097	3196.29
488.467	3172.56
488.837	3194.25
489.207	3232.67
489.578	3253.69
489.948	3268.83
490.318	3297.07
490.688	3300.01
491.058	3326.45
491.428	3358.77
491.798	3369.16
492.168	3410.52
492.538	3438.99
492.908	3429.95
493.278	3480.8
493.648	3518.76
494.017	3525.54
494.387	3544.75
494.757	3543.85
495.126	3555.37
495.496	3553.56
495.866	3618.87
496.235	3620.23
496.605	3652.32
496.974	3657.29
497.344	3658.42
497.713	3657.06
498.082	3684.41
498.452	3752.43
498.821	3747.46
499.19	3742.03
499.559	3771.41
499.928	3826.33
500.298	3784.75
500.667	3820.68
501.036	3841.92
501.405	3853.67
501.774	3830.17
502.143	3882.6
502.512	3891.18
502.88	3924.18
503.249	3924.4
503.618	3925.53
503.987	3976.38
504.356	3930.96
504.724	3954.91
505.093	3936.61
505.462	3968.02
505.83	3994.68
506.199	4057.73
506.567	4056.38
506.936	4028.81
507.304	4095.47
507.672	4060.9
508.041	4076.04
508.409	4101.35
508.777	4107.45
509.145	4132.53
509.514	4163.27
509.882	4202.36
510.25	4152.65
510.618	4172.98
510.986	4196.49
511.354	4232.87
511.722	4229.93
512.09	4254.11
512.458	4251.85
512.826	4250.27
513.193	4247.56
513.561	4266.99
513.929	4297.27
514.297	4318.97
514.664	4333.21
515.032	4305.64
515.4	4327.78
515.767	4335.24
516.135	4381.57
516.502	4316.71
516.869	4339.76
517.237	4381.34
517.604	4342.02
517.972	4421.11
518.339	4391.96
518.706	4391.96
519.073	4380.89
519.44	4420.89
519.808	4458.63
520.175	4452.07
520.542	4489.81
520.909	4539.08
521.276	4476.48
521.643	4516.25
522.009	4588.79
522.376	4555.35
522.743	4575.46
523.11	4585.85
523.477	4632.86
523.843	4657.72
524.21	4664.72
524.577	4704.72
524.943	4705.85
525.31	4730.03
525.676	4723.93
526.043	4703.14
526.409	4786.98
526.776	4787.88
527.142	4851.84
527.508	4851.84
527.874	4861.55
528.241	4925.28
528.607	4890.93
528.973	4897.48
529.339	4949.01
529.705	4955.56
530.071	5017.71
530.437	5017.48
530.803	5077.82
531.169	5053.64
531.535	5021.1
531.901	5063.81
532.267	5079.85
532.632	5129.79
532.998	5150.81
533.364	5198.72
533.73	5198.27
534.095	5189.45
534.461	5256.34
534.826	5245.27
535.192	5254.54
535.557	5301.32
535.923	5288.89
536.288	5310.81
536.653	5407.08
537.019	5353.29
537.384	5383.12
537.749	5409.11
538.114	5438.03
538.479	5461.76
538.845	5504.7
539.21	5468.99
539.575	5522.55
539.94	5556
540.305	5616.56
540.67	5553.96
541.034	5677.8
541.399	5583.12
541.764	5665.15
542.129	5653.85
542.494	5680.06
542.858	5721.87
543.223	5700.17
543.587	5734.75
543.952	5789.89
544.316	5756.44
544.681	5805.48
545.045	5783.56
545.41	5860.62
545.774	5886.61
546.138	5867.18
546.503	5908.08
546.867	5913.28
547.231	5963.9
547.595	5939.94
547.959	6018.13
548.324	6030.79
548.688	6068.3
549.052	6061.52
549.416	6072.14
549.779	6091.58
550.143	6098.36
550.507	6134.74
550.871	6183.1
551.235	6189.43
551.599	6267.39
551.962	6249.54
552.326	6211.57
552.689	6285.7
553.053	6286.37
553.417	6272.59
553.78	6366.15
554.143	6343.77
554.507	6380.84
554.87	6381.29
555.234	6396.65
555.597	6422.64
555.96	6430.1
556.323	6455.41
556.686	6440.49
557.05	6555.29
557.413	6480.04
557.776	6509.42
558.139	6485.47
558.502	6593.03
558.865	6540.6
559.228	6592.13
559.59	6683.88
559.953	6604.11
560.316	6643.43
560.679	6669.42
561.041	6697.89
561.404	6725.23
561.767	6741.5
562.129	6739.7
562.492	6809.07
562.854	6804.55
563.217	6764.55
563.579	6861.05
563.941	6869.41
564.304	6868.51
564.666	6983.53
565.028	6953.48
565.39	7002.97
565.753	6978.56
566.115	6964.55
566.477	6974.72
566.839	7060.14
567.201	7082.74
567.563	7062.85
567.925	7107.37
568.287	7120.93
568.648	7191.66
569.01	7177.88
569.372	7232.79
569.734	7258.33
570.095	7289.06
570.457	7324.77
570.819	7374.48
571.18	7402.73
571.542	7434.82
571.903	7525.89
572.265	7515.72
572.626	7533.8
572.987	7563.18
573.349	7628.94
573.71	7683.4
574.071	7741.48
574.432	7785.32
574.794	7871.19
575.155	7931.3
575.516	7900.8
575.877	8014.92
576.238	8081.36
576.599	8166.55
576.96	8230.73
577.32	8352.99
577.681	8347.11
578.042	8403.83
578.403	8496.26
578.763	8678.63
579.124	8761.56
579.485	8775.57
579.845	8982.8
580.206	9057.37
580.566	9216.01
580.927	9282.68
581.287	9461.66
581.648	9470.92
582.008	9741.88
582.368	9898.48
582.728	10023
583.089	10158.81
583.449	10279.72
583.809	10513.61
584.169	10682.64
584.529	10862.53
584.889	11123.54
585.249	11223.65
585.609	11381.61
585.969	11711.32
586.329	11945.43
586.688	12124.64
587.048	12307.23
587.408	12568.24
587.768	12805.98
588.127	12897.95
588.487	13217.94
588.846	13555.11
589.206	13773.86
589.565	14001.43
589.925	14362.09
590.284	14647.06
590.643	14823.32
591.003	15191.22
591.362	15522.06
591.721	15737.65
592.08	16015.38
592.44	16382.15
592.799	16725.65
593.158	16969.48
593.517	17203.38
593.876	17564.04
594.235	17800.65
594.593	18068.66
594.952	18504.13
595.311	18731.24
595.67	18990
596.029	19458.91
596.387	19816.64
596.746	20071.55
597.104	20251.66
597.463	20626.11
597.822	20961.47
598.18	21188.58
598.538	21560.32
598.897	21926.41
599.255	22003.48
599.613	22491.15
599.972	22766.17
600.33	23053.39
600.688	23316.89
601.046	23652.7
601.404	23990.77
601.762	24212.23
602.12	24791.2
602.478	24979.89
602.836	25128.82
603.194	25333.11
603.552	25716.15
603.91	25844.96
604.268	26189.35
604.625	26406.52
604.983	26709.79
605.341	26852.16
605.698	27120.63
606.056	27520.62
606.413	27792.25
606.771	28092.35
607.128	28307.04
607.485	28433.36
607.843	28560.59
608.2	29028.83
608.557	29205.09
608.914	29328.71
609.272	29661.58
609.629	30009.59
609.986	30189.02
610.343	30280.09
610.7	30727.31
611.057	30827.2
611.414	31014.31
611.771	31213.85
612.127	31539.72
612.484	31662.66
612.841	31907.62
613.198	31917.11
613.554	32084.57
613.911	32529.75
614.267	32611.11
614.624	32782.85
614.98	32799.58
615.337	33226.91
615.693	33373.57
616.05	33293.12
616.406	33826.67
616.762	33601.14
617.118	33911.86
617.475	34048.81
617.831	34285.41
618.187	34427.78
618.543	34486.31
618.899	34942.34
619.255	34841.78
619.611	34934.43
619.967	35148.67
620.323	35307.31
620.678	35309.34
621.034	35405.16
621.39	35439.28
621.746	35603.34
622.101	35988.87
622.457	35815.09
622.812	35983.67
623.168	36137.11
623.523	36371.91
623.879	36331.69
624.234	36257.56
624.589	36533.94
624.945	36606.03
625.3	36733.26
625.655	36779.13
626.01	36932.12
626.365	36940.03
626.72	36970.99
627.075	37110.42
627.43	37036.07
627.785	37118.33
628.14	37084.21
628.495	37318.55
628.85	37300.02
629.205	37425.89
629.559	37559
629.914	37346.12
630.269	37446.46
630.623	37460.47
630.978	37420.92
631.332	37536.63
631.687	37633.8
632.041	37494.37
632.396	37530.52
632.75	37608.04
633.104	37619.11
633.459	37482.16
633.813	37585.21
634.167	37667.02
634.521	37624.08
634.875	37631.76
635.229	37572.56
635.583	37536.63
635.937	37497.76
636.291	37563.29
636.645	37587.7
636.999	37571.88
637.352	37627.47
637.706	37523.07
638.06	37824.75
638.413	37689.84
638.767	37628.15
639.121	37777.3
639.474	37529.62
639.828	37612.33
640.181	37690.52
640.534	37575.04
640.888	37565.55
641.241	37397.87
641.594	37556.74
641.947	37655.94
642.301	37591.77
642.654	37718.77
643.007	37622.5
643.36	37593.35
643.713	37473.12
644.066	37540.02
644.419	37338.21
644.771	37230.19
645.124	36884.89
645.477	36925.12
645.83	36592.24
646.182	36604.67
646.535	36618.91
646.888	36568.52
647.24	36402.42
647.593	36610.55
647.945	36596.09
648.298	36513.6
648.65	36429.08
649.002	36396.09
649.355	36491
649.707	36542.3
650.059	36609.64
650.411	37087.6
650.763	37129.41
651.115	37446.91
651.467	37363.75
651.819	37262.51
652.171	37276.97
652.523	37128.28
652.875	37323.98
653.227	37087.37
653.578	37330.3
653.93	37259.57
654.282	37131.44
654.633	37011.67
654.985	37046.92
655.337	37083.53
655.688	37103.19
656.039	37174.15
656.391	36905.91
656.742	37027.03
657.094	37010.09
657.445	37152.23
657.796	36898.22
658.147	37012.8
658.498	36995.17
658.849	37169.86
659.2	37033.59
659.551	36917.21
659.902	37081.95
660.253	37005.57
660.604	37100.03
660.955	36895.96
661.306	36945
661.656	36831.33
662.007	37135.96
662.358	36953.59
662.708	37060.03
663.059	36905.23
663.409	36677.67
663.76	36962.86
664.11	36813.48
664.461	36980.93
664.811	36959.47
665.161	36961.73
665.511	36841.5
665.862	36887.15
666.212	36911.78
666.562	37042.18
666.912	36980.26
667.262	36792.92
667.612	36870.65
667.962	36848.28
668.312	36887.38
668.662	36971.44
669.011	36860.03
669.361	36838.11
669.711	36732.13
670.06	36775.52
670.41	36620.04
670.76	36655.52
671.109	36823.2
671.459	36732.58
671.808	36552.7
672.157	36720.38
672.507	36522.19
672.856	36639.02
673.205	36555.18
673.554	36760.15
673.904	36604.45
674.253	36837.89
674.602	36577.56
674.951	36090.34
675.3	35833.39
675.649	36481.74
675.998	36533.26
676.346	36572.58
676.695	36584.79
677.044	36347.05
677.393	36490.1
677.741	36515.18
678.09	36337.79
678.438	36321.52
678.787	36520.83
679.135	36347.96
679.484	36091.47
679.832	36341.86
680.181	36074.29
680.529	36105.7
680.877	36164.68
681.225	35950
681.573	36255.08
681.922	35923.34
682.27	35959.72
682.618	36067.06
682.966	35794.98
683.314	35966.05
683.661	35750.91
684.009	35609.67
684.357	35552.5
684.705	35502.33
685.053	35573.97
685.4	35606.28
685.748	35528.77
686.095	35369.45
686.443	35222.79
686.79	35111.61
687.138	35276.8
687.485	35284.93
687.832	35038.39
688.18	35126.07
688.527	35013.75
688.874	34926.53
689.221	34851.27
689.568	34788.22
689.915	34661
690.262	34746.19
690.609	34473.66
690.956	34419.87
691.303	34497.38
691.65	34295.58
691.997	34402.25
692.344	34199.76
692.69	34186.66
693.037	34137.85
693.383	33919.32
693.73	34004.74
694.077	33781.92
694.423	33840.9
694.769	33645.65
695.116	33477.3
695.462	33516.84
695.808	33446.11
696.155	33413.8
696.501	33236.85
696.847	33190.07
697.193	33031.43
697.539	33117.08
697.885	33059.68
698.231	32841.61
698.577	32802.06
698.923	32649.3
699.269	32517.1
699.614	32425.8
699.96	32427.83
700.306	32447.04
700.651	32277.56
700.997	32158.46
701.342	32170.21
701.688	32112.81
702.033	32077.11
702.379	31845.25
702.724	31881.18
703.069	31922.31
703.415	31568.2
703.76	31577.23
704.105	31678.47
704.45	31435.77
704.795	31327.52
705.14	31194.65
705.485	31195.78
705.83	31126.85
706.175	31213.63
706.52	31000.75
706.865	30890.02
707.209	30976.12
707.554	30907.65
707.899	30757.6
708.243	30760.31
708.588	30732.74
708.932	30406.19
709.277	30463.14
709.621	30453.87
709.966	30298.85
710.31	30338.4
710.654	30168.01
710.998	30170.04
711.342	30202.36
711.687	30056.37
712.031	29864.96
712.375	29903.15
712.719	29846.21
713.063	29784.51
713.407	29830.16
713.75	29788.13
714.094	29617.06
714.438	29561.24
714.782	29472.88
715.125	29374.13
715.469	29506.55
715.812	29265.88
716.156	29232.21
716.499	29245.54
716.843	29350.85
717.186	29029.73
717.53	29194.47
717.873	29167.58
718.216	29066.57
718.559	28813.24
718.902	28814.6
719.246	28968.26
719.589	28675.39
719.932	28694.37
720.275	28575.96
720.617	28636.97
720.96	28568.5
721.303	28662.06
721.646	28569.86
721.989	28356.3
722.331	28425.68
722.674	28375.06
723.016	28374.38
723.359	28362.18
723.701	28402.4
724.044	28139.13
724.386	27979.36
724.729	28157.44
725.071	28040.83
725.413	27943.88
725.755	27946.14
726.097	27909.53
726.439	27724
726.782	27718.35
727.124	27884
727.465	27718.13
727.807	27708.64
728.149	27661.63
728.491	27586.38
728.833	27595.87
729.175	27520.39
729.516	27409.66
729.858	27526.04
730.199	27463.67
730.541	27469.55
730.882	27407.85
731.224	27530.79
731.565	27294.86
731.906	27183.9
732.248	27259.38
732.589	27020.52
732.93	26922.89
733.271	27172.38
733.612	27108.65
733.953	27178.71
734.294	27038.82
734.635	26956.34
734.976	26966.51
735.317	26827.53
735.658	26828.66
735.999	26818.04
736.339	26700.98
736.68	26776.91
737.021	26701.66
737.361	26629.57
737.702	26732.62
738.042	26554.99
738.383	26504.83
738.723	26551.38
739.063	26532.85
739.404	26550.47
739.744	26362.91
740.084	26405.17
740.424	26357.94
740.764	26416.24
741.104	26546.18
741.444	26222.12
741.784	26217.83
742.124	26329.24
742.464	26110.71
742.804	26125.63
743.143	26194.33
743.483	26131.05
743.823	25959.53
744.162	25939.42
744.502	25962.02
744.841	25957.27
745.181	26007.89
745.52	25873.43
745.86	25889.93
746.199	25828.91
746.538	25861.9
746.877	25897.61
747.216	25832.98
747.556	25750.5
747.895	25693.77
748.234	25655.36
748.573	25679.76
748.911	25497.39
749.25	25642.25
749.589	25484.51
749.928	25484.74
750.267	25513.44
750.605	25444.97
750.944	25374.23
751.283	25311.64
751.621	25416.27
751.96	25174.47
752.298	25212.88
752.636	25187.35
752.975	25154.13
753.313	25042.94
753.651	25128.36
753.989	25040.01
754.327	25018.09
754.666	24928.14
755.004	24975.83
755.342	25083.62
755.679	24896.05
756.017	24760.24
756.355	24816.28
756.693	24626.68
757.031	24764.53
757.368	24543.97
757.706	24575.61
758.044	24560.02
758.381	24554.59
758.719	24455.61
759.056	24476.86
759.394	24307.6
759.731	24176.75
760.068	24170.88
760.405	24133.59
760.743	24082.97
761.08	24194.38
761.417	23920.49
761.754	23946.93
762.091	23886.36
762.428	23842.52
762.765	23692.47
763.102	23859.25
763.438	23649.53
763.775	23600.04
764.112	23513.49
764.449	23538.58
764.785	23444.12
765.122	23312.37
765.458	23317.11
765.795	23252.48
766.131	23255.65
766.467	23047.52
766.804	23055.88
767.14	22895.66
767.476	22996.9
767.812	22761.87
768.148	22880.97
768.485	22608.66
768.821	22545.61
769.157	22592.39
769.492	22422.67
769.828	22452.05
770.164	22257.93
770.5	22243.02
770.836	22166.18
771.171	21992.4
771.507	21984.94
771.842	21901.1
772.178	22042.34
772.513	21867.89
772.849	21733.65
773.184	21727.78
773.519	21660.66
773.855	21488.91
774.19	21473.32
774.525	21362.36
774.86	21436.71
775.195	21339.31
775.53	21201.91
775.865	21076.49
776.2	20911.75
776.535	20881.02
776.87	20909.49
777.205	20752.89
777.539	20659.33
777.874	20723.28
778.209	20570.97
778.543	20466.11
778.878	20339.79
779.212	20346.34
779.547	20279.9
779.881	20250.75
780.215	20141.6
780.55	20229.96
780.884	20042.17
781.218	19920.59
781.552	19967.37
781.886	19858.9
782.22	19765.57
782.554	19639.02
782.888	19585.91
783.222	19387.05
783.556	19444.9
783.889	19387.5
784.223	19288.74
784.557	19178.46
784.89	19233.15
785.224	19050.78
785.557	18979.15
785.891	18992.25
786.224	18881.52
786.558	18870.9
786.891	18766.5
787.224	18666.16
787.557	18694.18
787.891	18556.11
788.224	18454.42
788.557	18532.38
788.89	18321.31
789.223	18385.72
789.556	18194.31
789.888	18279.51
790.221	18139.17
790.554	17991.6
790.887	18004.26
791.219	17937.14
791.552	17911.61
791.884	17809.91
792.217	17785.96
792.549	17737.6
792.882	17560.2
793.214	17587.32
793.546	17545.06
793.879	17379.64
794.211	17305.52
794.543	17365.18
794.875	17319.76
795.207	17314.56
795.539	17263.94
795.871	17237.95
796.203	16918.64
796.535	16937.85
796.867	16967.22
797.198	16845.87
797.53	16836.83
797.862	16709.83
798.193	16739.43
798.525	16651.3
798.856	16738.98
799.188	16468.71
799.519	16392.55
799.85	16409.5
800.182	16402.94
800.513	16434.58
800.844	16213.34
801.175	16350.52
801.506	16246.56
801.837	16231.88
802.168	16089.73
802.499	16043.41
802.83	15950.75
803.161	15906.46
803.491	15919.57
803.822	15961.83
804.153	15788.5
804.483	15683.19
804.814	15657.2
805.145	15632.34
805.475	15574.04
805.805	15627.82
806.136	15671.21
806.466	15493.36
806.796	15447.49
807.126	15335.18
807.457	15307.38
807.787	15360.94
808.117	15278.23
808.447	15158.01
808.777	15302.63
809.107	15099.7
809.436	15126.37
809.766	15130.66
810.096	15020.16
810.426	14900.61
810.755	15004.79
811.085	14900.61
811.414	14902.64
811.744	14841.63
812.073	14800.05
812.403	14759.6
812.732	14682.76
813.061	14614.29
813.39	14587.17
813.719	14528.19
814.049	14640.05
814.378	14553.5
814.707	14463.11
815.036	14492.49
815.365	14462.88
815.693	14314.86
816.022	14180.4
816.351	14247.75
816.68	14194.87
817.008	14220.4
817.337	14184.92
817.665	14032.84
817.994	14091.14
818.322	14002.1
818.651	13979.05
818.979	13919.62
819.307	14027.87
819.636	13984.48
819.964	13880.98
820.292	13995.1
820.62	13869.68
820.948	13836.91
821.276	13923.24
821.604	13795.1
821.932	13795.78
822.259	13767.08
822.587	13748.55
822.915	13756.91
823.243	13787.42
823.57	13786.29
823.898	13761.66
824.225	13716.46
824.553	13732.96
824.88	13707.42
825.207	13751.49
825.535	13711.04
825.862	13814.31
826.189	13690.25
826.516	13691.38
826.843	13856.8
827.17	13775.22
827.497	13864.71
827.824	13772.28
828.151	13836.68
828.478	13735.67
828.805	13808.89
829.131	13757.82
829.458	13696.57
829.785	13640.31
830.111	13719.4
830.438	13690.02
830.764	13753.52
831.09	13726.86
831.417	13630.36
831.743	13735.22
832.069	13703.58
832.395	13660.42
832.722	13671.26
833.048	13611.61
833.374	13613.87
833.7	13566.41
834.026	13595.11
834.351	13646.63
834.677	13595.79
835.003	13591.94
835.329	13555.34
835.654	13422.23
835.98	13483.93
836.306	13410.03
836.631	13432.18
836.956	13496.58
837.282	13537.71
837.607	13472.4
837.932	13338.17
838.258	13367.54
838.583	13317.15
838.908	13300.65
839.233	13279.41
839.558	13299.3
839.883	13287.55
840.208	13178.17
840.533	13280.99
840.858	13217.27
841.182	13204.84
841.507	13109.02
841.832	13105.63
842.156	13076.25
842.481	13138.17
842.805	13068.57
843.13	13009.36
843.454	13052.52
843.778	12925.3
844.103	12937.95
844.427	12782.7
844.751	12885.97
845.075	12902.02
845.399	12826.99
845.723	12717.62
846.047	12748.13
846.371	12568.24
846.695	12622.7
847.019	12476.49
847.343	12424.52
847.666	12351.98
847.99	12444.18
848.313	12355.37
848.637	12241.25
848.96	12187.69
849.284	12183.39
849.607	12194.24
849.931	12131.19
850.254	11985.66
850.577	11972.33
850.9	11786.79
851.223	11834.7
851.546	11779.11
851.869	11756.51
852.192	11783.4
852.515	11641.71
852.838	11584.54
853.161	11683.52
853.483	11560.59
853.806	11466.35
854.129	11472.23
854.451	11474.03
854.774	11378.22
855.096	11371.21
855.419	11276.98
855.741	11314.49
856.063	11243.31
856.385	11150.65
856.708	11182.97
857.03	11132.35
857.352	11159.24
857.674	11090.77
857.996	11088.51
858.318	10936.2
858.64	11004.67
858.961	10993.14
859.283	10946.82
859.605	10917.66
859.926	10899.81
860.248	10794.28
860.57	10793.6
860.891	10772.81
861.212	10789.98
861.534	10686.48
861.855	10712.02
862.176	10750.66
862.498	10705.69
862.819	10679.48
863.14	10660.95
863.461	10552.25
863.782	10585.47
864.103	10570.33
864.424	10578.24
864.745	10562.87
865.065	10511.35
865.386	10474.96
865.707	10464.12
866.027	10511.35
866.348	10407.17
866.668	10441.97
866.989	10412.14
867.309	10346.15
867.63	10349.32
867.95	10339.15
868.27	10262.54
868.59	10349.09
868.91	10264.8
869.23	10242.88
869.55	10229.55
869.87	10245.14
870.19	10244.91
870.51	10252.15
870.83	10218.02
871.15	10169.89
871.469	10156.78
871.789	10180.51
872.109	10146.84
872.428	10051.47
872.748	10059.16
873.067	10076.56
873.386	10122.21
873.706	10101.42
874.025	9952.49
874.344	9971.7
874.663	9990.68
874.982	9935.77
875.301	9952.72
875.62	9927.18
875.939	9890.57
876.258	9923.11
876.577	9920.4
876.896	9852.61
877.214	9821.42
877.533	9892.16
877.852	9857.35
878.17	9762.89
878.489	9839.28
878.807	9837.02
879.125	9771.03
879.444	9783.68
879.762	9739.16
880.08	9744.14
880.398	9684.48
880.716	9711.14
881.034	9636.12
881.352	9676.12
881.67	9567.19
881.988	9580.3
882.306	9535.55
882.624	9521.32
882.941	9473.64
883.259	9452.17
883.577	9474.54
883.894	9469.57
884.212	9437.93
884.529	9408.33
884.846	9413.3
885.164	9395.67
885.481	9343.02
885.798	9366.97
886.115	9268.44
886.432	9277.48
886.75	9250.59
887.067	9238.84
887.383	9166.07
887.7	9186.19
888.017	9198.39
888.334	9194.55
888.651	9140.76
888.967	9128.56
889.284	9149.12
889.6	9058.96
889.917	9060.99
890.233	9012.86
890.55	8969.47
890.866	8953.87
891.182	8994.33
891.498	8900.32
891.815	8860.54
892.131	8809.02
892.447	8859.19
892.763	8717.72
893.079	8752.07
893.395	8755.46
893.71	8715.01
894.026	8643.15
894.342	8689.7
894.657	8656.26
894.973	8587.56
895.289	8571.51
895.604	8567.67
895.92	8458.29
896.235	8462.81
896.55	8523.15
896.865	8406.32
897.181	8422.14
897.496	8444.06
897.811	8342.37
898.126	8313.89
898.441	8280.9
898.756	8267.57
899.071	8221.69
899.386	8267.34
899.7	8143.95
900.015	8142.14
900.33	8123.39
900.644	8082.03
900.959	8106.89
901.273	8092.2
901.588	7964.07
901.902	7943.28
902.216	7907.8
902.531	7943.28
902.845	7886.33
903.159	7863.06
903.473	7768.6
903.787	7728.14
904.101	7768.82
904.415	7790.97
904.729	7708.94
905.042	7656.06
905.356	7649.5
905.67	7606.34
905.984	7618.32
906.297	7562.72
906.611	7512.78
906.924	7560.92
907.237	7487.92
907.551	7496.29
907.864	7437.98
908.177	7380.13
908.491	7373.35
908.804	7293.81
909.117	7284.77
909.43	7286.12
909.743	7217.42
910.056	7215.62
910.368	7202.73
910.681	7182.17
910.994	7124.09
911.307	7087.48
911.619	7049.07
911.932	7029.63
912.244	7041.61
912.557	6945.34
912.869	6965
913.181	6866.7
913.494	6936.3
913.806	6786.7
914.118	6877.77
914.43	6787.83
914.742	6783.99
915.054	6776.98
915.366	6746.02
915.678	6649.3
915.99	6704.89
916.302	6603.65
916.613	6625.8
916.925	6622.18
917.236	6584.9
917.548	6548.97
917.859	6497.67
918.171	6482.08
918.482	6447.05
918.794	6390.33
919.105	6468.74
919.416	6381.06
919.727	6330.21
920.038	6331.12
920.349	6273.72
920.66	6263.55
920.971	6266.26
921.282	6219.71
921.593	6165.25
921.903	6111.01
922.214	6103.1
922.525	6132.25
922.835	6034.4
923.146	6031.01
923.456	6074.85
923.767	5992.14
924.077	5965.25
924.387	5928.87
924.697	5929.55
925.008	5899.27
925.318	5898.81
925.628	5848.19
925.938	5893.39
926.248	5808.65
926.558	5764.81
926.867	5736.11
927.177	5730.68
927.487	5675.54
927.796	5653.85
928.106	5652.04
928.416	5651.14
928.725	5612.72
929.034	5555.55
929.344	5574.08
929.653	5598.26
929.962	5515.1
930.271	5466.96
930.581	5468.09
930.89	5457.24
931.199	5419.96
931.508	5425.15
931.817	5398.26
932.125	5344.25
932.434	5325.04
932.743	5325.95
933.051	5248.44
933.36	5236.68
933.669	5249.11
933.977	5170.7
934.286	5158.49
934.594	5178.15
934.902	5122.56
935.21	5129.79
935.519	5106.74
935.827	5054.54
936.135	5079.85
936.443	5042.11
936.751	5001.66
937.059	4998.72
937.367	4994.66
937.674	5008.67
937.982	4976.58
938.29	4910.14
938.597	4937.94
938.905	4851.61
939.213	4847.99
939.52	4865.85
939.827	4813.42
940.135	4773.87
940.442	4747.43
940.749	4767.32
941.056	4740.2
941.363	4670.15
941.67	4760.76
941.977	4705.62
942.284	4659.75
942.591	4603.93
942.898	4611.62
943.205	4610.94
943.511	4564.84
943.818	4581.79
944.125	4491.17
944.431	4470.6
944.738	4515.57
945.044	4458.17
945.35	4463.82
945.657	4386.09
945.963	4416.82
946.269	4364.84
946.575	4368.46
946.881	4313.54
947.187	4372.75
947.493	4309.48
947.799	4332.3
948.105	4270.16
948.41	4244.17
948.716	4247.78
949.022	4228.12
949.327	4246.2
949.633	4151.29
949.938	4177.5
950.244	4161.01
950.549	4132.76
950.854	4098.86
951.16	4108.58
951.465	4081.01
951.77	4071.74
952.075	4023.83
952.38	4013.67
952.685	4000.56
952.99	3966.89
953.294	3956.94
953.599	3894.8
953.904	3898.87
954.209	3927.34
954.513	3853.67
954.818	3894.57
955.122	3860.9
955.426	3881.47
955.731	3822.71
956.035	3813.44
956.339	3818.42
956.643	3770.73
956.948	3761.47
957.252	3736.38
957.556	3739.55
957.86	3713.33
958.163	3681.92
958.467	3732.32
958.771	3674.69
959.075	3650.06
959.378	3629.49
959.682	3665.43
959.985	3615.48
960.289	3586.78
960.592	3583.39
960.896	3554.02
961.199	3566.9
961.502	3496.17
961.805	3533
962.108	3467.69
962.411	3510.4
962.714	3479.67
963.017	3496.17
963.32	3450.29
963.623	3452.55
963.926	3428.82
964.228	3418.2
964.531	3348.82
964.833	3354.7
965.136	3368.48
965.438	3286.45
965.741	3345.21
966.043	3292.33
966.345	3294.14
966.648	3272.44
966.95	3265.21
967.252	3270.63
967.554	3253.23
967.856	3221.14
968.158	3208.04
968.46	3201.94
968.761	3199.68
969.063	3191.54
969.365	3169.62
969.666	3128.49
969.968	3150.19
970.269	3122.16
970.571	3092.79
970.872	3107.7
971.174	3057.76
971.475	3077.87
971.776	3069.74
972.077	3012.79
972.378	3043.52
972.679	2972.34
972.98	3006.46
973.281	2970.3
973.582	2994.71
973.883	2910.64
974.183	2935.73
974.484	2935.73
974.785	2898.21
975.085	2918.55
975.386	2933.47
975.686	2890.53
975.986	2893.7
976.287	2840.36
976.587	2814.15
976.887	2835.62
977.187	2846.46
977.487	2815.73
977.787	2768.95
978.087	2770.53
978.387	2757.88
978.687	2782.06
978.987	2729.41
979.286	2718.78
979.586	2743.42
979.885	2683.31
980.185	2673.14
980.484	2684.21
980.784	2655.96
981.083	2662.29
981.382	2637.88
981.682	2622.29
981.981	2649.86
982.28	2623.65
982.579	2615.06
982.878	2601.95
983.177	2598.34
983.475	2589.97
983.774	2565.57
984.073	2536.64
984.372	2549.3
984.67	2513.37
984.969	2519.24
985.267	2520.6
985.566	2494.38
985.864	2483.31
986.162	2494.16
986.461	2469.07
986.759	2456.42
987.057	2426.59
987.355	2410.54
987.653	2411.67
987.951	2378.91
988.249	2394.73
988.547	2377.55
988.844	2368.96
989.142	2396.31
989.44	2346.59
989.737	2345.23
990.035	2293.03
990.332	2311.56
990.63	2300.26
990.927	2266.14
991.224	2302.07
991.521	2260.49
991.819	2300.72
992.116	2267.5
992.413	2264.11
992.71	2206.26
993.006	2220.49
993.303	2180.95
993.6	2201.28
993.897	2199.48
994.193	2186.6
994.49	2183.21
994.787	2152.25
995.083	2157.9
995.379	2148.63
995.676	2142.08
995.972	2128.52
996.268	2111.34
996.565	2075.19
996.861	2115.86
997.157	2116.77
997.453	2023.21
997.749	2055.53
998.044	2022.08
998.34	2056.65
998.636	2023.66
998.932	1994.06
999.227	2007.16
999.523	1993.15
999.818	1972.82
1000.114	1962.87
1000.409	1980.72
1000.704	1963.1
1001	1923.55
1001.295	1934.17
1001.59	1921.07
1001.885	1915.64
1002.18	1904.34
1002.475	1891.01
1002.77	1884
1003.065	1880.61
1003.359	1875.19
1003.654	1859.37
1003.949	1842.2
1004.243	1835.64
1004.538	1784.12
1004.832	1812.37
1005.127	1801.29
1005.421	1785.7
1005.715	1776.89
1006.009	1771.92
1006.304	1768.98
1006.598	1732.37
1006.892	1742.54
1007.186	1729.43
1007.48	1726.04
1007.773	1726.04
1008.067	1726.04
1008.361	1684.69
1008.655	1666.38
1008.948	1693.27
1009.242	1665.03
1009.535	1702.31
1009.829	1656.44
1010.122	1633.62
1010.415	1623.9
1010.708	1654.41
1011.001	1596.55
1011.295	1595.88
1011.588	1615.31
1011.881	1581.64
1012.173	1577.57
1012.466	1543
1012.759	1574.18
1013.052	1554.52
1013.344	1552.04
1013.637	1532.83
1013.93	1519.04
1014.222	1503
1014.514	1509.32
1014.807	1488.99
1015.099	1493.28
1015.391	1472.26
1015.683	1489.89
1015.976	1463.68
1016.268	1447.41
1016.56	1437.91
1016.851	1437.46
1017.143	1451.93
1017.435	1412.38
1017.727	1414.19
1018.018	1393.17
1018.31	1373.51
1018.602	1377.8
1018.893	1364.02
1019.185	1390.91
1019.476	1351.81
1019.767	1336.9
1020.058	1366.05
1020.35	1326.28
1020.641	1315.88
1020.932	1320.18
1021.223	1286.05
1021.514	1285.6
1021.804	1292.16
1022.095	1303.45
1022.386	1266.17
1022.677	1258.26
1022.967	1269.56
1023.258	1245.6
1023.548	1247.41
1023.839	1247.18
1024.129	1235.89
1024.419	1186.85
1024.709	1190.46
1025	1220.97
1025.29	1196.56
1025.58	1201.08
1025.87	1179.84
1026.16	1168.32
1026.449	1197.24
1026.739	1157.24
1027.029	1139.62
1027.319	1142.33
1027.608	1137.13
1027.898	1121.31
1028.187	1136.23
1028.477	1103.01
1028.766	1111.82
1029.055	1101.43
1029.344	1095.1
1029.634	1074.99
1029.923	1077.02
1030.212	1070.01
1030.501	1080.86
1030.79	1051.26
1031.078	1042.44
1031.367	1038.15
1031.656	1024.37
1031.945	1007.64
1032.233	1034.99
1032.522	1002.22
1032.81	1011.71
1033.099	988.43
1033.387	990.47
1033.675	980.07
1033.963	969.68
1034.251	994.08
1034.54	972.39
1034.828	974.65
1035.116	945.95
1035.403	949.11
1035.691	943.46
1035.979	938.94
1036.267	943.24
1036.554	926.29
1036.842	937.81
1037.129	923.35
1037.417	924.26
1037.704	906.85
1037.992	899.17
1038.279	907.98
1038.566	872.28
1038.853	872.28
1039.14	872.28
