Data from hue_32_FLMS001491_00100.txt Node
Date: Tue Feb 07 17:24:17 GMT 2017
User: dcchb
Spectrometer: FLMS00149
Trigger mode: 0
Integration Time (sec): 2.000000E-2
Scans to average: 10
Electric dark correction enabled: true
Nonlinearity correction enabled: false
Boxcar width: 0
XAxis mode: Wavelengths
Number of Pixels in Spectrum: 2048
>>>>>Begin Spectral Data<<<<<
341.393	-16.6
341.776	-16.6
342.16	-16.6
342.543	-60.89
342.927	-51.17
343.31	-63.15
343.693	-50.27
344.077	-64.96
344.46	-62.92
344.843	-56.82
345.226	-29.93
345.61	-37.84
345.993	-31.51
346.376	-8.91
346.759	6.68
347.142	17.53
347.525	31.09
347.908	76.96
348.291	63.18
348.674	83.51
349.057	127.36
349.44	123.06
349.823	145.89
350.206	182.04
350.588	227.01
350.971	231.31
351.354	241.48
351.737	250.74
352.119	256.39
352.502	252.78
352.884	278.54
353.267	273.11
353.65	318.76
354.032	301.14
354.414	301.81
354.797	310.63
355.179	330.51
355.562	327.35
355.944	343.17
356.326	364.86
356.709	329.84
357.091	347.91
357.473	360.34
357.855	374.35
358.238	342.49
358.62	351.08
359.002	342.49
359.384	362.38
359.766	350.85
360.148	356.28
360.53	356.73
360.912	333.45
361.294	348.59
361.676	337.07
362.057	337.52
362.439	322.6
362.821	335.94
363.203	357.86
363.584	306.79
363.966	321.02
364.348	332.1
364.729	331.19
365.111	319.67
365.493	329.16
365.874	324.41
366.256	316.95
366.637	308.59
367.019	308.82
367.4	315.15
367.781	327.58
368.163	305.2
368.544	328.25
368.925	340.01
369.306	328.71
369.688	338.88
370.069	341.36
370.45	313.57
370.831	312.89
371.212	344.98
371.593	309.05
371.974	307.24
372.355	321.25
372.736	330.29
373.117	301.81
373.498	324.86
373.879	307.46
374.26	323.06
374.641	318.54
375.021	327.8
375.402	330.97
375.783	328.03
376.163	344.3
376.544	326.22
376.925	318.08
377.305	330.06
377.686	340.23
378.066	331.42
378.447	332.55
378.827	350.85
379.208	340.46
379.588	329.84
379.968	333.45
380.349	343.17
380.729	347.69
381.109	337.52
381.489	330.29
381.87	343.85
382.25	355.37
382.63	347.91
383.01	351.08
383.39	356.05
383.77	349.95
384.15	359.67
384.53	358.08
384.91	349.95
385.29	370.06
385.67	337.29
386.049	363.73
386.429	370.29
386.809	365.77
387.189	353.11
387.568	355.6
387.948	369.16
388.328	360.34
388.707	370.06
389.087	364.41
389.466	354.24
389.846	366.22
390.225	373.9
390.605	368.03
390.984	369.16
391.363	367.35
391.743	391.08
392.122	385.65
392.501	372.77
392.881	395.6
393.26	379.55
393.639	402.6
394.018	399.89
394.397	382.04
394.776	384.3
395.155	390.85
395.534	389.72
395.913	380.68
396.292	404.64
396.671	401.7
397.05	413.45
397.429	393.34
397.808	404.18
398.186	392.89
398.565	382.72
398.944	424.07
399.323	415.94
399.701	398.31
400.08	415.71
400.458	400.57
400.837	424.75
401.215	420.68
401.594	408.7
401.972	419.33
402.351	420.91
402.729	411.87
403.107	428.59
403.486	402.6
403.864	418.87
404.242	424.3
404.62	424.07
404.999	425.88
405.377	422.71
405.755	437.4
406.133	457.97
406.511	436.73
406.889	468.82
407.267	449.61
407.645	437.86
408.023	467.91
408.401	448.02
408.779	474.92
409.156	448.48
409.534	458.65
409.912	475.37
410.29	457.29
410.667	471.98
411.045	465.43
411.422	491.87
411.8	456.16
412.178	492.77
412.555	474.24
412.933	481.47
413.31	488.7
413.687	476.5
414.065	490.96
414.442	491.19
414.819	498.87
415.197	501.81
415.574	509.04
415.951	515.37
416.328	494.8
416.705	494.58
417.082	503.84
417.46	500.23
417.837	523.5
418.214	526.89
418.591	531.64
418.967	518.53
419.344	550.4
419.721	521.7
420.098	566.21
420.475	508.14
420.852	533.22
421.228	541.36
421.605	524.18
421.982	540
422.358	551.3
422.735	562.37
423.111	537.06
423.488	570.28
423.864	549.27
424.241	570.51
424.617	575.93
424.994	578.42
425.37	600.34
425.746	591.52
426.123	596.04
426.499	570.28
426.875	575.93
427.251	611.86
427.627	605.53
428.003	595.59
428.379	587.68
428.756	637.4
429.132	618.42
429.507	591.52
429.883	647.79
430.259	655.25
430.635	648.47
431.011	647.79
431.387	641.47
431.763	656.61
432.138	666.1
432.514	659.77
432.89	647.34
433.265	699.77
433.641	670.62
434.016	672.2
434.392	692.76
434.767	681.69
435.143	693.89
435.518	714.46
435.894	689.15
436.269	709.71
436.644	704.74
437.02	713.78
437.395	703.84
437.77	739.09
438.145	762.37
438.52	745.42
438.895	732.99
439.271	761.46
439.646	779.77
440.021	760.11
440.395	808.24
440.77	763.04
441.145	781.12
441.52	784.29
441.895	787.68
442.27	822.48
442.645	798.3
443.019	809.15
443.394	794.91
443.769	832.42
444.143	813.21
444.518	816.6
444.892	808.24
445.267	821.8
445.641	833.78
446.016	827
446.39	850.73
446.764	832.87
447.139	854.34
447.513	890.73
447.887	878.07
448.262	878.07
448.636	859.77
449.01	878.52
449.384	876.04
449.758	878.97
450.132	899.54
450.506	890.5
450.88	912.42
451.254	909.93
451.628	911.97
452.002	916.71
452.376	949.48
452.75	944.96
453.123	944.28
453.497	967.11
453.871	950.84
454.244	989.93
454.618	961.68
454.992	998.74
455.365	1008.91
455.739	1018.86
456.112	1018.18
456.486	1037.39
456.859	1013.43
457.232	1048.01
457.606	1067.67
457.979	1080.78
458.352	1082.13
458.725	1072.87
459.099	1070.61
459.472	1120.78
459.845	1118.74
460.218	1149.48
460.591	1145.86
460.964	1158.74
461.337	1152.41
461.71	1167.78
462.083	1178.18
462.456	1204.39
462.829	1193.54
463.201	1251.39
463.574	1225.63
463.947	1239.87
464.32	1267.66
464.692	1267.21
465.065	1295.23
465.438	1309.25
465.81	1319.64
466.183	1346.31
466.555	1372.75
466.928	1400.32
467.3	1371.84
467.672	1399.41
468.045	1421.56
468.417	1424.72
468.789	1451.39
469.161	1487.09
469.534	1496.13
469.906	1519.64
470.278	1541.56
470.65	1570.03
471.022	1604.38
471.394	1593.98
471.766	1645.51
472.138	1692.29
472.51	1648.22
472.882	1727.77
473.253	1736.58
473.625	1787.42
473.997	1824.94
474.369	1828.1
474.74	1858.16
475.112	1934.09
475.484	1940.87
475.855	1993.97
476.227	1974.54
476.598	2084.37
476.97	2061.32
477.341	2099.28
477.713	2161.65
478.084	2208.2
478.455	2263.12
478.827	2283.91
479.198	2352.16
479.569	2395.32
479.94	2458.14
480.311	2499.5
480.682	2595.09
481.053	2621.75
481.424	2689.55
481.795	2736.55
482.166	2811.13
482.537	2842.99
482.908	2921.63
483.279	3016.09
483.65	3139.93
484.021	3120.95
484.391	3147.16
484.762	3230.78
485.133	3301.06
485.503	3380.6
485.874	3479.58
486.244	3528.4
486.615	3645.23
486.985	3661.5
487.356	3786.24
487.726	3863.08
488.097	3962.96
488.467	3985.33
488.837	4082.51
489.207	4162.05
489.578	4256.74
489.948	4292.67
490.318	4402.95
490.688	4424.42
491.058	4515.71
491.428	4651.3
491.798	4714.35
492.168	4829.6
492.538	4848.14
492.908	4975.59
493.278	5079.32
493.648	5107.34
494.017	5167.9
494.387	5288.8
494.757	5354.11
495.126	5422.36
495.496	5440.44
495.866	5506.65
496.235	5631.84
496.605	5690.82
496.974	5726.08
497.344	5835
497.713	5917.26
498.082	6035.9
498.452	6072.06
498.821	6111.83
499.19	6181.21
499.559	6290.58
499.928	6299.17
500.298	6345.27
500.667	6428.43
501.036	6480.18
501.405	6505.27
501.774	6617.81
502.143	6690.57
502.512	6724.47
502.88	6792.94
503.249	6798.37
503.618	6869.55
503.987	6914.3
504.356	6982.99
504.724	6998.14
505.093	7101.41
505.462	7161.52
505.83	7187.96
506.199	7227.96
506.567	7387.05
506.936	7330.56
507.304	7476.99
507.672	7532.13
508.041	7562.41
508.409	7636.31
508.777	7649.42
509.145	7715.63
509.514	7780.04
509.882	7848.73
510.25	7895.96
510.618	7900.26
510.986	7915.4
511.354	7994.95
511.722	8034.04
512.09	8175.73
512.458	8089.86
512.826	8153.13
513.193	8312.9
513.561	8262.73
513.929	8388.38
514.297	8407.36
514.664	8459.34
515.032	8449.62
515.4	8595.83
515.767	8585.44
516.135	8678.09
516.502	8621.37
516.869	8773.23
517.237	8762.61
517.604	8691.65
517.972	8884.64
518.339	8914.02
518.706	8898.2
519.073	8946.33
519.44	9028.36
519.808	9080.34
520.175	9133.67
520.542	9215.48
520.909	9249.6
521.276	9272.65
521.643	9340.45
522.009	9401.91
522.376	9447.34
522.743	9510.16
523.11	9539.31
523.477	9713.09
523.843	9674.22
524.21	9730.49
524.577	9813.65
524.943	9889.13
525.31	9907.44
525.676	10031.5
526.043	10092.97
526.409	10066.98
526.776	10191.27
527.142	10214.1
527.508	10292.96
527.874	10362.11
528.241	10365.05
528.607	10436.24
528.973	10502.9
529.339	10516.01
529.705	10596.91
530.071	10660.41
530.437	10726.62
530.803	10814.31
531.169	10904.47
531.535	10882.33
531.901	10881.87
532.267	11013.85
532.632	11053.4
532.998	11056.56
533.364	11123.45
533.73	11162.09
534.095	11304.46
534.461	11247.51
534.826	11337.68
535.192	11430.56
535.557	11598.69
535.923	11427.4
536.288	11548.52
536.653	11612.25
537.019	11546.49
537.384	11538.13
537.749	11728.63
538.114	11713.27
538.479	11690.44
538.845	11787.16
539.21	11810.21
539.575	11823.09
539.94	11893.6
540.305	12061.5
540.67	12031.9
541.034	12045.91
541.399	12035.06
541.764	12261.95
542.129	12209.52
542.494	12261.05
542.858	12327.03
543.223	12328.62
543.587	12366.58
543.952	12336.98
544.316	12363.87
544.681	12464.66
545.045	12623.52
545.41	12707.36
545.774	12670.98
546.138	12686.12
546.503	12734.93
546.867	12816.97
547.231	12891.99
547.595	12866.23
547.959	12906.91
548.324	12987.13
548.688	13038.2
549.052	13127.69
549.416	13114.36
549.779	13114.58
550.143	13166.11
550.507	13341.47
550.871	13324.3
551.235	13288.37
551.599	13341.25
551.962	13442.71
552.326	13414.24
552.689	13543.5
553.053	13535.82
553.417	13572.88
553.78	13751.63
554.143	13655.36
554.507	13794.34
554.87	13848.58
555.234	13941
555.597	13803.15
555.96	13865.3
556.323	14058.51
556.686	13986.2
557.05	14075.24
557.413	14158.4
557.776	14197.95
558.139	14240.43
558.502	14260.09
558.865	14305.51
559.228	14378.51
559.59	14347.32
559.953	14485.4
560.316	14519.97
560.679	14505.51
561.041	14611.49
561.404	14750.25
561.767	14769.46
562.129	14796.57
562.492	14869.57
562.854	14924.93
563.217	14891.71
563.579	14996.34
563.941	15086.96
564.304	15111.82
564.666	15226.62
565.028	15197.02
565.39	15209.44
565.753	15365.15
566.115	15325.37
566.477	15378.48
566.839	15477.01
567.201	15610.11
567.563	15575.08
567.925	15694.86
568.287	15760.39
568.648	15730.56
569.01	15808.75
569.372	15845.59
569.734	15833.61
570.095	15996.99
570.457	16070.89
570.819	16133.26
571.18	16149.76
571.542	16232.47
571.903	16314.27
572.265	16398.57
572.626	16507.26
572.987	16579.58
573.349	16622.74
573.71	16730.99
574.071	16714.49
574.432	16939.57
574.794	16950.19
575.155	17065.22
575.516	17103.18
575.877	17220.69
576.238	17290.07
576.599	17431.76
576.96	17509.95
577.32	17609.16
577.681	17743.62
578.042	17897.51
578.403	17951.75
578.763	18094.34
579.124	18150.84
579.485	18370.27
579.845	18508.12
580.206	18588.56
580.566	18739.3
580.927	18906.52
581.287	19234.65
581.648	19139.74
582.008	19507.86
582.368	19569.56
582.728	19782.88
583.089	19870.11
583.449	20077.57
583.809	20188.07
584.169	20445.24
584.529	20586.93
584.889	21019.01
585.249	21091.78
585.609	21227.37
585.969	21528.6
586.329	21810.85
586.688	22032.32
587.048	22216.94
587.408	22419.2
587.768	22733.99
588.127	22866.87
588.487	23059.41
588.846	23433.18
589.206	23480.19
589.565	23746.62
589.925	24130.11
590.284	24289.88
590.643	24668.18
591.003	24948.62
591.362	25185.68
591.721	25357.2
592.08	25716.97
592.44	26032.66
592.799	26276.5
593.158	26489.37
593.517	26823.15
593.876	27100.88
594.235	27296.81
594.593	27565.73
594.952	27792.16
595.311	28131.14
595.67	28424.69
596.029	28716.43
596.387	29057.89
596.746	29370.88
597.104	29384.89
597.463	29686.13
597.822	30075.49
598.18	30100.58
598.538	30513.45
598.897	30856.49
599.255	30941.91
599.613	31539.18
599.972	31493.76
600.33	31971.49
600.688	31910.47
601.046	32287.87
601.404	32547.29
601.762	32799.49
602.12	33152.25
602.478	33373.49
602.836	33575.74
603.194	33822.29
603.552	33858.22
603.91	33914.49
604.268	34307.93
604.625	34406
604.983	34662.49
605.341	34837.86
605.698	35081.92
606.056	35422.02
606.413	35540.44
606.771	35825.85
607.128	35981.55
607.485	35966.64
607.843	36235.33
608.2	36616.34
608.557	36897.24
608.914	36814.3
609.272	37184.01
609.629	37391.46
609.986	37696.31
610.343	37623.77
610.7	38017.66
611.057	38179.01
611.414	38367.48
611.771	38320.93
612.127	38715.04
612.484	38682.27
612.841	39017.63
613.198	39025.99
613.554	39166.1
613.911	39462.59
614.267	39538.07
614.624	39707.78
614.98	39672.08
615.337	40047.21
615.693	40120.88
616.05	40199.75
616.406	40444.94
616.762	40390.25
617.118	40637.02
617.475	40658.04
617.831	40773.29
618.187	40966.51
618.543	40903.91
618.899	41238.14
619.255	41360.85
619.611	41316.33
619.967	41551.35
620.323	41759.93
620.678	41673.16
621.034	41703.21
621.39	41790.21
621.746	41831.8
622.101	42314.27
622.457	42002.64
622.812	42169.41
623.168	42380.93
623.523	42449.86
623.879	42525.56
624.234	42386.13
624.589	42653.69
624.945	42588.39
625.3	42706.8
625.655	42726.24
626.01	42915.83
626.365	42937.98
626.72	42902.95
627.075	42896.17
627.43	42965.33
627.785	42859.79
628.14	42997.64
628.495	43206.67
628.85	43030.63
629.205	43041.48
629.559	43335.26
629.914	43198.77
630.269	43340.23
630.623	43222.27
630.978	43172.78
631.332	43352.21
631.687	43368.7
632.041	43285.32
632.396	43393.11
632.75	43302.27
633.104	43192.66
633.459	43230.63
633.813	43243.74
634.167	43296.62
634.521	43262.49
634.875	43341.81
635.229	43309.27
635.583	43304.75
635.937	43224.3
636.291	43147.69
636.645	43215.94
636.999	43214.58
637.352	43377.07
637.706	43140.01
638.06	43244.41
638.413	43069.96
638.767	43191.31
639.121	43213.45
639.474	43023.85
639.828	43101.14
640.181	43111.76
640.534	43119.67
640.888	43083.97
641.241	42928.26
641.594	42983.4
641.947	43028.37
642.301	42914.7
642.654	43101.14
643.007	43061.37
643.36	43019.11
643.713	42892.78
644.066	43123.06
644.419	42899.79
644.771	42578.44
645.124	42397.2
645.477	42281.28
645.83	41942.3
646.182	41946.14
646.535	41693.49
646.888	41850.33
647.24	41687.39
647.593	41939.82
647.945	41742.08
648.298	41705.92
648.65	41532.82
649.002	41505.7
649.355	41670.9
649.707	41513.84
650.059	41755.19
650.411	42239.02
650.763	42268.62
651.115	42677.65
651.467	42530.31
651.819	42559.91
652.171	42374.83
652.523	42454.6
652.875	42316.53
653.227	42200.6
653.578	42476.75
653.93	42392.46
654.282	42240.37
654.633	42244.44
654.985	42268.39
655.337	42302.07
655.688	42351.1
656.039	42385.23
656.391	42228.17
656.742	42157.89
657.094	42185.68
657.445	42429.07
657.796	42179.13
658.147	42065.69
658.498	42102.75
658.849	42121.28
659.2	42132.8
659.551	42098.46
659.902	42175.97
660.253	42074.95
660.604	42154.95
660.955	41841.29
661.306	42189.07
661.656	42064.78
662.007	42110.43
662.358	42073.82
662.708	42126.48
663.059	42004.45
663.409	41869.08
663.76	42105.23
664.11	42101.62
664.461	42147.27
664.811	42055.52
665.161	42140.04
665.511	42021.85
665.862	42027.5
666.212	41973.94
666.562	41945.92
666.912	41882.42
667.262	41824.56
667.612	41908.86
667.962	41864.56
668.312	41728.52
668.662	41978.68
669.011	41834.51
669.361	41859.37
669.711	41928.52
670.06	41851.91
670.41	41986.37
670.76	41685.36
671.109	41919.7
671.459	41785.02
671.808	41691.01
672.157	41828.18
672.507	41644.91
672.856	41688.3
673.205	41683.1
673.554	41970.77
673.904	41537.57
674.253	41879.03
674.602	41595.19
674.951	41061.65
675.3	40965.15
675.649	41683.1
675.998	41557
676.346	41620.73
676.695	41697.11
677.044	41351.36
677.393	41559.03
677.741	41522.65
678.09	41471.35
678.438	41341.64
678.787	41489.88
679.135	41348.64
679.484	41221.19
679.832	41257.35
680.181	41239.04
680.529	41252.6
680.877	41128.31
681.225	41090.8
681.573	41166.95
681.922	40892.61
682.27	40903.23
682.618	40875.21
682.966	40900.07
683.314	40846.96
683.661	40654.2
684.009	40591.6
684.357	40428.22
684.705	40502.79
685.053	40594.77
685.4	40468.89
685.748	40218.73
686.095	40287.66
686.443	40149.58
686.79	40116.59
687.138	40150.48
687.485	40045.18
687.832	39936.25
688.18	40039.3
688.527	39873.88
688.874	39804.05
689.221	39706.65
689.568	39620.78
689.915	39553.21
690.262	39578.75
690.609	39376.72
690.956	39280.45
691.303	39346.66
691.65	39094.24
691.997	39077.07
692.344	38766.34
692.69	38925.88
693.037	38859.9
693.383	38490.87
693.73	38589.85
694.077	38523.86
694.423	38484.76
694.769	38320.48
695.116	38138.11
695.462	38266.47
695.808	38136.3
696.155	38045.45
696.501	37860.83
696.847	37941.5
697.193	37648.63
697.539	37961.39
697.885	37493.6
698.231	37486.83
698.577	37499.71
698.923	37419.26
699.269	37140.62
699.614	37093.16
699.96	36950.79
700.306	37135.87
700.651	36848.88
700.997	36810.91
701.342	36609.79
701.688	36785.6
702.033	36457.47
702.379	36515.55
702.724	36390.58
703.069	36515.1
703.415	36080.53
703.76	36069.91
704.105	36187.65
704.45	36005.28
704.795	35901.78
705.14	35677.38
705.485	35760.77
705.83	35586.31
706.175	35612.75
706.52	35504.28
706.865	35367.56
707.209	35394
707.554	35283.27
707.899	35304.96
708.243	35136.83
708.588	35116.94
708.932	34714.92
709.277	34793.11
709.621	34867.23
709.966	34647.8
710.31	34696.84
710.654	34381.6
710.998	34456.17
711.342	34282.16
711.687	34500.01
712.031	34170.53
712.375	34142.28
712.719	34142.28
713.063	34004.88
713.407	34178.44
713.75	34068.16
714.094	34004.2
714.438	33778.45
714.782	33842.63
715.125	33720.6
715.469	33756.98
715.812	33533.93
716.156	33442.64
716.499	33371
716.843	33488.06
717.186	33242.64
717.53	33403.54
717.873	33328.29
718.216	33301.85
718.559	32910.22
718.902	32912.71
719.246	32907.96
719.589	32813.05
719.932	32837.68
720.275	32735.99
720.617	32717.46
720.96	32652.15
721.303	32710
721.646	32751.36
721.989	32451.93
722.331	32544.13
722.674	32396.11
723.016	32525.83
723.359	32399.05
723.701	32384.59
724.044	32291.48
724.386	31898.5
724.729	32265.95
725.071	32038.83
725.413	32152.05
725.755	32107.98
726.097	31878.61
726.439	31720.87
726.782	31711.84
727.124	31844.04
727.465	31690.82
727.807	31640.88
728.149	31591.16
728.491	31496.7
728.833	31564.95
729.175	31488.34
729.516	31410.6
729.858	31362.69
730.199	31426.42
730.541	31336.7
730.882	31260.1
731.224	31297.38
731.565	30985.98
731.906	31097.16
732.248	31201.11
732.589	30962.25
732.93	30843.38
733.271	30863.95
733.612	30909.6
733.953	30922.93
734.294	30863.04
734.635	30640.68
734.976	30867.56
735.317	30661.24
735.658	30620.34
735.999	30634.35
736.339	30535.14
736.68	30609.94
737.021	30493.34
737.361	30430.97
737.702	30591.64
738.042	30393.9
738.383	30371.98
738.723	30218.09
739.063	30281.59
739.404	30272.33
739.744	30216.51
740.084	30109.17
740.424	30121.37
740.764	30046.57
741.104	29944.65
741.444	29887.93
741.784	29843.18
742.124	29920.92
742.464	29831.66
742.804	29877.31
743.143	29769.97
743.483	29828.27
743.823	29615.85
744.162	29495.17
744.502	29688.61
744.841	29547.82
745.181	29640.93
745.52	29477.09
745.86	29535.62
746.199	29473.25
746.538	29383.76
746.877	29329.53
747.216	29428.51
747.556	29241.39
747.895	29187.83
748.234	29196.42
748.573	29041.85
748.911	29009.08
749.25	29099.25
749.589	28917.33
749.928	28974.73
750.267	28999.59
750.605	28907.16
750.944	28845.92
751.283	28645.25
751.621	28723.21
751.96	28592.14
752.298	28663.78
752.636	28702.2
752.975	28496.78
753.313	28373.84
753.651	28412.26
753.989	28249.78
754.327	28323.22
754.666	28259.05
755.004	28202.55
755.342	28181.53
755.679	28100.18
756.017	28007.98
756.355	27948.32
756.693	27962.1
757.031	27843.46
757.368	27751.49
757.706	27739.96
758.044	27612.06
758.381	27653.41
758.719	27685.5
759.056	27693.18
759.394	27542.45
759.731	27237.6
760.068	27332.29
760.405	27302.23
760.743	27121.67
761.08	27264.95
761.417	26955.8
761.754	27011.62
762.091	26939.76
762.428	26768.24
762.765	26656.15
763.102	26711.74
763.438	26712.65
763.775	26376.61
764.112	26566.21
764.449	26554.68
764.785	26356.04
765.122	26184.3
765.458	26180
765.795	26059.33
766.131	26048.71
766.467	25991.31
766.804	25813.23
767.14	25693.24
767.476	25749.05
767.812	25529.4
768.148	25649.62
768.485	25470.42
768.821	25330.99
769.157	25280.82
769.492	25157.43
769.828	25194.27
770.164	24893.94
770.5	24962.18
770.836	24936.19
771.171	24664.79
771.507	24704.34
771.842	24490.78
772.178	24583.89
772.513	24499.14
772.849	24417.34
773.184	24289.21
773.519	24309.32
773.855	24135.09
774.19	24013.51
774.525	24002.21
774.86	23939.16
775.195	23822.55
775.53	23864.36
775.865	23584.59
776.2	23507.98
776.535	23386.4
776.87	23279.97
777.205	23201.32
777.539	23130.59
777.874	23227.31
778.209	22950.71
778.543	22991.84
778.878	22780.55
779.212	22787.78
779.547	22602.7
779.881	22836.36
780.215	22508.91
780.55	22549.36
780.884	22428.24
781.218	22381.01
781.552	22266.43
781.886	22274.8
782.22	22037.97
782.554	21963.39
782.888	21839.33
783.222	21766.79
783.556	21681.59
783.889	21553.91
784.223	21472.33
784.557	21334.71
784.89	21479.11
785.224	21270.53
785.557	21150.76
785.891	21170.87
786.224	21040.93
786.558	21045.9
786.891	20842.74
787.224	20838.9
787.557	20833.25
787.891	20750.99
788.224	20680.49
788.557	20599.59
788.89	20572.02
789.223	20542.41
789.556	20456.76
789.888	20339.48
790.221	20277.56
790.554	20064.91
790.887	20123.89
791.219	20098.58
791.552	20087.73
791.884	19870.34
792.217	19826.05
792.549	19821.07
792.882	19657.69
793.214	19536.56
793.546	19630.57
793.879	19465.6
794.211	19391.48
794.543	19364.36
794.875	19355.1
795.207	19411.82
795.539	19334.76
795.871	19281.2
796.203	19022.23
796.535	18903.13
796.867	18824.26
797.198	18909.91
797.53	18851.38
797.862	18705.4
798.193	18766.87
798.525	18575.68
798.856	18661.78
799.188	18432.86
799.519	18317.16
799.85	18333.43
800.182	18371.17
800.513	18338.63
800.844	18133.89
801.175	18183.83
801.506	18241.68
801.837	17947
802.168	17995.13
802.499	17905.42
802.83	17926.44
803.161	17748.36
803.491	17926.66
803.822	17834.01
804.153	17735.48
804.483	17525.54
804.814	17465.43
805.145	17500.01
805.475	17420.23
805.805	17485.09
806.136	17363.74
806.466	17458.43
806.796	17327.81
807.126	17282.38
807.457	17187.92
807.787	17111.54
808.117	17038.78
808.447	17069.51
808.777	16988.16
809.107	16997.65
809.436	16880.59
809.766	16886.69
810.096	16748.61
810.426	16704.09
810.755	16825.22
811.085	16669.07
811.414	16653.7
811.744	16534.83
812.073	16552.91
812.403	16501.16
812.732	16423.88
813.061	16371.22
813.39	16338.68
813.719	16353.14
814.049	16383.2
814.378	16206.93
814.707	16223.43
815.036	16114.96
815.365	16168.97
815.693	16005.36
816.022	15982.31
816.351	15873.38
816.68	15796.55
817.008	15840.61
817.337	15820.05
817.665	15776.89
817.994	15746.83
818.322	15673.61
818.651	15636.78
818.979	15592.94
819.307	15695.31
819.636	15568.53
819.964	15471.36
820.292	15618.93
820.62	15500.28
820.948	15506.61
821.276	15556.33
821.604	15481.3
821.932	15496.89
822.259	15539.15
822.587	15437.69
822.915	15354.3
823.243	15549.1
823.57	15294.41
823.898	15438.59
824.225	15418.48
824.553	15321.98
824.88	15346.16
825.207	15444.69
825.535	15322.44
825.862	15396.56
826.189	15314.53
826.516	15336
826.843	15360.85
827.17	15391.59
827.497	15446.27
827.824	15371.25
828.151	15368.08
828.478	15350.23
828.805	15401.08
829.131	15292.38
829.458	15321.08
829.785	15269.78
830.111	15324.02
830.438	15406.95
830.764	15406.95
831.09	15332.61
831.417	15252.38
831.743	15319.27
832.069	15305.49
832.395	15230.24
832.722	15329.22
833.048	15241.31
833.374	15190.01
833.7	15149.33
834.026	15222.55
834.351	15205.6
834.677	15100.52
835.003	15187.75
835.329	15123.57
835.654	15126.96
835.98	15088.77
836.306	15033.86
836.631	14997.25
836.956	15069.11
837.282	15142.55
837.607	14930.13
837.932	14873.86
838.258	14867.76
838.583	14930.13
838.908	14987.08
839.233	14919.73
839.558	14842
839.883	14792.28
840.208	14752.51
840.533	14790.92
840.858	14701.44
841.182	14733.75
841.507	14636.13
841.832	14584.83
842.156	14606.07
842.481	14563.81
842.805	14535.34
843.13	14581.21
843.454	14512.29
843.778	14460.54
844.103	14443.14
844.427	14366.76
844.751	14521.78
845.075	14315.46
845.399	14253.09
845.723	14217.38
846.047	14250.6
846.371	14101.68
846.695	14077.27
847.019	14030.72
847.343	13983.71
847.666	13934
847.99	13749.6
848.313	13743.95
848.637	13726.77
848.96	13667.79
849.284	13624.18
849.607	13604.52
849.931	13509.38
850.254	13441.36
850.577	13386.22
850.9	13280.68
851.223	13365.2
851.546	13207.24
851.869	13098.99
852.192	13154.13
852.515	13102.61
852.838	13028.94
853.161	13033.91
853.483	12906.23
853.806	12869.17
854.129	12824.2
854.451	12737.65
854.774	12697.87
855.096	12673.92
855.419	12646.57
855.741	12674.6
856.063	12544.2
856.385	12562.28
856.708	12515.05
857.03	12511.44
857.352	12424.66
857.674	12418.56
857.996	12377.43
858.318	12349.63
858.64	12281.61
858.961	12271.67
859.283	12230.99
859.605	12152.12
859.926	12141.5
860.248	12104.44
860.57	12084.78
860.891	12048.17
861.212	11935.41
861.534	11999.13
861.855	11953.49
862.176	11894.96
862.498	11881.4
862.819	11909.42
863.14	11826.48
863.461	11861.51
863.782	11831.45
864.103	11784.68
864.424	11760.27
864.745	11791.91
865.065	11742.64
865.386	11624
865.707	11670.1
866.027	11597.79
866.348	11642.76
866.668	11630.56
866.989	11581.97
867.309	11522.76
867.63	11487.06
867.95	11516.66
868.27	11466.72
868.59	11479.15
868.91	11441.63
869.23	11427.17
869.55	11443.89
869.87	11412.26
870.19	11408.19
870.51	11332.03
870.83	11455.65
871.15	11250.9
871.469	11326.61
871.789	11325.93
872.109	11250.23
872.428	11210.68
872.748	11259.49
873.067	11237.35
873.386	11285.25
873.706	11220.17
874.025	11145.37
874.344	11171.81
874.663	11156.9
874.982	11069.21
875.301	11090.23
875.62	11076.9
875.939	11050.91
876.258	11031.25
876.577	11046.39
876.896	11004.36
877.214	10916.22
877.533	11026.73
877.852	10927.52
878.17	10946.05
878.489	10952.83
878.807	10857.02
879.125	10869.45
879.444	10870.35
879.762	10889.56
880.08	10913.29
880.398	10738.15
880.716	10822.22
881.034	10720.75
881.352	10692.5
881.67	10715.1
881.988	10690.92
882.306	10625.38
882.624	10601.2
882.941	10567.53
883.259	10595.55
883.577	10529.12
883.894	10524.37
884.212	10523.69
884.529	10492.51
884.846	10426.75
885.164	10412.73
885.481	10332.06
885.798	10454.77
886.115	10288.22
886.432	10306.75
886.75	10282.12
887.067	10322.79
887.383	10305.39
887.7	10241.44
888.017	10269.46
888.334	10225.17
888.651	10204.38
888.967	10209.35
889.284	10135
889.6	10107.21
889.917	10002.35
890.233	10030.37
890.55	9955.57
890.866	9942.92
891.182	9967.55
891.498	9919.64
891.815	9925.52
892.131	9819.98
892.447	9820.21
892.763	9794.9
893.079	9765.29
893.395	9792.64
893.71	9750.61
894.026	9727.33
894.342	9597.84
894.657	9609.14
894.973	9560.33
895.289	9567.33
895.604	9574.79
895.92	9551.74
896.235	9407.79
896.55	9422.93
896.865	9380.9
897.181	9379.77
897.496	9374.8
897.811	9293.89
898.126	9292.76
898.441	9193.11
898.756	9160.11
899.071	9208.47
899.386	9185.65
899.7	9121.02
900.015	8995.37
900.33	9074.01
900.644	9008.48
900.959	9011.19
901.273	8996.73
901.588	8896.84
901.902	8936.84
902.216	8871.31
902.531	8839.89
902.845	8771.65
903.159	8744.98
903.473	8698.88
903.787	8685.32
904.101	8709.73
904.415	8693.68
904.729	8654.81
905.042	8565.33
905.356	8575.04
905.67	8504.99
905.984	8542.28
906.297	8468.61
906.611	8400.36
906.924	8394.93
907.237	8327.82
907.551	8318.33
907.864	8269.06
908.177	8255.05
908.491	8230.19
908.804	8173.47
909.117	8153.59
909.43	8115.39
909.743	8117.88
910.056	8036.98
910.368	8016.87
910.681	7963.08
910.994	7980.26
911.307	7963.31
911.619	7904.1
911.932	7889.64
912.244	7810.09
912.557	7817.77
912.869	7778.68
913.181	7718.34
913.494	7685.8
913.806	7606.03
914.118	7634.73
914.43	7639.25
914.742	7588.18
915.054	7572.13
915.366	7567.16
915.678	7510.44
915.99	7479.7
916.302	7456.43
916.613	7341.18
916.925	7312.25
917.236	7329.43
917.548	7287.62
917.859	7308.41
918.171	7251.46
918.482	7240.16
918.794	7215.3
919.105	7181.63
919.416	7123.33
919.727	7116.78
920.038	7084.91
920.349	7001.3
920.66	6990
920.971	6983.67
921.282	6953.39
921.593	6887.63
921.903	6847.4
922.214	6820.74
922.525	6813.73
922.835	6801.3
923.146	6767.63
923.456	6674.3
923.767	6731.25
924.077	6650.57
924.387	6679.27
924.697	6615.09
925.008	6551.82
925.318	6584.59
925.628	6524.48
925.938	6505.27
926.248	6463.69
926.558	6454.87
926.867	6417.81
927.177	6456.68
927.487	6353.41
927.796	6310.7
928.106	6327.87
928.416	6284.71
928.725	6274.31
929.034	6222.34
929.344	6218.72
929.653	6228.44
929.962	6142.79
930.271	6136.01
930.581	6085.62
930.89	6054.88
931.199	6102.34
931.508	6023.25
931.817	6021.21
932.125	6008.56
932.434	5929.91
932.743	5939.18
933.051	5876.13
933.36	5887.66
933.669	5803.82
933.977	5761.33
934.286	5811.5
934.594	5801.33
934.902	5696.93
935.21	5715.01
935.519	5684.05
935.827	5668.68
936.135	5656.7
936.443	5595.01
936.751	5567.21
937.059	5543.26
937.367	5559.08
937.674	5578.74
937.982	5549.81
938.29	5438.4
938.597	5470.27
938.905	5410.15
939.213	5421.45
939.52	5375.8
939.827	5439.76
940.135	5317.5
940.442	5311.63
940.749	5286.09
941.056	5348.69
941.363	5186.43
941.67	5193.66
941.977	5206.77
942.284	5173.78
942.591	5159.77
942.898	5145.98
943.205	5110.73
943.511	5087.45
943.818	5075.93
944.125	5071.18
944.431	5054.01
944.738	4993.89
945.044	5043.84
945.35	4957.06
945.657	4923.61
945.963	4923.39
946.269	4874.8
946.575	4870.51
946.881	4862.15
947.187	4869.38
947.493	4842.26
947.799	4838.64
948.105	4784.86
948.41	4745.77
948.716	4747.35
949.022	4749.61
949.327	4686.33
949.633	4644.52
949.938	4631.42
950.244	4618.99
950.549	4593.23
950.854	4622.38
951.16	4541.7
951.465	4533.79
951.77	4576.28
952.075	4493.12
952.38	4490.4
952.685	4509.84
952.99	4438.2
953.294	4443.4
953.599	4376.51
953.904	4393.46
954.209	4340.8
954.513	4359.11
954.818	4326.57
955.122	4312.78
955.426	4311.2
955.731	4303.52
956.035	4275.72
956.339	4260.35
956.643	4228.72
956.948	4194.14
957.252	4170.41
957.556	4206.8
957.86	4144.42
958.163	4107.59
958.467	4112.79
958.771	4123.86
959.075	4078.89
959.378	4060.81
959.682	4027.59
959.985	4050.42
960.289	3957.76
960.592	3987.14
960.896	3997.99
961.199	3941.27
961.502	3952.34
961.805	3931.1
962.108	3914.83
962.411	3875.51
962.714	3840.25
963.017	3849.97
963.32	3844.09
963.623	3818.78
963.926	3835.28
964.228	3776.75
964.531	3829.4
964.833	3756.64
965.136	3719.13
965.438	3754.6
965.741	3704.89
966.043	3669.86
966.345	3686.13
966.648	3639.58
966.95	3637.77
967.252	3602.74
967.554	3601.61
967.856	3588.28
968.158	3554.16
968.46	3600.71
968.761	3531.79
969.063	3551.45
969.365	3511.67
969.666	3477.55
969.968	3500.6
970.269	3492.92
970.571	3496.53
970.872	3474.61
971.174	3431.9
971.475	3403.65
971.776	3432.81
972.077	3351.45
972.378	3322.07
972.679	3340.83
972.98	3357.33
973.281	3342.86
973.582	3337.21
973.883	3336.08
974.183	3287.05
974.484	3259.7
974.785	3267.84
975.085	3276.2
975.386	3242.75
975.686	3207.05
975.986	3228.29
976.287	3214.28
976.587	3153.04
976.887	3156.65
977.187	3171.34
977.487	3137.22
977.787	3125.24
978.087	3113.72
978.387	3084.34
978.687	3080.95
978.987	3056.77
979.286	3043.66
979.586	3032.59
979.885	3016.77
980.185	3019.03
980.484	3007.73
980.784	3008.86
981.083	2972.7
981.382	2967.51
981.682	2960.73
981.981	2944.23
982.28	2918.02
982.579	2905.59
982.878	2879.37
983.177	2880.5
983.475	2850.67
983.774	2853.16
984.073	2836.44
984.372	2842.54
984.67	2807.74
984.969	2803.9
985.267	2812.48
985.566	2784.01
985.864	2786.72
986.162	2731.13
986.461	2719.6
986.759	2711.02
987.057	2682.32
987.355	2690.23
987.653	2658.14
987.951	2672.37
988.249	2650
988.547	2686.38
988.844	2668.53
989.142	2593.28
989.44	2595.77
989.737	2599.15
990.035	2609.32
990.332	2604.13
990.63	2539.72
990.927	2545.82
991.224	2553.73
991.521	2516.45
991.819	2498.59
992.116	2525.26
992.413	2506.05
992.71	2487.97
993.006	2465.6
993.303	2462.89
993.6	2441.42
993.897	2428.76
994.193	2452.72
994.49	2372.27
994.787	2416.11
995.083	2362.1
995.379	2360.74
995.676	2400.06
995.972	2398.26
996.268	2361.65
996.565	2350.35
996.861	2345.83
997.157	2339.5
997.453	2335.43
997.749	2310.57
998.044	2287.52
998.34	2269.45
998.636	2254.31
998.932	2230.35
999.227	2233.29
999.523	2230.35
999.818	2207.98
1000.114	2193.29
1000.409	2201.2
1000.704	2170.47
1001	2196
1001.295	2128.66
1001.59	2161.88
1001.885	2116.68
1002.18	2097.7
1002.475	2123.69
1002.77	2094.31
1003.065	2059.51
1003.359	2042.79
1003.654	2055.44
1003.949	2034.2
1004.243	2059.51
1004.538	2080.75
1004.832	2018.38
1005.127	1996.01
1005.421	1992.39
1005.715	1991.26
1006.009	1955.1
1006.304	1974.31
1006.598	1951.26
1006.892	1970.7
1007.186	1939.29
1007.48	1938.83
1007.773	1960.75
1008.067	1926.63
1008.361	1869.91
1008.655	1920.53
1008.948	1850.93
1009.242	1872.17
1009.535	1815.67
1009.829	1845.28
1010.122	1827.2
1010.415	1800.08
1010.708	1795.56
1011.001	1778.84
1011.295	1780.65
1011.588	1753.3
1011.881	1789.91
1012.173	1734.54
1012.466	1769.12
1012.759	1729.57
1013.052	1723.92
1013.344	1710.82
1013.637	1715.34
1013.93	1695.45
1014.222	1673.08
1014.514	1711.49
1014.807	1641.67
1015.099	1671.27
1015.391	1657.48
1015.683	1647.77
1015.976	1613.42
1016.268	1614.1
1016.56	1593.76
1016.851	1575.23
1017.143	1575
1017.435	1584.04
1017.727	1568.67
1018.018	1571.61
1018.31	1548.11
1018.602	1530.71
1018.893	1524.38
1019.185	1529.58
1019.476	1513.31
1019.767	1538.39
1020.058	1488
1020.35	1486.42
1020.641	1478.51
1020.932	1494.78
1021.223	1466.98
1021.514	1415.91
1021.804	1425.63
1022.095	1426.08
1022.386	1433.08
1022.677	1403.71
1022.967	1402.58
1023.258	1381.33
1023.548	1372.29
1023.839	1353.31
1024.129	1356.48
1024.419	1361
1024.709	1357.38
1025	1359.87
1025.29	1318.96
1025.58	1315.57
1025.87	1309.47
1026.16	1288.91
1026.449	1295.69
1026.739	1285.52
1027.029	1266.53
1027.319	1269.02
1027.608	1263.14
1027.898	1233.54
1028.187	1237.38
1028.477	1248.91
1028.766	1225.63
1029.055	1224.05
1029.344	1192.64
1029.634	1215.91
1029.923	1219.08
1030.212	1164.16
1030.501	1179.53
1030.79	1152.41
1031.078	1155.58
1031.367	1149.02
1031.656	1164.16
1031.945	1151.28
1032.233	1126.88
1032.522	1120.1
1032.81	1101.79
1033.099	1128.91
1033.387	1102.92
1033.675	1123.94
1033.963	1092.53
1034.251	1096.37
1034.54	1087.78
1034.828	1059.53
1035.116	1058.63
1035.403	1042.81
1035.691	1059.53
1035.979	1044.62
1036.267	1028.57
1036.554	1020.44
1036.842	1010.27
1037.129	1018.41
1037.417	989.71
1037.704	1009.37
1037.992	984.73
1038.279	984.06
1038.566	972.98
1038.853	972.98
1039.14	972.98
