Data from hue_90_FLMS001491_54.txt Node
Date: Mon Feb 06 15:25:19 GMT 2017
User: dcchb
Spectrometer: FLMS00149
Trigger mode: 0
Integration Time (sec): 2.000000E-2
Scans to average: 10
Electric dark correction enabled: true
Nonlinearity correction enabled: false
Boxcar width: 0
XAxis mode: Wavelengths
Number of Pixels in Spectrum: 2048
>>>>>Begin Spectral Data<<<<<
341.393	-16.92
341.776	-16.92
342.16	-16.92
342.543	-65.96
342.927	-53.08
343.31	-74.55
343.693	-58.5
344.077	-57.15
344.46	-60.99
344.843	-46.3
345.226	-46.07
345.61	-48.56
345.993	-20.08
346.376	-11.5
346.759	10.42
347.142	26.24
347.525	26.92
347.908	61.04
348.291	78.44
348.674	108.27
349.057	112.34
349.44	131.55
349.823	156.86
350.206	158.44
350.588	167.03
350.971	214.49
351.354	209.97
351.737	227.14
352.119	239.34
352.502	259.91
352.884	280.7
353.267	268.95
353.65	289.96
354.032	309.85
354.414	319.57
354.797	303.52
355.179	296.29
355.562	308.04
355.944	311.43
356.326	348.04
356.709	336.52
357.091	318.66
357.473	328.83
357.855	336.06
358.238	338.32
358.62	320.47
359.002	322.96
359.384	331.54
359.766	331.77
360.148	347.59
360.53	343.97
360.912	353.24
361.294	360.47
361.676	342.39
362.057	339.68
362.439	308.04
362.821	334.03
363.203	333.13
363.584	324.54
363.966	296.29
364.348	321.15
364.729	322.05
365.111	306.46
365.493	329.51
365.874	336.52
366.256	314.6
366.637	323.86
367.019	298.55
367.4	305.56
367.781	306.91
368.163	315.5
368.544	303.07
368.925	294.48
369.306	322.51
369.688	310.3
370.069	307.14
370.45	321.38
370.831	303.75
371.212	312.56
371.593	308.95
371.974	329.29
372.355	310.75
372.736	305.33
373.117	316.18
373.498	303.98
373.879	328.83
374.26	308.72
374.641	317.76
375.021	294.03
375.402	317.31
375.783	312.79
376.163	324.77
376.544	322.51
376.925	344.65
377.305	308.49
377.686	335.16
378.066	313.24
378.447	317.76
378.827	321.15
379.208	339.68
379.588	334.93
379.968	326.57
380.349	336.97
380.729	327.7
381.109	332.67
381.489	345.78
381.87	335.39
382.25	322.28
382.63	317.08
383.01	317.08
383.39	325.44
383.77	340.36
384.15	351.21
384.53	336.74
384.91	366.8
385.29	353.69
385.67	351.21
386.049	370.64
386.429	332.9
386.809	323.41
387.189	354.82
387.568	335.61
387.948	357.08
388.328	358.44
388.707	347.14
389.087	341.71
389.466	357.76
389.846	353.24
390.225	343.52
390.605	362.96
390.984	383.52
391.363	369.06
391.743	352.56
392.122	371.32
392.501	373.58
392.881	382.84
393.26	376.74
393.639	373.13
394.018	360.24
394.397	377.65
394.776	364.76
395.155	362.73
395.534	369.74
395.913	370.19
396.292	376.74
396.671	375.61
397.05	360.02
397.429	375.16
397.808	386.23
398.186	376.29
398.565	381.94
398.944	393.01
399.323	394.59
399.701	396.63
400.08	388.27
400.458	391.88
400.837	386.91
401.215	409.96
401.594	395.95
401.972	391.43
402.351	395.5
402.729	382.39
403.107	402.96
403.486	408.83
403.864	395.27
404.242	395.95
404.62	398.66
404.999	400.92
405.377	391.66
405.755	417.87
406.133	411.99
406.511	422.16
406.889	411.32
407.267	437.53
407.645	408.83
408.023	403.86
408.401	413.35
408.779	418.1
409.156	433.69
409.534	432.11
409.912	459.23
410.29	443.41
410.667	449.28
411.045	442.5
411.422	444.99
411.8	428.72
412.178	443.18
412.555	456.29
412.933	478.43
413.31	464.87
413.687	453.12
414.065	462.61
414.442	469.39
414.819	483.86
415.197	449.51
415.574	492.9
415.951	464.42
416.328	462.16
416.705	487.93
417.082	466.68
417.46	470.98
417.837	502.39
418.214	508.04
418.591	514.59
418.967	504.42
419.344	485.89
419.721	502.39
420.098	505.55
420.475	508.26
420.852	511.65
421.228	519.79
421.605	523.86
421.982	519.34
422.358	539.68
422.735	535.16
423.111	546
423.488	541.48
423.864	520.24
424.241	563.63
424.617	546.45
424.994	543.29
425.37	517.08
425.746	571.99
426.123	552.33
426.499	571.54
426.875	585.1
427.251	584.19
427.627	588.94
428.003	579.45
428.379	567.02
428.756	600.01
429.132	575.61
429.507	570.63
429.883	572.44
430.259	601.14
430.635	610.18
431.011	616.06
431.387	625.1
431.763	623.74
432.138	630.97
432.514	637.75
432.89	628.26
433.265	647.24
433.641	658.54
434.016	637.07
434.392	672.55
434.767	658.77
435.143	670.75
435.518	663.29
435.894	669.62
436.269	670.52
436.644	702.38
437.02	687.24
437.395	706.22
437.77	710.07
438.145	704.64
438.52	719.78
438.895	717.52
439.271	716.17
439.646	741.7
440.021	708.71
440.395	732.21
440.77	747.13
441.145	741.25
441.52	784.19
441.895	750.74
442.27	755.94
442.645	781.93
443.019	750.52
443.394	763.17
443.769	800.69
444.143	767.92
444.518	794.81
444.892	793.91
445.267	804.53
445.641	798.65
446.016	808.59
446.39	807.01
446.764	828.48
447.139	816.05
447.513	802.49
447.887	818.31
448.262	809.27
448.636	811.53
449.01	835.26
449.384	847.46
449.758	854.7
450.132	858.76
450.506	866.67
450.88	882.26
451.254	887.46
451.628	877.75
452.002	883.85
452.376	906.9
452.75	914.35
453.123	902.6
453.497	951.87
453.871	924.98
454.244	970.17
454.618	969.72
454.992	974.92
455.365	961.58
455.739	964.52
456.112	986.44
456.486	1005.2
456.859	993
457.232	1010.4
457.606	1027.57
457.979	1038.87
458.352	1054.01
458.725	1062.83
459.099	1057.18
459.472	1080.45
459.845	1078.64
460.218	1071.86
460.591	1103.28
460.964	1129.04
461.337	1141.47
461.71	1201.13
462.083	1187.57
462.456	1203.84
462.829	1200.67
463.201	1213.33
463.574	1215.36
463.947	1229.15
464.32	1235.48
464.692	1280.22
465.065	1308.92
465.438	1298.98
465.81	1313.67
466.183	1302.82
466.555	1367
466.928	1374.46
467.3	1379.2
467.672	1413.55
468.045	1441.8
468.417	1417.62
468.789	1477.28
469.161	1497.62
469.534	1518.63
469.906	1564.96
470.278	1585.3
470.65	1610.83
471.022	1634.79
471.394	1694.45
471.766	1713.2
472.138	1735.12
472.51	1778.51
472.882	1781.45
473.253	1869.13
473.625	1865.52
473.997	1923.59
474.369	1920.66
474.74	1973.54
475.112	2036.36
475.484	2043.82
475.855	2100.31
476.227	2145.96
476.598	2244.49
476.97	2237.26
477.341	2355.9
477.713	2384.82
478.084	2373.75
478.455	2494.88
478.827	2553.63
479.198	2646.51
479.569	2699.39
479.94	2789.79
480.311	2838.82
480.682	2946.39
481.053	2998.82
481.424	3103.45
481.795	3128.31
482.166	3215.54
482.537	3332.37
482.908	3395.19
483.279	3516.55
483.65	3579.82
484.021	3705.47
484.391	3766.48
484.762	3885.58
485.133	3920.38
485.503	4044.44
485.874	4187.71
486.244	4288.73
486.615	4409.63
486.985	4460.7
487.356	4633.35
487.726	4686.68
488.097	4867.02
488.467	4957.41
488.837	5121.48
489.207	5189.72
489.578	5367.34
489.948	5467.23
490.318	5611.86
490.688	5605.53
491.058	5796.26
491.428	5923.94
491.798	5991.96
492.168	6251.39
492.538	6311.27
492.908	6426.75
493.278	6526.18
493.648	6678.72
494.017	6819.06
494.387	6926.4
494.757	7057.92
495.126	7172.72
495.496	7228.99
495.866	7329.55
496.235	7477.35
496.605	7649.54
496.974	7706.04
497.344	7807.28
497.713	7918.92
498.082	8033.26
498.452	8167.5
498.821	8301.73
499.19	8375.85
499.559	8425.34
499.928	8562.97
500.298	8637.99
500.667	8780.36
501.036	8777.2
501.405	8925.9
501.774	8906.91
502.143	9047.02
502.512	9153.01
502.88	9294.7
503.249	9305.77
503.618	9375.37
503.987	9493.11
504.356	9601.58
504.724	9606.78
505.093	9743.05
505.462	9765.65
505.83	9941.46
506.199	9964.06
506.567	10120.44
506.936	10021.91
507.304	10185.52
507.672	10295.58
508.041	10335.12
508.409	10353.2
508.777	10546.42
509.145	10535.8
509.514	10613.99
509.882	10673.65
510.25	10620.31
510.618	10703.7
510.986	10753.64
511.354	10901.21
511.722	10971.04
512.09	11031.6
512.458	11087.87
512.826	11046.97
513.193	11173.07
513.561	11116.57
513.929	11262.33
514.297	11307.3
514.664	11357.47
515.032	11374.19
515.4	11361.54
515.767	11514.08
516.135	11502.55
516.502	11428.88
516.869	11623.23
517.237	11640.85
517.604	11553.17
517.972	11758.59
518.339	11736.22
518.706	11739.15
519.073	11818.93
519.44	11796.55
519.808	11885.14
520.175	11844.69
520.542	11990.67
520.909	11989.32
521.276	11965.82
521.643	12079.94
522.009	12033.84
522.376	12167.84
522.743	12194.06
523.11	12288.74
523.477	12330.1
523.843	12379.59
524.21	12423.66
524.577	12429.08
524.943	12438.8
525.31	12426.82
525.676	12573.26
526.043	12633.59
526.409	12570.55
526.776	12596.99
527.142	12697.77
527.508	12612.8
527.874	12648.28
528.241	12733.25
528.607	12716.76
528.973	12785.45
529.339	12774.83
529.705	12823.42
530.071	12794.95
530.437	12730.54
530.803	12883.98
531.169	12853.93
531.535	12844.89
531.901	12844.21
532.267	12875.4
532.632	12843.98
532.998	12883.31
533.364	12796.53
533.73	12857.54
534.095	12782.52
534.461	12803.76
534.826	12863.64
535.192	12827.26
535.557	12949.97
535.923	12810.76
536.288	12797.66
536.653	12852.12
537.019	12776.42
537.384	12783.87
537.749	12657.32
538.114	12737.77
538.479	12707.49
538.845	12733.7
539.21	12618.23
539.575	12654.61
539.94	12646.02
540.305	12713.14
540.67	12545.69
541.034	12499.36
541.399	12570.77
541.764	12486.93
542.129	12599.47
542.494	12513.6
542.858	12492.58
543.223	12397.89
543.587	12438.35
543.952	12367.16
544.316	12383.21
544.681	12304.11
545.045	12332.81
545.41	12372.81
545.774	12257.33
546.138	12290.55
546.503	12252.81
546.867	12146.6
547.231	12239.93
547.595	12161.52
547.959	12070.67
548.324	12039.94
548.688	12041.75
549.052	12096.21
549.416	12032.71
549.779	12010.11
550.143	11910
550.507	11936.21
550.871	11916.33
551.235	11898.92
551.599	11956.1
551.962	11900.05
552.326	11895.99
552.689	11955.42
553.053	11828.42
553.417	11757.91
553.78	11901.86
554.143	11813.73
554.507	11848.08
554.87	11764.69
555.234	11872.26
555.597	11624.58
555.96	11738.02
556.323	11718.36
556.686	11656.22
557.05	11689.89
557.413	11683.79
557.776	11693.28
558.139	11719.49
558.502	11700.74
558.865	11633.85
559.228	11643.79
559.59	11722.66
559.953	11633.17
560.316	11670
560.679	11676.33
561.041	11637.46
561.404	11709.32
561.767	11766.27
562.129	11681.3
562.492	11695.77
562.854	11706.16
563.217	11792.03
563.579	11738.25
563.941	11717.69
564.304	11783.45
564.666	11709.1
565.028	11848.98
565.39	11881.07
565.753	11880.85
566.115	11818.25
566.477	11910.9
566.839	11884.24
567.201	11839.49
567.563	11907.29
567.925	11932.6
568.287	11862.32
568.648	11840.85
569.01	11913.61
569.372	11998.36
569.734	11896.66
570.095	11995.65
570.457	11978.92
570.819	11992.48
571.18	11968.08
571.542	12077
571.903	12014.85
572.265	12074.29
572.626	12092.59
572.987	12082.65
573.349	12070.22
573.71	12127.17
574.071	12061.63
574.432	12135.75
574.794	12258.46
575.155	12165.13
575.516	12109.54
575.877	12133.95
576.238	12153.16
576.599	12199.93
576.96	12175.53
577.32	12124.91
577.681	12233.6
578.042	12191.12
578.403	12143.44
578.763	12244.68
579.124	12208.07
579.485	12259.14
579.845	12168.52
580.206	12201.74
580.566	12154.51
580.927	12250.1
581.287	12183.21
581.648	12207.39
582.008	12166.26
582.368	12180.05
582.728	12226.37
583.089	12091.91
583.449	12180.05
583.809	12154.51
584.169	12082.65
584.529	12166.04
584.889	12228.41
585.249	12094.85
585.609	12144.57
585.969	12232.25
586.329	12106.38
586.688	12103.89
587.048	12153.16
587.408	12086.94
587.768	12034.29
588.127	12094.17
588.487	11958.36
588.846	12077.68
589.206	11995.65
589.565	12055.76
589.925	12090.33
590.284	12095.98
590.643	12090.56
591.003	12027.96
591.362	12092.37
591.721	11977.11
592.08	11983.22
592.44	12114.51
592.799	11988.19
593.158	12003.33
593.517	11979.6
593.876	12026.15
594.235	11991.8
594.593	11984.35
594.952	11981.18
595.311	12010.11
595.67	11890.79
596.029	11971.92
596.387	12017.11
596.746	12039.94
597.104	11967.17
597.463	11889.21
597.822	11926.04
598.18	11936.44
598.538	11895.76
598.897	11863.67
599.255	11837.91
599.613	12005.59
599.972	11910.68
600.33	11978.02
600.688	11900.51
601.046	11902.77
601.404	11973.27
601.762	11966.72
602.12	12005.36
602.478	11985.02
602.836	11958.36
603.194	11901.41
603.552	11902.99
603.91	11848.98
604.268	11924.91
604.625	11895.31
604.983	11877.91
605.341	11865.48
605.698	11891.69
606.056	11924.23
606.413	11906.83
606.771	11954.97
607.128	11895.76
607.485	11931.92
607.843	11856.44
608.2	11942.77
608.557	11978.7
608.914	11919.49
609.272	11962.88
609.629	12024.34
609.986	12006.94
610.343	12002.42
610.7	12079.03
611.057	11983.89
611.414	12018.47
611.771	12049.88
612.127	12028.19
612.484	12022.76
612.841	12135.75
613.198	12080.39
613.554	12096.43
613.911	12081.74
614.267	12064.57
614.624	12072.03
614.98	12107.28
615.337	12166.26
615.693	12123.1
616.05	12145.25
616.406	12165.36
616.762	12142.31
617.118	12146.83
617.475	12237.9
617.831	12181.63
618.187	12187.05
618.543	12210.78
618.899	12206.71
619.255	12347.95
619.611	12248.07
619.967	12317.44
620.323	12300.95
620.678	12346.37
621.034	12204.68
621.39	12335.52
621.746	12253.94
622.101	12363.54
622.457	12230.67
622.812	12223.21
623.168	12299.37
623.523	12254.17
623.879	12180.05
624.234	12188.18
624.589	12280.61
624.945	12282.42
625.3	12273.83
625.655	12256.88
626.01	12247.39
626.365	12226.6
626.72	12252.14
627.075	12280.84
627.43	12247.16
627.785	12109.54
628.14	12213.49
628.495	12216.43
628.85	12167.62
629.205	12222.31
629.559	12350.21
629.914	12133.27
630.269	12208.07
630.623	12117.22
630.978	12147.51
631.332	12140.27
631.687	12182.08
632.041	12084.23
632.396	12118.35
632.75	12114.74
633.104	12139.6
633.459	12148.18
633.813	12040.16
634.167	12070.45
634.521	12064.57
634.875	12120.39
635.229	12003.55
635.583	12025.7
635.937	12004.23
636.291	11966.27
636.645	11915.87
636.999	11912.26
637.352	11943.67
637.706	11855.08
638.06	11912.26
638.413	11838.59
638.767	11881.98
639.121	11874.52
639.474	11785.26
639.828	11822.99
640.181	11816.44
640.534	11878.59
640.888	11746.84
641.241	11761.53
641.594	11751.13
641.947	11799.04
642.301	11786.39
642.654	11780.74
643.007	11758.82
643.36	11713.17
643.713	11659.38
644.066	11773.96
644.419	11697.35
644.771	11594.07
645.124	11473.17
645.477	11489.67
645.83	11403.12
646.182	11390.69
646.535	11289.45
646.888	11375.77
647.24	11330.35
647.593	11385.72
647.945	11345.49
648.298	11236.12
648.65	11226.17
649.002	11228.43
649.355	11302.33
649.707	11318.37
650.059	11309.56
650.411	11479.27
650.763	11422.1
651.115	11610.12
651.467	11547.52
651.819	11571.48
652.171	11517.01
652.523	11543
652.875	11594.53
653.227	11519.5
653.578	11608.08
653.93	11628.42
654.282	11471.37
654.633	11509.56
654.985	11460.74
655.337	11552.72
655.688	11540.52
656.039	11586.39
656.391	11493.06
656.742	11463.68
657.094	11540.29
657.445	11560.85
657.796	11505.94
658.147	11509.56
658.498	11493.29
658.849	11532.83
659.2	11549.1
659.551	11458.03
659.902	11603.79
660.253	11460.07
660.604	11512.04
660.955	11560.18
661.306	11572.15
661.656	11547.75
662.007	11577.8
662.358	11583
662.708	11599.27
663.059	11672.49
663.409	11563.34
663.76	11585.71
664.11	11551.81
664.461	11638.59
664.811	11635.43
665.161	11565.37
665.511	11657.35
665.862	11592.49
666.212	11596.33
666.562	11632.94
666.912	11492.38
667.262	11632.72
667.612	11622.77
667.962	11576.22
668.312	11611.7
668.662	11602.66
669.011	11616.9
669.361	11583
669.711	11582.1
670.06	11517.47
670.41	11595.66
670.76	11478.37
671.109	11615.32
671.459	11562.66
671.808	11460.07
672.157	11576
672.507	11501.65
672.856	11495.77
673.205	11485.6
673.554	11520.18
673.904	11474.75
674.253	11578.93
674.602	11501.42
674.951	11323.35
675.3	11307.98
675.649	11481.08
675.998	11420.52
676.346	11441.76
676.695	11482.66
677.044	11393.85
677.393	11437.24
677.741	11472.72
678.09	11371.03
678.438	11333.74
678.787	11313.86
679.135	11449.22
679.484	11252.84
679.832	11277.92
680.181	11296.45
680.529	11319.5
680.877	11234.08
681.225	11191.15
681.573	11243.35
681.922	11184.14
682.27	11152.96
682.618	11140.98
682.966	11129.45
683.314	11115.67
683.661	11084.93
684.009	11020.76
684.357	11030.92
684.705	11019.85
685.053	10994.99
685.4	10973.75
685.748	10928.33
686.095	10852.62
686.443	10827.99
686.79	10845.39
687.138	10823.7
687.485	10826.18
687.832	10772.63
688.18	10830.25
688.527	10737.83
688.874	10702.12
689.221	10688.79
689.568	10644.04
689.915	10648.56
690.262	10624.61
690.609	10570.15
690.956	10612.4
691.303	10596.81
691.65	10451.05
691.997	10495.8
692.344	10457.61
692.69	10374.44
693.037	10428.91
693.383	10295.12
693.73	10405.18
694.077	10273.43
694.423	10284.28
694.769	10206.77
695.116	10225.75
695.462	10213.09
695.808	10141.46
696.155	10070.95
696.501	10012.87
696.847	10030.95
697.193	9990.5
697.539	9941.24
697.885	9871.86
698.231	9860.79
698.577	9924.29
698.923	9804.74
699.269	9698.98
699.614	9685.2
699.96	9716.83
700.306	9705.31
700.651	9599.78
700.997	9585.99
701.342	9608.36
701.688	9595.26
702.033	9468.25
702.379	9546.9
702.724	9437.75
703.069	9491.98
703.415	9293.57
703.76	9339.22
704.105	9376.96
704.45	9358.2
704.795	9297.86
705.14	9198.2
705.485	9191.2
705.83	9127.92
706.175	9231.2
706.52	9151.2
706.865	9075.5
707.209	9130.18
707.554	9083.41
707.899	9085.89
708.243	9010.41
708.588	8964.99
708.932	8962.28
709.277	8924.54
709.621	9042.73
709.966	8878.89
710.31	8865.11
710.654	8745.79
710.998	8795.96
711.342	8771.78
711.687	8737.2
712.031	8695.84
712.375	8709.18
712.719	8756.18
713.063	8693.81
713.407	8664.66
713.75	8607.26
714.094	8615.62
714.438	8545.34
714.782	8583.98
715.125	8569.75
715.469	8563.42
715.812	8544.89
716.156	8509.18
716.499	8454.72
716.843	8520.03
717.186	8446.36
717.53	8465.57
717.873	8460.6
718.216	8462.63
718.559	8435.74
718.902	8401.39
719.246	8381.73
719.589	8367.04
719.932	8356.19
720.275	8386.25
720.617	8323.65
720.96	8270.32
721.303	8306.48
721.646	8281.84
721.989	8279.58
722.331	8262.18
722.674	8233.71
723.016	8271.9
723.359	8188.97
723.701	8277.32
724.044	8193.49
724.386	8140.83
724.729	8228.51
725.071	8162.07
725.413	8142.86
725.755	8155.75
726.097	8150.32
726.439	8071.68
726.782	8122.75
727.124	8151.68
727.465	8139.02
727.807	8102.87
728.149	8111.91
728.491	8077.56
728.833	8133.37
729.175	8116.2
729.516	8147.38
729.858	8148.51
730.199	8118.46
730.541	8153.03
730.882	8120.04
731.224	8125.24
731.565	8064.67
731.906	8131.11
732.248	8107.84
732.589	8086.37
732.93	8114.84
733.271	8096.54
733.612	8041.4
733.953	8132.47
734.294	8084.79
734.635	8014.73
734.976	8127.27
735.317	8122.75
735.658	8104.67
735.999	8063.55
736.339	8094.05
736.68	8098.57
737.021	8120.27
737.361	8084.11
737.702	8123.2
738.042	8062.42
738.383	8105.58
738.723	8141.28
739.063	8119.81
739.404	8148.29
739.744	8091.79
740.084	8093.83
740.424	8211.34
740.764	8174.73
741.104	8266.25
741.444	8114.62
741.784	8122.75
742.124	8234.39
742.464	8196.65
742.804	8167.5
743.143	8233.94
743.483	8188.74
743.823	8221.51
744.162	8259.47
744.502	8293.37
744.841	8289.53
745.181	8365.68
745.52	8371.33
745.86	8419.02
746.199	8469.86
746.538	8456.3
746.877	8495.4
747.216	8556.41
747.556	8551.44
747.895	8586.7
748.234	8579.92
748.573	8717.77
748.911	8769.97
749.25	8796.63
749.589	8831.66
749.928	8895.84
750.267	9066
750.605	8991.88
750.944	9105.1
751.283	9140.8
751.621	9272.78
751.96	9260.58
752.298	9351.42
752.636	9380.12
752.975	9504.19
753.313	9600.91
753.651	9747.79
753.989	9834.35
754.327	9936.49
754.666	9995.02
755.004	10039.31
755.342	10226.2
755.679	10289.02
756.017	10421.9
756.355	10490.37
756.693	10659.41
757.031	10782.57
757.368	10805.39
757.706	10958.84
758.044	11022.79
758.381	11181.66
758.719	11382.55
759.056	11480.18
759.394	11663.45
759.731	11670.23
760.068	11818.7
760.405	11926.49
760.743	12077
761.08	12283.77
761.417	12251.68
761.754	12538.68
762.091	12572.35
762.428	12864.55
762.765	12838.56
763.102	13048.05
763.438	13194.48
763.775	13352.22
764.112	13462.95
764.449	13563.51
764.785	13657.07
765.122	13799.21
765.458	13926.22
765.795	14045.53
766.131	14185.64
766.467	14219.32
766.804	14463.38
767.14	14475.81
767.476	14659.98
767.812	14722.35
768.148	14886.42
768.485	14932.97
768.821	14948.56
769.157	15062.46
769.492	15158.73
769.828	15317.14
770.164	15224.26
770.5	15434.88
770.836	15546.29
771.171	15562.78
771.507	15694.98
771.842	15640.07
772.178	15826.73
772.513	15794.87
772.849	15914.41
773.184	15962.32
773.519	16012.26
773.855	16122.32
774.19	16042.77
774.525	16146.95
774.86	16131.58
775.195	16288.41
775.53	16274.63
775.865	16354.4
776.2	16279.6
776.535	16255.65
776.87	16280.05
777.205	16355.98
777.539	16393.27
777.874	16458.35
778.209	16358.47
778.543	16380.16
778.878	16393.5
779.212	16429.65
779.547	16358.92
779.881	16487.73
780.215	16367.51
780.55	16468.3
780.884	16345.36
781.218	16412.7
781.552	16542.87
781.886	16466.49
782.22	16411.12
782.554	16374.51
782.888	16274.63
783.222	16298.81
783.556	16363.21
783.889	16430.33
784.223	16280.96
784.557	16286.61
784.89	16350.11
785.224	16234.4
785.557	16273.27
785.891	16208.42
786.224	16218.58
786.558	16222.65
786.891	16107.18
787.224	16046.39
787.557	16092.49
787.891	16074.63
788.224	16084.13
788.557	16146.95
788.89	16102.2
789.223	16034.86
789.556	15960.96
789.888	15962.32
790.221	15951.93
790.554	15805.04
790.887	15902.89
791.219	15809.56
791.552	15813.62
791.884	15792.83
792.217	15745.83
792.549	15710.8
792.882	15617.92
793.214	15497.25
793.546	15621.31
793.879	15515.55
794.211	15403.01
794.543	15492.5
794.875	15522.33
795.207	15540.41
795.539	15444.82
795.871	15343.58
796.203	15320.76
796.535	15197.37
796.867	15220.64
797.198	15206.18
797.53	15232.4
797.862	15102.46
798.193	15142.91
798.525	15084.38
798.856	15053.64
799.188	14932.74
799.519	14897.26
799.85	14845.97
800.182	14783.82
800.513	14890.94
800.844	14800.54
801.175	14781.33
801.506	14873.08
801.837	14728.23
802.168	14762.13
802.499	14658.17
802.83	14601
803.161	14555.8
803.491	14612.98
803.822	14545.86
804.153	14447.56
804.483	14347
804.814	14378.63
805.145	14369.59
805.475	14300.67
805.805	14331.18
806.136	14262.25
806.466	14225.64
806.796	14224.29
807.126	14135.02
807.457	14117.85
807.787	14121.24
808.117	14044.18
808.447	13994.01
808.777	14048.25
809.107	13956.72
809.436	13967.8
809.766	13882.83
810.096	13896.84
810.426	13837.18
810.755	13872.21
811.085	13778.65
811.414	13758.08
811.744	13691.19
812.073	13729.38
812.403	13726
812.732	13634.25
813.061	13620.01
813.39	13511.31
813.719	13508.83
814.049	13618.88
814.378	13495.04
814.707	13466.11
815.036	13474.48
815.365	13378.21
815.693	13281.94
816.022	13338.66
816.351	13208.49
816.68	13218.21
817.008	13264.76
817.337	13155.16
817.665	13163.52
817.994	13133.47
818.322	13137.54
818.651	13087.14
818.979	13027.26
819.307	13103.86
819.636	13034.71
819.964	12894.6
820.292	12985.9
820.62	12935.28
820.948	12932.34
821.276	13012.79
821.604	13009.4
821.932	13043.53
822.259	12974.83
822.587	12943.19
822.915	12895.28
823.243	12938.67
823.57	12969.4
823.898	13050.08
824.225	12956.75
824.553	12957.88
824.88	12919.01
825.207	12945.9
825.535	12959.69
825.862	12946.13
826.189	12885.11
826.516	13001.04
826.843	13044.21
827.17	12851.89
827.497	13020.25
827.824	12980.93
828.151	13020.93
828.478	12974.38
828.805	13005.34
829.131	13001.27
829.458	12933.93
829.785	12839.69
830.111	12911.78
830.438	12942.96
830.764	12940.25
831.09	12945
831.417	12843.98
831.743	13001.04
832.069	12908.16
832.395	12883.31
832.722	12897.77
833.048	12871.1
833.374	12876.75
833.7	12923.3
834.026	12894.15
834.351	12945.9
834.677	12853.7
835.003	12889.18
835.329	12797.43
835.654	12860.48
835.98	12750.88
836.306	12787.71
836.631	12682.41
836.956	12770.54
837.282	12802.86
837.607	12727.38
837.932	12800.82
838.258	12696.87
838.583	12639.24
838.908	12538.23
839.233	12625.46
839.558	12609.41
839.883	12630.43
840.208	12588.62
840.533	12502.98
840.858	12527.38
841.182	12466.59
841.507	12528.96
841.832	12368.52
842.156	12386.6
842.481	12376.88
842.805	12411.45
843.13	12315.64
843.454	12367.39
843.778	12227.96
844.103	12263.43
844.427	12204.68
844.751	12277.45
845.075	12207.16
845.399	12114.29
845.723	12062.99
846.047	12105.47
846.371	12046.72
846.695	11954.97
847.019	11851.47
847.343	11878.81
847.666	11738.25
847.99	11762.43
848.313	11757.91
848.637	11650.12
848.96	11679.04
849.284	11615.09
849.607	11561.53
849.931	11460.52
850.254	11359.28
850.577	11379.62
850.9	11325.38
851.223	11289.45
851.546	11242.67
851.869	11166.06
852.192	11168.32
852.515	11146.4
852.838	11039.96
853.161	11023.02
853.483	10931.04
853.806	10939.85
854.129	10933.98
854.451	10926.07
854.774	10882.23
855.096	10811.5
855.419	10814.43
855.741	10706.64
856.063	10713.64
856.385	10666.87
856.708	10673.65
857.03	10606.08
857.352	10654.21
857.674	10583.93
857.996	10538.96
858.318	10480.88
858.64	10510.03
858.961	10468.23
859.283	10467.55
859.605	10328.34
859.926	10452.18
860.248	10411.28
860.57	10329.47
860.891	10296.93
861.212	10186.88
861.534	10199.99
861.855	10200.21
862.176	10249.7
862.498	10199.99
862.819	10181.23
863.14	10116.15
863.461	10110.27
863.782	10019.2
864.103	10055.36
864.424	10043.61
864.745	10060.55
865.065	10022.59
865.386	9990.95
865.707	9940.33
866.027	10031.18
866.348	9986.88
866.668	9922.93
866.989	9862.59
867.309	9862.59
867.63	9778.98
867.95	9919.54
868.27	9825.08
868.59	9782.6
868.91	9832.99
869.23	9750.28
869.55	9734.91
869.87	9769.71
870.19	9712.54
870.51	9725.2
870.83	9742.37
871.15	9623.5
871.469	9761.81
871.789	9747.34
872.109	9627.12
872.428	9609.04
872.748	9605.65
873.067	9614.69
873.386	9624.18
873.706	9606.78
874.025	9549.16
874.344	9577.18
874.663	9565.65
874.982	9561.81
875.301	9573.11
875.62	9454.69
875.939	9454.02
876.258	9470.74
876.577	9439.55
876.896	9388.71
877.214	9372.21
877.533	9405.66
877.852	9340.12
878.17	9400.46
878.489	9396.39
878.807	9329.5
879.125	9293.34
879.444	9350.74
879.762	9290.41
880.08	9327.01
880.398	9283.17
880.716	9264.64
881.034	9222.38
881.352	9173.57
881.67	9254.47
881.988	9271.2
882.306	9135.61
882.624	9156.62
882.941	9100.58
883.259	9092.9
883.577	9033.69
883.894	9007.48
884.212	9044.31
884.529	9041.15
884.846	8979.91
885.164	8918.89
885.481	9008.83
885.798	8974.03
886.115	8889.29
886.432	8873.02
886.75	8882.73
887.067	8828.04
887.383	8809.51
887.7	8824.65
888.017	8781.49
888.334	8790.98
888.651	8702.85
888.967	8688.61
889.284	8707.14
889.6	8593.02
889.917	8574.94
890.233	8602.97
890.55	8582.4
890.866	8533.59
891.182	8539.69
891.498	8524.78
891.815	8530.43
892.131	8437.55
892.447	8407.26
892.763	8393.93
893.079	8344.44
893.395	8345.35
893.71	8332.46
894.026	8347.61
894.342	8271.68
894.657	8228.74
894.973	8245.69
895.289	8208.17
895.604	8181.73
895.92	8147.38
896.235	8078.23
896.55	8150.77
896.865	8111.68
897.181	8053.83
897.496	8038.46
897.811	7971.12
898.126	7968.63
898.441	7985.58
898.756	7897.67
899.071	7863.78
899.386	7878.24
899.7	7839.37
900.015	7769.77
900.33	7713.72
900.644	7756.66
900.959	7687.96
901.273	7687.96
901.588	7613.16
901.902	7614.07
902.216	7588.3
902.531	7604.8
902.845	7555.76
903.159	7472.6
903.473	7448.65
903.787	7460.62
904.101	7376.56
904.415	7382.66
904.729	7338.14
905.042	7346.95
905.356	7283.9
905.67	7258.37
905.984	7255.88
906.297	7242.1
906.611	7212.04
906.924	7144.7
907.237	7155.55
907.551	7152.38
907.864	7100.41
908.177	7082.33
908.491	7051.37
908.804	6988.55
909.117	7003.01
909.43	6936.12
909.743	6934.08
910.056	6928.21
910.368	6859.73
910.681	6783.35
910.994	6770.7
911.307	6804.37
911.619	6680.53
911.932	6770.25
912.244	6644.15
912.557	6715.56
912.869	6641.44
913.181	6607.54
913.494	6560.53
913.806	6508.33
914.118	6521.66
914.43	6506.98
914.742	6481.67
915.054	6445.51
915.366	6397.37
915.678	6386.53
915.99	6339.97
916.302	6285.06
916.613	6325.96
916.925	6335
917.236	6271.5
917.548	6236.93
917.859	6232.86
918.171	6253.2
918.482	6156.02
918.794	6116.93
919.105	6115.8
919.416	6068.8
919.727	6081.68
920.038	6040.1
920.349	5986.31
920.66	5983.37
920.971	5985.86
921.282	5973.43
921.593	5915.35
921.903	5858.63
922.214	5878.07
922.525	5857.28
922.835	5814.34
923.146	5814.34
923.456	5826.77
923.767	5752.65
924.077	5723.72
924.387	5734.57
924.697	5680.33
925.008	5668.35
925.318	5625.19
925.628	5633.1
925.938	5589.94
926.248	5561.92
926.558	5514.01
926.867	5554.46
927.177	5487.57
927.487	5461.35
927.796	5469.71
928.106	5432.88
928.416	5412.54
928.725	5415.71
929.034	5340
929.344	5347.91
929.653	5339.1
929.962	5345.88
930.271	5298.19
930.581	5311.3
930.89	5237.18
931.199	5162.38
931.508	5198.08
931.817	5147.24
932.125	5197.63
932.434	5136.39
932.743	5097.97
933.051	5097.75
933.36	5073.57
933.669	5038.77
933.977	4979.11
934.286	5016.17
934.594	5013.91
934.902	5053.45
935.21	4930.97
935.519	4990.86
935.827	4904.53
936.135	4881.71
936.443	4866.11
936.751	4851.43
937.059	4823.86
937.367	4779.79
937.674	4790.18
937.982	4782.5
938.29	4800.13
938.597	4744.31
938.905	4701.83
939.213	4676.74
939.52	4662.05
939.827	4691.88
940.135	4640.36
940.442	4622.28
940.749	4618.44
941.056	4610.53
941.363	4554.48
941.67	4535.73
941.977	4504.09
942.284	4430.65
942.591	4486.01
942.898	4483.98
943.205	4481.72
943.511	4411.89
943.818	4380.03
944.125	4338.45
944.431	4335.51
944.738	4324.66
945.044	4350.2
945.35	4320.59
945.657	4301.16
945.963	4282.4
946.269	4242.63
946.575	4264.32
946.881	4201.73
947.187	4182.97
947.493	4152.91
947.799	4159.47
948.105	4162.63
948.41	4103.88
948.716	4076.08
949.022	4100.71
949.327	4085.34
949.633	4030.88
949.938	4087.6
950.244	4038.79
950.549	4026.14
950.854	3986.82
951.16	3951.56
951.465	3931.45
951.77	3952.92
952.075	3945.24
952.38	3887.38
952.685	3887.38
952.99	3854.62
953.294	3844.22
953.599	3814.84
953.904	3804.22
954.209	3775.07
954.513	3810.78
954.818	3752.7
955.122	3727.61
955.426	3716.31
955.731	3751.79
956.035	3711.12
956.339	3699.37
956.643	3657.79
956.948	3684.9
957.252	3668.86
957.556	3669.99
957.86	3623.44
958.163	3649.42
958.467	3575.98
958.771	3567.84
959.075	3564.45
959.378	3556.09
959.682	3562.65
959.985	3475.42
960.289	3524.23
960.592	3458.24
960.896	3505.02
961.199	3455.76
961.502	3468.41
961.805	3449.88
962.108	3415.53
962.411	3391.58
962.714	3367.85
963.017	3375.08
963.32	3373.95
963.623	3315.2
963.926	3332.14
964.228	3270.45
964.531	3297.12
964.833	3294.4
965.136	3266.38
965.438	3272.71
965.741	3222.99
966.043	3198.14
966.345	3187.97
966.648	3180.96
966.95	3195.2
967.252	3160.17
967.554	3177.57
967.856	3145.93
968.158	3112.49
968.46	3128.99
968.761	3095.99
969.063	3073.85
969.365	3087.63
969.666	3052.83
969.968	3016.9
970.269	3036.56
970.571	3059.38
970.872	3024.13
971.174	2975.32
971.475	2974.19
971.776	2961.76
972.077	2962.21
972.378	2937.8
972.679	2918.82
972.98	2914.08
973.281	2884.02
973.582	2867.52
973.883	2905.94
974.183	2881.99
974.484	2891.7
974.785	2877.47
975.085	2836.34
975.386	2808.77
975.686	2783.91
975.986	2817.36
976.287	2783.01
976.587	2796.79
976.887	2779.16
977.187	2746.85
977.487	2724.48
977.787	2719.28
978.087	2760.41
978.387	2697.36
978.687	2705.04
978.987	2684.93
979.286	2641.31
979.586	2669.56
979.885	2639.96
980.185	2632.95
980.484	2601.09
980.784	2613.97
981.083	2608.1
981.382	2590.69
981.682	2563.12
981.981	2558.83
982.28	2558.15
982.579	2547.31
982.878	2560.41
983.177	2519.51
983.475	2529
983.774	2475.44
984.073	2498.04
984.372	2496.91
984.67	2437.03
984.969	2458.72
985.267	2455.78
985.566	2458.27
985.864	2437.03
986.162	2403.81
986.461	2400.64
986.759	2395.67
987.057	2343.24
987.355	2339.18
987.653	2359.74
987.951	2394.99
988.249	2367.65
988.547	2333.53
988.844	2315.9
989.142	2308.22
989.44	2280.42
989.737	2312.96
990.035	2299.85
990.332	2268.9
990.63	2250.14
990.927	2257.14
991.224	2194.32
991.521	2221.44
991.819	2214.66
992.116	2199.74
992.413	2188.45
992.71	2176.24
993.006	2161.55
993.303	2167.43
993.6	2187.54
993.897	2151.38
994.193	2122.68
994.49	2111.84
994.787	2092.18
995.083	2095.34
995.379	2074.1
995.676	2062.57
995.972	2060.31
996.268	2078.39
996.565	2049.47
996.861	2065.28
997.157	2041.56
997.453	2036.81
997.749	2000.88
998.044	1962.69
998.34	1999.98
998.636	1925.85
998.932	1986.87
999.227	1979.19
999.523	1946.87
999.818	1964.5
1000.114	1943.48
1000.409	1916.14
1000.704	1881.56
1001	1912.97
1001.295	1897.83
1001.59	1907.1
1001.885	1890.37
1002.18	1839.75
1002.475	1845.63
1002.77	1836.59
1003.065	1817.38
1003.359	1830.49
1003.654	1806.76
1003.949	1801.56
1004.243	1788.68
1004.538	1785.52
1004.832	1795.01
1005.127	1768.57
1005.421	1777.38
1005.715	1735.12
1006.009	1738.97
1006.304	1733.99
1006.598	1736.03
1006.892	1738.29
1007.186	1658.06
1007.48	1694.22
1007.773	1687.44
1008.067	1652.64
1008.361	1663.71
1008.655	1664.84
1008.948	1617.16
1009.242	1633.43
1009.535	1622.81
1009.829	1619.19
1010.122	1615.35
1010.415	1593.66
1010.708	1570.38
1011.001	1609.93
1011.295	1563.6
1011.588	1567.67
1011.881	1532.19
1012.173	1567.22
1012.466	1522.02
1012.759	1519.54
1013.052	1536.71
1013.344	1531.97
1013.637	1507.79
1013.93	1499.88
1014.222	1481.8
1014.514	1494.23
1014.807	1479.54
1015.099	1451.29
1015.391	1423.49
1015.683	1414.68
1015.976	1458.07
1016.268	1448.8
1016.56	1407.9
1016.851	1399.99
1017.143	1415.58
1017.435	1378.98
1017.727	1390.95
1018.018	1360.9
1018.31	1367.22
1018.602	1358.18
1018.893	1375.36
1019.185	1341.91
1019.476	1322.25
1019.767	1350.5
1020.058	1304.4
1020.35	1331.74
1020.641	1322.48
1020.932	1299.43
1021.223	1301.69
1021.514	1285.19
1021.804	1265.76
1022.095	1280.67
1022.386	1272.31
1022.677	1267.79
1022.967	1239.77
1023.258	1234.57
1023.548	1247.68
1023.839	1234.35
1024.129	1201.35
1024.419	1175.59
1024.709	1239.32
1025	1174.91
1025.29	1183.27
1025.58	1167.91
1025.87	1195.7
1026.16	1141.69
1026.449	1153.9
1026.739	1138.08
1027.029	1130.85
1027.319	1125.87
1027.608	1106.67
1027.898	1122.48
1028.187	1127.46
1028.477	1098.98
1028.766	1114.8
1029.055	1098.53
1029.344	1088.14
1029.634	1070.96
1029.923	1062.83
1030.212	1075.25
1030.501	1047.91
1030.79	1044.75
1031.078	1037.29
1031.367	1057.4
1031.656	1035.03
1031.945	1016.95
1032.233	1020.11
1032.522	1015.59
1032.81	976.73
1033.099	998.19
1033.387	989.83
1033.675	994.8
1033.963	990.06
1034.251	981.92
1034.54	981.47
1034.828	973.56
1035.116	927.01
1035.403	937.4
1035.691	950.96
1035.979	950.96
1036.267	931.98
1036.554	891.98
1036.842	921.59
1037.129	917.52
1037.417	901.7
1037.704	922.49
1037.992	884.3
1038.279	907.58
1038.566	868.93
1038.853	868.93
1039.14	868.93
