Data from hue_280_FLMS001491_00075.txt Node
Date: Tue Feb 07 15:55:45 GMT 2017
User: dcchb
Spectrometer: FLMS00149
Trigger mode: 0
Integration Time (sec): 2.000000E-2
Scans to average: 10
Electric dark correction enabled: true
Nonlinearity correction enabled: false
Boxcar width: 0
XAxis mode: Wavelengths
Number of Pixels in Spectrum: 2048
>>>>>Begin Spectral Data<<<<<
341.393	-7.57
341.776	-7.57
342.16	-7.57
342.543	-56.61
342.927	-46.67
343.31	-67.46
343.693	-71.75
344.077	-58.64
344.46	-65.2
344.843	-31.98
345.226	-45.54
345.61	-18.19
345.993	-11.64
346.376	-16.84
346.759	-2.15
347.142	15.93
347.525	45.31
347.908	52.54
348.291	87.57
348.674	85.76
349.057	102.26
349.44	135.02
349.823	140.45
350.206	157.85
350.588	202.14
350.971	203.05
351.354	219.99
351.737	234.68
352.119	247.34
352.502	259.54
352.884	259.32
353.267	281.91
353.65	289.6
354.032	302.25
354.414	293.66
354.797	343.15
355.179	320.56
355.562	324.4
355.944	329.14
356.326	309.03
356.709	338.18
357.091	324.17
357.473	337.51
357.855	346.09
358.238	328.92
358.62	334.34
359.002	345.87
359.384	339.99
359.766	349.48
360.148	336.15
360.53	325.75
360.912	321.01
361.294	326.88
361.676	333.21
362.057	361.69
362.439	345.64
362.821	335.25
363.203	321.01
363.584	335.47
363.966	330.27
364.348	332.08
364.729	305.19
365.111	331.4
365.493	295.02
365.874	322.14
366.256	322.36
366.637	323.72
367.019	331.18
367.4	323.72
367.781	293.89
368.163	311.52
368.544	300.67
368.925	312.87
369.306	322.14
369.688	293.44
370.069	322.36
370.45	312.65
370.831	320.1
371.212	321.91
371.593	318.07
371.974	329.14
372.355	325.75
372.736	330.95
373.117	322.59
373.498	307
373.879	309.03
374.26	312.42
374.641	310.39
375.021	313.78
375.402	308.13
375.783	321.23
376.163	314.46
376.544	311.52
376.925	312.65
377.305	317.17
377.686	339.09
378.066	337.05
378.447	328.01
378.827	330.27
379.208	325.3
379.588	332.08
379.968	332.99
380.349	329.82
380.729	342.25
381.109	339.99
381.489	340.89
381.87	330.5
382.25	357.62
382.63	344.06
383.01	373.44
383.39	345.87
383.77	335.47
384.15	336.15
384.53	357.62
384.91	353.55
385.29	361.46
385.67	358.75
386.049	345.19
386.429	345.19
386.809	352.42
387.189	351.29
387.568	378.18
387.948	346.54
388.328	337.05
388.707	360.56
389.087	348.13
389.466	357.62
389.846	377.96
390.225	384.06
390.605	367.79
390.984	351.97
391.363	348.8
391.743	386.77
392.122	386.77
392.501	385.64
392.881	384.96
393.26	365.08
393.639	394.9
394.018	382.93
394.397	401.91
394.776	393.1
395.155	367.79
395.534	376.6
395.913	365.98
396.292	389.93
396.671	417.73
397.05	403.49
397.429	381.57
397.808	394.68
398.186	412.31
398.565	407.79
398.944	412.31
399.323	391.52
399.701	415.7
400.08	415.24
400.458	415.24
400.837	415.47
401.215	422.02
401.594	431.97
401.972	441.68
402.351	432.19
402.729	426.32
403.107	431.51
403.486	429.48
403.864	445.98
404.242	435.13
404.62	449.14
404.999	448.69
405.377	446.43
405.755	463.38
406.133	471.74
406.511	442.14
406.889	486.2
407.267	485.3
407.645	475.35
408.023	486.88
408.401	480.55
408.779	479.2
409.156	494.56
409.534	499.31
409.912	500.21
410.29	532.3
410.667	511.29
411.045	508.12
411.422	524.39
411.8	548.57
412.178	567.33
412.555	578.85
412.933	563.26
413.31	558.97
413.687	544.05
414.065	573.66
414.442	591.51
414.819	594.45
415.197	591.28
415.574	613.2
415.951	622.47
416.328	625.63
416.705	631.51
417.082	633.77
417.46	625.41
417.837	655.01
418.214	665.86
418.591	656.37
418.967	651.85
419.344	667.67
419.721	681.23
420.098	666.31
420.475	717.61
420.852	729.59
421.228	731.85
421.605	735.01
421.982	724.39
422.358	741.11
422.735	757.83
423.111	755.35
423.488	766.87
423.864	782.24
424.241	786.31
424.617	786.76
424.994	791.96
425.37	798.96
425.746	828.11
426.123	846.42
426.499	821.11
426.875	848.9
427.251	852.75
427.627	875.34
428.003	896.59
428.379	878.96
428.756	882.8
429.132	938.17
429.507	922.35
429.883	937.49
430.259	941.56
430.635	935.68
431.011	940.65
431.387	975.91
431.763	983.82
432.138	969.81
432.514	996.24
432.89	1017.71
433.265	1064.49
433.641	1068.33
434.016	1051.38
434.392	1080.31
434.767	1099.97
435.143	1147.43
435.518	1123.02
435.894	1121.67
436.269	1155.79
436.644	1165.05
437.02	1200.53
437.395	1170.03
437.77	1209.35
438.145	1243.24
438.52	1249.35
438.895	1254.32
439.271	1239.63
439.646	1292.96
440.021	1286.41
440.395	1285.5
440.77	1295.22
441.145	1319.63
441.52	1342
441.895	1309.91
442.27	1316.69
442.645	1352.17
443.019	1347.2
443.394	1364.14
443.769	1384.48
444.143	1361.21
444.518	1375.44
444.892	1408.66
445.267	1395.33
445.641	1435.1
446.016	1415.89
446.39	1391.26
446.764	1410.7
447.139	1458.15
447.513	1432.62
447.887	1440.98
448.262	1441.66
448.636	1474.88
449.01	1502.67
449.384	1474.88
449.758	1490.92
450.132	1506.06
450.506	1516.46
450.88	1501.09
451.254	1525.5
451.628	1548.32
452.002	1566.63
452.376	1565.5
452.75	1562.78
453.123	1586.96
453.497	1614.53
453.871	1622.9
454.244	1652.72
454.618	1627.87
454.992	1668.09
455.365	1641.65
455.739	1691.82
456.112	1717.81
456.486	1683.68
456.859	1725.27
457.232	1755.55
457.606	1744.25
457.979	1758.71
458.352	1783.12
458.725	1796
459.099	1824.7
459.472	1833.06
459.845	1865.83
460.218	1879.16
460.591	1900.63
460.964	1873.28
461.337	1898.14
461.71	1936.79
462.083	1955.54
462.456	1928.2
462.829	1969.33
463.201	2001.64
463.574	1954.41
463.947	1992.38
464.32	2045.03
464.692	2071.7
465.065	2076.22
465.438	2111.24
465.81	2106.95
466.183	2132.71
466.555	2185.59
466.928	2167.74
467.3	2187.85
467.672	2178.13
468.045	2235.99
468.417	2232.82
468.789	2250.9
469.161	2284.35
469.534	2291.35
469.906	2351.92
470.278	2357.34
470.65	2370.67
471.022	2408.86
471.394	2430.56
471.766	2445.02
472.138	2456.32
472.51	2500.61
472.882	2527.05
473.253	2568.18
473.625	2608.41
473.997	2631.68
474.369	2630.33
474.74	2672.59
475.112	2686.6
475.484	2740.61
475.855	2744.45
476.227	2780.38
476.598	2827.61
476.97	2830.55
477.341	2916.87
477.713	2936.08
478.084	2965.46
478.455	3024.67
478.827	3026.02
479.198	3093.59
479.569	3096.3
479.94	3165.68
480.311	3176.3
480.682	3285.68
481.053	3290.42
481.424	3308.5
481.795	3325.68
482.166	3364.09
482.537	3394.83
482.908	3450.64
483.279	3502.39
483.65	3571.77
484.021	3594.37
484.391	3605.44
484.762	3628.94
485.133	3615.39
485.503	3687.02
485.874	3787.36
486.244	3781.71
486.615	3861.71
486.985	3854.25
487.356	3956.62
487.726	3950.29
488.097	3989.84
488.467	4024.19
488.837	4101.47
489.207	4107.8
489.578	4162.72
489.948	4201.58
490.318	4241.13
490.688	4207.69
491.058	4296.95
491.428	4316.61
491.798	4327.68
492.168	4446.32
492.538	4491.07
492.908	4461.92
493.278	4484.51
493.648	4489.94
494.017	4571.29
494.387	4595.92
494.757	4606.09
495.126	4643.38
495.496	4627.56
495.866	4694
496.235	4687.67
496.605	4801.79
496.974	4752.53
497.344	4835.47
497.713	4833.43
498.082	4816.26
498.452	4881.11
498.821	4898.06
499.19	4892.41
499.559	4985.97
499.928	5021.45
500.298	4966.31
500.667	4988.68
501.036	5000.43
501.405	5031.85
501.774	5012.86
502.143	5099.87
502.512	5070.26
502.88	5173.99
503.249	5122.24
503.618	5153.2
503.987	5194.1
504.356	5171.73
504.724	5209.02
505.093	5237.94
505.462	5244.95
505.83	5251.73
506.199	5308.67
506.567	5325.4
506.936	5360.65
507.304	5356.36
507.672	5365.17
508.041	5353.42
508.409	5381.21
508.777	5457.82
509.145	5450.37
509.514	5439.29
509.882	5484.71
510.25	5469.57
510.618	5531.04
510.986	5498.73
511.354	5574.2
511.722	5589.57
512.09	5582.34
512.458	5659.17
512.826	5641.55
513.193	5630.02
513.561	5633.19
513.929	5651.49
514.297	5767.64
514.664	5713.64
515.032	5706.86
515.4	5753.18
515.767	5767.42
516.135	5799.06
516.502	5737.14
516.869	5805.84
517.237	5792.96
517.604	5769.9
517.972	5864.82
518.339	5831.82
518.706	5811.71
519.073	5880.86
519.44	5903.69
519.808	5914.53
520.175	5902.56
520.542	5946.85
520.909	5990.69
521.276	6040.63
521.643	5967.87
522.009	6050.35
522.376	6047.86
522.743	6143.91
523.11	6142.32
523.477	6161.53
523.843	6182.78
524.21	6213.96
524.577	6201.98
524.943	6201.31
525.31	6280.17
525.676	6300.96
526.043	6310
526.409	6321.08
526.776	6390
527.142	6377.35
527.508	6449.43
527.874	6447.4
528.241	6480.62
528.607	6504.35
528.973	6547.29
529.339	6540.05
529.705	6573.95
530.071	6600.39
530.437	6615.76
530.803	6624.12
531.169	6638.13
531.535	6682.88
531.901	6672.25
532.267	6725.36
532.632	6710.9
532.998	6727.85
533.364	6771.91
533.73	6763.55
534.095	6776.43
534.461	6798.13
534.826	6863.89
535.192	6900.04
535.557	6897.33
535.923	6834.06
536.288	6865.02
536.653	6915.64
537.019	6975.07
537.384	6944.56
537.749	6980.95
538.114	6915.64
538.479	7031.79
538.845	7013.04
539.21	6989.76
539.575	6999.7
539.94	7025.92
540.305	7024.34
540.67	7038.35
541.034	7097.1
541.399	7088.51
541.764	7134.84
542.129	7138.91
542.494	7090.77
542.858	7170.77
543.223	7150.66
543.587	7171.9
543.952	7182.97
544.316	7189.08
544.681	7235.18
545.045	7236.76
545.41	7280.15
545.774	7293.93
546.138	7323.76
546.503	7309.98
546.867	7313.14
547.231	7398.11
547.595	7353.82
547.959	7405.57
548.324	7395.62
548.688	7338.23
549.052	7401.5
549.416	7366.02
549.779	7460.71
550.143	7419.13
550.507	7403.99
550.871	7476.53
551.235	7414.83
551.599	7506.36
551.962	7493.02
552.326	7532.34
552.689	7588.84
553.053	7498.45
553.417	7514.04
553.78	7647.6
554.143	7626.13
554.507	7583.42
554.87	7632.45
555.234	7692.11
555.597	7654.83
555.96	7680.36
556.323	7676.75
556.686	7682.62
557.05	7773.24
557.413	7785.67
557.776	7678.33
558.139	7801.72
558.502	7792.68
558.865	7807.59
559.228	7906.35
559.59	7820.92
559.953	7893.24
560.316	7963.52
560.679	7964.65
561.041	7938.66
561.404	8003.97
561.767	8000.13
562.129	8063.18
562.492	8080.35
562.854	8104.76
563.217	8093.23
563.579	8047.13
563.941	8145.21
564.304	8159.22
564.666	8208.26
565.028	8243.96
565.39	8250.97
565.753	8276.96
566.115	8256.39
566.477	8343.85
566.839	8331.87
567.201	8377.75
567.563	8421.13
567.925	8401.7
568.287	8484.86
568.648	8466.11
569.01	8538.19
569.372	8545.43
569.734	8521.47
570.095	8638.98
570.457	8681.69
570.819	8714.01
571.18	8690.05
571.542	8762.37
571.903	8813.89
572.265	8756.72
572.626	8802.14
572.987	8885.3
573.349	8850.73
573.71	8862.48
574.071	8991.06
574.432	8963.04
574.794	9043.49
575.155	9037.62
575.516	9034.23
575.877	9150.61
576.238	9116.03
576.599	9208.01
576.96	9259.3
577.32	9243.49
577.681	9287.55
578.042	9323.94
578.403	9377.49
578.763	9422.46
579.124	9478.96
579.485	9556.92
579.845	9497.04
580.206	9504.95
580.566	9551.27
580.927	9607.77
581.287	9731.16
581.648	9701.55
582.008	9825.17
582.368	9836.24
582.728	9989
583.089	9889.34
583.449	10003.92
583.809	10034.88
584.169	10027.42
584.529	10124.59
584.889	10315.32
585.249	10289.79
585.609	10246.4
585.969	10381.53
586.329	10417.92
586.688	10539.95
587.048	10577.69
587.408	10567.29
587.768	10671.7
588.127	10778.59
588.487	10792.15
588.846	10875.99
589.206	10856.32
589.565	11013.61
589.925	11049.09
590.284	11119.37
590.643	11234.85
591.003	11242.98
591.362	11343.32
591.721	11489.53
592.08	11491.34
592.44	11528.17
592.799	11589.41
593.158	11725.45
593.517	11740.37
593.876	11821.72
594.235	11835.73
594.593	11878.22
594.952	12015.84
595.311	12032.34
595.67	12111.88
596.029	12299.45
596.387	12391.65
596.746	12332.67
597.104	12444.31
597.463	12435.27
597.822	12543.74
598.18	12560.46
598.538	12562.49
598.897	12743.51
599.255	12615.37
599.613	12954.8
599.972	12863.05
600.33	12921.13
600.688	12995.25
601.046	13054.01
601.404	13170.39
601.762	13171.07
602.12	13354.11
602.478	13337.84
602.836	13324.06
603.194	13382.13
603.552	13404.28
603.91	13320.89
604.268	13540.77
604.625	13452.87
604.983	13575.8
605.341	13593.43
605.698	13683.14
606.056	13759.07
606.413	13685.18
606.771	13840.43
607.128	13887.66
607.485	13808.79
607.843	13889.01
608.2	14042.23
608.557	14003.36
608.914	14035
609.272	14107.31
609.629	14174.88
609.986	14180.76
610.343	14239.29
610.7	14354.09
611.057	14319.96
611.414	14319.96
611.771	14356.57
612.127	14468.66
612.484	14449.45
612.841	14573.06
613.198	14556.57
613.554	14535.32
613.911	14653.74
614.267	14682.89
614.624	14663.46
614.98	14596.79
615.337	14734.64
615.693	14720.63
616.05	14685.6
616.406	14814.64
616.762	14764.24
617.118	14797.69
617.475	14790.68
617.831	14858.93
618.187	14893.96
618.543	14900.96
618.899	14973.96
619.255	15003.56
619.611	15011.24
619.967	15065.71
620.323	15010.34
620.678	15031.81
621.034	14984.13
621.39	15042.66
621.746	15066.38
622.101	15170.34
622.457	15126.95
622.812	15092.37
623.168	15266.15
623.523	15120.62
623.879	15215.53
624.234	15162.88
624.589	15169.43
624.945	15191.8
625.3	15206.27
625.655	15229.09
626.01	15167.4
626.365	15217.11
626.72	15228.64
627.075	15201.52
627.43	15217.57
627.785	15234.74
628.14	15239.71
628.495	15274.74
628.85	15262.54
629.205	15231.8
629.559	15272.03
629.914	15310.22
630.269	15180.28
630.623	15138.25
630.978	15242.42
631.332	15195.87
631.687	15273.38
632.041	15139.6
632.396	15203.56
632.75	15135.53
633.104	15247.85
633.459	15130.34
633.813	15140.73
634.167	15055.31
634.521	15189.09
634.875	15043.79
635.229	15063.45
635.583	15024.8
635.937	14982.77
636.291	15090.34
636.645	15006.27
636.999	15036.1
637.352	15059.83
637.706	14981.41
638.06	15035.42
638.413	14942.32
638.767	14985.26
639.121	15047.85
639.474	14991.13
639.828	14867.52
640.181	14934.18
640.534	14941.87
640.888	14911.81
641.241	14848.31
641.594	14932.6
641.947	14923.34
642.301	14893.05
642.654	14923.56
643.007	14862.32
643.36	14828.65
643.713	14827.52
644.066	14874.75
644.419	14700.97
644.771	14719.05
645.124	14557.92
645.477	14524.25
645.83	14406.97
646.182	14377.36
646.535	14332.84
646.888	14322
647.24	14249.91
647.593	14391.15
647.945	14374.88
648.298	14272.51
648.65	14357.02
649.002	14220.98
649.355	14341.43
649.707	14267.31
650.059	14432.05
650.411	14681.53
650.763	14601.99
651.115	14709.78
651.467	14673.17
651.819	14698.94
652.171	14711.14
652.523	14592.5
652.875	14638.15
653.227	14552.72
653.578	14645.15
653.93	14727.41
654.282	14567.41
654.633	14651.25
654.985	14596.57
655.337	14653.51
655.688	14696.9
656.039	14755.66
656.391	14618.49
656.742	14643.34
657.094	14663.23
657.445	14678.15
657.796	14694.64
658.147	14713.4
658.498	14668.2
658.849	14714.75
659.2	14719.73
659.551	14710.69
659.902	14745.26
660.253	14742.32
660.604	14660.97
660.955	14651.48
661.306	14672.72
661.656	14734.19
662.007	14712.95
662.358	14721.08
662.708	14689.44
663.059	14743.23
663.409	14644.02
663.76	14749.33
664.11	14745.94
664.461	14839.95
664.811	14796.56
665.161	14808.99
665.511	14782.55
665.862	14748.43
666.212	14827.52
666.562	14841.76
666.912	14746.62
667.262	14766.96
667.612	14768.99
667.962	14729.9
668.312	14785.49
668.662	14779.39
669.011	14785.94
669.361	14754.75
669.711	14759.27
670.06	14636.79
670.41	14678.37
670.76	14659.39
671.109	14723.34
671.459	14706.17
671.808	14752.04
672.157	14779.39
672.507	14608.99
672.856	14605.83
673.205	14651.71
673.554	14674.98
673.904	14654.42
674.253	14667.98
674.602	14630.91
674.951	14467.3
675.3	14376.46
675.649	14513.4
675.998	14528.32
676.346	14516.57
676.695	14580.75
677.044	14448.77
677.393	14526.74
677.741	14535.1
678.09	14461.43
678.438	14507.53
678.787	14441.77
679.135	14493.29
679.484	14325.84
679.832	14453.74
680.181	14352.5
680.529	14383.92
680.877	14401.54
681.225	14304.6
681.573	14402.9
681.922	14231.38
682.27	14172.85
682.618	14197.03
682.966	14282.45
683.314	14174.43
683.661	14201.55
684.009	14031.16
684.357	14027.99
684.705	14072.29
685.053	14076.58
685.4	14077.26
685.748	13992.29
686.095	13952.29
686.443	13924.27
686.79	13898.96
687.138	13870.71
687.485	13812.63
687.832	13784.61
688.18	13800.88
688.527	13700.54
688.874	13773.99
689.221	13615.8
689.568	13647.21
689.915	13545.97
690.262	13560.89
690.609	13538.51
690.956	13487.22
691.303	13536.25
691.65	13357.28
691.997	13396.14
692.344	13349.59
692.69	13287
693.037	13282.25
693.383	13174.23
693.73	13202.7
694.077	13127.9
694.423	13121.12
694.769	13028.47
695.116	13044.97
695.462	13012.43
695.808	12904.18
696.155	12945.08
696.501	12870.28
696.847	12863.05
697.193	12756.61
697.539	12745.09
697.885	12637.07
698.231	12596.84
698.577	12560.91
698.923	12503.74
699.269	12405.89
699.614	12397.53
699.96	12396.4
700.306	12419.22
700.651	12309.17
700.997	12266.68
701.342	12200.47
701.688	12198.21
702.033	12243.86
702.379	12237.53
702.724	12140.81
703.069	12131.32
703.415	11943.53
703.76	11910.99
704.105	11977.65
704.45	11921.38
704.795	11835.51
705.14	11892
705.485	11816.53
705.83	11673.93
706.175	11710.99
706.52	11675.06
706.865	11660.37
707.209	11634.61
707.554	11618.34
707.899	11606.59
708.243	11537.89
708.588	11488.4
708.932	11428.74
709.277	11404.56
709.621	11435.29
709.966	11309.42
710.31	11352.81
710.654	11158.46
710.998	11283.43
711.342	11231
711.687	11137.67
712.031	11161.63
712.375	11055.42
712.719	11132.48
713.063	11114.62
713.407	11130.67
713.75	11002.31
714.094	11047.73
714.438	11002.99
714.782	11042.31
715.125	11006.38
715.469	10947.85
715.812	10928.87
716.156	10853.16
716.499	10836.44
716.843	10874.18
717.186	10885.25
717.53	10880.96
717.873	10901.52
718.216	10845.93
718.559	10787.17
718.902	10743.79
719.246	10707.85
719.589	10767.74
719.932	10755.08
720.275	10760.06
720.617	10704.24
720.96	10687.74
721.303	10702.88
721.646	10651.81
721.989	10606.39
722.331	10663.34
722.674	10601.42
723.016	10587.18
723.359	10578.14
723.701	10569.55
724.044	10601.42
724.386	10451.59
724.729	10536.56
725.071	10538.59
725.413	10539.04
725.755	10428.99
726.097	10373.63
726.439	10455.21
726.782	10418.37
727.124	10540.17
727.465	10471.02
727.807	10444.13
728.149	10421.08
728.491	10413.17
728.833	10391.7
729.175	10313.74
729.516	10351.71
729.858	10384.02
730.199	10305.38
730.541	10308.54
730.882	10362.78
731.224	10424.7
731.565	10318.03
731.906	10355.32
732.248	10341.76
732.589	10322.78
732.93	10279.62
733.271	10301.09
733.612	10271.26
733.953	10370.01
734.294	10389.9
734.635	10369.56
734.976	10316
735.317	10320.97
735.658	10360.52
735.999	10352.61
736.339	10277.13
736.68	10334.3
737.021	10291.14
737.361	10354.42
737.702	10341.99
738.042	10328.88
738.383	10416.34
738.723	10363
739.063	10394.19
739.404	10462.66
739.744	10362.78
740.084	10418.82
740.424	10390.8
740.764	10470.57
741.104	10392.83
741.444	10444.81
741.784	10431.48
742.124	10466.28
742.464	10456.34
742.804	10481.65
743.143	10448.88
743.483	10507.63
743.823	10605.71
744.162	10511.7
744.502	10676.22
744.841	10664.01
745.181	10669.89
745.52	10648.42
745.86	10736.33
746.199	10769.1
746.538	10695.88
746.877	10857.68
747.216	10888.41
747.556	10876.21
747.895	10960.5
748.234	10992.37
748.573	11077.34
748.911	11161.4
749.25	11196.2
749.589	11288.4
749.928	11303.77
750.267	11355.07
750.605	11412.24
750.944	11492.24
751.283	11534.72
751.621	11700.82
751.96	11713.48
752.298	11789.41
752.636	11968.39
752.975	11990.31
753.313	12141.94
753.651	12268.72
753.989	12268.04
754.327	12377.64
754.666	12478.65
755.004	12731.76
755.342	12761.36
755.679	12946.44
756.017	12936.95
756.355	13121.58
756.693	13248.35
757.031	13399.31
757.368	13508.68
757.706	13697.83
758.044	13751.39
758.381	13871.16
758.719	14074.32
759.056	14162
759.394	14319.74
759.731	14399.73
760.068	14490.81
760.405	14675.89
760.743	14822.55
761.08	15065.48
761.417	15088.98
761.754	15216.89
762.091	15383.21
762.428	15456.66
762.765	15657.78
763.102	15863.88
763.438	15935.74
763.775	16003.08
764.112	16210.08
764.449	16369.63
764.785	16392
765.122	16521.71
765.458	16600.13
765.795	16766
766.131	16978.88
766.467	17037.86
766.804	17045.09
767.14	17116.27
767.476	17238.98
767.812	17381.58
768.148	17516.94
768.485	17576.6
768.821	17687.11
769.157	17760.1
769.492	17855.69
769.828	17947.21
770.164	17896.14
770.5	17957.61
770.836	18068.11
771.171	18152.63
771.507	18274.21
771.842	18183.82
772.178	18252.74
772.513	18343.13
772.849	18370.48
773.184	18449.35
773.519	18620.19
773.855	18449.35
774.19	18504.94
774.525	18559.85
774.86	18653.86
775.195	18658.61
775.53	18622
775.865	18682.79
776.2	18618.61
776.535	18698.15
776.87	18698.38
777.205	18676.23
777.539	18627.19
777.874	18735.89
778.209	18690.24
778.543	18741.32
778.878	18629.23
779.212	18644.37
779.547	18702.9
779.881	18773.86
780.215	18595.56
780.55	18744.7
780.884	18708.1
781.218	18612.5
781.552	18666.06
781.886	18568.66
782.22	18547.42
782.554	18559.4
782.888	18490.02
783.222	18454.54
783.556	18381.1
783.889	18502.68
784.223	18351.72
784.557	18438.05
784.89	18511.04
785.224	18439.18
785.557	18362.79
785.891	18305.62
786.224	18330.25
786.558	18210.71
786.891	18095.68
787.224	18069.02
787.557	18026.98
787.891	18094.1
788.224	18095
788.557	18093.65
788.89	18042.8
789.223	18080.99
789.556	17960.54
789.888	17884.61
790.221	17871.96
790.554	17808.46
790.887	17732.53
791.219	17711.51
791.552	17734.79
791.884	17698.4
792.217	17613.66
792.549	17621.8
792.882	17567.56
793.214	17388.13
793.546	17441.69
793.879	17340.22
794.211	17274.69
794.543	17325.99
794.875	17258.87
795.207	17395.36
795.539	17177.51
795.871	17200.11
796.203	17111.98
796.535	16975.71
796.867	16984.07
797.198	17015.03
797.53	16979.1
797.862	16827.24
798.193	16868.82
798.525	16795.38
798.856	16787.24
799.188	16603.07
799.519	16561.03
799.85	16556.29
800.182	16535.27
800.513	16547.7
800.844	16386.57
801.175	16572.56
801.506	16447.82
801.837	16462.73
802.168	16335.73
802.499	16300.02
802.83	16172.34
803.161	16264.32
803.491	16194.26
803.822	16205.79
804.153	16115.17
804.483	15989.3
804.814	15949.98
805.145	15972.8
805.475	15985.23
805.805	15835.18
806.136	15842.41
806.466	15847.61
806.796	15810.32
807.126	15742.75
807.457	15696.65
807.787	15703.2
808.117	15659.36
808.447	15574.39
808.777	15640.61
809.107	15577.56
809.436	15541.17
809.766	15471.57
810.096	15442.42
810.426	15328.75
810.755	15353.16
811.085	15347.28
811.414	15313.38
811.744	15175.31
812.073	15260.05
812.403	15190.45
812.732	15052.15
813.061	15109.09
813.39	15066.84
813.719	14971.47
814.049	15126.27
814.378	14971.02
814.707	14933.28
815.036	14968.08
815.365	14940.29
815.693	14781.19
816.022	14703.46
816.351	14722.66
816.68	14700.74
817.008	14705.49
817.337	14630.01
817.665	14678.82
817.994	14634.53
818.322	14599.96
818.651	14492.61
818.979	14427.3
819.307	14495.78
819.636	14421.65
819.964	14383.92
820.292	14465.5
820.62	14349.11
820.948	14401.09
821.276	14382.79
821.604	14338.04
821.932	14447.19
822.259	14478.6
822.587	14434.31
822.915	14306.18
823.243	14334.2
823.57	14284.94
823.898	14323.58
824.225	14284.03
824.553	14301.88
824.88	14357.7
825.207	14362.45
825.535	14263.69
825.862	14339.4
826.189	14308.89
826.516	14357.7
826.843	14376.46
827.17	14327.65
827.497	14382.79
827.824	14317.02
828.151	14347.53
828.478	14298.27
828.805	14398.38
829.131	14275.22
829.458	14279.74
829.785	14240.42
830.111	14287.87
830.438	14326.97
830.764	14326.52
831.09	14403.35
831.417	14239.96
831.743	14353.18
832.069	14352.28
832.395	14203.13
832.722	14224.82
833.048	14226.63
833.374	14194.09
833.7	14156.8
834.026	14205.62
834.351	14241.55
834.677	14158.38
835.003	14187.31
835.329	14218.27
835.654	14211.94
835.98	14064.15
836.306	14180.76
836.631	14149.12
836.956	14151.15
837.282	14078.61
837.607	14035.9
837.932	14055.79
838.258	13988.9
838.583	14060.76
838.908	13883.82
839.233	13949.35
839.558	13914.32
839.883	13881.56
840.208	13784.84
840.533	13802.01
840.858	13945.96
841.182	13773.76
841.507	13737.83
841.832	13710.94
842.156	13754.78
842.481	13707.78
842.805	13685.18
843.13	13643.6
843.454	13679.98
843.778	13559.3
844.103	13521.57
844.427	13448.57
844.751	13506.65
845.075	13391.63
845.399	13303.27
845.723	13379.42
846.047	13344.39
846.371	13255.36
846.695	13204.06
847.019	13073.44
847.343	13064.4
847.666	12986.44
847.99	12959.32
848.313	13064.18
848.637	12869.15
848.96	12825.31
849.284	12721.36
849.607	12637.07
849.931	12689.27
850.254	12578.09
850.577	12542.16
850.9	12468.03
851.223	12517.07
851.546	12386
851.869	12343.74
852.192	12411.54
852.515	12270.52
852.838	12242.05
853.161	12256.06
853.483	12239.57
853.806	12117.53
854.129	12091.55
854.451	12040.02
854.774	11986.24
855.096	11945.56
855.419	11886.81
855.741	11853.81
856.063	11882.74
856.385	11856.98
856.708	11807.71
857.03	11740.14
857.352	11722.97
857.674	11642.97
857.996	11580.37
858.318	11563.88
858.64	11605.68
858.961	11529.53
859.283	11419.02
859.605	11435.74
859.926	11464.9
860.248	11361.85
860.57	11364.33
860.891	11379.7
861.212	11296.77
861.534	11320.95
861.855	11254.96
862.176	11221.29
862.498	11286.82
862.819	11235.75
863.14	11197.33
863.461	11061.29
863.782	11150.33
864.103	11172.7
864.424	11143.32
864.745	11039.82
865.065	11118.46
865.386	10975.42
865.707	11002.31
866.027	11030.78
866.348	10973.38
866.668	10970.9
866.989	10983.55
867.309	10913.27
867.63	10939.71
867.95	10906.49
868.27	10798.7
868.59	10843.9
868.91	10824.91
869.23	10851.58
869.55	10750.11
869.87	10803.9
870.19	10843.9
870.51	10751.69
870.83	10751.69
871.15	10674.18
871.469	10673.73
871.789	10685.48
872.109	10645.03
872.428	10620.85
872.748	10650.45
873.067	10673.5
873.386	10646.16
873.706	10563
874.025	10499.72
874.344	10541.53
874.663	10482.78
874.982	10491.59
875.301	10517.35
875.62	10469.67
875.939	10476.22
876.258	10447.07
876.577	10421.99
876.896	10436.45
877.214	10403.68
877.533	10414.75
877.852	10397.13
878.17	10352.38
878.489	10398.94
878.807	10346.96
879.125	10260.63
879.444	10258.15
879.762	10256.57
880.08	10226.51
880.398	10200.3
880.716	10222.22
881.034	10189.22
881.352	10233.52
881.67	10134.54
881.988	10117.59
882.306	10172.05
882.624	10050.24
882.941	10035.78
883.259	10003.47
883.577	9954.2
883.894	9963.47
884.212	9980.64
884.529	9972.96
884.846	9955.78
885.164	9916.69
885.481	9890.25
885.798	9901.1
886.115	9811.61
886.432	9791.95
886.75	9793.08
887.067	9774.77
887.383	9732.06
887.7	9781.78
888.017	9686.64
888.334	9642.35
888.651	9597.83
888.967	9586.3
889.284	9517.38
889.6	9559.18
889.917	9533.2
890.233	9483.03
890.55	9459.3
890.866	9491.61
891.182	9458.85
891.498	9339.08
891.815	9339.75
892.131	9314.67
892.447	9263.82
892.763	9241.23
893.079	9188.12
893.395	9215.24
893.71	9239.42
894.026	9169.14
894.342	9160.55
894.657	9012.53
894.973	9069.48
895.289	9058.41
895.604	9076.26
895.92	8944.74
896.235	8925.53
896.55	8962.14
896.865	8888.47
897.181	8845.3
897.496	8827.23
897.811	8797.4
898.126	8776.38
898.441	8710.17
898.756	8650.96
899.071	8650.51
899.386	8682.82
899.7	8610.28
900.015	8565.54
900.33	8528.7
900.644	8489.16
900.959	8506.78
901.273	8428.14
901.588	8401.93
901.902	8355.6
902.216	8390.63
902.531	8306.11
902.845	8275.38
903.159	8253.23
903.473	8206.9
903.787	8215.04
904.101	8115.15
904.415	8140.01
904.729	8102.5
905.042	8102.05
905.356	8091.88
905.67	7965.33
905.984	7981.37
906.297	7915.39
906.611	7918.32
906.924	7873.58
907.237	7959.45
907.551	7848.27
907.864	7814.82
908.177	7745.45
908.491	7776.41
908.804	7690.76
909.117	7610.99
909.43	7706.35
909.743	7618.44
910.056	7610.08
910.368	7490.09
910.681	7464.78
910.994	7461.16
911.307	7448.73
911.619	7413.48
911.932	7421.61
912.244	7390.2
912.557	7319.69
912.869	7262.07
913.181	7248.28
913.494	7229.98
913.806	7248.28
914.118	7245.57
914.43	7155.86
914.742	7110.21
915.054	7101.4
915.366	7106.59
915.678	7082.41
915.99	7015.52
916.302	7000.83
916.613	6948.4
916.925	6959.25
917.236	6935.07
917.548	6887.39
917.859	6828.86
918.171	6824.79
918.482	6780.5
918.794	6749.77
919.105	6755.19
919.416	6670.67
919.727	6634.74
920.038	6658.69
920.349	6587.51
920.66	6592.03
920.971	6556.55
921.282	6551.13
921.593	6502.54
921.903	6452.6
922.214	6486.04
922.525	6456.89
922.835	6365.82
923.146	6371.24
923.456	6399.04
923.767	6324.92
924.077	6308.65
924.387	6255.99
924.697	6257.12
925.008	6204.02
925.318	6200.18
925.628	6154.3
925.938	6137.58
926.248	6113.62
926.558	6041.08
926.867	6096.68
927.177	6027.75
927.487	6023.91
927.796	5940.07
928.106	5947.98
928.416	5922.9
928.725	5922.44
929.034	5879.96
929.344	5927.87
929.653	5877.25
929.962	5749.34
930.271	5809
930.581	5748.66
930.89	5723.35
931.199	5706.63
931.508	5707.31
931.817	5690.36
932.125	5689
932.434	5632.96
932.743	5585.73
933.051	5580.08
933.36	5541.21
933.669	5492.85
933.977	5509.35
934.286	5499.86
934.594	5479.74
934.902	5430.48
935.21	5396.13
935.519	5424.83
935.827	5373.53
936.135	5355.68
936.443	5311.84
936.751	5318.62
937.059	5328.11
937.367	5292.18
937.674	5263.25
937.982	5212.18
938.29	5181.45
938.597	5216.02
938.905	5139.64
939.213	5141.67
939.52	5108.68
939.827	5129.24
940.135	5065.97
940.442	5037.27
940.749	5036.82
941.056	4996.14
941.363	5000.43
941.67	4957.72
941.977	4910.27
942.284	4949.59
942.591	4892.87
942.898	4862.36
943.205	4844.96
943.511	4791.4
943.818	4849.93
944.125	4762.93
944.431	4757.95
944.738	4718.18
945.044	4726.99
945.35	4677.05
945.657	4658.52
945.963	4636.6
946.269	4664.4
946.575	4669.59
946.881	4605.19
947.187	4631.63
947.493	4588.47
947.799	4572.65
948.105	4484.06
948.41	4514.12
948.716	4513.21
949.022	4490.39
949.327	4456.94
949.633	4438.64
949.938	4423.05
950.244	4437.96
950.549	4376.95
950.854	4355.25
951.16	4289.94
951.465	4307.34
951.77	4262.15
952.075	4275.93
952.38	4288.14
952.685	4256.05
952.99	4214.47
953.294	4173.56
953.599	4155.94
953.904	4160
954.209	4110.74
954.513	4131.3
954.818	4091.3
955.122	4112.55
955.426	4118.42
955.731	4051.31
956.035	4051.53
956.339	4041.36
956.643	4023.74
956.948	3968.14
957.252	3963.85
957.556	3954.13
957.86	3967.01
958.163	3885.89
958.467	3947.35
958.771	3887.69
959.075	3864.87
959.378	3844.98
959.682	3867.81
959.985	3826.45
960.289	3776.74
960.592	3783.97
960.896	3793.23
961.199	3768.15
961.502	3743.97
961.805	3738.09
962.108	3705.78
962.411	3701.26
962.714	3716.4
963.017	3672.33
963.32	3622.84
963.623	3642.96
963.926	3609.06
964.228	3598.44
964.531	3585.1
964.833	3574.71
965.136	3567.7
965.438	3537.2
965.741	3520.02
966.043	3500.13
966.345	3498.1
966.648	3481.83
966.95	3475.95
967.252	3471.66
967.554	3428.27
967.856	3420.36
968.158	3407.48
968.46	3407.71
968.761	3390.08
969.063	3379.46
969.365	3331.32
969.666	3336.3
969.968	3285
970.269	3285.45
970.571	3233.25
970.872	3292.46
971.174	3283.87
971.475	3234.6
971.776	3260.37
972.077	3250.87
972.378	3203.87
972.679	3218.11
972.98	3177.88
973.281	3162.97
973.582	3179.69
973.883	3154.83
974.183	3138.11
974.484	3128.39
974.785	3077.77
975.085	3103.76
975.386	3093.14
975.686	3068.28
975.986	3030.32
976.287	3010.88
976.587	2997.77
976.887	3014.27
977.187	2996.87
977.487	2965.01
977.787	2944.67
978.087	2927.72
978.387	2917.32
978.687	2936.31
978.987	2916.87
979.286	2915.29
979.586	2875.07
979.885	2854.28
980.185	2850.89
980.484	2842.75
980.784	2829.19
981.083	2832.13
981.382	2834.84
981.682	2800.72
981.981	2767.72
982.28	2756.88
982.579	2744
982.878	2736.99
983.177	2745.13
983.475	2750.78
983.774	2689.99
984.073	2731.34
984.372	2706.71
984.67	2638.01
984.969	2673.04
985.267	2709.19
985.566	2667.39
985.864	2581.29
986.162	2621.51
986.461	2595.3
986.759	2587.62
987.057	2584
987.355	2608.86
987.653	2545.58
987.951	2552.36
988.249	2514.62
988.547	2533.38
988.844	2520.27
989.142	2501.29
989.44	2488.86
989.737	2464.45
990.035	2484.34
990.332	2427.39
990.63	2453.38
990.927	2445.25
991.224	2435.08
991.521	2364.57
991.819	2362.54
992.116	2370.9
992.413	2377.23
992.71	2368.19
993.006	2334.06
993.303	2320.73
993.6	2337.9
993.897	2307.62
994.193	2314.4
994.49	2301.75
994.787	2279.83
995.083	2261.07
995.379	2238.47
995.676	2255.87
995.972	2244.57
996.268	2234.63
996.565	2235.99
996.861	2194.63
997.157	2226.95
997.453	2212.03
997.749	2168.87
998.044	2130.23
998.34	2129.1
998.636	2147.18
998.932	2117.8
999.227	2122.54
999.523	2114.86
999.818	2117.8
1000.114	2110.57
1000.409	2057.46
1000.704	2064.01
1001	2028.76
1001.295	2036.22
1001.59	2035.54
1001.885	2008.42
1002.18	2015.2
1002.475	1995.99
1002.77	1971.13
1003.065	1980.4
1003.359	1930.01
1003.654	1993.05
1003.949	1948.31
1004.243	1924.36
1004.538	1909.89
1004.832	1892.94
1005.127	1901.76
1005.421	1868.09
1005.715	1892.49
1006.009	1897.01
1006.304	1872.83
1006.598	1821.99
1006.892	1863.79
1007.186	1838.48
1007.48	1829.44
1007.773	1792.83
1008.067	1803.23
1008.361	1793.29
1008.655	1775.43
1008.948	1762.78
1009.242	1768.2
1009.535	1734.08
1009.829	1708.32
1010.122	1731.59
1010.415	1739.5
1010.708	1728.43
1011.001	1682.1
1011.295	1698.15
1011.588	1685.72
1011.881	1675.1
1012.173	1650.01
1012.466	1659.28
1012.759	1643.46
1013.052	1636.91
1013.344	1584.7
1013.637	1609.34
1013.93	1613.18
1014.222	1598.94
1014.514	1586.74
1014.807	1570.02
1015.099	1553.97
1015.391	1556.23
1015.683	1529.11
1015.976	1534.54
1016.268	1524.59
1016.56	1518.04
1016.851	1523.91
1017.143	1486.18
1017.435	1497.47
1017.727	1497.47
1018.018	1444.14
1018.31	1450.92
1018.602	1457.7
1018.893	1418.83
1019.185	1452.96
1019.476	1439.85
1019.767	1404.6
1020.058	1389
1020.35	1413.86
1020.641	1407.99
1020.932	1380.19
1021.223	1371.83
1021.514	1361.89
1021.804	1357.82
1022.095	1372.73
1022.386	1343.58
1022.677	1333.64
1022.967	1347.87
1023.258	1315.33
1023.548	1313.3
1023.839	1315.33
1024.129	1302.23
1024.419	1294.77
1024.709	1259.97
1025	1272.17
1025.29	1227.88
1025.58	1245.28
1025.87	1241.21
1026.16	1233.98
1026.449	1210.02
1026.739	1221.78
1027.029	1196.92
1027.319	1199.18
1027.608	1199.4
1027.898	1189.01
1028.187	1175.68
1028.477	1179.52
1028.766	1155.79
1029.055	1173.87
1029.344	1159.63
1029.634	1152.17
1029.923	1126.64
1030.212	1130.25
1030.501	1121.67
1030.79	1093.19
1031.078	1114.21
1031.367	1083.47
1031.656	1082.8
1031.945	1064.04
1032.233	1093.87
1032.522	1061.78
1032.81	1053.87
1033.099	1059.75
1033.387	1060.65
1033.675	1047.54
1033.963	1034.66
1034.251	1041.44
1034.54	1018.62
1034.828	1028.56
1035.116	1018.39
1035.403	1001.44
1035.691	1010.03
1035.979	1006.41
1036.267	971.39
1036.554	976.58
1036.842	977.71
1037.129	962.12
1037.417	938.85
1037.704	984.95
1037.992	950.82
1038.279	977.04
1038.566	928.68
1038.853	928.68
1039.14	928.68
