Data from hue_90_FLMS001491_19.txt Node
Date: Mon Feb 06 15:24:46 GMT 2017
User: dcchb
Spectrometer: FLMS00149
Trigger mode: 0
Integration Time (sec): 2.000000E-2
Scans to average: 10
Electric dark correction enabled: true
Nonlinearity correction enabled: false
Boxcar width: 0
XAxis mode: Wavelengths
Number of Pixels in Spectrum: 2048
>>>>>Begin Spectral Data<<<<<
341.393	-6.69
341.776	-6.69
342.16	-6.69
342.543	-38.78
342.927	-54.15
343.31	-66.13
343.693	-97.09
344.077	-87.37
344.46	-58.22
344.843	-43.08
345.226	-53.47
345.61	-36.07
345.993	-3.76
346.376	-3.3
346.759	-3.53
347.142	29.24
347.525	45.51
347.908	68.78
348.291	69.69
348.674	112.62
349.057	126.18
349.44	127.54
349.823	161.66
350.206	175
350.588	212.51
350.971	212.51
351.354	217.93
351.737	234.88
352.119	248.21
352.502	271.49
352.884	278.27
353.267	302.22
353.65	282.56
354.032	304.71
354.414	287.53
354.797	297.48
355.179	301.55
355.562	318.27
355.944	340.41
356.326	354.88
356.709	332.05
357.091	329.34
357.473	329.12
357.855	335.44
358.238	347.87
358.62	324.14
359.002	334.09
359.384	345.61
359.766	355.78
360.148	339.28
360.53	321.88
360.912	366.85
361.294	328.21
361.676	327.08
362.057	332.05
362.439	329.34
362.821	343.35
363.203	339.96
363.584	324.14
363.966	295.22
364.348	321.88
364.729	325.95
365.111	334.77
365.493	309
365.874	320.98
366.256	304.94
366.637	323.24
367.019	307.42
367.4	315.56
367.781	327.76
368.163	321.43
368.544	300.42
368.925	312.62
369.306	333.86
369.688	307.65
370.069	319.85
370.45	299.74
370.831	309.91
371.212	301.09
371.593	306.74
371.974	305.84
372.355	323.01
372.736	309.23
373.117	314.2
373.498	302.22
373.879	310.81
374.26	312.39
374.641	312.39
375.021	325.27
375.402	301.55
375.783	304.94
376.163	310.13
376.544	314.2
376.925	332.05
377.305	321.66
377.686	313.07
378.066	334.09
378.447	311.49
378.827	330.7
379.208	340.87
379.588	326.18
379.968	342
380.349	334.09
380.729	337.03
381.109	310.36
381.489	341.09
381.87	327.76
382.25	330.25
382.63	328.66
383.01	332.51
383.39	333.64
383.77	339.96
384.15	336.12
384.53	330.7
384.91	340.41
385.29	335.9
385.67	360.98
386.049	343.35
386.429	334.77
386.809	349.68
387.189	357.59
387.568	364.82
387.948	344.71
388.328	354.43
388.707	349
389.087	371.15
389.466	361.66
389.846	356.46
390.225	361.43
390.605	353.97
390.984	367.76
391.363	359.17
391.743	356.01
392.122	355.33
392.501	376.12
392.881	388.55
393.26	372.5
393.639	363.69
394.018	393.75
394.397	392.62
394.776	382.67
395.155	382
395.534	375.44
395.913	393.97
396.292	399.62
396.671	381.54
397.05	379.28
397.429	388.1
397.808	382.45
398.186	366.4
398.565	398.04
398.944	353.07
399.323	385.16
399.701	359.4
400.08	365.05
400.458	390.36
400.837	410.7
401.215	398.27
401.594	411.37
401.972	416.12
402.351	407.08
402.729	417.47
403.107	418.15
403.486	409.57
403.864	406.85
404.242	411.37
404.62	406.85
404.999	419.28
405.377	403.92
405.755	407.98
406.133	410.92
406.511	405.72
406.889	414.99
407.267	429
407.645	416.57
408.023	427.87
408.401	434.65
408.779	445.04
409.156	447.3
409.534	430.58
409.912	431.94
410.29	445.27
410.667	456.8
411.045	454.99
411.422	438.27
411.8	445.5
412.178	465.84
412.555	470.13
412.933	448.43
413.31	461.32
413.687	448.21
414.065	486.17
414.442	486.63
414.819	492.73
415.197	496.57
415.574	484.59
415.951	485.95
416.328	487.08
416.705	483.91
417.082	508.55
417.46	490.92
417.837	487.76
418.214	500.86
418.591	511.94
418.967	517.13
419.344	527.53
419.721	517.36
420.098	504.93
420.475	519.85
420.852	532.73
421.228	525.49
421.605	527.08
421.982	536.79
422.358	521.43
422.735	527.98
423.111	554.87
423.488	539.73
423.864	549.45
424.241	557.81
424.617	553.74
424.994	558.94
425.37	551.48
425.746	555.32
426.123	549.9
426.499	561.43
426.875	563.91
427.251	607.98
427.627	574.08
428.003	564.59
428.379	578.15
428.756	580.86
429.132	604.36
429.507	595.1
429.883	628.32
430.259	610.24
430.635	609.79
431.011	608.43
431.387	637.81
431.763	610.46
432.138	621.31
432.514	650.69
432.89	632.84
433.265	668.99
433.641	662.67
434.016	669.22
434.392	668.09
434.767	658.15
435.143	689.78
435.518	697.69
435.894	680.29
436.269	710.8
436.644	700.63
437.02	683
437.395	694.76
437.77	734.3
438.145	708.31
438.52	721.87
438.895	724.36
439.271	738.6
439.646	754.87
440.021	750.57
440.395	746.51
440.77	762.78
441.145	777.69
441.52	732.95
441.895	776.34
442.27	752.38
442.645	758.03
443.019	795.54
443.394	795.77
443.769	807.52
444.143	793.74
444.518	816.11
444.892	800.29
445.267	802.78
445.641	835.09
446.016	825.15
446.39	819.95
446.764	805.04
447.139	825.37
447.513	836.67
447.887	828.99
448.262	841.19
448.636	846.84
449.01	828.76
449.384	855.2
449.758	863.34
450.132	888.2
450.506	887.29
450.88	864.02
451.254	874.41
451.628	883.23
452.002	904.69
452.376	926.61
452.75	928.42
453.123	897.69
453.497	926.16
453.871	973.17
454.244	953.28
454.618	958.25
454.992	989.66
455.365	972.49
455.739	979.95
456.112	987.63
456.486	1006.16
456.859	1008.65
457.232	1009.1
457.606	1039.15
457.979	1028.08
458.352	1071.02
458.725	1053.62
459.099	1079.15
459.472	1090
459.845	1088.87
460.218	1108.76
460.591	1118.93
460.964	1107.4
461.337	1156.44
461.71	1208.19
462.083	1196.44
462.456	1193.73
462.829	1217.23
463.201	1229.2
463.574	1253.16
463.947	1265.14
464.32	1279.37
464.692	1291.12
465.065	1289.77
465.438	1316.43
465.81	1317.56
466.183	1355.98
466.555	1374.06
466.928	1390.78
467.3	1396.21
467.672	1422.42
468.045	1463.1
468.417	1468.29
468.789	1476.66
469.161	1521.4
469.534	1565.02
469.906	1576.31
470.278	1576.09
470.65	1615.18
471.022	1640.72
471.394	1662.64
471.766	1696.09
472.138	1746.03
472.51	1774.95
472.882	1794.84
473.253	1820.83
473.625	1852.69
473.997	1888.62
474.369	1938.34
474.74	1986.7
475.112	2000.48
475.484	2070.09
475.855	2121.61
476.227	2144.21
476.598	2207.26
476.97	2274.83
477.341	2301.04
477.713	2373.81
478.084	2428.72
478.455	2495.84
478.827	2546.91
479.198	2658.32
479.569	2690.86
479.94	2738.09
480.311	2798.2
480.682	2882.49
481.053	2986.9
481.424	3068.7
481.795	3163.84
482.166	3178.53
482.537	3299.88
482.908	3412.65
483.279	3480.45
483.65	3536.94
484.021	3678.41
484.391	3726.54
484.762	3801.79
485.133	3895.58
485.503	4007.66
485.874	4169.24
486.244	4230.26
486.615	4322.68
486.985	4434.32
487.356	4559.06
487.726	4621.21
488.097	4779.62
488.467	4840.86
488.837	5040.86
489.207	5159.05
489.578	5200.63
489.948	5350.68
490.318	5454.86
490.688	5578.92
491.058	5662.99
491.428	5830.89
491.798	5896.2
492.168	6086.25
492.538	6194.05
492.908	6272.01
493.278	6457.54
493.648	6507.03
494.017	6626.8
494.387	6734.6
494.757	6825.67
495.126	6970.07
495.496	7068.6
495.866	7163.96
496.235	7257.75
496.605	7450.96
496.974	7525.99
497.344	7705.42
497.713	7763.95
498.082	7807.56
498.452	7963.49
498.821	8053.21
499.19	8078.97
499.559	8224.95
499.928	8370.03
500.298	8400.09
500.667	8511.27
501.036	8607.54
501.405	8688.9
501.774	8716.47
502.143	8837.82
502.512	8976.57
502.88	9025.84
503.249	9081.2
503.618	9218.37
503.987	9169.79
504.356	9280.07
504.724	9391.02
505.093	9407.3
505.462	9537.24
505.83	9592.83
506.199	9735.87
506.567	9837.57
506.936	9847.51
507.304	9908.3
507.672	9979.26
508.041	10037.33
508.409	10077.79
508.777	10205.24
509.145	10289.76
509.514	10293.15
509.882	10300.83
510.25	10349.87
510.618	10471.9
510.986	10531.11
511.354	10654.04
511.722	10661.95
512.09	10695.17
512.458	10762.74
512.826	10844.55
513.193	10847.94
513.561	10923.19
513.929	10996.63
514.297	10982.85
514.664	11036.86
515.032	11162.05
515.4	11090.19
515.767	11273.23
516.135	11169.51
516.502	11181.71
516.869	11335.38
517.237	11336.96
517.604	11294.03
517.972	11408.82
518.339	11458.31
518.706	11513.23
519.073	11454.02
519.44	11502.16
519.808	11604.53
520.175	11555.94
520.542	11722.49
520.909	11669.83
521.276	11663.05
521.643	11781.02
522.009	11747.35
522.376	11843.62
522.743	11856.72
523.11	11936.49
523.477	12077.28
523.843	12040.9
524.21	12092.2
524.577	12092.65
524.943	12128.81
525.31	12179.43
525.676	12201.12
526.043	12262.59
526.409	12313.66
526.776	12317.5
527.142	12330.16
527.508	12373.54
527.874	12371.28
528.241	12394.11
528.607	12447.89
528.973	12511.17
529.339	12401.57
529.705	12496.71
530.071	12536.48
530.437	12516.59
530.803	12513.88
531.169	12570.38
531.535	12503.71
531.901	12520.21
532.267	12489.02
532.632	12512.3
532.998	12540.55
533.364	12527.66
533.73	12552.98
534.095	12479.3
534.461	12530.38
534.826	12564.95
535.192	12502.13
535.557	12592.52
535.923	12571.51
536.288	12479.98
536.653	12494.9
537.019	12477.27
537.384	12451.51
537.749	12482.02
538.114	12459.42
538.479	12327.67
538.845	12400.66
539.21	12315.69
539.575	12356.6
539.94	12293.55
540.305	12343.71
540.67	12294.9
541.034	12279.54
541.399	12272.08
541.764	12237.05
542.129	12230.05
542.494	12202.25
542.858	12210.61
543.223	12163.61
543.587	12177.62
543.952	12065.98
544.316	12116.38
544.681	11989.37
545.045	11914.57
545.41	12037.28
545.774	12031.18
546.138	11943.05
546.503	11983.95
546.867	11890.39
547.231	11972.2
547.595	11971.3
547.959	11894.01
548.324	11832.99
548.688	11853.11
549.052	11785.54
549.416	11796.61
549.779	11712.32
550.143	11745.09
550.507	11749.61
550.871	11690.85
551.235	11697.86
551.599	11664.18
551.962	11711.87
552.326	11726.56
552.689	11663.73
553.053	11527.01
553.417	11550.06
553.78	11666.9
554.143	11544.64
554.507	11609.72
554.87	11468.03
555.234	11573.34
555.597	11472.33
555.96	11477.75
556.323	11556.39
556.686	11522.72
557.05	11509.84
557.413	11430.07
557.776	11559.78
558.139	11484.3
558.502	11512.55
558.865	11511.42
559.228	11540.8
559.59	11529.73
559.953	11454.02
560.316	11599.55
560.679	11466
561.041	11483.17
561.404	11562.94
561.767	11584.41
562.129	11503.96
562.492	11549.61
562.854	11564.98
563.217	11527.69
563.579	11497.64
563.941	11503.29
564.304	11516.39
564.666	11652.43
565.028	11616.95
565.39	11611.76
565.753	11747.57
566.115	11689.95
566.477	11676.84
566.839	11628.71
567.201	11691.98
567.563	11622.38
567.925	11705.99
568.287	11747.57
568.648	11749.83
569.01	11730.62
569.372	11811.75
569.734	11649.95
570.095	11751.19
570.457	11806.1
570.819	11837.06
571.18	11829.15
571.542	11846.1
571.903	11839.1
572.265	11887.23
572.626	11910.51
572.987	11877.51
573.349	11911.64
573.71	11920
574.071	11951.18
574.432	11961.8
574.794	12117.28
575.155	11998.19
575.516	12024.85
575.877	11941.47
576.238	11957.74
576.599	12051.29
576.96	11970.17
577.32	12021.01
577.681	12006.55
578.042	12060.56
578.403	12037.06
578.763	12034.57
579.124	12055.14
579.485	12082.7
579.845	12107.56
580.206	11971.52
580.566	11995.02
580.927	11981.69
581.287	12070.73
581.648	12005.19
582.008	12008.81
582.368	11937.85
582.728	12046.55
583.089	12056.72
583.449	12017.62
583.809	12104.17
584.169	12066.43
584.529	11992.76
584.889	12169.48
585.249	12069.37
585.609	12003.84
585.969	11978.07
586.329	11935.82
586.688	11952.76
587.048	12088.35
587.408	11923.84
587.768	11894.69
588.127	11895.82
588.487	11906.66
588.846	11986.44
589.206	11875.25
589.565	11854.46
589.925	11951.86
590.284	11867.34
590.643	11859.89
591.003	11960.45
591.362	11881.58
591.721	11920.45
592.08	11900.11
592.44	11958.19
592.799	11871.64
593.158	11842.26
593.517	11901.92
593.876	11901.01
594.235	11834.58
594.593	11867.34
594.952	11873.22
595.311	11813.33
595.67	11806.1
596.029	11853.78
596.387	11877.74
596.746	11891.3
597.104	11786.67
597.463	11786.22
597.822	11791.64
598.18	11728.82
598.538	11866.89
598.897	11816.27
599.255	11818.31
599.613	11952.31
599.972	11894.24
600.33	11830.06
600.688	11798.19
601.046	11843.39
601.404	11858.08
601.762	11877.29
602.12	11907.57
602.478	11780.79
602.836	11863.5
603.194	11802.71
603.552	11811.07
603.91	11763.84
604.268	11885.65
604.625	11771.3
604.983	11874.8
605.341	11805.2
605.698	11826.44
606.056	11810.4
606.413	11834.58
606.771	11877.96
607.128	11860.56
607.485	11817.63
607.843	11793
608.2	11921.58
608.557	11925.65
608.914	11868.93
609.272	11940.56
609.629	11912.54
609.986	11925.65
610.343	11890.39
610.7	12003.16
611.057	11965.42
611.414	12019.2
611.771	11984.18
612.127	12030.73
612.484	12040.45
612.841	12056.49
613.198	12049.94
613.554	12001.13
613.911	12010.84
614.267	12040.9
614.624	11994.35
614.98	12118.18
615.337	12001.8
615.693	12045.87
616.05	12118.64
616.406	12101.01
616.762	12021.01
617.118	12067.11
617.475	12105.53
617.831	12135.58
618.187	12123.61
618.543	12166.32
618.899	12132.65
619.255	12165.64
619.611	12227.11
619.967	12174
620.323	12219.42
620.678	12104.63
621.034	12145.53
621.39	12176.49
621.746	12076.15
622.101	12223.04
622.457	12119.09
622.812	12104.85
623.168	12168.58
623.523	12194.57
623.879	12261.46
624.234	12142.82
624.589	12139.43
624.945	12167
625.3	12221.68
625.655	12251.74
626.01	12229.37
626.365	12258.52
626.72	12164.06
627.075	12244.28
627.43	12235.02
627.785	12101.24
628.14	12148.47
628.495	12158.86
628.85	12106.43
629.205	12077.06
629.559	12148.92
629.914	12101.69
630.269	12151.18
630.623	12058.75
630.978	12074.12
631.332	12019.66
631.687	12044.29
632.041	12060.33
632.396	12041.8
632.75	11977.62
633.104	12041.12
633.459	11956.15
633.813	12009.26
634.167	11979.66
634.521	12021.01
634.875	11922.94
635.229	11960.9
635.583	11906.21
635.937	11884.97
636.291	11862.15
636.645	11881.58
636.999	11840.68
637.352	11804.52
637.706	11788.93
638.06	11841.13
638.413	11824.63
638.767	11804.97
639.121	11845.65
639.474	11728.59
639.828	11757.29
640.181	11837.97
640.534	11727.01
640.888	11737.86
641.241	11683.17
641.594	11743.05
641.947	11706.44
642.301	11762.26
642.654	11654.47
643.007	11729.72
643.36	11695.6
643.713	11705.09
644.066	11669.61
644.419	11637.52
644.771	11622.38
645.124	11486.11
645.477	11395.49
645.83	11336.28
646.182	11336.96
646.535	11219.9
646.888	11242.73
647.24	11255.61
647.593	11270.97
647.945	11294.7
648.298	11192.33
648.65	11163.63
649.002	11173.35
649.355	11170.64
649.707	11223.07
650.059	11273.01
650.411	11384.64
650.763	11422.84
651.115	11519.1
651.467	11551.87
651.819	11520.23
652.171	11465.77
652.523	11428.94
652.875	11454.25
653.227	11381.71
653.578	11554.13
653.93	11554.58
654.282	11446.34
654.633	11510.29
654.985	11496.73
655.337	11481.82
655.688	11458.77
656.039	11472.78
656.391	11429.61
656.742	11415.15
657.094	11452.89
657.445	11488.37
657.796	11453.57
658.147	11402.5
658.498	11443.4
658.849	11414.25
659.2	11440.69
659.551	11433.23
659.902	11477.3
660.253	11460.12
660.604	11524.75
660.955	11534.24
661.306	11544.64
661.656	11395.04
662.007	11503.06
662.358	11453.34
662.708	11518.88
663.059	11412.89
663.409	11398.2
663.76	11454.25
664.11	11458.54
664.461	11509.61
664.811	11525.21
665.161	11483.17
665.511	11481.82
665.862	11501.93
666.212	11515.04
666.562	11453.79
666.912	11541.25
667.262	11444.98
667.612	11482.04
667.962	11492.66
668.312	11496.96
668.662	11554.13
669.011	11518.88
669.361	11492.66
669.711	11510.29
670.06	11401.82
670.41	11448.37
670.76	11394.81
671.109	11483.17
671.459	11464.64
671.808	11461.48
672.157	11382.61
672.507	11374.25
672.856	11346
673.205	11328.37
673.554	11414.25
673.904	11413.34
674.253	11425.32
674.602	11421.25
674.951	11239.11
675.3	11165.67
675.649	11389.39
675.998	11307.81
676.346	11338.32
676.695	11422.61
677.044	11264.65
677.393	11353.01
677.741	11313.69
678.09	11234.14
678.438	11278.21
678.787	11232.33
679.135	11306
679.484	11258.32
679.832	11134.03
680.181	11159.11
680.529	11143.97
680.877	11117.98
681.225	11100.58
681.573	11130.64
681.922	11059.45
682.27	10994.37
682.618	11026.91
682.966	11026.01
683.314	11026.91
683.661	11023.98
684.009	10930.87
684.357	10997.08
684.705	10848.39
685.053	10899.91
685.4	10878.89
685.748	10825.34
686.095	10781.95
686.443	10748.73
686.79	10736.98
687.138	10784.89
687.485	10775.17
687.832	10734.72
688.18	10732.91
688.527	10679.8
688.874	10610.2
689.221	10615.62
689.568	10587.15
689.915	10605
690.262	10565.91
690.609	10552.12
690.956	10479.36
691.303	10433.93
691.65	10473.26
691.997	10353.26
692.344	10334.05
692.69	10277.1
693.037	10292.92
693.383	10241.62
693.73	10387.61
694.077	10139.93
694.423	10156.43
694.769	10112.59
695.116	10120.27
695.462	10074.4
695.808	9993.49
696.155	10016.54
696.501	9960.27
696.847	9978.81
697.193	9869.2
697.539	9969.77
697.885	9826.72
698.231	9792.14
698.577	9762.09
698.923	9783.33
699.269	9651.13
699.614	9613.84
699.96	9715.54
700.306	9634.18
700.651	9570.23
700.997	9536.78
701.342	9501.98
701.688	9486.16
702.033	9443.23
702.379	9442.77
702.724	9375.43
703.069	9429.67
703.415	9323.46
703.76	9272.38
704.105	9400.74
704.45	9250.24
704.795	9203.01
705.14	9199.39
705.485	9186.51
705.83	9102.44
706.175	9177.47
706.52	9029.9
706.865	9057.02
707.209	9029.9
707.554	8950.36
707.899	8994.88
708.243	8913.52
708.588	8960.08
708.932	8827.2
709.277	8792.17
709.621	8860.42
709.966	8843.69
710.31	8818.84
710.654	8719.86
710.998	8713.98
711.342	8705.84
711.687	8654.32
712.031	8602.8
712.375	8627.43
712.719	8713.3
713.063	8661.1
713.407	8674.88
713.75	8607.54
714.094	8595.79
714.438	8544.27
714.782	8587.2
715.125	8513.31
715.469	8532.52
715.812	8464.27
716.156	8454.33
716.499	8459.98
716.843	8444.38
717.186	8476.47
717.53	8390.15
717.873	8433.31
718.216	8397.15
718.559	8435.12
718.902	8324.39
719.246	8404.38
719.589	8308.11
719.932	8265.86
720.275	8362.12
720.617	8319.41
720.96	8309.02
721.303	8271.05
721.646	8296.14
721.989	8257.95
722.331	8210.49
722.674	8241.9
723.016	8279.64
723.359	8266.53
723.701	8242.35
724.044	8189.02
724.386	8178.4
724.729	8185.18
725.071	8177.27
725.413	8171.85
725.755	8132.98
726.097	8152.41
726.439	8146.76
726.782	8109.7
727.124	8116.03
727.465	8050.27
727.807	8064.73
728.149	8072.64
728.491	8052.53
728.833	8138.4
729.175	8075.13
729.516	8008.91
729.858	8071.74
730.199	8030.61
730.541	8071.28
730.882	8051.4
731.224	8089.36
731.565	8027.22
731.906	8059.53
732.248	8108.57
732.589	8035.13
732.93	7988.35
733.271	8032.64
733.612	8003.04
733.953	8035.35
734.294	8006.88
734.635	8008.24
734.976	8042.13
735.317	8005.52
735.658	8019.31
735.999	8057.73
736.339	8001.23
736.68	8027.22
737.021	8015.92
737.361	8003.26
737.702	8085.07
738.042	8075.35
738.383	8111.06
738.723	8060.89
739.063	8099.08
739.404	8130.49
739.744	8078.74
740.084	8132.07
740.424	8068.8
740.764	8025.64
741.104	8121.91
741.444	8117.84
741.784	8156.25
742.124	8158.74
742.464	8154.9
742.804	8153.54
743.143	8201.23
743.483	8231.05
743.823	8134.79
744.162	8173.2
744.502	8217.5
744.841	8244.61
745.181	8343.37
745.52	8284.39
745.86	8354.44
746.199	8351.73
746.538	8292.07
746.877	8420.2
747.216	8446.64
747.556	8497.04
747.895	8491.39
748.234	8548.33
748.573	8573.19
748.911	8646.41
749.25	8729.35
749.589	8697.48
749.928	8795.79
750.267	8854.54
750.605	8878.95
750.944	8956.01
751.283	8947.87
751.621	9106.29
751.96	9167.75
752.298	9249.11
752.636	9323.46
752.975	9396.9
753.313	9490.46
753.651	9638.48
753.989	9593.05
754.327	9771.35
754.666	9802.31
755.004	9962.99
755.342	10026.71
755.679	10138.12
756.017	10174.96
756.355	10360.94
756.693	10473.71
757.031	10612.24
757.368	10648.62
757.706	10779.01
758.044	10862.4
758.381	11041.83
758.719	11174.25
759.056	11262.16
759.394	11321.14
759.731	11495.6
760.068	11676.39
760.405	11750.74
760.743	11913.44
761.08	12051.75
761.417	12130.84
761.754	12343.94
762.091	12409.93
762.428	12520.66
762.765	12651.96
763.102	12865.74
763.438	12935.34
763.775	13056.24
764.112	13194.09
764.449	13376.23
764.785	13444.03
765.122	13420.07
765.458	13617.58
765.795	13734.41
766.131	13910
766.467	13930.79
766.804	14059.83
767.14	14130.79
767.476	14297.34
767.812	14424.34
768.148	14545.01
768.485	14608.74
768.821	14586.82
769.157	14700.04
769.492	14820.26
769.828	15032.23
770.164	14915.17
770.5	15037.66
770.836	15141.61
771.171	15096.86
771.507	15338.66
771.842	15290.76
772.178	15403.97
772.513	15577.53
772.849	15545.89
773.184	15487.81
773.519	15711.76
773.855	15720.35
774.19	15747.47
774.525	15754.02
774.86	15920.12
775.195	15894.58
775.53	15872.44
775.865	15864.53
776.2	15927.12
776.535	15857.29
776.87	15989.72
777.205	15930.29
777.539	15989.72
777.874	16111.75
778.209	16045.31
778.543	16094.12
778.878	16032.66
779.212	16045.76
779.547	15975.48
779.881	16169.83
780.215	16038.31
780.55	16108.81
780.884	16099.1
781.218	16118.98
781.552	16147.23
781.886	16096.61
782.22	16052.54
782.554	16027.91
782.888	15910.63
783.222	15921.02
783.556	15984.75
783.889	15944.3
784.223	15877.63
784.557	15895.71
784.89	15991.08
785.224	15895.71
785.557	15863.85
785.891	15851.42
786.224	15808.48
786.558	15792.21
786.891	15693.46
787.224	15818.2
787.557	15700.69
787.891	15748.82
788.224	15678.54
788.557	15828.14
788.89	15665.21
789.223	15757.64
789.556	15575.27
789.888	15614.14
790.221	15531.2
790.554	15467.7
790.887	15567.81
791.219	15429.51
791.552	15447.36
791.884	15429.74
792.217	15391.54
792.549	15309.96
792.882	15300.7
793.214	15214.6
793.546	15224.09
793.879	15173.25
794.211	15096.86
794.543	15158.33
794.875	15150.65
795.207	15132.57
795.539	15039.69
795.871	15037.88
796.203	14950.2
796.535	14915.4
796.867	14887.6
797.198	14888.28
797.53	14967.37
797.862	14818.23
798.193	14783.65
798.525	14738.68
798.856	14756.76
799.188	14600.6
799.519	14554.28
799.85	14547.95
800.182	14547.72
800.513	14528.74
800.844	14388.41
801.175	14475.18
801.506	14432.47
801.837	14377.79
802.168	14330.1
802.499	14362.19
802.83	14267.05
803.161	14267.05
803.491	14186.6
803.822	14239.71
804.153	14177.11
804.483	13987.51
804.814	14080.17
805.145	13943.9
805.475	14064.12
805.805	13962.2
806.136	13981.19
806.466	13961.75
806.796	13933.73
807.126	13870.91
807.457	13783.68
807.787	13763.11
808.117	13789.55
808.447	13684.02
808.777	13736.67
809.107	13735.54
809.436	13637.24
809.766	13622.55
810.096	13569.45
810.426	13576
810.755	13554.76
811.085	13529.45
811.414	13500.29
811.744	13426.4
812.073	13358.38
812.403	13368.77
812.732	13272.28
813.061	13335.33
813.39	13242
813.719	13265.95
814.049	13339.4
814.378	13193.86
814.707	13229.12
815.036	13104.15
815.365	13114.32
815.693	12982.57
816.022	13023.7
816.351	13044.49
816.68	12898.5
817.008	12979.86
817.337	12823.93
817.665	12908.9
817.994	12869.8
818.322	12826.64
818.651	12755.68
818.979	12723.82
819.307	12796.81
819.636	12791.16
819.964	12690.37
820.292	12775.79
820.62	12751.61
820.948	12725.17
821.276	12674.1
821.604	12675.23
821.932	12615.12
822.259	12724.5
822.587	12670.94
822.915	12557.27
823.243	12637.49
823.57	12656.7
823.898	12655.57
824.225	12621.67
824.553	12622.13
824.88	12681.79
825.207	12696.47
825.535	12566.99
825.862	12612.18
826.189	12610.83
826.516	12747.32
826.843	12752.52
827.17	12744.61
827.497	12754.33
827.824	12728.56
828.151	12697.15
828.478	12694.44
828.805	12710.26
829.131	12642.69
829.458	12701.9
829.785	12602.01
830.111	12708.9
830.438	12741.22
830.764	12689.69
831.09	12700.54
831.417	12629.81
831.743	12703.25
832.069	12700.77
832.395	12573.99
832.722	12664.61
833.048	12656.02
833.374	12624.16
833.7	12599.98
834.026	12550.04
834.351	12575.12
834.677	12537.83
835.003	12566.99
835.329	12511.85
835.654	12534.22
835.98	12520.21
836.306	12553.2
836.631	12470.04
836.956	12494.9
837.282	12408.57
837.607	12430.04
837.932	12334.68
838.258	12445.63
838.583	12379.19
838.908	12305.3
839.233	12307.78
839.558	12248.12
839.883	12319.53
840.208	12228.01
840.533	12231.18
840.858	12255.58
841.182	12231.85
841.507	12164.51
841.832	12131.97
842.156	12160.89
842.481	12099.2
842.805	12123.61
843.13	12107.11
843.454	12009.94
843.778	12018.75
844.103	11952.31
844.427	12012.42
844.751	11981.01
845.075	11887
845.399	11948.7
845.723	11747.35
846.047	11862.82
846.371	11738.08
846.695	11757.06
847.019	11596.84
847.343	11623.51
847.666	11518.2
847.99	11518.2
848.313	11548.48
848.637	11373.57
848.96	11426
849.284	11353.91
849.607	11302.61
849.931	11279.11
850.254	11171.77
850.577	11099.23
850.9	11077.76
851.223	10993.92
851.546	10969.51
851.869	10973.58
852.192	11006.12
852.515	10859.46
852.838	10854.94
853.161	10819.46
853.483	10728.39
853.806	10732.68
854.129	10766.58
854.451	10679.8
854.774	10559.13
855.096	10548.51
855.419	10613.59
855.741	10554.84
856.063	10518.23
856.385	10424.44
856.708	10383.09
857.03	10370.89
857.352	10371.79
857.674	10349.64
857.996	10301.51
858.318	10287.05
858.64	10212.25
858.961	10219.7
859.283	10180.16
859.605	10127.5
859.926	10148.29
860.248	10165.69
860.57	10070.78
860.891	10041.18
861.212	9978.58
861.534	10010.89
861.855	10057.22
862.176	10038.46
862.498	9943.1
862.819	9919.6
863.14	9941.97
863.461	9911.91
863.782	9853.38
864.103	9850.22
864.424	9845.93
864.745	9867.85
865.065	9775.42
865.386	9794.86
865.707	9795.53
866.027	9777.45
866.348	9741.52
866.668	9730.68
866.989	9686.16
867.309	9612.04
867.63	9633.05
867.95	9623.33
868.27	9584.01
868.59	9645.71
868.91	9622.66
869.23	9591.92
869.55	9523.9
869.87	9585.14
870.19	9524.58
870.51	9508.08
870.83	9489.78
871.15	9435.32
871.469	9491.36
871.789	9500.4
872.109	9492.04
872.428	9440.74
872.748	9446.62
873.067	9365.49
873.386	9430.35
873.706	9359.61
874.025	9326.85
874.344	9291.37
874.663	9372.49
874.982	9272.61
875.301	9342.21
875.62	9290.24
875.939	9276
876.258	9215.89
876.577	9273.74
876.896	9185.83
877.214	9202.55
877.533	9212.95
877.852	9203.46
878.17	9235.32
878.489	9104.93
878.807	9163.46
879.125	9103.8
879.444	9126.17
879.762	9163.23
880.08	9077.81
880.398	9004.14
880.716	9083.01
881.034	9030.13
881.352	9001.2
881.67	8942
881.988	9037.14
882.306	9024.71
882.624	8953.52
882.941	8944.71
883.259	8817.25
883.577	8844.37
883.894	8876.01
884.212	8824.94
884.529	8801.89
884.846	8773.64
885.164	8815.9
885.481	8770.93
885.798	8805.95
886.115	8668.33
886.432	8703.13
886.75	8675.34
887.067	8650.03
887.383	8688.22
887.7	8636.92
888.017	8534.32
888.334	8520.31
888.651	8519.18
888.967	8502.23
889.284	8499.75
889.6	8473.76
889.917	8441.22
890.233	8460.43
890.55	8416.36
890.866	8381.79
891.182	8341.11
891.498	8335.68
891.815	8316.48
892.131	8295.01
892.447	8283.48
892.763	8189.47
893.079	8158.29
893.395	8197.38
893.71	8152.64
894.026	8163.26
894.342	8110.15
894.657	8034.22
894.973	8048.69
895.289	8065.18
895.604	8072.41
895.92	7923.94
896.235	7925.07
896.55	7884.4
896.865	7904.06
897.181	7827.22
897.496	7802.82
897.811	7811.63
898.126	7797.85
898.441	7707.23
898.756	7694.57
899.071	7708.81
899.386	7718.07
899.7	7627
900.015	7563.05
900.33	7535.93
900.644	7563.05
900.959	7517.18
901.273	7468.36
901.588	7502.71
901.902	7460
902.216	7431.53
902.531	7427.01
902.845	7369.38
903.159	7365.77
903.473	7268.14
903.787	7289.84
904.101	7232.21
904.415	7221.36
904.729	7190.18
905.042	7128.94
905.356	7133.68
905.67	7097.3
905.984	7113.57
906.297	7037.64
906.611	6983.63
906.924	6992.67
907.237	6934.14
907.551	6954.7
907.864	6905.89
908.177	6936.63
908.491	6937.53
908.804	6856.63
909.117	6780.7
909.43	6790.64
909.743	6758.1
910.056	6769.4
910.368	6739.12
910.681	6665.67
910.994	6668.61
911.307	6584.54
911.619	6540.7
911.932	6641.49
912.244	6485.79
912.557	6561.04
912.869	6480.82
913.181	6467.94
913.494	6448.5
913.806	6396.53
914.118	6384.1
914.43	6325.34
914.742	6335.29
915.054	6299.81
915.366	6332.12
915.678	6298.22
915.99	6231.79
916.302	6196.08
916.613	6151.79
916.925	6189.75
917.236	6154.5
917.548	6142.07
917.859	6138.68
918.171	6077.67
918.482	6059.81
918.794	6012.58
919.105	6020.94
919.416	5943.88
919.727	5958.12
920.038	5917.9
920.349	5916.77
920.66	5884.45
920.971	5888.07
921.282	5851.46
921.593	5766.49
921.903	5815.75
922.214	5765.81
922.525	5753.61
922.835	5723.55
923.146	5699.82
923.456	5646.49
923.767	5607.62
924.077	5674.06
924.387	5595.19
924.697	5611.24
925.008	5618.47
925.318	5503.22
925.628	5542.99
925.938	5485.82
926.248	5441.07
926.558	5434.29
926.867	5410.11
927.177	5392.94
927.487	5375.76
927.796	5309.78
928.106	5300.51
928.416	5318.81
928.725	5288.53
929.034	5243.11
929.344	5280.62
929.653	5243.79
929.962	5199.04
930.271	5185.49
930.581	5202.43
930.89	5138.03
931.199	5099.39
931.508	5069.33
931.817	5139.38
932.125	5073.62
932.434	5014.64
932.743	4979.61
933.051	4978.26
933.36	4956.11
933.669	4934.42
933.977	4899.16
934.286	4898.71
934.594	4885.38
934.902	4825.95
935.21	4849.22
935.519	4817.13
935.827	4839.28
936.135	4794.31
936.443	4761.54
936.751	4747.76
937.059	4750.92
937.367	4736.46
937.674	4679.74
937.982	4697.14
938.29	4638.38
938.597	4620.53
938.905	4576.24
939.213	4612.39
939.52	4564.26
939.827	4590.7
940.135	4530.36
940.442	4510.25
940.749	4522
941.056	4537.82
941.363	4450.82
941.67	4432.51
941.977	4412.4
942.284	4347.54
942.591	4398.39
942.898	4376.24
943.205	4376.01
943.511	4337.82
943.818	4316.81
944.125	4270.93
944.431	4281.78
944.738	4258.5
945.044	4229.13
945.35	4213.76
945.657	4164.72
945.963	4182.35
946.269	4170.14
946.575	4164.95
946.881	4146.19
947.187	4134.44
947.493	4124.27
947.799	4101.9
948.105	4055.35
948.41	3995.91
948.716	4027.32
949.022	4009.24
949.327	4002.01
949.633	3953.88
949.938	3989.58
950.244	3960.21
950.549	3927.44
950.854	3922.47
951.16	3867.1
951.465	3882.02
951.77	3898.97
952.075	3877.27
952.38	3818.97
952.685	3837.05
952.99	3828.46
953.294	3819.87
953.599	3759.08
953.904	3712.08
954.209	3741.91
954.513	3750.95
954.818	3703.04
955.122	3667.33
955.426	3648.35
955.731	3648.8
956.035	3620.55
956.339	3611.06
956.643	3618.75
956.948	3568.58
957.252	3528.81
957.556	3553.21
957.86	3545.3
958.163	3516.15
958.467	3505.53
958.771	3501.69
959.075	3488.13
959.378	3497.39
959.682	3476.15
959.985	3461.69
960.289	3416.72
960.592	3442.03
960.896	3412.2
961.199	3392.09
961.502	3426.44
961.805	3364.06
962.108	3310.28
962.411	3349.15
962.714	3330.39
963.017	3317.74
963.32	3298.76
963.623	3293.56
963.926	3293.11
964.228	3231.64
964.531	3232.77
964.833	3252.88
965.136	3214.69
965.438	3161.81
965.741	3215.82
966.043	3165.65
966.345	3131.98
966.648	3141.02
966.95	3135.6
967.252	3107.57
967.554	3127.01
967.856	3100.34
968.158	3069.61
968.46	3073.68
968.761	3063.51
969.063	3023.28
969.365	2991.87
969.666	3035.71
969.968	3010.4
970.269	2995.94
970.571	2973.34
970.872	2961.14
971.174	2962.94
971.475	2910.29
971.776	2940.8
972.077	2893.12
972.378	2902.61
972.679	2859.9
972.98	2842.04
973.281	2867.13
973.582	2837.3
973.883	2845.21
974.183	2818.09
974.484	2843.4
974.785	2779.67
975.085	2786.9
975.386	2772.22
975.686	2775.83
975.986	2753.01
976.287	2736.51
976.587	2700.8
976.887	2714.59
977.187	2698.77
977.487	2723.18
977.787	2692.44
978.087	2662.39
978.387	2640.02
978.687	2628.49
978.987	2660.35
979.286	2631.43
979.586	2615.16
979.885	2584.2
980.185	2589.4
980.484	2542.84
980.784	2562.05
981.083	2546.68
981.382	2543.75
981.682	2546.01
981.981	2498.32
982.28	2506.01
982.579	2524.76
982.878	2518.89
983.177	2478.21
983.475	2466.46
983.774	2465.78
984.073	2464.88
984.372	2433.02
984.67	2433.69
984.969	2409.06
985.267	2409.29
985.566	2396.63
985.864	2394.15
986.162	2372.23
986.461	2371.32
986.759	2372
987.057	2344.88
987.355	2334.03
987.653	2301.72
987.951	2315.96
988.249	2293.13
988.547	2275.73
988.844	2296.75
989.142	2273.92
989.44	2239.8
989.737	2250.65
990.035	2235.96
990.332	2256.52
990.63	2202.29
990.927	2230.99
991.224	2167.71
991.521	2205.9
991.819	2191.89
992.116	2161.84
992.413	2185.34
992.71	2146.47
993.006	2152.8
993.303	2156.86
993.6	2142.63
993.897	2127.71
994.193	2098.33
994.49	2108.5
994.787	2079.8
995.083	2085.68
995.379	2072.12
995.676	2044.1
995.972	2049.52
996.268	2016.3
996.565	2030.77
996.861	2036.64
997.157	2002.74
997.453	1988.73
997.749	1974.95
998.044	1976.53
998.34	1963.65
998.636	1953.48
998.932	1902.18
999.227	1939.69
999.523	1939.92
999.818	1911.45
1000.114	1904.89
1000.409	1900.83
1000.704	1861.05
1001	1862.41
1001.295	1868.51
1001.59	1864.44
1001.885	1881.84
1002.18	1835.97
1002.475	1816.53
1002.77	1835.74
1003.065	1809.98
1003.359	1811.34
1003.654	1779.02
1003.949	1803.43
1004.243	1771.56
1004.538	1756.42
1004.832	1736.31
1005.127	1752.58
1005.421	1729.98
1005.715	1732.92
1006.009	1701.73
1006.304	1727.72
1006.598	1714.84
1006.892	1683.43
1007.186	1673.04
1007.48	1688.63
1007.773	1676.2
1008.067	1628.29
1008.361	1651.57
1008.655	1639.36
1008.948	1611.34
1009.242	1596.43
1009.535	1617.9
1009.829	1597.1
1010.122	1593.49
1010.415	1569.54
1010.708	1573.83
1011.001	1558.46
1011.295	1556.88
1011.588	1558.01
1011.881	1544.68
1012.173	1529.76
1012.466	1522.08
1012.759	1511.46
1013.052	1518.24
1013.344	1511.23
1013.637	1478.92
1013.93	1457.67
1014.222	1477.11
1014.514	1451.8
1014.807	1446.37
1015.099	1425.36
1015.391	1438.92
1015.683	1440.5
1015.976	1420.84
1016.268	1416.77
1016.56	1409.54
1016.851	1386.71
1017.143	1356.66
1017.435	1390.1
1017.727	1403.44
1018.018	1362.31
1018.31	1340.84
1018.602	1328.41
1018.893	1332.25
1019.185	1356.21
1019.476	1315.53
1019.767	1318.02
1020.058	1300.84
1020.35	1301.29
1020.641	1288.41
1020.932	1293.61
1021.223	1284.12
1021.514	1252.71
1021.804	1243.67
1022.095	1222.65
1022.386	1266.04
1022.677	1239.83
1022.967	1243.67
1023.258	1207.51
1023.548	1195.53
1023.839	1202.31
1024.129	1195.53
1024.419	1206.61
1024.709	1164.35
1025	1157.57
1025.29	1176.78
1025.58	1167.06
1025.87	1163.22
1026.16	1143.33
1026.449	1149.21
1026.739	1127.06
1027.029	1127.96
1027.319	1133.61
1027.608	1100.62
1027.898	1127.29
1028.187	1097.23
1028.477	1098.81
1028.766	1077.8
1029.055	1083.22
1029.344	1053.39
1029.634	1067.4
1029.923	1053.16
1030.212	1038.93
1030.501	1042.54
1030.79	1028.08
1031.078	1013.39
1031.367	1023.79
1031.656	1025.14
1031.945	988.53
1032.233	1012.71
1032.522	993.96
1032.81	974.3
1033.099	999.83
1033.387	998.02
1033.675	993.28
1033.963	967.52
1034.251	963.9
1034.54	926.39
1034.828	970.91
1035.116	935.88
1035.403	925.71
1035.691	947.63
1035.979	943.34
1036.267	916.44
1036.554	929.33
1036.842	916.67
1037.129	898.82
1037.417	899.27
1037.704	904.69
1037.992	852.72
1038.279	899.95
1038.566	877.58
1038.853	877.58
1039.14	877.58
