Data from hue_26_FLMS001491_00051.txt Node
Date: Tue Feb 07 17:14:11 GMT 2017
User: dcchb
Spectrometer: FLMS00149
Trigger mode: 0
Integration Time (sec): 2.000000E-2
Scans to average: 10
Electric dark correction enabled: true
Nonlinearity correction enabled: false
Boxcar width: 0
XAxis mode: Wavelengths
Number of Pixels in Spectrum: 2048
>>>>>Begin Spectral Data<<<<<
341.393	-8.25
341.776	-8.25
342.16	-8.25
342.543	-66.55
342.927	-78.08
343.31	-71.3
343.693	-73.56
344.077	-68.13
344.46	-46.89
344.843	-73.11
345.226	-30.85
345.61	-0.79
345.993	-15.03
346.376	-27.68
346.759	15.71
347.142	17.29
347.525	46.21
347.908	56.38
348.291	70.17
348.674	93.9
349.057	107.68
349.44	117.4
349.823	141.35
350.206	170.28
350.588	189.03
350.971	204.4
351.354	226.55
351.737	243.5
352.119	223.16
352.502	264.06
352.884	285.76
353.267	271.29
353.65	278.75
354.032	296.6
354.414	309.94
354.797	308.35
355.179	322.14
355.562	306.32
355.944	330.27
356.326	323.72
356.709	313.33
357.091	328.47
357.473	352.87
357.855	348.8
358.238	338.18
358.62	357.39
359.002	328.01
359.384	327.11
359.766	352.42
360.148	327.56
360.53	333.89
360.912	332.31
361.294	360.56
361.676	326.66
362.057	340.22
362.439	322.82
362.821	357.39
363.203	323.95
363.584	341.12
363.966	335.47
364.348	312.65
364.729	310.84
365.111	310.84
365.493	333.66
365.874	327.56
366.256	312.2
366.637	311.74
367.019	322.82
367.4	330.05
367.781	314
368.163	328.24
368.544	303.83
368.925	299.31
369.306	313.1
369.688	327.34
370.069	330.05
370.45	318.52
370.831	326.66
371.212	321.01
371.593	305.19
371.974	311.29
372.355	333.44
372.736	316.94
373.117	325.98
373.498	330.73
373.879	326.66
374.26	303.83
374.641	307
375.021	301.8
375.402	326.21
375.783	337.51
376.163	318.75
376.544	327.79
376.925	333.66
377.305	320.33
377.686	344.74
378.066	334.57
378.447	358.07
378.827	340.44
379.208	351.52
379.588	354.91
379.968	329.82
380.349	313.78
380.729	340.22
381.109	329.14
381.489	341.12
381.87	322.82
382.25	342.48
382.63	335.92
383.01	347.45
383.39	351.29
383.77	333.44
384.15	344.28
384.53	337.96
384.91	353.32
385.29	351.06
385.67	345.64
386.049	337.51
386.429	340.44
386.809	355.58
387.189	357.84
387.568	369.14
387.948	352.19
388.328	394.9
388.707	363.27
389.087	341.12
389.466	362.82
389.846	373.66
390.225	363.27
390.605	377.73
390.984	368.69
391.363	365.53
391.743	356.49
392.122	356.49
392.501	388.35
392.881	370.5
393.26	379.76
393.639	371.18
394.018	365.3
394.397	390.61
394.776	381.35
395.155	382.48
395.534	391.52
395.913	389.03
396.292	399.88
396.671	399.2
397.05	408.24
397.429	403.04
397.808	394.68
398.186	400.55
398.565	405.53
398.944	383.38
399.323	399.2
399.701	385.19
400.08	382.02
400.458	390.61
400.837	388.13
401.215	398.75
401.594	392.19
401.972	391.52
402.351	412.08
402.729	411.85
403.107	392.19
403.486	440.78
403.864	423.6
404.242	433.1
404.62	393.1
404.999	424.06
405.377	412.98
405.755	431.29
406.133	406.88
406.511	430.84
406.889	449.59
407.267	430.84
407.645	434.9
408.023	425.86
408.401	457.95
408.779	423.15
409.156	434.68
409.534	427.67
409.912	455.47
410.29	491.63
410.667	453.66
411.045	484.39
411.422	439.2
411.8	483.04
412.178	456.6
412.555	474.9
412.933	480.33
413.31	459.76
413.687	483.94
414.065	483.04
414.442	465.19
414.819	504.73
415.197	511.51
415.574	493.21
415.951	505.41
416.328	501.57
416.705	490.04
417.082	505.41
417.46	524.17
417.837	518.52
418.214	494.34
418.591	535.69
418.967	502.92
419.344	505.41
419.721	498.18
420.098	514.45
420.475	533.21
420.852	544.28
421.228	534.79
421.605	536.6
421.982	535.24
422.358	529.82
422.735	534.79
423.111	555.58
423.488	561.91
423.864	559.19
424.241	549.93
424.617	566.43
424.994	554.22
425.37	569.14
425.746	556.93
426.123	556.03
426.499	572.53
426.875	593.32
427.251	592.87
427.627	582.92
428.003	590.38
428.379	613.2
428.756	588.8
429.132	611.62
429.507	622.47
429.883	610.94
430.259	620.66
430.635	630.15
431.011	634.67
431.387	635.58
431.763	651.85
432.138	658.17
432.514	662.47
432.89	645.97
433.265	655.46
433.641	671.96
434.016	672.19
434.392	676.25
434.767	690.94
435.143	692.75
435.518	678.74
435.894	702.02
436.269	712.64
436.644	725.07
437.02	721.45
437.395	725.07
437.77	746.08
438.145	741.34
438.52	726.42
438.895	740.43
439.271	736.14
439.646	764.39
440.021	768.91
440.395	756.25
440.77	766.87
441.145	789.7
441.52	783.37
441.895	770.26
442.27	793.76
442.645	783.37
443.019	788.34
443.394	785.86
443.769	790.37
444.143	787.66
444.518	815.46
444.892	794.89
445.267	815.46
445.641	803.48
446.016	831.05
446.39	841.22
446.764	844.84
447.139	844.16
447.513	848.23
447.887	832.63
448.262	829.02
448.636	845.97
449.01	869.92
449.384	862.92
449.758	851.62
450.132	886.19
450.506	858.4
450.88	859.75
451.254	913.54
451.628	899.75
452.002	909.24
452.376	903.82
452.75	923.7
453.123	884.61
453.497	958.96
453.871	940.88
454.244	952.86
454.618	951.5
454.992	963.03
455.365	993.53
455.739	984.27
456.112	993.53
456.486	996.92
456.859	1017.49
457.232	1007.77
457.606	1037.83
457.979	1036.7
458.352	1044.15
458.725	1043.7
459.099	1067.2
459.472	1090.93
459.845	1095
460.218	1120.31
460.591	1114.43
460.964	1131.83
461.337	1152.4
461.71	1145.39
462.083	1171.16
462.456	1199.18
462.829	1191.27
463.201	1172.51
463.574	1183.81
463.947	1197.14
464.32	1273.53
464.692	1254.09
465.065	1263.58
465.438	1296.58
465.81	1269.91
466.183	1283.92
466.555	1313.3
466.928	1339.74
467.3	1339.06
467.672	1371.15
468.045	1419.96
468.417	1383.35
468.789	1407.99
469.161	1423.13
469.534	1438.72
469.906	1457.93
470.278	1494.76
470.65	1494.09
471.022	1508.1
471.394	1553.52
471.766	1555.33
472.138	1571.15
472.51	1596.23
472.882	1672.61
473.253	1679.62
473.625	1674.65
473.997	1708.99
474.369	1740.18
474.74	1756.45
475.112	1807.3
475.484	1831.93
475.855	1844.58
476.227	1842.1
476.598	1919.16
476.97	1924.81
477.341	1976.56
477.713	2022.88
478.084	2041.42
478.455	2090.68
478.827	2115.99
479.198	2176.78
479.569	2181.3
479.94	2254.74
480.311	2283.22
480.682	2303.1
481.053	2395.76
481.424	2417.68
481.795	2473.95
482.166	2490.22
482.537	2534.28
482.908	2591.23
483.279	2651.12
483.65	2701.06
484.021	2756.65
484.391	2758.91
484.762	2802.3
485.133	2836.42
485.503	2934.5
485.874	2988.73
486.244	3054.04
486.615	3114.38
486.985	3120.93
487.356	3201.61
487.726	3203.87
488.097	3325.22
488.467	3326.81
488.837	3388.72
489.207	3410.64
489.578	3524.31
489.948	3583.75
490.318	3578.32
490.688	3634.37
491.058	3673.91
491.428	3755.95
491.798	3782.16
492.168	3852.67
492.538	3891.76
492.908	3940.35
493.278	3967.69
493.648	4017.41
494.017	4055.83
494.387	4131.76
494.757	4167.69
495.126	4251.98
495.496	4223.05
495.866	4312.77
496.235	4309.6
496.605	4334.91
496.974	4393.22
497.344	4458.75
497.713	4485.87
498.082	4529.03
498.452	4560.45
498.821	4610.84
499.19	4627.11
499.559	4682.93
499.928	4727.67
500.298	4731.06
500.667	4789.37
501.036	4814.9
501.405	4852.19
501.774	4846.09
502.143	4902.36
502.512	4930.6
502.88	4962.92
503.249	4968.57
503.618	5036.36
503.987	5060.77
504.356	5109.81
504.724	5103.03
505.093	5110.49
505.462	5105.97
505.83	5143.03
506.199	5206.53
506.567	5259.18
506.936	5254.44
507.304	5349.58
507.672	5353.64
508.041	5391.84
508.409	5420.08
508.777	5423.47
509.145	5509.12
509.514	5482.45
509.882	5494.88
510.25	5550.93
510.618	5622.79
510.986	5602.45
511.354	5643.13
511.722	5735.56
512.09	5698.72
512.458	5688.33
512.826	5761.09
513.193	5772.16
513.561	5780.53
513.929	5841.99
514.297	5860.98
514.664	5896.91
515.032	5918.38
515.4	5948.66
515.767	5956.57
516.135	5993.63
516.502	5940.75
516.869	6068.43
517.237	6032.27
517.604	6027.53
517.972	6153.17
518.339	6151.14
518.706	6129.44
519.073	6175.77
519.44	6177.13
519.808	6251.47
520.175	6227.75
520.542	6333.51
520.909	6362.21
521.276	6344.13
521.643	6404.46
522.009	6448.76
522.376	6446.27
522.743	6475.2
523.11	6590.22
523.477	6577.57
523.843	6683.33
524.21	6660.05
524.577	6700.28
524.943	6754.51
525.31	6743.66
525.676	6790.89
526.043	6861.63
526.409	6818.46
526.776	6933.94
527.142	6943.21
527.508	6956.09
527.874	7043.54
528.241	7083.32
528.607	7096.42
528.973	7174.61
529.339	7147.27
529.705	7204.44
530.071	7258.45
530.437	7302.97
530.803	7305.01
531.169	7351.78
531.535	7324.44
531.901	7407.6
532.267	7466.36
532.632	7473.59
532.998	7463.65
533.364	7559.69
533.73	7537.77
534.095	7632
534.461	7639.01
534.826	7726.24
535.192	7681.94
535.557	7764.2
535.923	7724.88
536.288	7747.71
536.653	7836.07
537.019	7846.69
537.384	7845.56
537.749	7910.87
538.114	7957.19
538.479	7951.77
538.845	8046.68
539.21	7996.06
539.575	8054.36
539.94	8126.45
540.305	8103.18
540.67	8174.81
541.034	8171.2
541.399	8218.88
541.764	8246.22
542.129	8303.4
542.494	8326
542.858	8322.15
543.223	8434.47
543.587	8378.65
543.952	8404.86
544.316	8453.45
544.681	8411.19
545.045	8523.5
545.41	8643.28
545.774	8579.55
546.138	8599.89
546.503	8638.53
546.867	8608.93
547.231	8711.3
547.595	8762.82
547.959	8781.13
548.324	8775.93
548.688	8827.23
549.052	8857.28
549.416	8892.08
549.779	8955.81
550.143	8951.06
550.507	8935.02
550.871	9014.57
551.235	9041.68
551.599	9053.21
551.962	9120.33
552.326	9085.52
552.689	9217.05
553.053	9111.51
553.417	9182.7
553.78	9314.44
554.143	9223.37
554.507	9310.83
554.87	9330.04
555.234	9442.8
555.597	9330.94
555.96	9414.55
556.323	9499.07
556.686	9468.11
557.05	9490.26
557.413	9556.47
557.776	9649.35
558.139	9616.81
558.502	9739.07
558.865	9655.9
559.228	9775
559.59	9733.87
559.953	9762.12
560.316	9922.11
560.679	9893.41
561.041	9902.9
561.404	9980.87
561.767	10025.84
562.129	9996.91
562.492	10083.24
562.854	10023.13
563.217	10126.17
563.579	10121.65
563.941	10194.2
564.304	10189
564.666	10253.18
565.028	10275.78
565.39	10353.29
565.753	10339.73
566.115	10419.27
566.477	10442.78
566.839	10433.96
567.201	10583.79
567.563	10565.94
567.925	10643.9
568.287	10658.14
568.648	10667.4
569.01	10693.39
569.372	10841.86
569.734	10729.77
570.095	10847.29
570.457	10901.3
570.819	10941.29
571.18	11041.18
571.542	11102.65
571.903	11087.51
572.265	11126.15
572.626	11218.8
572.987	11187.84
573.349	11266.48
573.71	11292.25
574.071	11336.09
574.432	11409.08
574.794	11526.36
575.155	11593.48
575.516	11580.6
575.877	11731.1
576.238	11763.65
576.599	11864.43
576.96	11844.55
577.32	12005.45
577.681	12050.87
578.042	12203.41
578.403	12283.41
578.763	12293.12
579.124	12382.16
579.485	12513
579.845	12725.88
580.206	12803.39
580.566	12901.47
580.927	13001.35
581.287	13121.8
581.648	13293.55
582.008	13459.19
582.368	13576.48
582.728	13740.32
583.089	13922.68
583.449	13991.38
583.809	14303.47
584.169	14354.31
584.529	14455.78
584.889	14797.92
585.249	14905.03
585.609	14982.54
585.969	15371.01
586.329	15505.24
586.688	15690.55
587.048	15927.15
587.408	16128.05
587.768	16413.01
588.127	16599.45
588.487	16883.51
588.846	17155.14
589.206	17333.67
589.565	17625.64
589.925	17941.34
590.284	18024.5
590.643	18360.99
591.003	18691.37
591.362	18961.87
591.721	19233.96
592.08	19553.95
592.44	19795.52
592.799	20096.31
593.158	20459.91
593.517	20667.37
593.876	21024.64
594.235	21239.78
594.593	21503.95
594.952	21881.35
595.311	22136.03
595.67	22480.2
596.029	22851.26
596.387	23202.44
596.746	23505.48
597.104	23602.88
597.463	23982.31
597.822	24397.89
598.18	24521.73
598.538	24896.63
598.897	25215.04
599.255	25363.51
599.613	26081.46
599.972	26130.73
600.33	26475.12
600.688	26659.3
601.046	26946.52
601.404	27367.08
601.762	27554.19
602.12	28028.08
602.478	28269.65
602.836	28588.97
603.194	28636.2
603.552	28977.43
603.91	29105.79
604.268	29477.98
604.625	29736.05
604.983	30144.41
605.341	30151.86
605.698	30595.69
606.056	30811.96
606.413	31003.14
606.771	31376.01
607.128	31728.77
607.485	31714.76
607.843	32059.38
608.2	32447.4
608.557	32613.27
608.914	32654.17
609.272	33171.9
609.629	33447.37
609.986	33708.15
610.343	33720.81
610.7	34155.83
611.057	34181.14
611.414	34533.89
611.771	34610.5
612.127	34992.41
612.484	35122.58
612.841	35369.13
613.198	35431.05
613.554	35677.37
613.911	36042.56
614.267	36055.89
614.624	36292.72
614.98	36383.56
615.337	36791.24
615.693	36810.44
616.05	36941.06
616.406	37270.09
616.762	37246.59
617.118	37431.45
617.475	37727.71
617.831	37674.15
618.187	38006.12
618.543	38054.93
618.899	38338.31
619.255	38404.53
619.611	38476.84
619.967	38659.89
620.323	38906.89
620.678	38912.76
621.034	38877.51
621.39	38943.95
621.746	39135.81
622.101	39637.71
622.457	39320.89
622.812	39497.15
623.168	39739.18
623.523	39695.11
623.879	39967.2
624.234	39773.76
624.589	39957.93
624.945	40129.23
625.3	40293.97
625.655	40251.26
626.01	40376.68
626.365	40320.86
626.72	40461.2
627.075	40369.9
627.43	40481.53
627.785	40450.8
628.14	40643.34
628.495	40816.44
628.85	40907.74
629.205	40844.24
629.559	40947.96
629.914	40850.11
630.269	41008.3
630.623	40945.7
630.978	40966.04
631.332	41095.08
631.687	41221.63
632.041	41159.03
632.396	41178.92
632.75	41187.5
633.104	41223.89
633.459	41088.75
633.813	41167.62
634.167	41233.15
634.521	41131.46
634.875	41303.89
635.229	41317.22
635.583	41143.89
635.937	41155.64
636.291	41200.84
636.645	41106.38
636.999	41152.7
637.352	41225.24
637.706	41085.36
638.06	41177.34
638.413	41069.32
638.767	41158.13
639.121	41104.57
639.474	40942.09
639.828	40926.49
640.181	41050.11
640.534	41119.26
640.888	40932.6
641.241	40864.35
641.594	40952.71
641.947	41172.59
642.301	40881.07
642.654	41077.68
643.007	41115.42
643.36	40980.96
643.713	41043.1
644.066	41209.65
644.419	40842.43
644.771	40638.82
645.124	40318.15
645.477	40358.6
645.83	40072.51
646.182	39882.91
646.535	39930.36
646.888	39934.43
647.24	39686.08
647.593	39938.72
647.945	39787.77
648.298	39596.36
648.65	39629.13
649.002	39528.57
649.355	39682.01
649.707	39736.02
650.059	39722.91
650.411	40350.92
650.763	40400.18
651.115	40738.93
651.467	40649.67
651.819	40778.02
652.171	40646.05
652.523	40580.97
652.875	40564.7
653.227	40427.3
653.578	40497.58
653.93	40453.74
654.282	40386.62
654.633	40317.92
654.985	40362.67
655.337	40522.66
655.688	40392.95
656.039	40562.89
656.391	40312.73
656.742	40250.58
657.094	40378.03
657.445	40496.45
657.796	40313.18
658.147	40344.81
658.498	40221.65
658.849	40384.59
659.2	40368.32
659.551	40187.98
659.902	40341.43
660.253	40285.61
660.604	40291.03
660.955	40174.88
661.306	40282.67
661.656	40184.59
662.007	40146.85
662.358	40337.81
662.708	40304.82
663.059	40155.44
663.409	40013.52
663.76	40231.37
664.11	40252.39
664.461	40153.18
664.811	40193.41
665.161	40212.16
665.511	40201.77
665.862	40103.69
666.212	40257.13
666.562	40291.93
666.912	40145.5
667.262	40152.96
667.612	40054.43
667.962	40192.05
668.312	40047.87
668.662	40253.74
669.011	40066.18
669.361	40044.94
669.711	40095.33
670.06	40045.16
670.41	40074.99
670.76	39917.71
671.109	40074.31
671.459	39880.87
671.808	39974.43
672.157	40026.63
672.507	39788.9
672.856	39796.58
673.205	39871.83
673.554	39976.69
673.904	39978.5
674.253	39917.93
674.602	39917.03
674.951	39339.87
675.3	39262.58
675.649	39589.13
675.998	39736.24
676.346	39684.04
676.695	39818.95
677.044	39492.63
677.393	39752.06
677.741	39778.73
678.09	39673.87
678.438	39490.6
678.787	39645.85
679.135	39679.75
679.484	39405.86
679.832	39545.97
680.181	39418.51
680.529	39339.87
680.877	39218.74
681.225	39207.44
681.573	39423.03
681.922	39049.48
682.27	38998.41
682.618	39079.76
682.966	38864.63
683.314	39084.51
683.661	38902.59
684.009	38778.08
684.357	38618.08
684.705	38669.83
685.053	38680
685.4	38638.65
685.748	38424.41
686.095	38551.19
686.443	38394.13
686.79	38365.66
687.138	38354.58
687.485	38311.87
687.832	38108.94
688.18	38181.26
688.527	37976.52
688.874	38042.95
689.221	37962.5
689.568	37826.69
689.915	37719.57
690.262	37778.78
690.609	37648.39
690.956	37492.23
691.303	37536.75
691.65	37415.85
691.997	37350.54
692.344	37024.22
692.69	37134.96
693.037	37069.19
693.383	36851.57
693.73	36922.53
694.077	36593.05
694.423	36761.63
694.769	36562.32
695.116	36611.13
695.462	36503.11
695.808	36371.36
696.155	36473.28
696.501	36264.47
696.847	36212.95
697.193	35933.86
697.539	36144.02
697.885	35743.58
698.231	35786.52
698.577	35735.22
698.923	35535.68
699.269	35506.75
699.614	35189.02
699.96	35145.4
700.306	35336.81
700.651	35048.46
700.997	35018.4
701.342	34920.78
701.688	34845.52
702.033	34940.66
702.379	34759.88
702.724	34749.93
703.069	34876.03
703.415	34422.94
703.76	34302.04
704.105	34492.77
704.45	34244.41
704.795	34031.08
705.14	33925.32
705.485	34045.55
705.83	33876.74
706.175	33924.87
706.52	33790.86
706.865	33800.81
707.209	33684.88
707.554	33442.17
707.899	33464.09
708.243	33394.49
708.588	33310.88
708.932	33195.85
709.277	33157.21
709.621	33116.98
709.966	32921.28
710.31	32993.37
710.654	32801.96
710.998	32833.37
711.342	32833.15
711.687	32735.07
712.031	32510.9
712.375	32468.64
712.719	32465.47
713.063	32409.66
713.407	32444.23
713.75	32261.41
714.094	32322.65
714.438	32191.36
714.782	32124.47
715.125	32112.04
715.469	32087.86
715.812	31900.07
716.156	31815.55
716.499	31839.5
716.843	31837.02
717.186	31693.74
717.53	31841.76
717.873	31841.76
718.216	31667.53
718.559	31536.68
718.902	31339.63
719.246	31363.36
719.589	31352.28
719.932	31104.15
720.275	31313.87
720.617	31263.47
720.96	31145.96
721.303	31043.14
721.646	31088.34
721.989	30917.49
722.331	31005.85
722.674	30833.2
723.016	30830.04
723.359	30731.73
723.701	30824.61
724.044	30682.02
724.386	30499.42
724.729	30733.99
725.071	30618.06
725.413	30569.48
725.755	30501.01
726.097	30391.18
726.439	30265.98
726.782	30170.62
727.124	30395.7
727.465	30150.73
727.807	30201.58
728.149	30029.38
728.491	30033
728.833	30167.46
729.175	29983.73
729.516	29955.26
729.858	29905.09
730.199	29939.89
730.541	29770.4
730.882	29699.9
731.224	29742.16
731.565	29643.4
731.906	29668.03
732.248	29771.76
732.589	29562.5
732.93	29437.53
733.271	29397.53
733.612	29433.92
733.953	29369.06
734.294	29286.12
734.635	29201.61
734.976	29282.51
735.317	29328.38
735.658	29079.8
735.999	29138.1
736.339	29081.16
736.68	29140.59
737.021	29017.2
737.361	28999.35
737.702	29074.6
738.042	29009.07
738.383	28911.9
738.723	29008.84
739.063	28778.11
739.404	28973.59
739.744	28744.89
740.084	28763.65
740.424	28791.22
740.764	28697.21
741.104	28723.2
741.444	28560.94
741.784	28419.03
742.124	28654.27
742.464	28519.36
742.804	28418.12
743.143	28384.23
743.483	28415.86
743.823	28309.43
744.162	28228.75
744.502	28253.61
744.841	28125.93
745.181	28301.74
745.52	28261.06
745.86	28221.97
746.199	28043.44
746.538	27972.26
746.877	28081.86
747.216	28081.18
747.556	27905.82
747.895	27986.5
748.234	27862.21
748.573	27963.9
748.911	27692.27
749.25	27745.6
749.589	27668.31
749.928	27711.02
750.267	27793.28
750.605	27614.53
750.944	27492.27
751.283	27501.99
751.621	27643.68
751.96	27390.13
752.298	27391.48
752.636	27401.65
752.975	27297.25
753.313	27222.67
753.651	27318.04
753.989	27034.88
754.327	27143.35
754.666	27000.76
755.004	27074.66
755.342	27006.41
755.679	26968.67
756.017	26807.77
756.355	26901.55
756.693	26829.69
757.031	26836.92
757.368	26683.93
757.706	26596.25
758.044	26569.36
758.381	26584.72
758.719	26554.67
759.056	26419.08
759.394	26271.06
759.731	26246.88
760.068	26114
760.405	26111.74
760.743	25999.2
761.08	26095.7
761.417	25969.37
761.754	25883.95
762.091	25775.71
762.428	25736.84
762.765	25560.12
763.102	25706.56
763.438	25537.29
763.775	25506.79
764.112	25294.59
764.449	25523.28
764.785	25288.26
765.122	25103.86
765.458	25086.46
765.795	24958.78
766.131	25085.1
766.467	24818.22
766.804	24811.21
767.14	24742.97
767.476	24582.97
767.812	24595.85
768.148	24568.51
768.485	24471.11
768.821	24398.57
769.157	24243.54
769.492	24250.32
769.828	24236.54
770.164	23879.94
770.5	23910.9
770.836	23954.06
771.171	23877
771.507	23754.29
771.842	23549.78
772.178	23648.08
772.513	23574.18
772.849	23456.45
773.184	23300.29
773.519	23326.28
773.855	23230.91
774.19	23017.59
774.525	23109.11
774.86	22982.33
775.195	22983.69
775.53	22778.72
775.865	22708.89
776.2	22686.3
776.535	22429.81
776.87	22498.73
777.205	22470.71
777.539	22180.09
777.874	22287.44
778.209	22066.43
778.543	22095.58
778.878	21930.61
779.212	21951.85
779.547	21695.59
779.881	21888.13
780.215	21671.18
780.55	21683.38
780.884	21439.78
781.218	21461.7
781.552	21388.7
781.886	21359.78
782.22	21192.32
782.554	21163.85
782.888	21001.59
783.222	20901.71
783.556	20793.69
783.889	20758.44
784.223	20655.39
784.557	20589.85
784.89	20703.07
785.224	20497.43
785.557	20444.1
785.891	20426.69
786.224	20307.15
786.558	20258.79
786.891	20198
787.224	20040.72
787.557	19925.01
787.891	19912.36
788.224	19946.26
788.557	19825.35
788.89	19816.99
789.223	19909.19
789.556	19629.88
789.888	19556.43
790.221	19411.81
790.554	19289.55
790.887	19358.7
791.219	19209.55
791.552	19177.46
791.884	19247.52
792.217	19118.93
792.549	19028.99
792.882	18848.2
793.214	18760.52
793.546	18861.99
793.879	18688.89
794.211	18683.92
794.543	18744.7
794.875	18589.23
795.207	18670.36
795.539	18513.98
795.871	18493.41
796.203	18376.58
796.535	18257.26
796.867	18230.37
797.198	18139.07
797.53	18166.19
797.862	17998.28
798.193	18041.9
798.525	17929.36
798.856	17885.74
799.188	17785.41
799.519	17758.52
799.85	17718.29
800.182	17698.86
800.513	17627.22
800.844	17410.95
801.175	17570.05
801.506	17521.69
801.837	17421.35
802.168	17394.68
802.499	17281.01
802.83	17174.12
803.161	17149.49
803.491	17150.4
803.822	17145.42
804.153	16913.57
804.483	16876.28
804.814	16856.39
805.145	16902.04
805.475	16830.4
805.805	16772.55
806.136	16668.15
806.466	16708.6
806.796	16674.02
807.126	16572.56
807.457	16495.72
807.787	16520.13
808.117	16349.06
808.447	16344.09
808.777	16369.17
809.107	16311.55
809.436	16213.47
809.766	16209.63
810.096	16170.54
810.426	16114.27
810.755	16115.4
811.085	16016.64
811.414	16016.42
811.744	15888.73
812.073	15926.7
812.403	15878.34
812.732	15707.04
813.061	15762.64
813.39	15731.45
813.719	15578.23
814.049	15742.07
814.378	15622.53
814.707	15586.6
815.036	15545.69
815.365	15472.47
815.693	15440.38
816.022	15361.52
816.351	15380.05
816.68	15239.03
817.008	15267.51
817.337	15163.1
817.665	15163.33
817.994	15200.84
818.322	15175.99
818.651	15147.51
818.979	15041.75
819.307	15083.11
819.636	15056.67
819.964	14973.28
820.292	14938.93
820.62	14876.56
820.948	14965.6
821.276	14949.55
821.604	14830.91
821.932	14891.7
822.259	14787.75
822.587	14825.94
822.915	14872.72
823.243	14881.76
823.57	14818.48
823.898	14757.01
824.225	14799.72
824.553	14814.19
824.88	14782.32
825.207	14777.8
825.535	14830.23
825.862	14821.42
826.189	14740.52
826.516	14820.29
826.843	14882.43
827.17	14761.53
827.497	14938.03
827.824	14887.18
828.151	14837.24
828.478	14803.57
828.805	14830.01
829.131	14714.98
829.458	14749.56
829.785	14693.06
830.111	14629.78
830.438	14895.09
830.764	14798.14
831.09	14812.38
831.417	14712.72
831.743	14719.5
832.069	14698.48
832.395	14655.77
832.722	14777.8
833.048	14636.34
833.374	14727.64
833.7	14527.19
834.026	14610.8
834.351	14628.2
834.677	14589.79
835.003	14576.23
835.329	14574.42
835.654	14660.74
835.98	14509.79
836.306	14646.28
836.631	14494.42
836.956	14588.2
837.282	14516.57
837.607	14416.46
837.932	14514.76
838.258	14379.4
838.583	14367.87
838.908	14318.38
839.233	14293.97
839.558	14287.65
839.883	14281.32
840.208	14235.44
840.533	14301.66
840.858	14225.05
841.182	14222.79
841.507	14212.62
841.832	14079.52
842.156	14071.83
842.481	14020.99
842.805	14041.78
843.13	13956.81
843.454	13972.17
843.778	13896.7
844.103	13909.58
844.427	13798.62
844.751	13844.04
845.075	13806.08
845.399	13728.79
845.723	13628.91
846.047	13628.91
846.371	13544.62
846.695	13509.14
847.019	13333.55
847.343	13335.13
847.666	13288.8
847.99	13282.25
848.313	13275.24
848.637	13115.25
848.96	13130.16
849.284	13111.63
849.607	13031.63
849.931	13017.4
850.254	12918.42
850.577	12925.42
850.9	12784.86
851.223	12764.3
851.546	12680.46
851.869	12641.36
852.192	12628.48
852.515	12544.64
852.838	12487.92
853.161	12532.66
853.483	12392.78
853.806	12422.39
854.129	12388.26
854.451	12340.35
854.774	12249.51
855.096	12285.21
855.419	12247.25
855.741	12234.37
856.063	12121.6
856.385	12105.11
856.708	12074.37
857.03	12025.79
857.352	11980.14
857.674	11944.21
857.996	11851.78
858.318	11865.56
858.64	11872.34
858.961	11840.93
859.283	11736.98
859.605	11701.73
859.926	11686.81
860.248	11667.15
860.57	11666.25
860.891	11660.37
861.212	11594.16
861.534	11545.57
861.855	11497.89
862.176	11445.69
862.498	11503.09
862.819	11481.17
863.14	11447.04
863.461	11396.65
863.782	11362.98
864.103	11421.28
864.424	11313.04
864.745	11374.28
865.065	11236.88
865.386	11195.98
865.707	11228.29
866.027	11216.09
866.348	11214.06
866.668	11134.51
866.989	11073.72
867.309	11060.39
867.63	11080.73
867.95	11050.44
868.27	11012.48
868.59	11030.33
868.91	10969.09
869.23	11051.35
869.55	10958.02
869.87	10984.68
870.19	10992.37
870.51	11036.88
870.83	11028.75
871.15	10933.16
871.469	10910.56
871.789	10923.22
872.109	10891.58
872.428	10805.25
872.748	10887.06
873.067	10874.86
873.386	10875.31
873.706	10861.52
874.025	10702.66
874.344	10671.92
874.663	10755.08
874.982	10732.71
875.301	10731.13
875.62	10669.44
875.939	10636.22
876.258	10691.81
876.577	10653.84
876.896	10583.11
877.214	10615.2
877.533	10546.5
877.852	10572.72
878.17	10632.15
878.489	10633.73
878.807	10472.83
879.125	10459.5
879.444	10530.46
879.762	10468.99
880.08	10425.6
880.398	10338.82
880.716	10433.06
881.034	10344.25
881.352	10375.89
881.67	10328.2
881.988	10315.55
882.306	10302.21
882.624	10212.5
882.941	10229.67
883.259	10154.42
883.577	10117.14
883.894	10191.71
884.212	10123.91
884.529	10147.87
884.846	10155.33
885.164	10039.85
885.481	10024.26
885.798	10033.3
886.115	9950.59
886.432	9949.91
886.75	9872.17
887.067	9927.08
887.383	9927.08
887.7	9916.01
888.017	9860.64
888.334	9891.38
888.651	9826.3
888.967	9761.44
889.284	9774.32
889.6	9797.82
889.917	9750.37
890.233	9670.37
890.55	9687.99
890.866	9637.83
891.182	9573.42
891.498	9571.39
891.815	9478.06
892.131	9508.11
892.447	9504.27
892.763	9494.55
893.079	9456.36
893.395	9392.18
893.71	9377.72
894.026	9437.6
894.342	9327.55
894.657	9288.91
894.973	9283.03
895.289	9197.16
895.604	9190.15
895.92	9157.61
896.235	9134.79
896.55	9123.49
896.865	9077.61
897.181	9035.36
897.496	9046.2
897.811	8960.78
898.126	9002.14
898.441	8900.67
898.756	8914.45
899.071	8894.12
899.386	8852.54
899.7	8794.68
900.015	8774.8
900.33	8735.7
900.644	8691.18
900.959	8803.27
901.273	8628.13
901.588	8663.61
901.902	8568.02
902.216	8533
902.531	8535.26
902.845	8532.09
903.159	8454.58
903.473	8436.73
903.787	8480.34
904.101	8331.19
904.415	8328.03
904.729	8358.09
905.042	8230.63
905.356	8268.82
905.67	8213.46
905.984	8221.37
906.297	8197.64
906.611	8130.97
906.924	8061.82
907.237	8069.73
907.551	8073.57
907.864	8008.49
908.177	8009.39
908.491	7992.67
908.804	7896.63
909.117	7876.74
909.43	7871.54
909.743	7766.01
910.056	7808.04
910.368	7736.41
910.681	7650.31
910.994	7684.43
911.307	7605.11
911.619	7600.14
911.932	7609.63
912.244	7572.34
912.557	7601.27
912.869	7540.48
913.181	7491.67
913.494	7456.87
913.806	7396.53
914.118	7337.77
914.43	7313.37
914.742	7336.42
915.054	7242.18
915.366	7225.23
915.678	7164.9
915.99	7232.24
916.302	7154.28
916.613	7142.52
916.925	7118.57
917.236	7119.47
917.548	7053.94
917.859	7018.91
918.171	6971.46
918.482	6899.82
918.794	6912.7
919.105	6949.76
919.416	6852.14
919.727	6824.79
920.038	6861.63
920.349	6796.09
920.66	6734.17
920.971	6748.64
921.282	6681.75
921.593	6637.68
921.903	6658.24
922.214	6553.61
922.525	6604.01
922.835	6611.46
923.146	6523.33
923.456	6510
923.767	6446.27
924.077	6533.73
924.387	6433.39
924.697	6380.74
925.008	6357.69
925.318	6335.77
925.628	6349.32
925.938	6273.39
926.248	6241.53
926.558	6222.1
926.867	6229.55
927.177	6180.74
927.487	6144.81
927.796	6117.47
928.106	6066.85
928.416	6013.29
928.725	6082.66
929.034	6040.86
929.344	6011.03
929.653	5997.02
929.962	5952.5
930.271	5923.12
930.581	5895.33
930.89	5862.11
931.199	5846.06
931.508	5835.89
931.817	5837.47
932.125	5777.14
932.434	5740.3
932.743	5707.31
933.051	5641.32
933.36	5688.78
933.669	5626.63
933.977	5610.13
934.286	5556.13
934.594	5550.7
934.902	5544.37
935.21	5549.35
935.519	5484.71
935.827	5493.08
936.135	5421.89
936.443	5337.15
936.751	5446.07
937.059	5384.15
937.367	5373.53
937.674	5339.18
937.982	5342.12
938.29	5320.88
938.597	5280.2
938.905	5237.26
939.213	5245.85
939.52	5197.26
939.827	5204.27
940.135	5210.82
940.442	5177.6
940.749	5123.59
941.056	5179.86
941.363	5080.21
941.67	5043.82
941.977	5042.69
942.284	4955.91
942.591	4943.03
942.898	4956.37
943.205	4964.28
943.511	4981.22
943.818	4901.45
944.125	4882.47
944.431	4841.34
944.738	4825.3
945.044	4834.11
945.35	4753.66
945.657	4746.65
945.963	4767.45
946.269	4726.54
946.575	4729.03
946.881	4688.58
947.187	4712.98
947.493	4703.49
947.799	4656.04
948.105	4616.71
948.41	4607.22
948.716	4581.91
949.022	4567.68
949.327	4570.84
949.633	4514.8
949.938	4542.59
950.244	4486.55
950.549	4429.15
950.854	4462.37
951.16	4433.67
951.465	4410.17
951.77	4432.54
952.075	4390.05
952.38	4339.89
952.685	4365.42
952.99	4287.01
953.294	4294.24
953.599	4257.85
953.904	4249.04
954.209	4198.19
954.513	4230.96
954.818	4218.31
955.122	4197.97
955.426	4179.44
955.731	4148.48
956.035	4103.73
956.339	4136.73
956.643	4065.32
956.948	4085.66
957.252	4026
957.556	4040.91
957.86	4016.73
958.163	4030.74
958.467	3997.75
958.771	3960.91
959.075	3929.28
959.378	3946.9
959.682	3906.45
959.985	3942.61
960.289	3859.9
960.592	3902.38
960.896	3861.93
961.199	3876.85
961.502	3816.51
961.805	3810.86
962.108	3788.49
962.411	3786.45
962.714	3782.39
963.017	3712.78
963.32	3694.48
963.623	3694.48
963.926	3668.27
964.228	3700.35
964.531	3621.03
964.833	3665.78
965.136	3601.6
965.438	3588.04
965.741	3602.5
966.043	3584.88
966.345	3571.32
966.648	3552.79
966.95	3554.6
967.252	3506.46
967.554	3512.11
967.856	3485.9
968.158	3466.24
968.46	3470.3
968.761	3422.62
969.063	3423.07
969.365	3413.36
969.666	3424.43
969.968	3365.67
970.269	3353.47
970.571	3330.87
970.872	3330.65
971.174	3304.66
971.475	3282.51
971.776	3252.68
972.077	3278.22
972.378	3282.29
972.679	3247.94
972.98	3243.87
973.281	3243.42
973.582	3228.5
973.883	3174.49
974.183	3205.9
974.484	3187.37
974.785	3136.3
975.085	3132.46
975.386	3137.66
975.686	3104.44
975.986	3089.3
976.287	3065.8
976.587	3083.42
976.887	3041.61
977.187	3055.4
977.487	3043.87
977.787	2995.74
978.087	2976.31
978.387	3000.94
978.687	2996.42
978.987	2970.66
979.286	2938.11
979.586	2914.39
979.885	2898.12
980.185	2909.42
980.484	2879.81
980.784	2895.86
981.083	2885.01
981.382	2845.91
981.682	2875.74
981.981	2831.22
982.28	2812.47
982.579	2811.11
982.878	2814.05
983.177	2804.79
983.475	2772.7
983.774	2780.6
984.073	2755.52
984.372	2745.13
984.67	2739.02
984.969	2753.49
985.267	2706.71
985.566	2685.92
985.864	2657.22
986.162	2645.24
986.461	2628.52
986.759	2648.4
987.057	2595.98
987.355	2574.06
987.653	2638.24
987.951	2602.98
988.249	2595.07
988.547	2565.92
988.844	2551.91
989.142	2542.42
989.44	2535.64
989.737	2500.84
990.035	2540.61
990.332	2486.38
990.63	2473.27
990.927	2471.01
991.224	2449.77
991.521	2460.84
991.819	2454.74
992.116	2460.84
992.413	2419.48
992.71	2384.23
993.006	2425.36
993.303	2408.41
993.6	2333.61
993.897	2378.58
994.193	2353.27
994.49	2344.23
994.787	2346.49
995.083	2304.23
995.379	2332.26
995.676	2308.53
995.972	2294.29
996.268	2295.19
996.565	2211.13
996.861	2272.6
997.157	2248.19
997.453	2220.17
997.749	2203.9
998.044	2178.81
998.34	2176.78
998.636	2189.66
998.932	2160.28
999.227	2157.34
999.523	2151.69
999.818	2148.53
1000.114	2128.42
1000.409	2130.45
1000.704	2095.43
1001	2109.66
1001.295	2072.37
1001.59	2083.9
1001.885	2064.92
1002.18	2039.83
1002.475	2044.35
1002.77	2043
1003.065	2009.78
1003.359	1972.04
1003.654	1986.5
1003.949	2010.91
1004.243	1960.29
1004.538	1962.77
1004.832	1961.19
1005.127	1970
1005.421	1940.4
1005.715	1941.3
1006.009	1893.85
1006.304	1906.96
1006.598	1905.15
1006.892	1881.65
1007.186	1888.2
1007.48	1858.37
1007.773	1865.6
1008.067	1843.45
1008.361	1805.26
1008.655	1832.83
1008.948	1810.91
1009.242	1790.57
1009.535	1781.54
1009.829	1794.42
1010.122	1763.23
1010.415	1741.76
1010.708	1756.9
1011.001	1738.15
1011.295	1740.63
1011.588	1720.97
1011.881	1711.93
1012.173	1722.1
1012.466	1693.4
1012.759	1668.32
1013.052	1653.4
1013.344	1664.7
1013.637	1651.37
1013.93	1651.37
1014.222	1640.07
1014.514	1609.56
1014.807	1601.2
1015.099	1605.27
1015.391	1575.66
1015.683	1589
1015.976	1581.77
1016.268	1570.02
1016.56	1554.2
1016.851	1531.37
1017.143	1533.63
1017.435	1518.49
1017.727	1542.45
1018.018	1518.49
1018.31	1514.2
1018.602	1507.87
1018.893	1513.75
1019.185	1480.07
1019.476	1477.59
1019.767	1451.15
1020.058	1439.85
1020.35	1444.37
1020.641	1420.87
1020.932	1424.93
1021.223	1400.75
1021.514	1398.04
1021.804	1377.7
1022.095	1393.52
1022.386	1393.52
1022.677	1368.44
1022.967	1346.07
1023.258	1312.39
1023.548	1337.7
1023.839	1334.77
1024.129	1338.16
1024.419	1339.06
1024.709	1292.51
1025	1278.95
1025.29	1279.85
1025.58	1262.23
1025.87	1239.4
1026.16	1254.09
1026.449	1257.48
1026.739	1249.12
1027.029	1231.72
1027.319	1213.19
1027.608	1188.1
1027.898	1187.65
1028.187	1205.73
1028.477	1189.69
1028.766	1169.35
1029.055	1192.17
1029.344	1183.36
1029.634	1166.86
1029.923	1158.05
1030.212	1153.53
1030.501	1139.97
1030.79	1145.85
1031.078	1128.9
1031.367	1137.26
1031.656	1119.18
1031.945	1105.62
1032.233	1080.54
1032.522	1072.18
1032.81	1079.18
1033.099	1075.56
1033.387	1056.13
1033.675	1085.28
1033.963	1055.9
1034.251	1072.4
1034.54	1035.34
1034.828	1048.9
1035.116	1060.2
1035.403	1036.47
1035.691	1039.63
1035.979	1013.65
1036.267	990.6
1036.554	987.66
1036.842	992.4
1037.129	1002.57
1037.417	981.56
1037.704	973.65
1037.992	955.12
1038.279	949.92
1038.566	942.24
1038.853	942.24
1039.14	942.24
