Data from hue_70_FLMS001491_42.txt Node
Date: Mon Feb 06 15:20:57 GMT 2017
User: dcchb
Spectrometer: FLMS00149
Trigger mode: 0
Integration Time (sec): 2.000000E-2
Scans to average: 10
Electric dark correction enabled: true
Nonlinearity correction enabled: false
Boxcar width: 0
XAxis mode: Wavelengths
Number of Pixels in Spectrum: 2048
>>>>>Begin Spectral Data<<<<<
341.393	-26.07
341.776	-26.07
342.16	-26.07
342.543	-40.99
342.927	-59.29
343.31	-79.86
343.693	-57.71
344.077	-54.77
344.46	-51.83
344.843	-56.35
345.226	-48.22
345.61	-32.63
345.993	-11.38
346.376	3.98
346.759	2.63
347.142	1.5
347.525	34.49
347.908	63.87
348.291	77.65
348.674	89.63
349.057	119.01
349.44	120.82
349.823	140.7
350.206	127.14
350.588	198.1
350.971	214.82
351.354	214.82
351.737	234.94
352.119	265.44
352.502	279
352.884	287.59
353.267	278.55
353.65	278.78
354.032	292.79
354.414	299.12
354.797	330.75
355.179	295.27
355.562	331.21
355.944	330.3
356.326	324.43
356.709	333.92
357.091	329.17
357.473	340.02
357.855	331.66
358.238	328.27
358.62	339.12
359.002	356.29
359.384	330.08
359.766	334.14
360.148	333.01
360.53	319.23
360.912	341.38
361.294	356.97
361.676	335.5
362.057	345.67
362.439	323.97
362.821	324.43
363.203	326.46
363.584	328.04
363.966	317.87
364.348	329.17
364.729	310.87
365.111	306.57
365.493	309.96
365.874	310.87
366.256	297.99
366.637	302.51
367.019	321.94
367.4	319.45
367.781	310.19
368.163	327.82
368.544	309.51
368.925	295.73
369.306	316.52
369.688	297.99
370.069	312.45
370.45	296.4
370.831	310.19
371.212	317.65
371.593	303.18
371.974	304.31
372.355	313.13
372.736	301.6
373.117	321.94
373.498	321.49
373.879	311.32
374.26	309.74
374.641	317.42
375.021	326.69
375.402	304.99
375.783	307.25
376.163	311.55
376.544	340.02
376.925	314.26
377.305	322.84
377.686	321.94
378.066	325.78
378.447	317.87
378.827	333.47
379.208	332.34
379.588	348.38
379.968	347.7
380.349	310.64
380.729	321.94
381.109	329.85
381.489	332.79
381.87	333.47
382.25	329.4
382.63	331.88
383.01	318.78
383.39	319.68
383.77	345.22
384.15	344.76
384.53	339.34
384.91	336.18
385.29	346.57
385.67	361.26
386.049	335.5
386.429	340.7
386.809	349.96
387.189	348.38
387.568	340.7
387.948	334.37
388.328	332.56
388.707	365.78
389.087	327.14
389.466	327.59
389.846	346.8
390.225	347.02
390.605	377.08
390.984	354.93
391.363	347.48
391.743	365.56
392.122	361.04
392.501	376.4
392.881	372.79
393.26	363.97
393.639	375.27
394.018	364.2
394.397	378.66
394.776	372.11
395.155	367.14
395.534	359.23
395.913	375.72
396.292	366.46
396.671	377.98
397.05	382.73
397.429	370.3
397.808	360.81
398.186	375.72
398.565	360.36
398.944	363.75
399.323	399.23
399.701	387.93
400.08	381.83
400.458	362.84
400.837	396.06
401.215	376.63
401.594	380.02
401.972	383.18
402.351	406.91
402.729	381.37
403.107	385.67
403.486	403.07
403.864	390.19
404.242	397.42
404.62	393.58
404.999	400.36
405.377	408.49
405.755	399
406.133	415.95
406.511	401.71
406.889	405.55
407.267	392.22
407.645	423.63
408.023	424.54
408.401	412.33
408.779	437.42
409.156	416.85
409.534	422.95
409.912	426.34
410.29	411.66
410.667	430.86
411.045	425.89
411.422	427.93
411.8	430.19
412.178	450.52
412.555	458.43
412.933	443.97
413.31	438.32
413.687	455.04
414.065	447.59
414.442	457.76
414.819	454.82
415.197	465.44
415.574	459.11
415.951	483.07
416.328	451.2
416.705	480.35
417.082	498.43
417.46	474.71
417.837	479.45
418.214	473.12
418.591	492.56
418.967	475.83
419.344	487.81
419.721	493.24
420.098	497.98
420.475	501.6
420.852	501.15
421.228	507.92
421.605	481.94
421.982	474.93
422.358	505.44
422.735	520.35
423.111	499.34
423.488	514.25
423.864	524.87
424.241	522.39
424.617	527.36
424.994	538.88
425.37	537.98
425.746	545.66
426.123	542.5
426.499	540.69
426.875	552.67
427.251	551.99
427.627	550.86
428.003	544.53
428.379	551.99
428.756	554.02
429.132	576.17
429.507	584.53
429.883	589.28
430.259	585.44
430.635	589.73
431.011	595.38
431.387	592.22
431.763	594.7
432.138	604.87
432.514	611.2
432.89	587.7
433.265	624.76
433.641	607.81
434.016	629.5
434.392	632.89
434.767	644.19
435.143	645.32
435.518	627.92
435.894	638.09
436.269	651.88
436.644	642.38
437.02	678.09
437.395	661.82
437.77	678.99
438.145	680.8
438.52	674.25
438.895	687.81
439.271	700.91
439.646	691.2
440.021	705.66
440.395	697.98
440.77	702.04
441.145	705.89
441.52	711.99
441.895	718.54
442.27	751.99
442.645	723.29
443.019	709.5
443.394	724.19
443.769	754.47
444.143	761.48
444.518	751.53
444.892	730.52
445.267	737.52
445.641	759.9
446.016	772.1
446.39	758.54
446.764	759.67
447.139	737.07
447.513	796.28
447.887	770.52
448.262	773.23
448.636	781.36
449.01	780.69
449.384	804.87
449.758	810.52
450.132	821.59
450.506	817.29
450.88	838.09
451.254	806.9
451.628	836.5
452.002	840.8
452.376	841.7
452.75	829.72
453.123	854.36
453.497	860.23
453.871	878.99
454.244	881.02
454.618	870.85
454.992	896.61
455.365	883.51
455.739	910.63
456.112	923.05
456.486	909.04
456.859	971.87
457.232	934.58
457.606	956.05
457.979	985.2
458.352	986.56
458.725	998.31
459.099	992.66
459.472	1016.39
459.845	1038.98
460.218	996.27
460.591	1041.02
460.964	1040.57
461.337	1087.57
461.71	1097.51
462.083	1091.64
462.456	1078.98
462.829	1108.13
463.201	1123.73
463.574	1130.73
463.947	1143.16
464.32	1154.69
464.692	1162.82
465.065	1179.09
465.438	1178.64
465.81	1208.7
466.183	1248.7
466.555	1255.7
466.928	1295.25
467.3	1296.6
467.672	1291.41
468.045	1353.33
468.417	1336.6
468.789	1350.84
469.161	1362.59
469.534	1414.34
469.906	1454.11
470.278	1458.18
470.65	1451.85
471.022	1512.64
471.394	1543.6
471.766	1561.91
472.138	1601.68
472.51	1619.31
472.882	1646.65
473.253	1719.19
473.625	1734.33
473.997	1777.04
474.369	1783.6
474.74	1819.53
475.112	1921.67
475.484	1905.18
475.855	1944.04
476.227	1980.43
476.598	2048.67
476.97	2119.18
477.341	2175.68
477.713	2197.15
478.084	2256.58
478.455	2351.94
478.827	2391.49
479.198	2450.02
479.569	2528.89
479.94	2591.94
480.311	2627.87
480.682	2751.48
481.053	2845.04
481.424	2917.13
481.795	2981.98
482.166	3055.2
482.537	3133.84
482.908	3259.04
483.279	3321.18
483.65	3460.84
484.021	3561.86
484.391	3621.29
484.762	3706.94
485.133	3819.02
485.503	3894.28
485.874	4048.17
486.244	4082.75
486.615	4220.14
486.985	4377.88
487.356	4512.11
487.726	4609.96
488.097	4758.66
488.467	4853.57
488.837	5011.31
489.207	5107.35
489.578	5225.31
489.948	5395.25
490.318	5488.36
490.688	5585.76
491.058	5737.39
491.428	5856.94
491.798	6007.44
492.168	6216.02
492.538	6319.52
492.908	6456.24
493.278	6611.94
493.648	6686.97
494.017	6907.08
494.387	7019.39
494.757	7170.57
495.126	7253.06
495.496	7420.96
495.866	7476.78
496.235	7609.66
496.605	7858.69
496.974	7946.6
497.344	8048.52
497.713	8231.56
498.082	8364.44
498.452	8533.7
498.821	8656.86
499.19	8722.62
499.559	8871.09
499.928	9035.38
500.298	9127.58
500.667	9322.16
501.036	9329.61
501.405	9512.21
501.774	9580
502.143	9733.9
502.512	9880.79
502.88	10023.83
503.249	10074.23
503.618	10238.74
503.987	10296.14
504.356	10396.7
504.724	10499.98
505.093	10644.61
505.462	10752.4
505.83	10807.99
506.199	10997.14
506.567	11234.87
506.936	11231.94
507.304	11358.71
507.672	11460.4
508.041	11576.56
508.409	11716.44
508.777	11840.28
509.145	11885.48
509.514	12093.83
509.882	12096.32
510.25	12254.06
510.618	12280.27
510.986	12386.71
511.354	12517.33
511.722	12668.73
512.09	12762.97
512.458	12791.44
512.826	12953.47
513.193	13042.06
513.561	13081.38
513.929	13242.5
514.297	13293.8
514.664	13481.14
515.032	13496.28
515.4	13682.49
515.767	13682.49
516.135	13730.63
516.502	13739.67
516.869	14063.73
517.237	14027.12
517.604	14072.99
517.972	14197.51
518.339	14342.14
518.706	14305.98
519.073	14461.91
519.44	14489.48
519.808	14672.52
520.175	14612.41
520.542	14866.42
520.909	14949.35
521.276	15027.32
521.643	15089.69
522.009	15236.58
522.376	15295.11
522.743	15279.06
523.11	15489.68
523.477	15645.83
523.843	15671.37
524.21	15874.75
524.577	15961.08
524.943	15921.76
525.31	16093.28
525.676	16234.97
526.043	16316.55
526.409	16355.42
526.776	16487.17
527.142	16533.04
527.508	16637.9
527.874	16732.81
528.241	16771.68
528.607	16794.28
528.973	17024.55
529.339	16892.8
529.705	17127.83
530.071	17258.67
530.437	17215.28
530.803	17286.01
531.169	17462.28
531.535	17422.51
531.901	17472.68
532.267	17455.5
532.632	17636.51
532.998	17596.06
533.364	17656.4
533.73	17653.01
534.095	17753.12
534.461	17783.18
534.826	17870.86
535.192	17877.64
535.557	18038.99
535.923	18013
536.288	18011.87
536.653	18083.28
537.019	18018.42
537.384	18093.68
537.749	18133.45
538.114	18228.81
538.479	18164.41
538.845	18348.13
539.21	18217.29
539.575	18265.65
539.94	18291.64
540.305	18365.31
540.67	18331.64
541.034	18434.91
541.399	18406.21
541.764	18477.17
542.129	18462.71
542.494	18474.01
542.858	18496.83
543.223	18534.12
543.587	18538.86
543.952	18620.44
544.316	18612.08
544.681	18510.39
545.045	18667.67
545.41	18733.21
545.774	18555.59
546.138	18615.92
546.503	18661.12
546.867	18641.46
547.231	18812.98
547.595	18746.31
547.959	18708.8
548.324	18822.47
548.688	18782.47
549.052	18870.15
549.416	18770.04
549.779	18881
550.143	18914.67
550.507	18823.6
550.871	18831.06
551.235	18951.51
551.599	19032.64
551.962	19012.3
552.326	19189.92
552.689	19047.32
553.053	19048.45
553.417	19071.73
553.78	19285.51
554.143	19198.05
554.507	19210.71
554.87	19189.69
555.234	19463.13
555.597	19217.94
555.96	19262.01
556.323	19365.96
556.686	19502
557.05	19516.01
557.413	19487.09
557.776	19584.71
558.139	19573.64
558.502	19566.86
558.865	19591.72
559.228	19784.25
559.59	19719.62
559.953	19749.23
560.316	19896.79
560.679	19954.64
561.041	20052.5
561.404	20004.36
561.767	20108.99
562.129	20067.41
562.492	20194.64
562.854	20183.57
563.217	20096.11
563.579	20204.81
563.941	20448.42
564.304	20351.24
564.666	20521.41
565.028	20542.88
565.39	20419.94
565.753	20584.01
566.115	20599.15
566.477	20769.99
566.839	20730.22
567.201	20789.65
567.563	20817.67
567.925	20973.38
568.287	21075.75
568.648	20944.22
569.01	21052.7
569.372	21261.96
569.734	21136.53
570.095	21231.22
570.457	21324.33
570.819	21313.93
571.18	21360.26
571.542	21436.64
571.903	21545.34
572.265	21524.77
572.626	21503.98
572.987	21509.63
573.349	21661.04
573.71	21655.39
574.071	21654.94
574.432	21810.42
574.794	21955.5
575.155	21837.53
575.516	21799.12
575.877	21912.33
576.238	21925.44
576.599	22084.98
576.96	21994.82
577.32	21981.48
577.681	22035.49
578.042	22108.49
578.403	22095.83
578.763	22129.05
579.124	22187.81
579.485	22267.35
579.845	22223.74
580.206	22210.18
580.566	22341.7
580.927	22271.19
581.287	22264.19
581.648	22182.61
582.008	22437.74
582.368	22268.26
582.728	22343.06
583.089	22332.21
583.449	22368.82
583.809	22391.64
584.169	22317.97
584.529	22243.85
584.889	22547.12
585.249	22282.49
585.609	22284.53
585.969	22457.18
586.329	22355.26
586.688	22334.02
587.048	22403.39
587.408	22336.96
587.768	22284.08
588.127	22299.44
588.487	22200.01
588.846	22430.74
589.206	22205.89
589.565	22262.61
589.925	22460.34
590.284	22254.92
590.643	22381.47
591.003	22379.89
591.362	22382.6
591.721	22282.72
592.08	22361.81
592.44	22409.27
592.799	22365.65
593.158	22380.34
593.517	22386.45
593.876	22350.74
594.235	22332.21
594.593	22325.66
594.952	22382.38
595.311	22347.8
595.67	22464.41
596.029	22471.41
596.387	22467.8
596.746	22470.28
597.104	22338.08
597.463	22383.06
597.822	22493.34
598.18	22364.52
598.538	22432.09
598.897	22570.4
599.255	22324.3
599.613	22650.62
599.972	22494.47
600.33	22464.18
600.688	22358.2
601.046	22539.21
601.404	22609.49
601.762	22662.6
602.12	22614.91
602.478	22616.72
602.836	22739.43
603.194	22524.52
603.552	22521.58
603.91	22501.24
604.268	22724.29
604.625	22533.79
604.983	22621.47
605.341	22528.59
605.698	22670.73
606.056	22704.85
606.413	22652.43
606.771	22784.4
607.128	22774.23
607.485	22695.82
607.843	22732.65
608.2	22934
608.557	22858.3
608.914	22883.16
609.272	22905.08
609.629	23057.39
609.986	23058.74
610.343	22936.94
610.7	23093.32
611.057	23110.95
611.414	23088.57
611.771	23109.14
612.127	23212.19
612.484	23180.1
612.841	23281.34
613.198	23231.17
613.554	23222.13
613.911	23399.53
614.267	23305.29
614.624	23315.46
614.98	23299.19
615.337	23435.46
615.693	23441.56
616.05	23491.27
616.406	23615.11
616.762	23411.05
617.118	23515.46
617.475	23488.56
617.831	23669.35
618.187	23617.37
618.543	23623.25
618.899	23789.12
619.255	23727.2
619.611	23628.9
619.967	23778.05
620.323	23748.44
620.678	23709.35
621.034	23687.2
621.39	23642.91
621.746	23651.27
622.101	23896.46
622.457	23605.17
622.812	23798.84
623.168	23905.5
623.523	23814.66
623.879	23776.69
624.234	23738.5
624.589	23892.17
624.945	23731.27
625.3	23841.77
625.655	23855.56
626.01	23974.43
626.365	23882.45
626.72	23806.97
627.075	23883.81
627.43	23840.19
627.785	23835.22
628.14	23874.32
628.495	23879.29
628.85	23836.8
629.205	23710.93
629.559	23995.22
629.914	23771.72
630.269	23929.23
630.623	23823.92
630.978	23738.73
631.332	23920.64
631.687	23780.76
632.041	23792.28
632.396	23840.19
632.75	23731.27
633.104	23790.48
633.459	23562.46
633.813	23708.44
634.167	23693.98
634.521	23595.68
634.875	23752.96
635.229	23676.58
635.583	23437.94
635.937	23575.57
636.291	23525.17
636.645	23551.39
636.999	23434.78
637.352	23591.61
637.706	23426.87
638.06	23564.72
638.413	23435.01
638.767	23384.39
639.121	23442.24
639.474	23218.74
639.828	23296.48
640.181	23340.09
640.534	23383.71
640.888	23167.44
641.241	23037.05
641.594	23190.27
641.947	23300.09
642.301	23127.89
642.654	23241.79
643.007	23294.22
643.36	23080.66
643.713	23162.24
644.066	23198.18
644.419	23051.74
644.771	22961.57
645.124	22709.15
645.477	22765.87
645.83	22540.79
646.182	22489.72
646.535	22383.73
646.888	22493.11
647.24	22310.74
647.593	22515.48
647.945	22378.76
648.298	22377.86
648.65	22280.01
649.002	22280.46
649.355	22273
649.707	22331.98
650.059	22315.49
650.411	22694.69
650.763	22737.17
651.115	22957.5
651.467	22820.78
651.819	22855.36
652.171	22839.77
652.523	22745.31
652.875	22774.23
653.227	22644.29
653.578	22804.97
653.93	22848.58
654.282	22692.2
654.633	22620.79
654.985	22746.66
655.337	22716.15
655.688	22698.75
656.039	22755.93
656.391	22648.59
656.742	22714.35
657.094	22723.16
657.445	22703.27
657.796	22697.62
658.147	22634.12
658.498	22637.51
658.849	22764.51
659.2	22720.9
659.551	22698.98
659.902	22791.18
660.253	22603.39
660.604	22730.17
660.955	22616.27
661.306	22715.93
661.656	22599.1
662.007	22758.41
662.358	22736.04
662.708	22724.29
663.059	22738.07
663.409	22543.5
663.76	22720.67
664.11	22736.49
664.461	22661.92
664.811	22700.79
665.161	22770.16
665.511	22668.47
665.862	22692.88
666.212	22799.32
666.562	22815.36
666.912	22847.45
667.262	22780.56
667.612	22779.2
667.962	22747.11
668.312	22729.04
668.662	22784.63
669.011	22695.59
669.361	22794.12
669.711	22641.58
670.06	22775.36
670.41	22672.54
670.76	22639.55
671.109	22652.65
671.459	22665.31
671.808	22629.38
672.157	22731.29
672.507	22428.93
672.856	22553.45
673.205	22590.06
673.554	22588.7
673.904	22517.29
674.253	22653.1
674.602	22520.23
674.951	22303.06
675.3	22169.95
675.649	22511.19
675.998	22384.19
676.346	22321.81
676.695	22575.82
677.044	22313.68
677.393	22308.93
677.741	22370.85
678.09	22247.69
678.438	22295.83
678.787	22363.62
679.135	22320.91
679.484	22130.86
679.832	22264.87
680.181	21982.84
680.529	22135.6
680.877	22145.32
681.225	22015.61
681.573	22226
681.922	21978.55
682.27	22018.32
682.618	21953.91
682.966	21914.14
683.314	21922.73
683.661	21910.75
684.009	21736.97
684.357	21680.48
684.705	21669.63
685.053	21695.62
685.4	21647.26
685.748	21518.22
686.095	21619.01
686.443	21402.97
686.79	21453.14
687.138	21481.16
687.485	21396.87
687.832	21362.29
688.18	21397.77
688.527	21203.43
688.874	21179.92
689.221	21194.61
689.568	21226.7
689.915	21007.5
690.262	21073.49
690.609	20970.66
690.956	20941.29
691.303	20993.26
691.65	20740.39
691.997	20856.09
692.344	20745.58
692.69	20664.68
693.037	20544.46
693.383	20466.95
693.73	20467.63
694.077	20415.2
694.423	20352.6
694.769	20354.86
695.116	20340.62
695.462	20229.67
695.808	20219.95
696.155	20201.64
696.501	20022.44
696.847	19983.12
697.193	19854.31
697.539	19874.19
697.885	19724.37
698.231	19716.91
698.577	19738.61
698.923	19524.37
699.269	19593.52
699.614	19474.21
699.96	19321.22
700.306	19356.24
700.651	19214.78
700.997	19178.62
701.342	19178.39
701.688	19172.07
702.033	19141.33
702.379	18987.44
702.724	18995.35
703.069	18907.21
703.415	18792.64
703.76	18727.56
704.105	18704.51
704.45	18688.46
704.795	18613.21
705.14	18504.51
705.485	18584.29
705.83	18397.4
706.175	18420
706.52	18306.33
706.865	18221.58
707.209	18352.65
707.554	18138.2
707.899	18234.24
708.243	18103.17
708.588	18055.94
708.932	17973.23
709.277	17990.85
709.621	18008.03
709.966	17808.71
710.31	17813.91
710.654	17700.92
710.998	17691.88
711.342	17761.71
711.687	17775.72
712.031	17600.36
712.375	17577.98
712.719	17607.14
713.063	17457.08
713.407	17563.3
713.75	17487.14
714.094	17468.61
714.438	17473.13
714.782	17341.61
715.125	17309.52
715.469	17390.87
715.812	17270.65
716.156	17136.87
716.499	17207.6
716.843	17194.49
717.186	17027.49
717.53	17135.96
717.873	17027.26
718.216	17046.25
718.559	16956.31
718.902	16824.33
719.246	17038.11
719.589	16897.1
719.932	16797.67
720.275	16815.07
720.617	16811.9
720.96	16780.04
721.303	16724
721.646	16769.19
721.989	16659.82
722.331	16712.02
722.674	16692.58
723.016	16701.17
723.359	16636.54
723.701	16664.11
724.044	16523.77
724.386	16440.16
724.729	16599.93
725.071	16506.6
725.413	16409.65
725.755	16474.51
726.097	16477.22
726.439	16340.05
726.782	16366.72
727.124	16427.28
727.465	16313.84
727.807	16294.18
728.149	16261.63
728.491	16329.66
728.833	16388.18
729.175	16239.94
729.516	16147.97
729.858	16141.41
730.199	16244.46
730.541	16223.67
730.882	16246.95
731.224	16263.22
731.565	16114.75
731.906	16117.46
732.248	16204.01
732.589	16047.63
732.93	16128.76
733.271	16045.6
733.612	16015.99
733.953	16142.99
734.294	16091.7
734.635	15994.52
734.976	16011.02
735.317	15984.13
735.658	16020.74
735.999	16005.14
736.339	16000.17
736.68	15996.56
737.021	15918.82
737.361	15849.22
737.702	16040.4
738.042	16032.04
738.383	15938.93
738.723	15891.93
739.063	15964.47
739.404	16122.43
739.744	15898.48
740.084	15946.61
740.424	15953.62
740.764	15883.79
741.104	15979.83
741.444	15986.39
741.784	15869.1
742.124	15937.12
742.464	16015.09
742.804	15974.41
743.143	15893.96
743.483	15918.37
743.823	15957.46
744.162	15935.77
744.502	15960.85
744.841	15896.67
745.181	16077.91
745.52	15963.79
745.86	16127.85
746.199	16057.8
746.538	16026.61
746.877	16206.72
747.216	16182.09
747.556	16177.57
747.895	16185.7
748.234	16269.32
748.573	16259.83
748.911	16227.29
749.25	16208.3
749.589	16266.61
749.928	16408.07
750.267	16402.42
750.605	16549.54
750.944	16587.73
751.283	16567.62
751.621	16672.02
751.96	16594.06
752.298	16691.91
752.636	16775.97
752.975	16810.77
753.313	16829.76
753.651	16935.52
753.989	17018.9
754.327	17031.78
754.666	16997.66
755.004	17168.05
755.342	17154.72
755.679	17339.8
756.017	17322.62
756.355	17552.22
756.693	17411.21
757.031	17591.09
757.368	17626.8
757.706	17613.01
758.044	17736.62
758.381	17779.33
758.719	17778.88
759.056	17947.24
759.394	17896.62
759.731	17950.4
760.068	17994.24
760.405	18061.36
760.743	18072.43
761.08	18334.12
761.417	18198.31
761.754	18436.72
762.091	18391.75
762.428	18410.5
762.765	18383.84
763.102	18502.25
763.438	18535.7
763.775	18529.15
764.112	18613.44
764.449	18749.48
764.785	18769.37
765.122	18684.17
765.458	18633.78
765.795	18780.44
766.131	18754.9
766.467	18881.45
766.804	18883.03
767.14	18755.58
767.476	18893.66
767.812	18859.98
768.148	18974.11
768.485	18930.72
768.821	18806.88
769.157	18876.03
769.492	18838.74
769.828	18974.33
770.164	18772.98
770.5	18870.38
770.836	18888.68
771.171	18728.46
771.507	18848.46
771.842	18711.97
772.178	18757.84
772.513	18657.05
772.849	18835.8
773.184	18729.82
773.519	18738.41
773.855	18660.89
774.19	18655.92
774.525	18676.49
774.86	18755.81
775.195	18587.68
775.53	18622.7
775.865	18504.97
776.2	18412.54
776.535	18228.81
776.87	18347.46
777.205	18347.91
777.539	18333.67
777.874	18388.81
778.209	18087.58
778.543	18242.15
778.878	18111.08
779.212	18205.76
779.547	18013.23
779.881	18078.08
780.215	17952.66
780.55	18040.34
780.884	17830.18
781.218	17907.47
781.552	17902.72
781.886	17782.72
782.22	17690.07
782.554	17596.97
782.888	17528.27
783.222	17513.81
783.556	17354.94
783.889	17384.77
784.223	17292.57
784.557	17305.9
784.89	17310.42
785.224	17176.86
785.557	17164.89
785.891	17139.35
786.224	17051.67
786.558	17039.02
786.891	16963.54
787.224	16954.72
787.557	16846.7
787.891	16863.88
788.224	16838.34
788.557	16723.32
788.89	16744.79
789.223	16707.5
789.556	16608.97
789.888	16485.36
790.221	16521.74
790.554	16320.16
790.887	16400.39
791.219	16357.45
791.552	16295.53
791.884	16196.1
792.217	16156.78
792.549	16109.1
792.882	16081.53
793.214	16065.03
793.546	16020.96
793.879	15991.81
794.211	15820.74
794.543	15872.04
794.875	15794.75
795.207	15826.84
795.539	15713.85
795.871	15730.35
796.203	15609.9
796.535	15570.58
796.867	15553.63
797.198	15495.78
797.53	15464.14
797.862	15373.3
798.193	15364.26
798.525	15234.32
798.856	15288.1
799.188	15101.21
799.519	14991.84
799.85	14971.72
800.182	15089.24
800.513	14991.84
800.844	14861.22
801.175	14886.3
801.506	14913.87
801.837	14868.68
802.168	14771.73
802.499	14736.7
802.83	14680.43
803.161	14681.56
803.491	14603.6
803.822	14646.99
804.153	14537.61
804.483	14441.12
804.814	14409.03
805.145	14390.72
805.475	14386.2
805.805	14407.22
806.136	14338.52
806.466	14276.38
806.796	14276.15
807.126	14112.31
807.457	14131.52
807.787	14111.41
808.117	14076.38
808.447	14023.28
808.777	14027.12
809.107	14090.39
809.436	13951.64
809.766	13951.41
810.096	13876.16
810.426	13848.14
810.755	13854.92
811.085	13732.66
811.414	13817.86
811.744	13655.15
812.073	13623.96
812.403	13620.57
812.732	13566.11
813.061	13538.77
813.39	13517.75
813.719	13472.78
814.049	13501.71
814.378	13504.19
814.707	13387.13
815.036	13347.36
815.365	13364.08
815.693	13194.6
816.022	13265.1
816.351	13150.53
816.68	13045
817.008	13064.43
817.337	13023.53
817.665	12983.3
817.994	12988.95
818.322	13008.84
818.651	12939.46
818.979	12896.98
819.307	12926.13
819.636	12903.08
819.964	12878.45
820.292	12814.95
820.62	12854.72
820.948	12790.54
821.276	12868.05
821.604	12813.36
821.932	12782.4
822.259	12787.38
822.587	12844.1
822.915	12837.32
823.243	12826.02
823.57	12809.97
823.898	12738.34
824.225	12738.34
824.553	12761.84
824.88	12677.1
825.207	12680.49
825.535	12757.55
825.862	12830.09
826.189	12743.08
826.516	12840.48
826.843	12841.61
827.17	12736.08
827.497	12782.18
827.824	12797.54
828.151	12866.02
828.478	12706.47
828.805	12802.74
829.131	12675.51
829.458	12705.57
829.785	12601.84
830.111	12680.71
830.438	12753.48
830.764	12716.87
831.09	12766.36
831.417	12699.92
831.743	12674.84
832.069	12694.27
832.395	12599.13
832.722	12728.17
833.048	12605.23
833.374	12632.8
833.7	12539.25
834.026	12628.74
834.351	12704.67
834.677	12578.34
835.003	12616.53
835.329	12522.07
835.654	12537.44
835.98	12456.54
836.306	12572.24
836.631	12459.47
836.956	12456.08
837.282	12482.3
837.607	12393.04
837.932	12380.15
838.258	12408.63
838.583	12369.76
838.908	12331.57
839.233	12235.98
839.558	12353.26
839.883	12275.52
840.208	12193.72
840.533	12232.36
840.858	12211.8
841.182	12213.15
841.507	12185.58
841.832	12203.89
842.156	12078.02
842.481	12114.17
842.805	12096.77
843.13	12081.63
843.454	12060.39
843.778	11929.55
844.103	12016.55
844.427	11917.12
844.751	11910.34
845.075	11891.81
845.399	11800.96
845.723	11769.55
846.047	11811.58
846.371	11712.83
846.695	11717.12
847.019	11556
847.343	11551.25
847.666	11533.17
847.99	11464.25
848.313	11523
848.637	11392.61
848.96	11376.34
849.284	11335.89
849.607	11238.72
849.931	11243.24
850.254	11101.32
850.577	11130.24
850.9	11025.84
851.223	11043.01
851.546	10929.57
851.869	10886.86
852.192	10832.85
852.515	10898.84
852.838	10816.35
853.161	10770.71
853.483	10787.65
853.806	10753.3
854.129	10681.22
854.451	10689.8
854.774	10575.68
855.096	10533.65
855.419	10556.47
855.741	10498.85
856.063	10496.81
856.385	10447.32
856.708	10471.5
857.03	10336.37
857.352	10395.8
857.674	10256.14
857.996	10243.04
858.318	10303.15
858.64	10255.24
858.961	10244.62
859.283	10149.03
859.605	10148.57
859.926	10131.4
860.248	10084.17
860.57	10053.66
860.891	10029.03
861.212	9987.68
861.534	9935.02
861.855	10008.01
862.176	9991.06
862.498	10012.53
862.819	9943.38
863.14	9918.75
863.461	9864.51
863.782	9828.36
864.103	9907.68
864.424	9831.75
864.745	9831.97
865.065	9778.64
865.386	9723.28
865.707	9711.98
866.027	9747.46
866.348	9712.88
866.668	9716.95
866.989	9649.38
867.309	9595.14
867.63	9647.35
867.95	9595.6
868.27	9553.11
868.59	9578.87
868.91	9586.1
869.23	9561.7
869.55	9491.19
869.87	9493.68
870.19	9512.21
870.51	9435.15
870.83	9483.51
871.15	9409.39
871.469	9485.77
871.789	9495.94
872.109	9428.82
872.428	9315.6
872.748	9397.63
873.067	9383.4
873.386	9407.35
873.706	9348.6
874.025	9289.84
874.344	9257.52
874.663	9331.87
874.982	9201.26
875.301	9205.32
875.62	9201.03
875.939	9149.28
876.258	9205.77
876.577	9157.87
876.896	9112.9
877.214	9100.69
877.533	9109.05
877.852	9086.68
878.17	9139.11
878.489	9130.75
878.807	9102.5
879.125	9072.9
879.444	9037.87
879.762	9093.46
880.08	9004.42
880.398	8986.57
880.716	9026.12
881.034	8944.99
881.352	8976.4
881.67	8960.36
881.988	8987.93
882.306	8950.19
882.624	8894.6
882.941	8836.52
883.259	8835.16
883.577	8810.08
883.894	8796.97
884.212	8820.02
884.529	8829.29
884.846	8737.54
885.164	8708.16
885.481	8699.57
885.798	8742.51
886.115	8651.89
886.432	8664.55
886.75	8629.97
887.067	8593.14
887.383	8597.66
887.7	8612.34
888.017	8624.32
888.334	8555.62
888.651	8434.04
888.967	8547.26
889.284	8481.27
889.6	8448.05
889.917	8378.23
890.233	8363.99
890.55	8313.14
890.866	8364.89
891.182	8283.99
891.498	8265.46
891.815	8265.01
892.131	8222.07
892.447	8210.09
892.763	8098.46
893.079	8213.94
893.395	8105.01
893.71	8069.53
894.026	8074.96
894.342	8045.58
894.657	7918.13
894.973	8011.23
895.289	7999.93
895.604	7987.95
895.92	7860.05
896.235	7852.36
896.55	7901.85
896.865	7829.09
897.181	7774.17
897.496	7837.9
897.811	7792.7
898.126	7651.47
898.441	7738.92
898.756	7698.02
899.071	7572.82
899.386	7638.58
899.7	7626.83
900.015	7573.73
900.33	7479.49
900.644	7522.66
900.959	7523.33
901.273	7443.79
901.588	7438.14
901.902	7409.66
902.216	7354.52
902.531	7375.99
902.845	7303.68
903.159	7320.85
903.473	7323.11
903.787	7251.25
904.101	7243.79
904.415	7228.2
904.729	7156.79
905.042	7102.1
905.356	7099.16
905.67	7090.8
905.984	7174.19
906.297	7062.1
906.611	7031.14
906.924	6983.01
907.237	6995.21
907.551	6929.45
907.864	6929.45
908.177	6931.94
908.491	6873.18
908.804	6863.92
909.117	6820.98
909.43	6743.24
909.743	6760.87
910.056	6757.7
910.368	6692.85
910.681	6670.25
910.994	6652.4
911.307	6590.7
911.619	6599.29
911.932	6645.62
912.244	6515
912.557	6515.22
912.869	6484.26
913.181	6443.36
913.494	6384.15
913.806	6351.61
914.118	6415.79
914.43	6334.44
914.742	6344.61
915.054	6284.27
915.366	6333.31
915.678	6265.29
915.99	6183.26
916.302	6190.49
916.613	6176.7
916.925	6187.55
917.236	6157.04
917.548	6107.33
917.859	6084.05
918.171	6096.7
918.482	6018.97
918.794	5970.61
919.105	5982.13
919.416	5915.47
919.727	5910.49
920.038	5923.83
920.349	5822.81
920.66	5837.5
920.971	5804.73
921.282	5804.73
921.593	5795.02
921.903	5735.58
922.214	5746.66
922.525	5719.09
922.835	5706.88
923.146	5620.78
923.456	5673.21
923.767	5620.11
924.077	5597.28
924.387	5608.36
924.697	5548.47
925.008	5531.52
925.318	5518.87
925.628	5527.23
925.938	5469.6
926.248	5403.84
926.558	5407
926.867	5381.24
927.177	5370.85
927.487	5376.05
927.796	5303.28
928.106	5273.22
928.416	5265.54
928.725	5282.71
929.034	5230.06
929.344	5230.74
929.653	5197.07
929.962	5183.51
930.271	5132.89
930.581	5118.65
930.89	5071.65
931.199	5043.4
931.508	5064.64
931.817	5058.77
932.125	5000.69
932.434	4979.9
932.743	4917.98
933.051	4953.01
933.36	4882.27
933.669	4905.1
933.977	4882.72
934.286	4898.77
934.594	4837.3
934.902	4828.49
935.21	4844.99
935.519	4769.06
935.827	4755.04
936.135	4734.03
936.443	4705.78
936.751	4692
937.059	4671.88
937.367	4663.3
937.674	4634.37
937.982	4667.59
938.29	4594.14
938.597	4624.88
938.905	4531.32
939.213	4533.58
939.52	4528.61
939.827	4485.22
940.135	4486.35
940.442	4469.85
940.749	4438.22
941.056	4479.8
941.363	4368.84
941.67	4391.44
941.977	4354.83
942.284	4376.52
942.591	4372.68
942.898	4323.42
943.205	4357.09
943.511	4313.93
943.818	4284.1
944.125	4258.11
944.431	4225.79
944.738	4215.4
945.044	4180.37
945.35	4153.25
945.657	4152.57
945.963	4147.83
946.269	4135.17
946.575	4117.1
946.881	4108.73
947.187	4110.77
947.493	4080.94
947.799	4044.1
948.105	4017.44
948.41	4013.37
948.716	3994.84
949.022	3994.61
949.327	4002.52
949.633	3952.35
949.938	3961.62
950.244	3924.11
950.549	3872.13
950.854	3820.61
951.16	3891.11
951.465	3830.1
951.77	3790.78
952.075	3812.24
952.38	3806.14
952.685	3770.89
952.99	3768.63
953.294	3743.09
953.599	3745.35
953.904	3730.66
954.209	3712.13
954.513	3708.97
954.818	3656.77
955.122	3680.27
955.426	3622.19
955.731	3609.76
956.035	3632.14
956.339	3565.25
956.643	3596.43
956.948	3544.23
957.252	3532.48
957.556	3526.83
957.86	3538.58
958.163	3568.86
958.467	3483.89
958.771	3519.37
959.075	3471.69
959.378	3425.14
959.682	3446.6
959.985	3434.85
960.289	3408.64
960.592	3404.8
960.896	3368.87
961.199	3358.02
961.502	3368.87
961.805	3334.06
962.108	3302.2
962.411	3296.78
962.714	3288.42
963.017	3291.35
963.32	3249.55
963.623	3213.39
963.926	3239.6
964.228	3188.31
964.531	3226.95
964.833	3216.55
965.136	3161.64
965.438	3162.77
965.741	3091.59
966.043	3102.88
966.345	3070.34
966.648	3055.2
966.95	3090
967.252	3070.12
967.554	3052.72
967.856	3081.19
968.158	3014.07
968.46	3015.66
968.761	2961.65
969.063	3002.77
969.365	2971.81
969.666	2962.32
969.968	2937.69
970.269	2956.9
970.571	2926.84
970.872	2930.46
971.174	2913.51
971.475	2864.25
971.776	2893.17
972.077	2795.1
972.378	2853.17
972.679	2853.85
972.98	2867.18
973.281	2821.99
973.582	2769.56
973.883	2782.21
974.183	2775.44
974.484	2792.16
974.785	2775.21
975.085	2715.1
975.386	2785.83
975.686	2749.9
975.986	2708.77
976.287	2684.59
976.587	2692.5
976.887	2696.12
977.187	2653.86
977.487	2655.44
977.787	2620.64
978.087	2633.07
978.387	2610.47
978.687	2603.91
978.987	2597.36
979.286	2601.65
979.586	2577.93
979.885	2584.03
980.185	2555.33
980.484	2541.09
980.784	2496.35
981.083	2526.63
981.382	2494.31
981.682	2491.15
981.981	2508.1
982.28	2488.66
982.579	2445.27
982.878	2466.97
983.177	2446.18
983.475	2436.24
983.774	2439.85
984.073	2437.14
984.372	2400.98
984.67	2398.72
984.969	2379.51
985.267	2378.84
985.566	2379.29
985.864	2359.18
986.162	2357.37
986.461	2368.21
986.759	2334.77
987.057	2327.54
987.355	2306.07
987.653	2320.31
987.951	2285.05
988.249	2262.45
988.547	2255
988.844	2246.64
989.142	2233.53
989.44	2232.85
989.737	2222
990.035	2227.43
990.332	2194.43
990.63	2205.28
990.927	2188.11
991.224	2147.88
991.521	2154.89
991.819	2141.1
992.116	2121.67
992.413	2158.73
992.71	2123.25
993.006	2086.64
993.303	2122.12
993.6	2138.39
993.897	2094.78
994.193	2059.75
994.49	2076.02
994.787	2090.26
995.083	2038.73
995.379	2004.16
995.676	2007.77
995.972	2021.78
996.268	2004.38
996.565	1963.71
996.861	1971.16
997.157	1915.57
997.453	1965.74
997.749	1942.69
998.044	1963.25
998.34	1936.36
998.636	1947.21
998.932	1916.7
999.227	1881.45
999.523	1893.2
999.818	1890.26
1000.114	1862.47
1000.409	1852.75
1000.704	1865.4
1001	1854.56
1001.295	1872.63
1001.59	1836.7
1001.885	1829.25
1002.18	1814.56
1002.475	1813.65
1002.77	1791.51
1003.065	1777.95
1003.359	1788.57
1003.654	1767.55
1003.949	1754.9
1004.243	1732.07
1004.538	1739.98
1004.832	1729.36
1005.127	1732.98
1005.421	1700.44
1005.715	1704.28
1006.009	1713.77
1006.304	1701.11
1006.598	1702.24
1006.892	1678.06
1007.186	1672.87
1007.48	1667.22
1007.773	1635.35
1008.067	1650.04
1008.361	1616.37
1008.655	1643.26
1008.948	1602.36
1009.242	1581.79
1009.535	1585.64
1009.829	1573.66
1010.122	1561.23
1010.415	1564.85
1010.708	1563.04
1011.001	1539.99
1011.295	1551.06
1011.588	1503.38
1011.881	1523.49
1012.173	1520.33
1012.466	1484.62
1012.759	1496.83
1013.052	1480.1
1013.344	1479.42
1013.637	1471.06
1013.93	1460.67
1014.222	1445.75
1014.514	1429.48
1014.807	1413.21
1015.099	1434.45
1015.391	1427.22
1015.683	1417.73
1015.976	1413.66
1016.268	1400.56
1016.56	1356.26
1016.851	1349.26
1017.143	1390.16
1017.435	1350.61
1017.727	1334.57
1018.018	1332.99
1018.31	1353.55
1018.602	1334.8
1018.893	1309.26
1019.185	1295.93
1019.476	1290.05
1019.767	1291.63
1020.058	1276.04
1020.35	1287.79
1020.641	1282.14
1020.932	1279.2
1021.223	1260.67
1021.514	1269.26
1021.804	1239.43
1022.095	1258.87
1022.386	1218.19
1022.677	1176.61
1022.967	1215.48
1023.258	1200.34
1023.548	1194.23
1023.839	1173.22
1024.129	1170.51
1024.419	1182.71
1024.709	1165.99
1025	1168.25
1025.29	1151.98
1025.58	1153.78
1025.87	1146.33
1026.16	1125.99
1026.449	1135.48
1026.739	1121.02
1027.029	1132.77
1027.319	1086.67
1027.608	1110.62
1027.898	1094.58
1028.187	1076.72
1028.477	1085.76
1028.766	1074.46
1029.055	1051.86
1029.344	1047.8
1029.634	1048.02
1029.923	1045.09
1030.212	1045.31
1030.501	1041.02
1030.79	1038.08
1031.078	1046.89
1031.367	1011.64
1031.656	1022.94
1031.945	1008.48
1032.233	969.38
1032.522	998.31
1032.81	989.27
1033.099	967.8
1033.387	972.32
1033.675	975.03
1033.963	957.86
1034.251	948.59
1034.54	941.59
1034.828	961.47
1035.116	914.69
1035.403	944.75
1035.691	906.33
1035.979	920.57
1036.267	919.44
1036.554	870.85
1036.842	892.55
1037.129	870.85
1037.417	894.81
1037.704	891.42
1037.992	872.66
1038.279	861.59
1038.566	882.15
1038.853	882.15
1039.14	882.15
