Data from hue_90_FLMS001491_87.txt Node
Date: Mon Feb 06 15:25:48 GMT 2017
User: dcchb
Spectrometer: FLMS00149
Trigger mode: 0
Integration Time (sec): 2.000000E-2
Scans to average: 10
Electric dark correction enabled: true
Nonlinearity correction enabled: false
Boxcar width: 0
XAxis mode: Wavelengths
Number of Pixels in Spectrum: 2048
>>>>>Begin Spectral Data<<<<<
341.393	-21.36
341.776	-21.36
342.16	-21.36
342.543	-58.87
342.927	-59.77
343.31	-50.51
343.693	-66.55
344.077	-62.48
344.46	-65.42
344.843	-64.52
345.226	-47.8
345.61	-10.73
345.993	-19.77
346.376	-7.34
346.759	10.28
347.142	13.9
347.525	48.47
347.908	42.6
348.291	75.14
348.674	94.35
349.057	110.39
349.44	128.7
349.823	148.58
350.206	139.54
350.588	178.19
350.971	186.77
351.354	215.02
351.737	245.98
352.119	220.67
352.502	257.28
352.884	269.48
353.267	270.61
353.65	289.6
354.032	275.81
354.414	315.13
354.797	316.26
355.179	299.09
355.562	309.48
355.944	317.17
356.326	318.07
356.709	333.89
357.091	323.49
357.473	338.18
357.855	321.23
358.238	336.83
358.62	340.22
359.002	315.81
359.384	350.61
359.766	345.41
360.148	336.38
360.53	324.17
360.912	326.66
361.294	320.56
361.676	328.92
362.057	336.15
362.439	330.5
362.821	328.01
363.203	306.09
363.584	323.95
363.966	316.26
364.348	321.01
364.729	314.23
365.111	332.76
365.493	328.24
365.874	308.58
366.256	337.28
366.637	321.69
367.019	338.86
367.4	303.38
367.781	304.06
368.163	326.21
368.544	310.39
368.925	295.47
369.306	312.2
369.688	298.41
370.069	298.18
370.45	294.79
370.831	303.38
371.212	320.1
371.593	308.13
371.974	312.2
372.355	329.14
372.736	316.04
373.117	317.17
373.498	308.58
373.879	303.38
374.26	309.48
374.641	305.64
375.021	331.18
375.402	298.41
375.783	322.36
376.163	331.4
376.544	324.62
376.925	340.67
377.305	323.72
377.686	330.95
378.066	336.6
378.447	331.4
378.827	303.16
379.208	328.24
379.588	337.51
379.968	323.95
380.349	315.36
380.729	321.01
381.109	338.86
381.489	328.69
381.87	325.75
382.25	330.5
382.63	332.31
383.01	327.11
383.39	348.35
383.77	331.18
384.15	354.91
384.53	358.75
384.91	335.02
385.29	347.9
385.67	339.99
386.049	361.23
386.429	340.44
386.809	348.13
387.189	367.79
387.568	347.9
387.948	317.17
388.328	364.85
388.707	350.16
389.087	348.8
389.466	377.96
389.846	372.31
390.225	349.71
390.605	360.56
390.984	381.12
391.363	359.88
391.743	353.32
392.122	374.11
392.501	356.04
392.881	381.12
393.26	363.27
393.639	392.65
394.018	383.61
394.397	370.72
394.776	370.5
395.155	398.29
395.534	370.5
395.913	383.61
396.292	371.85
396.671	390.39
397.05	401.01
397.429	414.57
397.808	412.31
398.186	379.76
398.565	387.45
398.944	403.04
399.323	408.46
399.701	384.96
400.08	394.68
400.458	413.44
400.837	376.83
401.215	402.14
401.594	421.34
401.972	411.85
402.351	420.67
402.729	424.28
403.107	419.09
403.486	392.65
403.864	412.53
404.242	417.28
404.62	431.51
404.999	427.22
405.377	424.28
405.755	442.36
406.133	426.99
406.511	446.65
406.889	429.03
407.267	425.64
407.645	426.99
408.023	423.38
408.401	455.47
408.779	448.01
409.156	460.67
409.534	478.52
409.912	456.37
410.29	479.42
410.667	460.67
411.045	487.11
411.422	476.03
411.8	478.29
412.178	471.96
412.555	485.98
412.933	483.26
413.31	489.37
413.687	486.2
414.065	477.84
414.442	509.25
414.819	502.92
415.197	505.64
415.574	512.19
415.951	515.58
416.328	513.77
416.705	529.36
417.082	554.9
417.46	500.66
417.837	525.3
418.214	508.35
418.591	533.21
418.967	544.05
419.344	554.67
419.721	541.79
420.098	551.96
420.475	543.6
420.852	562.36
421.228	565.52
421.605	568.01
421.982	554.9
422.358	573.21
422.735	562.81
423.111	577.72
423.488	574.79
423.864	577.95
424.241	585.86
424.617	614.79
424.994	589.48
425.37	584.96
425.746	607.1
426.123	602.13
426.499	595.35
426.875	609.81
427.251	603.71
427.627	613.66
428.003	639.19
428.379	645.75
428.756	650.72
429.132	644.39
429.507	639.19
429.883	636.93
430.259	666.54
430.635	670.83
431.011	671.06
431.387	674.67
431.763	703.6
432.138	680.55
432.514	705.18
432.89	705.86
433.265	738.4
433.641	740.43
434.016	713.77
434.392	735.46
434.767	740.88
435.143	755.35
435.518	751.96
435.894	756.48
436.269	782.47
436.644	796.02
437.02	783.82
437.395	797.15
437.77	802.13
438.145	793.09
438.52	825.85
438.895	833.09
439.271	832.41
439.646	804.61
440.021	832.41
440.395	810.94
440.77	837.38
441.145	848.45
441.52	830.83
441.895	871.05
442.27	851.39
442.645	870.82
443.019	857.49
443.394	872.86
443.769	879.41
444.143	905.63
444.518	892.29
444.892	888.45
445.267	890.71
445.641	904.72
446.016	901.56
446.39	935.91
446.764	955.79
447.139	938.17
447.513	940.2
447.887	932.52
448.262	920.99
448.636	930.94
449.01	976.58
449.384	976.58
449.758	975.91
450.132	1005.96
450.506	998.28
450.88	995.12
451.254	996.7
451.628	1011.84
452.002	1006.19
452.376	1051.61
452.75	1038.73
453.123	1041.44
453.497	1042.35
453.871	1083.7
454.244	1094.32
454.618	1112.4
454.992	1100.2
455.365	1093.87
455.739	1134.77
456.112	1158.27
456.486	1147.2
456.859	1160.08
457.232	1171.83
457.606	1172.96
457.979	1196.24
458.352	1223.58
458.725	1224.49
459.099	1226.07
459.472	1245.96
459.845	1270.14
460.218	1284.82
460.591	1292.51
460.964	1311.94
461.337	1349.23
461.71	1345.39
462.083	1364.37
462.456	1369.12
462.829	1379.96
463.201	1410.92
463.574	1425.16
463.947	1425.84
464.32	1467.87
464.692	1487.53
465.065	1487.98
465.438	1525.04
465.81	1526.4
466.183	1550.35
466.555	1600.3
466.928	1600.97
467.3	1599.17
467.672	1624.7
468.045	1690.01
468.417	1699.5
468.789	1710.35
469.161	1731.82
469.534	1771.14
469.906	1797.58
470.278	1831.48
470.65	1869.44
471.022	1890.46
471.394	1907.41
471.766	1961.64
472.138	1986.28
472.51	2011.81
472.882	2089.1
473.253	2101.98
473.625	2180.62
473.997	2229.21
474.369	2246.83
474.74	2257
475.112	2315.08
475.484	2428.98
475.855	2471.91
476.227	2503.1
476.598	2578.58
476.97	2585.58
477.341	2658.35
477.713	2727.5
478.084	2768.4
478.455	2868.06
478.827	2919.13
479.198	3015.85
479.569	3049.07
479.94	3158.45
480.311	3228.5
480.682	3310.76
481.053	3419.23
481.424	3503.75
481.795	3593.46
482.166	3655.16
482.537	3764.31
482.908	3898.32
483.279	3947.13
483.65	4035.71
484.021	4158.42
484.391	4261.24
484.762	4292.88
485.133	4378.08
485.503	4540.33
485.874	4685.87
486.244	4728.8
486.615	4873.21
486.985	4973.09
487.356	5149.13
487.726	5249.01
488.097	5412.17
488.467	5457.37
488.837	5618.95
489.207	5770.81
489.578	5926.74
489.948	5983.01
490.318	6144.13
490.688	6222.55
491.058	6356.33
491.428	6501.64
491.798	6655.98
492.168	6759.03
492.538	6909.76
492.908	7015.52
493.278	7195.4
493.648	7255.29
494.017	7450.09
494.387	7535.28
494.757	7609.63
495.126	7784.54
495.496	7905.44
495.866	7981.6
496.235	8151.09
496.605	8229.95
496.974	8358.54
497.344	8523.5
497.713	8587.68
498.082	8687.57
498.452	8811.18
498.821	8957.39
499.19	9068.8
499.559	9118.07
499.928	9241.9
500.298	9342.69
500.667	9468.79
501.036	9475.34
501.405	9675.11
501.774	9708.56
502.143	9774.09
502.512	9832.62
502.88	10007.53
503.249	10028.32
503.618	10148.09
503.987	10241.2
504.356	10372.27
504.724	10365.04
505.093	10461.31
505.462	10496.56
505.83	10609.33
506.199	10696.78
506.567	10874.18
506.936	10897.91
507.304	11009.77
507.672	11042.53
508.041	11135.87
508.409	11212.93
508.777	11311.91
509.145	11397.1
509.514	11348.29
509.882	11416.08
510.25	11519.36
510.618	11684.1
510.986	11684.55
511.354	11774.04
511.722	11881.83
512.09	11988.05
512.458	11914.38
512.826	12080.25
513.193	12172.45
513.561	12073.92
513.929	12221.94
514.297	12309.39
514.664	12258.1
515.032	12357.98
515.4	12415.38
515.767	12425.32
516.135	12558.2
516.502	12450.63
516.869	12602.27
517.237	12722.94
517.604	12663.96
517.972	12799.55
518.339	12843.84
518.706	12769.95
519.073	12915.03
519.44	12947.8
519.808	12987.12
520.175	12972.2
520.542	13163.38
520.909	13185.3
521.276	13165.87
521.643	13197.51
522.009	13301.23
522.376	13258.52
522.743	13370.83
523.11	13381
523.477	13487.44
523.843	13555.91
524.21	13612.41
524.577	13684.72
524.943	13640.66
525.31	13689.92
525.676	13805.4
526.043	13829.13
526.409	13787.1
526.776	13956.58
527.142	13938.96
527.508	14003.36
527.874	13995.45
528.241	14011.72
528.607	14019.63
528.973	14173.07
529.339	14046.52
529.705	14170.36
530.071	14220.53
530.437	14245.61
530.803	14295.1
531.169	14248.1
531.535	14154.09
531.901	14273.41
532.267	14243.35
532.632	14285.16
532.998	14314.99
533.364	14320.41
533.73	14325.61
534.095	14407.42
534.461	14353.63
534.826	14380.98
535.192	14403.8
535.557	14415.33
535.923	14337.36
536.288	14303.47
536.653	14325.61
537.019	14305.73
537.384	14288.55
537.749	14328.55
538.114	14219.85
538.479	14338.04
538.845	14246.52
539.21	14176.01
539.575	14179.4
539.94	14277.7
540.305	14271.15
540.67	14179.63
541.034	14104.15
541.399	14186.63
541.764	14224.15
542.129	14165.39
542.494	14093.08
542.858	14100.76
543.223	14065.28
543.587	14110.25
543.952	14144.15
544.316	14006.98
544.681	13975.56
545.045	14006.07
545.41	14025.96
545.774	13925.85
546.138	13906.19
546.503	13937.6
546.867	13846.3
547.231	14020.08
547.595	13957.26
547.959	13894.89
548.324	13846.75
548.688	13882.46
549.052	13920.65
549.416	13790.94
549.779	13762.69
550.143	13701.67
550.507	13788.23
550.871	13856.47
551.235	13672.75
551.599	13822.12
551.962	13716.81
552.326	13725.85
552.689	13679.75
553.053	13582.35
553.417	13593.43
553.78	13722.24
554.143	13635.46
554.507	13642.47
554.87	13682.92
555.234	13772.86
555.597	13624.39
555.96	13566.08
556.323	13613.54
556.686	13700.77
557.05	13672.07
557.413	13593.65
557.776	13662.13
558.139	13680.43
558.502	13597.95
558.865	13696.7
559.228	13687.44
559.59	13657.16
559.953	13630.94
560.316	13803.82
560.679	13692.86
561.041	13762.69
561.404	13789.13
561.767	13778.28
562.129	13710.71
562.492	13823.7
562.854	13823.03
563.217	13787.77
563.579	13785.06
563.941	13863.93
564.304	13803.82
564.666	13893.53
565.028	13929.01
565.39	13895.79
565.753	13897.37
566.115	14010.82
566.477	14012.63
566.839	14066.41
567.201	14105.28
567.563	13963.59
567.925	14058.73
568.287	14051.95
568.648	14090.14
569.01	14027.54
569.372	14159.06
569.734	14093.3
570.095	14239.29
570.457	14215.11
570.819	14172.85
571.18	14166.29
571.542	14298.27
571.903	14329.91
572.265	14278.38
572.626	14321.09
572.987	14321.09
573.349	14334.43
573.71	14375.1
574.071	14382.11
574.432	14387.76
574.794	14393.86
575.155	14431.82
575.516	14387.31
575.877	14380.3
576.238	14446.74
576.599	14484.7
576.96	14491.94
577.32	14487.42
577.681	14434.99
578.042	14510.24
578.403	14432.28
578.763	14517.25
579.124	14603.34
579.485	14520.86
579.845	14582.55
580.206	14526.28
580.566	14493.97
580.927	14512.5
581.287	14570.58
581.648	14568.54
582.008	14625.27
582.368	14565.61
582.728	14603.8
583.089	14604.47
583.449	14512.27
583.809	14565.61
584.169	14498.71
584.529	14569
584.889	14645.15
585.249	14500.97
585.609	14428.21
585.969	14588.43
586.329	14495.1
586.688	14512.27
587.048	14466.63
587.408	14471.6
587.768	14427.98
588.127	14455.1
588.487	14421.2
588.846	14542.1
589.206	14337.82
589.565	14417.81
589.925	14413.97
590.284	14404.71
590.643	14433.63
591.003	14358.61
591.362	14427.76
591.721	14378.27
592.08	14398.38
592.44	14401.32
592.799	14430.47
593.158	14468.89
593.517	14355.67
593.876	14328.55
594.235	14355.44
594.593	14341.43
594.952	14319.96
595.311	14382.11
595.67	14281.09
596.029	14417.14
596.387	14404.03
596.746	14355.67
597.104	14367.42
597.463	14362.45
597.822	14426.17
598.18	14313.86
598.538	14274.09
598.897	14369.68
599.255	14226.18
599.613	14491.71
599.972	14377.59
600.33	14295.1
600.688	14339.85
601.046	14395.21
601.404	14388.89
601.762	14341.66
602.12	14356.8
602.478	14325.39
602.836	14377.14
603.194	14308.44
603.552	14311.38
603.91	14303.01
604.268	14336.69
604.625	14303.92
604.983	14371.71
605.341	14362.22
605.698	14397.47
606.056	14326.29
606.413	14410.36
606.771	14399.28
607.128	14412.84
607.485	14367.42
607.843	14364.71
608.2	14320.41
608.557	14470.69
608.914	14428.21
609.272	14411.71
609.629	14498.26
609.986	14434.99
610.343	14445.16
610.7	14498.94
611.057	14521.31
611.414	14561.09
611.771	14478.38
612.127	14545.04
612.484	14512.5
612.841	14547.98
613.198	14611.03
613.554	14621.2
613.911	14665.26
614.267	14559.5
614.624	14613.06
614.98	14663
615.337	14704.36
615.693	14658.48
616.05	14628.65
616.406	14695.55
616.762	14619.16
617.118	14618.49
617.475	14700.29
617.831	14806.05
618.187	14715.66
618.543	14724.02
618.899	14755.43
619.255	14714.98
619.611	14811.7
619.967	14913.85
620.323	14839.72
620.678	14866.61
621.034	14753.17
621.39	14846.05
621.746	14779.16
622.101	14879.27
622.457	14774.87
622.812	14834.98
623.168	14917.46
623.523	14777.8
623.879	14897.8
624.234	14819.38
624.589	14797.92
624.945	14865.94
625.3	14909.78
625.655	14789.1
626.01	14872.49
626.365	14782.32
626.72	14724.7
627.075	14793.17
627.43	14808.31
627.785	14724.92
628.14	14847.63
628.495	14805.37
628.85	14768.31
629.205	14698.03
629.559	14787.29
629.914	14749.56
630.269	14757.01
630.623	14678.37
630.978	14727.64
631.332	14629.11
631.687	14641.54
632.041	14651.48
632.396	14626.4
632.75	14654.87
633.104	14628.43
633.459	14623.23
633.813	14561.31
634.167	14596.79
634.521	14587.07
634.875	14608.77
635.229	14478.15
635.583	14474.08
635.937	14470.47
636.291	14411.71
636.645	14477.47
636.999	14419.17
637.352	14401.09
637.706	14382.79
638.06	14386.4
638.413	14329.68
638.767	14343.92
639.121	14274.99
639.474	14324.93
639.828	14225.5
640.181	14269.12
640.534	14259.4
640.888	14282.22
641.241	14271.83
641.594	14241.55
641.947	14193.19
642.301	14255.11
642.654	14255.56
643.007	14192.51
643.36	14145.73
643.713	14106.41
644.066	14113.19
644.419	14159.97
644.771	13992.29
645.124	13877.49
645.477	13952.97
645.83	13808.34
646.182	13734.44
646.535	13635.46
646.888	13679.53
647.24	13678.62
647.593	13694.22
647.945	13644.95
648.298	13560.43
648.65	13625.29
649.002	13627.78
649.355	13557.5
649.707	13565.86
650.059	13689.7
650.411	13823.93
650.763	13849.47
651.115	14056.24
651.467	13971.27
651.819	14012.63
652.171	13924.94
652.523	13883.36
652.875	13942.12
653.227	13920.65
653.578	13979.86
653.93	13915
654.282	13876.13
654.633	13961.78
654.985	13872.06
655.337	13886.75
655.688	13886.98
656.039	13939.86
656.391	13850.37
656.742	13880.43
657.094	13949.8
657.445	13895.11
657.796	13865.06
658.147	13920.88
658.498	13858.05
658.849	13914.32
659.2	13991.16
659.551	13888.11
659.902	13941.22
660.253	13825.06
660.604	13913.87
660.955	13886.98
661.306	13969.24
661.656	13874.55
662.007	13929.01
662.358	13936.92
662.708	13936.47
663.059	13891.5
663.409	13902.35
663.76	13939.18
664.11	14026.18
664.461	13983.25
664.811	13975.79
665.161	13994.77
665.511	13955.45
665.862	13927.43
666.212	14021.89
666.562	14023.7
666.912	13993.19
667.262	13929.92
667.612	13927.66
667.962	13958.84
668.312	13938.28
668.662	14007.43
669.011	13921.1
669.361	13918.39
669.711	13959.52
670.06	13877.49
670.41	13843.82
670.76	13746.64
671.109	13873.42
671.459	13803.59
671.808	13818.05
672.157	13861.44
672.507	13697.38
672.856	13711.16
673.205	13832.29
673.554	13798.62
673.904	13814.89
674.253	13869.58
674.602	13722.46
674.951	13573.77
675.3	13558.85
675.649	13738.06
675.998	13749.58
676.346	13759.53
676.695	13711.16
677.044	13636.82
677.393	13719.53
677.741	13691.73
678.09	13651.73
678.438	13647.21
678.787	13616.93
679.135	13650.83
679.484	13566.31
679.832	13602.69
680.181	13543.71
680.529	13477.95
680.877	13493.77
681.225	13515.24
681.573	13566.99
681.922	13417.39
682.27	13350.5
682.618	13392.53
682.966	13348.24
683.314	13365.86
683.661	13305.07
684.009	13291.97
684.357	13242.02
684.705	13176.04
685.053	13203.16
685.4	13248.58
685.748	13098.98
686.095	13134.68
686.443	13102.82
686.79	13038.87
687.138	13034.35
687.485	13074.35
687.832	12951.64
688.18	13062.14
688.527	12960.22
688.874	12912.32
689.221	12920.45
689.568	12862.6
689.915	12884.97
690.262	12807.91
690.609	12756.84
690.956	12705.77
691.303	12679.78
691.65	12602.04
691.997	12673.68
692.344	12475.49
692.69	12459.22
693.037	12578.54
693.383	12375.15
693.73	12470.97
694.077	12300.13
694.423	12311.65
694.769	12351.43
695.116	12251.09
695.462	12215.39
695.808	12151.88
696.155	12169.51
696.501	12053.13
696.847	12053.36
697.193	11956.41
697.539	11944.43
697.885	11812.68
698.231	11797.32
698.577	11839.58
698.923	11797.09
699.269	11713.48
699.614	11723.19
699.96	11618.34
700.306	11689.75
700.651	11578.79
700.997	11518
701.342	11508.51
701.688	11538.79
702.033	11493.82
702.379	11426.03
702.724	11353.26
703.069	11365.24
703.415	11248.4
703.76	11275.07
704.105	11249.08
704.45	11221.06
704.795	11212.25
705.14	11158.46
705.485	11070.78
705.83	11038.92
706.175	11010.9
706.52	10998.02
706.865	10951.01
707.209	10955.53
707.554	10856.55
707.899	10913.5
708.243	10861.52
708.588	10850.45
708.932	10761.86
709.277	10774.74
709.621	10734.07
709.966	10642.77
710.31	10695.65
710.654	10606.16
710.998	10605.94
711.342	10609.55
711.687	10596.44
712.031	10455.21
712.375	10421.53
712.719	10485.94
713.063	10414.08
713.407	10473.74
713.75	10368.43
714.094	10425.6
714.438	10329.56
714.782	10378.37
715.125	10347.86
715.469	10356.45
715.812	10179.28
716.156	10240.97
716.499	10212.95
716.843	10312.61
717.186	10241.88
717.53	10206.17
717.873	10131.82
718.216	10254.31
718.559	10119.39
718.902	10086.85
719.246	10148.32
719.589	10097.25
719.932	10149.45
720.275	10081.43
720.617	10096.57
720.96	10042.56
721.303	10012.05
721.646	10011.38
721.989	9952.85
722.331	10021.54
722.674	10013.86
723.016	9996.91
723.359	9903.81
723.701	9954.43
724.044	9900.64
724.386	9884.6
724.729	9836.24
725.071	9855.22
725.413	9847.09
725.755	9859.51
726.097	9808.67
726.439	9783.13
726.782	9808.44
727.124	9849.8
727.465	9794.88
727.807	9756.69
728.149	9748.33
728.491	9669.69
728.833	9765.96
729.175	9682.8
729.516	9756.47
729.858	9700.65
730.199	9723.93
730.541	9733.42
730.882	9734.77
731.224	9739.29
731.565	9753.98
731.906	9698.62
732.248	9737.03
732.589	9680.08
732.93	9664.94
733.271	9729.8
733.612	9692.97
733.953	9715.79
734.294	9700.65
734.635	9721.89
734.976	9617.49
735.317	9667.43
735.658	9616.81
735.999	9716.47
736.339	9632.63
736.68	9687.54
737.021	9603.93
737.361	9680.54
737.702	9674.89
738.042	9650.03
738.383	9627.66
738.723	9636.92
739.063	9646.19
739.404	9691.16
739.744	9719.18
740.084	9660.2
740.424	9752.4
740.764	9659.07
741.104	9732.06
741.444	9666.98
741.784	9620.43
742.124	9701.1
742.464	9713.98
742.804	9743.36
743.143	9725.28
743.483	9766.18
743.823	9801.44
744.162	9816.13
744.502	9835.33
744.841	9836.69
745.181	9960.98
745.52	9876.46
745.86	9946.07
746.199	10026.52
746.538	10019.96
746.877	10047.08
747.216	10163.91
747.556	10130.47
747.895	10170.47
748.234	10181.09
748.573	10280.97
748.911	10292.27
749.25	10292.95
749.589	10358.03
749.928	10453.17
750.267	10484.36
750.605	10577.24
750.944	10574.98
751.283	10595.31
751.621	10726.16
751.96	10715.31
752.298	10795.76
752.636	10946.04
752.975	10935.87
753.313	11042.53
753.651	11147.84
753.989	11186.49
754.327	11263.77
754.666	11408.17
755.004	11481.62
755.342	11622.86
755.679	11752.12
756.017	11775.62
756.355	11926.35
756.693	11952.57
757.031	12086.8
757.368	12259.23
757.706	12261.71
758.044	12437.3
758.381	12664.86
758.719	12658.09
759.056	12868.7
759.394	12992.99
759.731	13017.85
760.068	13214.45
760.405	13315.47
760.743	13492.19
761.08	13601.79
761.417	13725.18
761.754	13879.3
762.091	13953.64
762.428	14005.62
762.765	14135.56
763.102	14348.21
763.438	14422.11
763.775	14579.39
764.112	14664.81
764.449	14869.1
764.785	14993.84
765.122	14976.89
765.458	15205.36
765.795	15224.35
766.131	15410.33
766.467	15577.78
766.804	15569.42
767.14	15627.27
767.476	15764.22
767.812	15912.69
768.148	16000.82
768.485	16037.21
768.821	16160.82
769.157	16296.86
769.492	16350.19
769.828	16385.44
770.164	16407.82
770.5	16633.35
770.836	16739.79
771.171	16592.22
771.507	16774.59
771.842	16829.95
772.178	16880.57
772.513	16982.04
772.849	16990.4
773.184	17135.93
773.519	17152.2
773.855	17215.48
774.19	17203.05
774.525	17209.6
774.86	17387.45
775.195	17311.07
775.53	17379.32
775.865	17396.72
776.2	17323.05
776.535	17275.14
776.87	17421.8
777.205	17375.48
777.539	17428.13
777.874	17411.86
778.209	17394.46
778.543	17391.29
778.878	17417.73
779.212	17528.01
779.547	17477.17
779.881	17503.83
780.215	17277.4
780.55	17544.06
780.884	17436.26
781.218	17390.39
781.552	17516.26
781.886	17420.22
782.22	17427.23
782.554	17394.01
782.888	17268.59
783.222	17378.41
783.556	17263.16
783.889	17248.7
784.223	17160.57
784.557	17239.43
784.89	17306.1
785.224	17221.36
785.557	17282.37
785.891	17162.83
786.224	17282.37
786.558	17193.56
786.891	17112.88
787.224	17018.65
787.557	17090.51
787.891	17012.1
788.224	16967.58
788.557	16988.59
788.89	17005.09
789.223	16912.44
789.556	16896.62
789.888	16788.6
790.221	16795.83
790.554	16714.7
790.887	16874.02
791.219	16748.6
791.552	16738.66
791.884	16668.83
792.217	16580.02
792.549	16556.74
792.882	16522.62
793.214	16440.81
793.546	16511.32
793.879	16375.5
794.211	16302.74
794.543	16375.95
794.875	16354.03
795.207	16418.21
795.539	16287.14
795.871	16318.55
796.203	16268.39
796.535	16160.14
796.867	16121.5
797.198	16017.32
797.53	16046.24
797.862	15972.8
798.193	16014.16
798.525	15890.54
798.856	15943.65
799.188	15754.73
799.519	15712.69
799.85	15658.68
800.182	15709.76
800.513	15749.76
800.844	15535.75
801.175	15657.78
801.506	15676.31
801.837	15553.83
802.168	15524
802.499	15476.09
802.83	15371.69
803.161	15431.8
803.491	15377.11
803.822	15319.03
804.153	15338.92
804.483	15188.64
804.814	15142.77
805.145	15152.71
805.475	15086.72
805.805	15078.36
806.136	15078.36
806.466	15056.89
806.796	14975.31
807.126	14967.18
807.457	14819.38
807.787	14860.29
808.117	14834.53
808.447	14850.34
808.777	14799.95
809.107	14792.04
809.436	14719.27
809.766	14630.69
810.096	14692.16
810.426	14616.68
810.755	14686.28
811.085	14602.44
811.414	14589.33
811.744	14520.41
812.073	14453.52
812.403	14414.65
812.732	14337.59
813.061	14340.75
813.39	14222.34
813.719	14288.55
814.049	14388.44
814.378	14290.81
814.707	14144.6
815.036	14175.33
815.365	14080.42
815.693	13999.07
816.022	14040.65
816.351	14035.9
816.68	13898.96
817.008	14037.03
817.337	13837.49
817.665	13863.7
817.994	13969.01
818.322	13915.91
818.651	13758.17
818.979	13782.8
819.307	13836.36
819.636	13776.25
819.964	13632.07
820.292	13643.82
820.62	13786.19
820.948	13685.4
821.276	13755.91
821.604	13612.18
821.932	13736.93
822.259	13653.31
822.587	13678.17
822.915	13656.7
823.243	13647.66
823.57	13567.44
823.898	13736.02
824.225	13557.72
824.553	13566.76
824.88	13640.43
825.207	13674.1
825.535	13621.68
825.862	13633.88
826.189	13640.88
826.516	13649.47
826.843	13680.21
827.17	13742.35
827.497	13672.52
827.824	13679.3
828.151	13676.59
828.478	13671.17
828.805	13669.36
829.131	13685.63
829.458	13575.35
829.785	13550.04
830.111	13612.18
830.438	13721.11
830.764	13621.45
831.09	13688.57
831.417	13577.16
831.743	13636.59
832.069	13588.68
832.395	13618.06
832.722	13566.54
833.048	13513.66
833.374	13617.16
833.7	13539.42
834.026	13500.1
834.351	13566.99
834.677	13504.39
835.003	13531.06
835.329	13614.9
835.654	13525.63
835.98	13441.12
836.306	13515.69
836.631	13435.24
836.956	13447.89
837.282	13454.9
837.607	13403.83
837.932	13352.08
838.258	13331.74
838.583	13393.43
838.908	13312.53
839.233	13254.91
839.558	13144.85
839.883	13220.1
840.208	13241.35
840.533	13236.83
840.858	13170.39
841.182	13207.9
841.507	13163.61
841.832	13098.3
842.156	13143.5
842.481	13086.32
842.805	13048.36
843.13	12943.05
843.454	12972.65
843.778	12965.65
844.103	12921.81
844.427	12952.31
844.751	12834.8
845.075	12811.53
845.399	12721.36
845.723	12651.08
846.047	12827.12
846.371	12670.51
846.695	12584.64
847.019	12517.98
847.343	12509.16
847.666	12423.52
847.99	12475.27
848.313	12304.87
848.637	12291.77
848.96	12292.9
849.284	12261.71
849.607	12171.09
849.931	12196.18
850.254	12003.64
850.577	11982.85
850.9	11900.82
851.223	11970.87
851.546	11802.29
851.869	11801.16
852.192	11785.11
852.515	11649.07
852.838	11650.2
853.161	11674.16
853.483	11580.15
853.806	11521.17
854.129	11484.1
854.451	11422.19
854.774	11447.27
855.096	11430.55
855.419	11382.41
855.741	11335.63
856.063	11235.3
856.385	11304.9
856.708	11175.41
857.03	11205.69
857.352	11126.15
857.674	11089.76
857.996	11158.92
858.318	11149.88
858.64	11066.71
858.961	11015.64
859.283	10976.1
859.605	10913.72
859.926	10941.75
860.248	10863.78
860.57	10855.65
860.891	10912.59
861.212	10854.29
861.534	10826.27
861.855	10782.88
862.176	10777
862.498	10752.37
862.819	10699.04
863.14	10672.83
863.461	10664.92
863.782	10643.22
864.103	10593.96
864.424	10584.02
864.745	10532.04
865.065	10536.56
865.386	10424.92
865.707	10487.07
866.027	10487.52
866.348	10455.66
866.668	10499.95
866.989	10455.66
867.309	10352.16
867.63	10487.75
867.95	10378.82
868.27	10324.81
868.59	10293.18
868.91	10237.13
869.23	10305.83
869.55	10239.17
869.87	10353.97
870.19	10275.32
870.51	10289.33
870.83	10286.62
871.15	10165.95
871.469	10222.22
871.789	10224.02
872.109	10177.47
872.428	10173.4
872.748	10215.66
873.067	10162.78
873.386	10106.51
873.706	10082.33
874.025	10091.37
874.344	10030.58
874.663	10057.25
874.982	10070.81
875.301	10080.53
875.62	10041.2
875.939	9990.58
876.258	9961.43
876.577	9934.99
876.896	9856.8
877.214	9862.23
877.533	9886.86
877.852	9860.64
878.17	9881.89
878.489	9929.57
878.807	9832.4
879.125	9764.15
879.444	9807.31
879.762	9765.96
880.08	9780.87
880.398	9751.27
880.716	9740.42
881.034	9673.08
881.352	9752.62
881.67	9718.5
881.988	9657.49
882.306	9675.11
882.624	9644.38
882.941	9592.86
883.259	9524.61
883.577	9520.31
883.894	9537.94
884.212	9509.69
884.529	9457.27
884.846	9456.36
885.164	9430.6
885.481	9399.41
885.798	9408
886.115	9274.22
886.432	9348.34
886.75	9255.91
887.067	9295.69
887.383	9182.24
887.7	9312.18
888.017	9248.91
888.334	9203.94
888.651	9176.14
888.967	9165.75
889.284	9075.81
889.6	9153.77
889.917	9008.24
890.233	9052.53
890.55	9003.04
890.866	8989.48
891.182	8995.13
891.498	8981.35
891.815	8981.35
892.131	8896.15
892.447	8827
892.763	8793.1
893.079	8815.7
893.395	8784.97
893.71	8760.79
894.026	8773.44
894.342	8727.34
894.657	8695.25
894.973	8642.37
895.289	8604.18
895.604	8536.39
895.92	8611.41
896.235	8544.75
896.55	8515.82
896.865	8481.47
897.181	8429.04
897.496	8455.71
897.811	8354.92
898.126	8395.37
898.441	8355.6
898.756	8357.86
899.071	8226.79
899.386	8292.55
899.7	8199.9
900.015	8187.47
900.33	8112.89
900.644	8164.19
900.959	8138.88
901.273	8049.84
901.588	8037.42
901.902	7987.25
902.216	8007.81
902.531	7976.63
902.845	7927.81
903.159	7865.44
903.473	7824.77
903.787	7845.56
904.101	7781.6
904.415	7801.94
904.729	7770.76
905.042	7720.81
905.356	7683.3
905.67	7676.97
905.984	7595.39
906.297	7572.57
906.611	7465
906.924	7561.5
907.237	7547.71
907.551	7540.25
907.864	7392.69
908.177	7461.39
908.491	7381.84
908.804	7378.22
909.117	7300.71
909.43	7286.93
909.743	7252.13
910.056	7288.06
910.368	7179.59
910.681	7177.78
910.994	7111.56
911.307	7111.56
911.619	7063.2
911.932	7060.49
912.244	6992.25
912.557	7018.46
912.869	6965.58
913.181	6995.18
913.494	6955.41
913.806	6846.94
914.118	6811.23
914.43	6823.66
914.742	6833.15
915.054	6732.14
915.366	6747.28
915.678	6733.95
915.99	6628.41
916.302	6633.61
916.613	6702.31
916.925	6649.43
917.236	6588.19
917.548	6545.25
917.859	6556.1
918.171	6552.03
918.482	6481.52
918.794	6449.21
919.105	6508.42
919.416	6378.7
919.727	6394.52
920.038	6323.79
920.349	6308.87
920.66	6325.14
920.971	6284.69
921.282	6286.73
921.593	6195.43
921.903	6214.19
922.214	6122.44
922.525	6144.36
922.835	6163.34
923.146	6086.96
923.456	6081.31
923.767	6070.24
924.077	6048.54
924.387	6011.93
924.697	5951.37
925.008	5968.77
925.318	5967.41
925.628	5926.96
925.938	5860.07
926.248	5873.63
926.558	5855.33
926.867	5771.49
927.177	5793.18
927.487	5820.75
927.796	5723.58
928.106	5706.18
928.416	5650.59
928.725	5738.72
929.034	5695.1
929.344	5642.45
929.653	5632.73
929.962	5558.61
930.271	5568.55
930.581	5556.58
930.89	5496.01
931.199	5501.66
931.508	5450.37
931.817	5484.49
932.125	5406.75
932.434	5438.16
932.743	5376.47
933.051	5331.72
933.36	5320.43
933.669	5259.18
933.977	5277.26
934.286	5268
934.594	5274.1
934.902	5168.56
935.21	5209.24
935.519	5194.78
935.827	5168.56
936.135	5060.77
936.443	5095.8
936.751	5061.67
937.059	5078.17
937.367	5010.83
937.674	5015.8
937.982	4999.76
938.29	4983.94
938.597	4967.89
938.905	4913.43
939.213	4911.17
939.52	4819.87
939.827	4916.59
940.135	4838.63
940.442	4841.34
940.749	4832.75
941.056	4812.19
941.363	4794.56
941.67	4783.94
941.977	4754.79
942.284	4735.13
942.591	4722.25
942.898	4693.55
943.205	4687
943.511	4664.17
943.818	4583.72
944.125	4622.36
944.431	4547.11
944.738	4597.73
945.044	4552.99
945.35	4525.64
945.657	4460.56
945.963	4456.94
946.269	4450.84
946.575	4423.05
946.881	4471.63
947.187	4421.92
947.493	4440.45
947.799	4352.31
948.105	4383.5
948.41	4363.39
948.716	4362.48
949.022	4308.47
949.327	4284.52
949.633	4237.06
949.938	4225.76
950.244	4251.98
950.549	4197.52
950.854	4196.16
951.16	4187.12
951.465	4129.72
951.77	4125.88
952.075	4116.84
952.38	4064.41
952.685	4097.86
952.99	4069.38
953.294	4060.57
953.599	4034.13
953.904	3990.52
954.209	4005.21
954.513	4018.09
954.818	3953.91
955.122	3959.56
955.426	3920.24
955.731	3930.86
956.035	3881.37
956.339	3890.86
956.643	3857.19
956.948	3824.65
957.252	3824.42
957.556	3813.12
957.86	3793.23
958.163	3782.61
958.467	3789.62
958.771	3745.33
959.075	3711.43
959.378	3703.52
959.682	3701.26
959.985	3659.45
960.289	3660.13
960.592	3609.74
960.896	3622.84
961.199	3627.81
961.502	3591.88
961.805	3606.8
962.108	3560.92
962.411	3565.67
962.714	3544.88
963.017	3494.71
963.32	3537.65
963.623	3478.21
963.926	3488.38
964.228	3481.83
964.531	3465.11
964.833	3430.76
965.136	3407.93
965.438	3438.67
965.741	3399.57
966.043	3410.42
966.345	3353.02
966.648	3367.26
966.95	3322.06
967.252	3325
967.554	3305.34
967.856	3299.69
968.158	3232.8
968.46	3271.21
968.761	3268.28
969.063	3231.21
969.365	3219.92
969.666	3218.33
969.968	3168.84
970.269	3134.27
970.571	3175.62
970.872	3140.6
971.174	3131.33
971.475	3147.83
971.776	3146.02
972.077	3116.19
972.378	3087.04
972.679	3088.17
972.98	3043.87
973.281	3032.12
973.582	3055.63
973.883	3026.93
974.183	2997.55
974.484	3015.4
974.785	3013.37
975.085	2965.23
975.386	2983.76
975.686	2963.88
975.986	2897.89
976.287	2920.94
976.587	2912.13
976.887	2869.42
977.187	2882.52
977.487	2880.26
977.787	2851.34
978.087	2851.34
978.387	2854.73
978.687	2835.97
978.987	2796.65
979.286	2767.95
979.586	2744.9
979.885	2766.82
980.185	2755.75
980.484	2750.55
980.784	2731.57
981.083	2705.13
981.382	2698.35
981.682	2690.89
981.981	2690.66
982.28	2669.65
982.579	2665.35
982.878	2676.65
983.177	2636.2
983.475	2668.07
983.774	2649.53
984.073	2641.17
984.372	2634.62
984.67	2581.29
984.969	2544
985.267	2574.06
985.566	2559.14
985.864	2547.84
986.162	2563.89
986.461	2526.15
986.759	2507.17
987.057	2495.64
987.355	2471.91
987.653	2461.07
987.951	2482.53
988.249	2419.94
988.547	2471.46
988.844	2405.7
989.142	2419.71
989.44	2427.62
989.737	2389.65
990.035	2384.68
990.332	2386.49
990.63	2373.38
990.927	2364.8
991.224	2341.29
991.521	2340.84
991.819	2319.6
992.116	2311.01
992.413	2317.11
992.71	2287.74
993.006	2258.58
993.303	2268.98
993.6	2260.84
993.897	2236.44
994.193	2235.08
994.49	2214.74
994.787	2231.01
995.083	2219.26
995.379	2197.57
995.676	2182.88
995.972	2146.05
996.268	2152.6
996.565	2125.93
996.861	2136.1
997.157	2108.98
997.453	2104.01
997.749	2092.26
998.044	2090
998.34	2085.48
998.636	2068.76
998.932	2093.84
999.227	2061.75
999.523	2055.65
999.818	2039.16
1000.114	2045.93
1000.409	2003.68
1000.704	2006.84
1001	2000.96
1001.295	1983.79
1001.59	1968.42
1001.885	1963
1002.18	1935.2
1002.475	1919.61
1002.77	1933.85
1003.065	1904.24
1003.359	1934.07
1003.654	1887.75
1003.949	1896.79
1004.243	1845.49
1004.538	1870.35
1004.832	1866.28
1005.127	1829.67
1005.421	1812.27
1005.715	1833.96
1006.009	1834.19
1006.304	1809.33
1006.598	1786.73
1006.892	1768.2
1007.186	1787.86
1007.48	1748.99
1007.773	1731.14
1008.067	1752.38
1008.361	1740.63
1008.655	1747.19
1008.948	1712.61
1009.242	1704.25
1009.535	1676.23
1009.829	1711.71
1010.122	1662.89
1010.415	1686.62
1010.708	1639.84
1011.001	1644.14
1011.295	1625.16
1011.588	1616.79
1011.881	1626.51
1012.173	1631.03
1012.466	1610.47
1012.759	1590.81
1013.052	1594.87
1013.344	1583.35
1013.637	1532.05
1013.93	1540.64
1014.222	1563.01
1014.514	1517.14
1014.807	1526.17
1015.099	1527.53
1015.391	1519.62
1015.683	1497.25
1015.976	1526.4
1016.268	1481.2
1016.56	1490.02
1016.851	1476.23
1017.143	1467.65
1017.435	1455.67
1017.727	1410.25
1018.018	1438.27
1018.31	1424.71
1018.602	1439.62
1018.893	1428.32
1019.185	1409.79
1019.476	1403.92
1019.767	1366.4
1020.058	1386.74
1020.35	1346.07
1020.641	1346.07
1020.932	1349.68
1021.223	1340.64
1021.514	1326.41
1021.804	1309.23
1022.095	1291.38
1022.386	1307.42
1022.677	1297.25
1022.967	1297.25
1023.258	1300.42
1023.548	1255.22
1023.839	1282.34
1024.129	1289.12
1024.419	1219.97
1024.709	1229.69
1025	1243.02
1025.29	1203.7
1025.58	1213.19
1025.87	1229.91
1026.16	1179.29
1026.449	1205.05
1026.739	1166.64
1027.029	1180.65
1027.319	1201.44
1027.608	1158.5
1027.898	1187.2
1028.187	1122.57
1028.477	1151.72
1028.766	1132.74
1029.055	1104.04
1029.344	1112.4
1029.634	1123.47
1029.923	1122.8
1030.212	1097.03
1030.501	1120.08
1030.79	1066.3
1031.078	1074.21
1031.367	1079.41
1031.656	1075.34
1031.945	1059.29
1032.233	1055.45
1032.522	1045.06
1032.81	1052.29
1033.099	1048.22
1033.387	1019.3
1033.675	1039.18
1033.963	989.92
1034.251	1003.25
1034.54	1015
1034.828	999.41
1035.116	980.2
1035.403	1003.48
1035.691	979.97
1035.979	971.16
1036.267	980.2
1036.554	939.3
1036.842	942.69
1037.129	955.57
1037.417	932.74
1037.704	911.73
1037.992	916.25
1038.279	918.96
1038.566	928.45
1038.853	928.45
1039.14	928.45
