Data from hue_10_FLMS001491_91.txt Node
Date: Mon Feb 06 15:32:49 GMT 2017
User: dcchb
Spectrometer: FLMS00149
Trigger mode: 0
Integration Time (sec): 2.000000E-2
Scans to average: 10
Electric dark correction enabled: true
Nonlinearity correction enabled: false
Boxcar width: 0
XAxis mode: Wavelengths
Number of Pixels in Spectrum: 2048
>>>>>Begin Spectral Data<<<<<
341.393	-19.43
341.776	-19.43
342.16	-19.43
342.543	-84.29
342.927	-57.85
343.31	-68.7
343.693	-73.44
344.077	-73.22
344.46	-57.85
344.843	-64.63
345.226	-34.35
345.61	-16.72
345.993	-28.02
346.376	0.45
346.759	20.11
347.142	18.08
347.525	41.35
347.908	37.74
348.291	64.63
348.674	104.86
349.057	129.71
349.44	110.05
349.823	127
350.206	177.62
350.588	179.43
350.971	191.86
351.354	232.76
351.737	209.71
352.119	242.25
352.502	239.09
352.884	275.25
353.267	288.58
353.65	287.9
354.032	293.78
354.414	301.01
354.797	296.49
355.179	298.07
355.562	335.81
355.944	341.91
356.326	328.13
356.709	338.52
357.091	314.79
357.473	344.17
357.855	327.45
358.238	336.71
358.62	320.9
359.002	336.49
359.384	326.09
359.766	325.42
360.148	367
360.53	346.43
360.912	343.49
361.294	343.49
361.676	332.87
362.057	332.19
362.439	325.42
362.821	328.8
363.203	334.45
363.584	315.25
363.966	328.13
364.348	336.04
364.729	306.21
365.111	301.91
365.493	301.91
365.874	299.88
366.256	305.75
366.637	292.65
367.019	308.92
367.4	313.66
367.781	316.15
368.163	311.4
368.544	305.3
368.925	307.79
369.306	316.38
369.688	299.2
370.069	315.47
370.45	309.14
370.831	303.72
371.212	295.59
371.593	292.42
371.974	304.85
372.355	327.45
372.736	318.41
373.117	326.32
373.498	291.07
373.879	315.7
374.26	316.83
374.641	327
375.021	306.66
375.402	318.64
375.783	303.04
376.163	323.61
376.544	296.72
376.925	321.57
377.305	315.25
377.686	348.92
378.066	310.73
378.447	320.9
378.827	315.92
379.208	327.68
379.588	309.14
379.968	331.29
380.349	338.75
380.729	358.18
381.109	340.56
381.489	344.62
381.87	321.12
382.25	318.18
382.63	339.43
383.01	323.83
383.39	334
383.77	336.26
384.15	340.33
384.53	345.08
384.91	343.27
385.29	348.01
385.67	331.06
386.049	355.92
386.429	344.4
386.809	324.29
387.189	340.78
387.568	331.52
387.948	344.85
388.328	327.22
388.707	341.91
389.087	352.76
389.466	328.8
389.846	337.62
390.225	358.41
390.605	349.14
390.984	350.05
391.363	352.53
391.743	344.4
392.122	337.17
392.501	364.96
392.881	364.51
393.26	359.54
393.639	379.65
394.018	369.71
394.397	384.62
394.776	367.45
395.155	343.04
395.534	368.13
395.913	363.61
396.292	375.81
396.671	366.54
397.05	386.43
397.429	369.03
397.808	364.51
398.186	380.78
398.565	370.84
398.944	376.04
399.323	385.75
399.701	372.42
400.08	372.65
400.458	358.63
400.837	358.63
401.215	384.4
401.594	374.45
401.972	371.74
402.351	397.96
402.729	396.15
403.107	407.22
403.486	398.63
403.864	409.71
404.242	389.37
404.62	394.34
404.999	387.11
405.377	421.46
405.755	425.75
406.133	414.23
406.511	406.09
406.889	396.37
407.267	410.16
407.645	392.31
408.023	416.03
408.401	434.56
408.779	420.78
409.156	418.29
409.534	415.81
409.912	418.52
410.29	443.38
410.667	414
411.045	431.18
411.422	442.25
411.8	430.5
412.178	448.35
412.555	443.6
412.933	453.1
413.31	447.45
413.687	425.75
414.065	439.08
414.442	468.69
414.819	435.69
415.197	456.49
415.574	465.52
415.951	470.72
416.328	467.11
416.705	454.68
417.082	450.16
417.46	477.28
417.837	489.7
418.214	470.95
418.591	450.84
418.967	478.18
419.344	495.35
419.721	493.77
420.098	482.47
420.475	495.81
420.852	497.16
421.228	515.69
421.605	517.05
421.982	496.48
422.358	521.12
422.735	515.24
423.111	535.58
423.488	520.44
423.864	508.91
424.241	505.07
424.617	524.05
424.994	541.91
425.37	521.79
425.746	524.96
426.123	551.62
426.499	551.4
426.875	528.12
427.251	544.84
427.627	550.49
428.003	559.99
428.379	562.47
428.756	580.78
429.132	543.94
429.507	569.7
429.883	587.1
430.259	553.43
430.635	564.96
431.011	602.02
431.387	593.66
431.763	600.89
432.138	580.32
432.514	609.02
432.89	604.28
433.265	620.1
433.641	609.7
434.016	625.52
434.392	611.74
434.767	631.17
435.143	647.21
435.518	627.33
435.894	648.57
436.269	647.89
436.644	680.66
437.02	660.32
437.395	642.47
437.77	693.32
438.145	669.81
438.52	654.9
438.895	691.28
439.271	663.49
439.646	682.47
440.021	681.79
440.395	711.85
440.77	691.96
441.145	684.95
441.52	717.72
441.895	710.26
442.27	711.39
442.645	705.74
443.019	736.03
443.394	731.73
443.769	744.16
444.143	732.41
444.518	741.45
444.892	738.96
445.267	737.61
445.641	745.29
446.016	762.92
446.39	758.4
446.764	768.12
447.139	779.41
447.513	746.65
447.887	762.92
448.262	776.48
448.636	775.57
449.01	795.46
449.384	781.9
449.758	804.05
450.132	790.26
450.506	798.85
450.88	788.91
451.254	801.33
451.628	816.25
452.002	833.42
452.376	813.09
452.75	823.71
453.123	853.99
453.497	844.95
453.871	868
454.244	853.76
454.618	852.41
454.992	866.19
455.365	881.11
455.739	885.85
456.112	894.21
456.486	897.38
456.859	916.59
457.232	940.99
457.606	926.53
457.979	912.07
458.352	947.55
458.725	933.99
459.099	920.88
459.472	957.04
459.845	961.56
460.218	977.38
460.591	990.71
460.964	967.43
461.337	989.13
461.71	1020.31
462.083	1004.72
462.456	1017.6
462.829	1032.97
463.201	1063.47
463.574	1047.88
463.947	1062.57
464.32	1082.91
464.692	1094.21
465.065	1088.78
465.438	1128.78
465.81	1126.98
466.183	1168.78
466.555	1162.68
466.928	1171.27
467.3	1153.64
467.672	1187.77
468.045	1212.62
468.417	1208.1
468.789	1230.93
469.161	1226.63
469.534	1258.72
469.906	1265.28
470.278	1314.54
470.65	1317.93
471.022	1325.61
471.394	1328.33
471.766	1344.15
472.138	1391.83
472.51	1358.61
472.882	1411.26
473.253	1420.08
473.625	1437.02
473.997	1472.28
474.369	1494.65
474.74	1500.07
475.112	1533.97
475.484	1564.93
475.855	1579.85
476.227	1606.06
476.598	1636.34
476.97	1652.61
477.341	1655.1
477.713	1709.33
478.084	1760.86
478.455	1780.52
478.827	1787.52
479.198	1856.45
479.569	1898.93
479.94	1898.26
480.311	1903.45
480.682	1940.29
481.053	1974.86
481.424	2059.38
481.795	2040.85
482.166	2112.94
482.537	2126.5
482.908	2149.32
483.279	2184.12
483.65	2252.37
484.021	2291.24
484.391	2293.5
484.762	2364.68
485.133	2348.41
485.503	2420.95
485.874	2428.18
486.244	2498.24
486.615	2519.48
486.985	2547.73
487.356	2591.34
487.726	2656.2
488.097	2689.65
488.467	2701.4
488.837	2787.95
489.207	2806.93
489.578	2851.9
489.948	2859.81
490.318	2923.54
490.688	2925.8
491.058	2973.93
491.428	3034.72
491.798	3079.92
492.168	3155.17
492.538	3150.2
492.908	3175.28
493.278	3251.67
493.648	3258.67
494.017	3304.55
494.387	3333.02
494.757	3343.19
495.126	3400.81
495.496	3387.93
495.866	3425.67
496.235	3485.56
496.605	3490.76
496.974	3533.24
497.344	3584.76
497.713	3566.91
498.082	3608.49
498.452	3633.8
498.821	3666.57
499.19	3684.2
499.559	3697.98
499.928	3775.27
500.298	3770.3
500.667	3787.25
501.036	3815.49
501.405	3839.67
501.774	3834.02
502.143	3891.42
502.512	3890.52
502.88	3921.7
503.249	3939.33
503.618	3939.11
503.987	3959.9
504.356	4021.82
504.724	4027.24
505.093	4013
505.462	4033.11
505.83	4083.73
506.199	4105.88
506.567	4114.02
506.936	4160.57
507.304	4220.23
507.672	4159.44
508.041	4229.27
508.409	4254.13
508.777	4298.42
509.145	4285.99
509.514	4310.62
509.882	4339.55
510.25	4352.43
510.618	4379.77
510.986	4382.26
511.354	4436.04
511.722	4432.65
512.09	4447.57
512.458	4438.08
512.826	4523.27
513.193	4550.16
513.561	4545.42
513.929	4520.11
514.297	4537.96
514.664	4587.45
515.032	4583.38
515.4	4656.6
515.767	4638.75
516.135	4640.78
516.502	4627.67
516.869	4702.93
517.237	4752.19
517.604	4727.11
517.972	4720.78
518.339	4774.11
518.706	4763.26
519.073	4846.65
519.44	4792.19
519.808	4865.41
520.175	4846.2
520.542	4899.08
520.909	4927.55
521.276	4915.58
521.643	4984.5
522.009	4959.42
522.376	4982.47
522.743	5011.39
523.11	5087.78
523.477	5101.11
523.843	5115.12
524.21	5132.52
524.577	5164.61
524.943	5228.34
525.31	5224.5
525.676	5308.79
526.043	5320.31
526.409	5302.69
526.776	5349.46
527.142	5390.37
527.508	5404.15
527.874	5430.37
528.241	5503.13
528.607	5474.88
528.973	5485.73
529.339	5529.12
529.705	5581.32
530.071	5573.41
530.437	5584.94
530.803	5612.28
531.169	5675.33
531.535	5672.39
531.901	5699.06
532.267	5697.93
532.632	5750.58
532.998	5756.46
533.364	5775.44
533.73	5806.4
534.095	5874.42
534.461	5877.81
534.826	5899.05
535.192	5955.1
535.557	5941.31
535.923	5994.42
536.288	6010.01
536.653	6040.75
537.019	6004.14
537.384	6047.98
537.749	6093.63
538.114	6072.16
538.479	6084.59
538.845	6127.07
539.21	6195.77
539.575	6233.73
539.94	6173.85
540.305	6267.41
540.67	6246.16
541.034	6281.87
541.399	6292.94
541.764	6283
542.129	6402.09
542.494	6356.67
542.858	6410.23
543.223	6425.37
543.587	6451.58
543.952	6464.91
544.316	6520.73
544.681	6482.09
545.045	6551.47
545.41	6571.13
545.774	6620.39
546.138	6638.24
546.503	6658.36
546.867	6637.11
547.231	6712.37
547.595	6729.31
547.959	6731.35
548.324	6769.31
548.688	6796.43
549.052	6829.65
549.416	6804.11
549.779	6836.2
550.143	6831.46
550.507	6963.88
550.871	6954.62
551.235	6930.21
551.599	6945.81
551.962	7024
552.326	6978.8
552.689	7056.76
553.053	7057.22
553.417	7076.2
553.78	7174.5
554.143	7126.59
554.507	7121.62
554.87	7101.73
555.234	7227.83
555.597	7149.19
555.96	7238.45
556.323	7301.05
556.686	7234.84
557.05	7337.43
557.413	7321.84
557.776	7338.56
558.139	7411.33
558.502	7430.09
558.865	7410.88
559.228	7537.65
559.59	7501.72
559.953	7521.38
560.316	7543.98
560.679	7544.89
561.041	7586.47
561.404	7667.37
561.767	7686.8
562.129	7685.9
562.492	7775.84
562.854	7747.59
563.217	7801.38
563.579	7708.72
563.941	7838.21
564.304	7890.41
564.666	7892.9
565.028	7980.81
565.39	7947.36
565.753	8000.47
566.115	8075.04
566.477	8028.49
566.839	8071.65
567.201	8129.73
567.563	8131.54
567.925	8117.98
568.287	8217.19
568.648	8189.84
569.01	8239.78
569.372	8300.35
569.734	8225.77
570.095	8280.46
570.457	8439.1
570.819	8453.79
571.18	8430.74
571.542	8519.32
571.903	8470.96
572.265	8539.44
572.626	8607.91
572.987	8609.27
573.349	8682.71
573.71	8659.66
574.071	8802.25
574.432	8795.47
574.794	8841.58
575.155	8938.52
575.516	8929.03
575.877	8994.79
576.238	9128.57
576.599	9117.05
576.96	9159.76
577.32	9293.77
577.681	9357.27
578.042	9512.52
578.403	9488.11
578.763	9571.95
579.124	9641.55
579.485	9706.64
579.845	9869.57
580.206	9849.01
580.566	10020.53
580.927	10128.1
581.287	10224.82
581.648	10324.47
582.008	10525.82
582.368	10565.37
582.728	10746.61
583.089	10750.23
583.449	10885.36
583.809	11089.88
584.169	11205.81
584.529	11346.14
584.889	11644.44
585.249	11712.01
585.609	11809.18
585.969	12048.27
586.329	12286.68
586.688	12420.46
587.048	12578.43
587.408	12744.75
587.768	12967.12
588.127	13162.14
588.487	13258.18
588.846	13686.42
589.206	13743.59
589.565	13945.17
589.925	14302.45
590.284	14450.92
590.643	14718.71
591.003	15016.78
591.362	15277.79
591.721	15467.84
592.08	15783.54
592.44	15944.21
592.799	16316.41
593.158	16476.4
593.517	16743.29
593.876	17146.44
594.235	17223.28
594.593	17547.79
594.952	17916.82
595.311	18043.14
595.67	18449.91
596.029	18709.34
596.387	19073.4
596.746	19438.81
597.104	19492.59
597.463	19749.99
597.822	20224.55
598.18	20352.01
598.538	20617.54
598.897	21040.58
599.255	21082.16
599.613	21729.37
599.972	21879.42
600.33	22076.48
600.688	22322.8
601.046	22732.06
601.404	22989.23
601.762	23224.02
602.12	23645.25
602.478	23788.3
602.836	24101.29
603.194	24166.14
603.552	24599.58
603.91	24696.98
604.268	25101.94
604.625	25306.91
604.983	25705.99
605.341	25705.09
605.698	26169.93
606.056	26300.1
606.413	26531.51
606.771	26893.53
607.128	27208.1
607.485	27217.36
607.843	27498.94
608.2	27841.08
608.557	28143.89
608.914	28256.66
609.272	28520.15
609.629	28820.03
609.986	29019.58
610.343	29035.62
610.7	29464.54
611.057	29677.64
611.414	29811.65
611.771	30040.79
612.127	30264.29
612.484	30418.18
612.841	30643.04
613.198	30740.66
613.554	30890.71
613.911	31283.02
614.267	31353.53
614.624	31555.78
614.98	31695.44
615.337	31932.95
615.693	31984.92
616.05	32185.14
616.406	32543.78
616.762	32457.68
617.118	32710.78
617.475	32802.3
617.831	33076.64
618.187	33085.46
618.543	33223.99
618.899	33684.99
619.255	33587.37
619.611	33815.61
619.967	33913.23
620.323	34232.32
620.678	34148.03
621.034	34168.14
621.39	34318.87
621.746	34352.09
622.101	34773.32
622.457	34669.6
622.812	34763.61
623.168	34949.59
623.523	35009.47
623.879	35231.84
624.234	35061.9
624.589	35298.96
624.945	35400.2
625.3	35573.3
625.655	35579.4
626.01	35640.19
626.365	35737.37
626.72	35792.96
627.075	35781.43
627.43	35966.06
627.785	35932.16
628.14	35947.98
628.495	36011.93
628.85	36046.51
629.205	35963.12
629.559	36408.31
629.914	36098.94
630.269	36349.78
630.623	36187.3
630.978	36192.95
631.332	36427.06
631.687	36481.75
632.041	36428.19
632.396	36374.41
632.75	36439.95
633.104	36532.15
633.459	36326.95
633.813	36324.02
634.167	36442.43
634.521	36353.62
634.875	36604.01
635.229	36524.24
635.583	36425.71
635.937	36467.52
636.291	36406.05
636.645	36455.99
636.999	36427.74
637.352	36580.28
637.706	36363.79
638.06	36565.14
638.413	36497.57
638.767	36441.08
639.121	36501.64
639.474	36274.07
639.828	36375.77
640.181	36530.34
640.534	36510
640.888	36334.41
641.241	36283.79
641.594	36354.98
641.947	36493.28
642.301	36439.27
642.654	36457.12
643.007	36411.7
643.36	36360.85
643.713	36232.72
644.066	36608.08
644.419	36239.05
644.771	35989.56
645.124	35707.76
645.477	35644.71
645.83	35497.82
646.182	35387.09
646.535	35398.84
646.888	35396.81
647.24	35209.7
647.593	35454.21
647.945	35365.62
648.298	35236.59
648.65	35149.58
649.002	35135.12
649.355	35211.73
649.707	35191.62
650.059	35297.15
650.411	35575.11
650.763	35877.25
651.115	36173.29
651.467	36011.93
651.819	36148.88
652.171	35905.27
652.523	35821.43
652.875	35995.44
653.227	35761.77
653.578	36084.02
653.93	35912.5
654.282	35795.22
654.633	35777.82
654.985	35740.76
655.337	35726.74
655.688	35811.49
656.039	35840.19
656.391	35660.98
656.742	35646.97
657.094	35672.73
657.445	35976.91
657.796	35639.06
658.147	35763.58
658.498	35600.42
658.849	35696.01
659.2	35677.93
659.551	35561.55
659.902	35734.65
660.253	35585.73
660.604	35640.42
660.955	35632.74
661.306	35678.16
661.656	35591.61
662.007	35503.25
662.358	35511.61
662.708	35529.91
663.059	35524.26
663.409	35376.47
663.76	35648.33
664.11	35656.69
664.461	35645.62
664.811	35564.49
665.161	35570.59
665.511	35424.83
665.862	35664.15
666.212	35550.7
666.562	35583.7
666.912	35580.76
667.262	35527.2
667.612	35419.41
667.962	35554.32
668.312	35516.58
668.662	35751.6
669.011	35500.31
669.361	35454.89
669.711	35533.3
670.06	35472.29
670.41	35320.43
670.76	35366.53
671.109	35585.5
671.459	35325.62
671.808	35302.57
672.157	35532.4
672.507	35108
672.856	35236.81
673.205	35202.01
673.554	35403.14
673.904	35246.08
674.253	35371.95
674.602	35281.11
674.951	34757.5
675.3	34684.51
675.649	35212.86
675.998	35031.17
676.346	35148
676.695	35358.84
677.044	34877.05
677.393	35120.43
677.741	35184.61
678.09	35014.9
678.438	35019.64
678.787	35001.79
679.135	35161.79
679.484	34854.9
679.832	35022.58
680.181	34736.94
680.529	35004.5
680.877	34883.6
681.225	34787.79
681.573	34928.57
681.922	34746.21
682.27	34536.49
682.618	34621.01
682.966	34479.09
683.314	34511.63
683.661	34546.66
684.009	34320.23
684.357	34256.73
684.705	34132.44
685.053	34225.99
685.4	33978.99
685.748	33944.87
686.095	34058.77
686.443	33887.7
686.79	33867.58
687.138	33954.59
687.485	33950.29
687.832	33754.14
688.18	33723.86
688.527	33710.53
688.874	33581.26
689.221	33506.46
689.568	33530.87
689.915	33346.47
690.262	33381.95
690.609	33345.11
690.956	33217.21
691.303	33174.04
691.65	33100.82
691.997	32941.51
692.344	32862.19
692.69	32843.66
693.037	32865.8
693.383	32558.24
693.73	32711.91
694.077	32516.66
694.423	32569.99
694.769	32437.34
695.116	32419.71
695.462	32321.41
695.808	32183.79
696.155	32254.29
696.501	31910.8
696.847	31880.74
697.193	31805.04
697.539	31832.16
697.885	31593.07
698.231	31544.48
698.577	31482.11
698.923	31515.1
699.269	31405.95
699.614	31190.14
699.96	31156.24
700.306	31249.35
700.651	31106.75
700.997	30928.23
701.342	30961.67
701.688	30946.76
702.033	30725.52
702.379	30702.7
702.724	30580.66
703.069	30590.83
703.415	30283.05
703.76	30440.78
704.105	30398.97
704.45	30278.75
704.795	30265.42
705.14	30053.9
705.485	29982.26
705.83	29906.78
706.175	29923.96
706.52	29809.16
706.865	29693
707.209	29639.9
707.554	29446.91
707.899	29619.33
708.243	29493.24
708.588	29476.06
708.932	29147.03
709.277	29235.84
709.621	29196.75
709.966	29167.14
710.31	29110.2
710.654	28831.78
710.998	28910.65
711.342	29003.76
711.687	28825.23
712.031	28690.55
712.375	28611.23
712.719	28607.84
713.063	28561.96
713.407	28691.9
713.75	28499.82
714.094	28433.6
714.438	28298.01
714.782	28350.67
715.125	28295.08
715.469	28193.16
715.812	28119.26
716.156	27970.11
716.499	28067.51
716.843	28003.56
717.186	27846.05
717.53	27937.57
717.873	27992.03
718.216	27931.69
718.559	27788.87
718.902	27554.76
719.246	27650.12
719.589	27537.36
719.932	27472.5
720.275	27418.94
720.617	27436.34
720.96	27404.25
721.303	27353.41
721.646	27410.35
721.989	27129
722.331	27350.24
722.674	27206.29
723.016	27155.44
723.359	27053.75
723.701	27089.91
724.044	26881.55
724.386	26754.55
724.729	26909.35
725.071	26938.73
725.413	26775.57
725.755	26823.48
726.097	26711.61
726.439	26574.89
726.782	26576.93
727.124	26609.24
727.465	26555.23
727.807	26532.41
728.149	26505.29
728.491	26452.19
728.833	26462.58
729.175	26383.26
729.516	26339.19
729.858	26243.83
730.199	26259.87
730.541	26169.93
730.882	26238.41
731.224	26199.76
731.565	26083.83
731.906	25993.44
732.248	26235.02
732.589	25885.65
732.93	25948.02
733.271	25856.5
733.612	25992.31
733.953	25984.85
734.294	25812.43
734.635	25703.5
734.976	25837.29
735.317	25666.9
735.658	25619.67
735.999	25616.05
736.339	25510.52
736.68	25705.54
737.021	25633.22
737.361	25340.35
737.702	25452.89
738.042	25515.04
738.383	25399.56
738.723	25400.46
739.063	25282.73
739.404	25400.91
739.744	25226.46
740.084	25204.08
740.424	25269.17
740.764	25123.18
741.104	25188.94
741.444	25103.75
741.784	24991.66
742.124	25141.94
742.464	24996.63
742.804	24989.63
743.143	24963.19
743.483	25027.36
743.823	24917.31
744.162	24895.62
744.502	24853.13
744.841	24734.04
745.181	24761.83
745.52	24700.14
745.86	24667.37
746.199	24692.68
746.538	24715.73
746.877	24689.52
747.216	24569.75
747.556	24585.57
747.895	24535.63
748.234	24409.08
748.573	24354.84
748.911	24419.24
749.25	24390.77
749.589	24277.33
749.928	24292.24
750.267	24395.97
750.605	24258.12
750.944	24226.71
751.283	24154.85
751.621	24134.73
751.96	24076.88
752.298	24032.14
752.636	24086.15
752.975	23832.82
753.313	23828.75
753.651	23963.21
753.989	23771.35
754.327	23861.97
754.666	23693.84
755.004	23753.95
755.342	23676.89
755.679	23672.82
756.017	23500.63
756.355	23676.44
756.693	23487.52
757.031	23506.5
757.368	23397.8
757.706	23310.35
758.044	23308.99
758.381	23302.89
758.719	23144.48
759.056	23117.13
759.394	23170.69
759.731	22994.88
760.068	22996.23
760.405	22882.11
760.743	22911.49
761.08	22973.41
761.417	22709.91
761.754	22788.33
762.091	22604.6
762.428	22617.48
762.765	22398.73
763.102	22469.24
763.438	22380.2
763.775	22319.87
764.112	22362.35
764.449	22233.09
764.785	22170.49
765.122	22039.65
765.458	22001.68
765.795	21963.72
766.131	22020.66
766.467	21836.04
766.804	21759.2
767.14	21681.69
767.476	21646.66
767.812	21616.38
768.148	21554.01
768.485	21458.19
768.821	21244.19
769.157	21319.89
769.492	21273.11
769.828	21218.2
770.164	21094.59
770.5	21013.01
770.836	21011.42
771.171	20852.11
771.507	20796.52
771.842	20601.72
772.178	20739.12
772.513	20506.13
772.849	20559.01
773.184	20418.67
773.519	20492.57
773.855	20283.08
774.19	20218.45
774.525	20179.36
774.86	20118.79
775.195	20095.74
775.53	20004.67
775.865	19905.47
776.2	19848.29
776.535	19745.92
776.87	19714.51
777.205	19582.08
777.539	19502.09
777.874	19614.63
778.209	19381.41
778.543	19365.59
778.878	19194.98
779.212	19140.51
779.547	19058.03
779.881	19126.95
780.215	18945.72
780.55	19033.17
780.884	18907.98
781.218	18855.32
781.552	18808.54
781.886	18693.75
782.22	18673.63
782.554	18587.31
782.888	18421.89
783.222	18419.85
783.556	18240.65
783.889	18240.65
784.223	18178.73
784.557	18003.59
784.89	18140.31
785.224	17931.73
785.557	17882.47
785.891	18003.59
786.224	17825.29
786.558	17720.66
786.891	17627.33
787.224	17507.56
787.557	17558.41
787.891	17512.31
788.224	17404.51
788.557	17324.74
788.89	17329.26
789.223	17338.3
789.556	17228.02
789.888	17182.15
790.221	17090.85
790.554	16960.23
790.887	16958.2
791.219	16888.14
791.552	16879.33
791.884	16879.78
792.217	16757.53
792.549	16747.81
792.882	16446.12
793.214	16530.41
793.546	16491.54
793.879	16438.44
794.211	16334.71
794.543	16344.43
794.875	16322.73
795.207	16322.96
795.539	16180.37
795.871	16198.44
796.203	16089.52
796.535	16055.4
796.867	15992.8
797.198	15892.69
797.53	15903.99
797.862	15725.01
798.193	15815.4
798.525	15694.73
798.856	15793.93
799.188	15650.44
799.519	15565.24
799.85	15464
800.182	15519.82
800.513	15393.27
800.844	15277.79
801.175	15413.83
801.506	15274.17
801.837	15310.11
802.168	15192.37
802.499	15089.32
802.83	15135.42
803.161	15080.28
803.491	15000.06
803.822	15006.84
804.153	14896.78
804.483	14765.04
804.814	14791.93
805.145	14814.3
805.475	14735.43
805.805	14753.51
806.136	14715.77
806.466	14641.87
806.796	14669.22
807.126	14516.23
807.457	14416.8
807.787	14500.18
808.117	14358.94
808.447	14350.13
808.777	14370.47
809.107	14291.83
809.436	14321.43
809.766	14179.06
810.096	14118.27
810.426	14107.2
810.755	14047.31
811.085	14036.47
811.414	14015.45
811.744	13953.08
812.073	13937.94
812.403	13879.18
812.732	13763.03
813.061	13841.44
813.39	13732.07
813.719	13712.18
814.049	13857.94
814.378	13710.6
814.707	13651.62
815.036	13662.01
815.365	13599.19
815.693	13448.46
816.022	13504.73
816.351	13392.87
816.68	13382.02
817.008	13380.67
817.337	13267.45
817.665	13183.38
817.994	13308.35
818.322	13296.83
818.651	13187.45
818.979	13165.98
819.307	13252.98
819.636	13145.64
819.964	13048.47
820.292	13108.13
820.62	13079.2
820.948	13020.45
821.276	13096.83
821.604	13098.64
821.932	13064.06
822.259	13053.44
822.587	13098.64
822.915	13049.37
823.243	13019.77
823.57	13010.51
823.898	12963.27
824.225	13005.53
824.553	12956.72
824.88	12949.04
825.207	12879.66
825.535	12971.41
825.862	12981.81
826.189	12877.85
826.516	12937.51
826.843	13040.79
827.17	12976.38
827.497	13048.02
827.824	13003.95
828.151	13045.98
828.478	12925.31
828.805	12937.96
829.131	12976.61
829.458	12931.19
829.785	12928.02
830.111	12928.25
830.438	13002.82
830.764	12951.07
831.09	13024.52
831.417	12820.23
831.743	12959.21
832.069	12898.42
832.395	12875.37
832.722	12937.29
833.048	12812.09
833.374	12852.54
833.7	12693.9
834.026	12779.55
834.351	12954.69
834.677	12769.16
835.003	12776.84
835.329	12761.25
835.654	12720.34
835.98	12695.71
836.306	12729.38
836.631	12692.1
836.956	12758.53
837.282	12678.99
837.607	12616.84
837.932	12619.33
838.258	12587.24
838.583	12502.72
838.908	12468.37
839.233	12536.62
839.558	12539.33
839.883	12423.85
840.208	12393.8
840.533	12403.06
840.858	12451.88
841.182	12332.33
841.507	12383.4
841.832	12300.02
842.156	12277.19
842.481	12277.64
842.805	12179.11
843.13	12286.91
843.454	12248.49
843.778	12165.78
844.103	12105.44
844.427	12082.17
844.751	12088.5
845.075	12131.21
845.399	12004.66
845.723	11950.19
846.047	11942.28
846.371	11887.6
846.695	11871.33
847.019	11715.17
847.343	11787.71
847.666	11735.06
847.99	11618.23
848.313	11647.6
848.637	11488.74
848.96	11488.06
849.284	11457.33
849.607	11425.24
849.931	11434.95
850.254	11323.77
850.577	11274.96
850.9	11175.07
851.223	11151.12
851.546	11072.25
851.869	11079.93
852.192	11106.6
852.515	11013.27
852.838	10910.45
853.161	11006.26
853.483	10798.36
853.806	10829.32
854.129	10846.49
854.451	10832.26
854.774	10724.46
855.096	10692.37
855.419	10671.81
855.741	10681.75
856.063	10566.95
856.385	10591.81
856.708	10592.49
857.03	10517.01
857.352	10531.47
857.674	10432.49
857.996	10428.2
858.318	10415.09
858.64	10385.94
858.961	10315.89
859.283	10260.3
859.605	10243.12
859.926	10276.79
860.248	10274.53
860.57	10174.42
860.891	10174.87
861.212	10134.65
861.534	10137.13
861.855	10075.22
862.176	10106.4
862.498	10092.84
862.819	10068.21
863.14	10055.55
863.461	9973.98
863.782	9981.88
864.103	10008.55
864.424	9951.15
864.745	9962.22
865.065	9909.12
865.386	9871.6
865.707	9836.13
866.027	9897.82
866.348	9812.85
866.668	9788.22
866.989	9766.3
867.309	9726.52
867.63	9716.35
867.95	9744.15
868.27	9778.5
868.59	9694.43
868.91	9676.81
869.23	9668.22
869.55	9645.4
869.87	9677.71
870.19	9678.16
870.51	9699.18
870.83	9587.09
871.15	9528.34
871.469	9579.18
871.789	9570.6
872.109	9554.55
872.428	9544.16
872.748	9523.37
873.067	9516.13
873.386	9549.13
873.706	9511.61
874.025	9428.45
874.344	9395.01
874.663	9428
874.982	9395.46
875.301	9378.28
875.62	9263.26
875.939	9341.22
876.258	9257.16
876.577	9368.12
876.896	9255.35
877.214	9299.19
877.533	9228.23
877.852	9220.32
878.17	9232.07
878.489	9284.5
878.807	9247.89
879.125	9210.61
879.444	9197.72
879.762	9139.87
880.08	9111.17
880.398	9095.35
880.716	9110.27
881.034	9087.67
881.352	9116.6
881.67	9038.41
881.988	9088.57
882.306	9071.4
882.624	8999.76
882.941	8998.18
883.259	8909.6
883.577	8908.24
883.894	8869.82
884.212	8912.31
884.529	8898.52
884.846	8799.09
885.164	8869.6
885.481	8855.13
885.798	8788.02
886.115	8729.49
886.432	8729.26
886.75	8729.26
887.067	8714.8
887.383	8703.27
887.7	8640.45
888.017	8597.29
888.334	8639.77
888.651	8581.92
888.967	8548.48
889.284	8559.32
889.6	8480.91
889.917	8428.7
890.233	8492.43
890.55	8438.42
890.866	8447.24
891.182	8421.47
891.498	8415.37
891.815	8377.41
892.131	8302.38
892.447	8325.66
892.763	8338.99
893.079	8297.63
893.395	8270.29
893.71	8225.77
894.026	8228.26
894.342	8189.39
894.657	8193.91
894.973	8101.48
895.289	8170.41
895.604	8109.84
895.92	8027.81
896.235	8016.06
896.55	8009.96
896.865	7979.9
897.181	7907.59
897.496	7927.48
897.811	7891.77
898.126	7857.42
898.441	7801.38
898.756	7755.5
899.071	7799.79
899.386	7758.67
899.7	7685.67
900.015	7665.56
900.33	7666.92
900.644	7618.56
900.959	7714.37
901.273	7559.58
901.588	7550.76
901.902	7497.88
902.216	7505.34
902.531	7477.32
902.845	7412.69
903.159	7410.65
903.473	7378.79
903.787	7357.09
904.101	7335.4
904.415	7275.06
904.729	7249.53
905.042	7225.12
905.356	7247.72
905.67	7163.43
905.984	7176.99
906.297	7144.44
906.611	7111.9
906.924	7080.94
907.237	7090.89
907.551	7026.48
907.864	6982.42
908.177	7004.34
908.491	6941.74
908.804	6923.21
909.117	6909.2
909.43	6875.53
909.743	6828.07
910.056	6791.91
910.368	6780.39
910.681	6770.44
910.994	6701.52
911.307	6748.98
911.619	6633.5
911.932	6683.21
912.244	6588.53
912.557	6631.46
912.869	6586.72
913.181	6500.85
913.494	6548.08
913.806	6465.14
914.118	6475.99
914.43	6397.57
914.742	6444.58
915.054	6369.32
915.366	6402.77
915.678	6373.17
915.99	6287.52
916.302	6272.6
916.613	6255.88
916.925	6234.64
917.236	6198.48
917.548	6190.35
917.859	6185.6
918.171	6090.91
918.482	6052.27
918.794	6108.54
919.105	6063.12
919.416	6043
919.727	6048.88
920.038	5988.54
920.349	5967.53
920.66	5988.09
920.971	5896.34
921.282	5878.72
921.593	5880.75
921.903	5829.9
922.214	5857.7
922.525	5788.32
922.835	5766.63
923.146	5749.45
923.456	5767.76
923.767	5632.39
924.077	5735.44
924.387	5615.22
924.697	5641.66
925.008	5632.85
925.318	5589.68
925.628	5553.98
925.938	5550.81
926.248	5469.46
926.558	5488.22
926.867	5463.36
927.177	5418.16
927.487	5429.69
927.796	5379.29
928.106	5321.67
928.416	5394.43
928.725	5367.99
929.034	5278.73
929.344	5269.24
929.653	5273.99
929.962	5235.79
930.271	5225.4
930.581	5143.37
930.89	5178.17
931.199	5148.11
931.508	5150.83
931.817	5142.92
932.125	5049.58
932.434	5100.88
932.743	5065.4
933.051	5021.79
933.36	4977.27
933.669	4984.5
933.977	4939.31
934.286	4944.73
934.594	4897.5
934.902	4879.65
935.21	4829.7
935.519	4864.5
935.827	4834.68
936.135	4792.64
936.443	4775.47
936.751	4780.44
937.059	4768.24
937.367	4690.5
937.674	4680.33
937.982	4691.4
938.29	4681.68
938.597	4682.81
938.905	4606.43
939.213	4627.45
939.52	4590.39
939.827	4611.18
940.135	4606.21
940.442	4523.72
940.749	4552.87
941.056	4511.07
941.363	4461.13
941.67	4481.24
941.977	4451.18
942.284	4414.8
942.591	4415.48
942.898	4411.64
943.205	4373.67
943.511	4354.69
943.818	4329.83
944.125	4340.22
944.431	4290.73
944.738	4262.94
945.044	4253.67
945.35	4276.27
945.657	4218.65
945.963	4229.95
946.269	4200.79
946.575	4202.6
946.881	4132.32
947.187	4130.29
947.493	4109.72
947.799	4112.21
948.105	4116.28
948.41	4060.68
948.716	4062.04
949.022	4055.26
949.327	4045.77
949.633	3977.52
949.938	3970.97
950.244	3982.95
950.549	3933
950.854	3912.67
951.16	3883.06
951.465	3859.33
951.77	3847.36
952.075	3861.14
952.38	3813.23
952.685	3843.29
952.99	3768.94
953.294	3800.8
953.599	3786.57
953.904	3747.25
954.209	3723.52
954.513	3685.55
954.818	3704.76
955.122	3683.74
955.426	3646.91
955.731	3667.25
956.035	3628.38
956.339	3650.07
956.643	3619.11
956.948	3596.74
957.252	3576.18
957.556	3573.24
957.86	3541.15
958.163	3527.14
958.467	3538.66
958.771	3503.86
959.075	3472
959.378	3464.32
959.682	3499.12
959.985	3472.68
960.289	3435.62
960.592	3397.42
960.896	3404.2
961.199	3383.19
961.502	3420.93
961.805	3343.64
962.108	3329.86
962.411	3347.71
962.714	3307.26
963.017	3307.03
963.32	3281.04
963.623	3266.81
963.926	3287.82
964.228	3230.88
964.531	3255.06
964.833	3231.78
965.136	3199.24
965.438	3175.74
965.741	3151.1
966.043	3122.86
966.345	3142.29
966.648	3167.15
966.95	3129.18
967.252	3121.27
967.554	3081.27
967.856	3057.55
968.158	3045.34
968.46	3071.11
968.761	3037.21
969.063	3046.25
969.365	3008.51
969.666	2965.57
969.968	2990.43
970.269	2987.72
970.571	2972.8
970.872	2941.39
971.174	2964.44
971.475	2925.57
971.776	2943.2
972.077	2907.27
972.378	2923.09
972.679	2869.08
972.98	2865.46
973.281	2843.54
973.582	2853.26
973.883	2807.84
974.183	2843.32
974.484	2823.65
974.785	2791.79
975.085	2779.36
975.386	2785.46
975.686	2771.45
975.986	2739.14
976.287	2749.98
976.587	2719.7
976.887	2724.9
977.187	2718.57
977.487	2692.13
977.787	2665.01
978.087	2655.52
978.387	2671.12
978.687	2647.39
978.987	2636.09
979.286	2645.81
979.586	2599.03
979.885	2587.5
980.185	2576.2
980.484	2596.77
980.784	2546.15
981.083	2533.04
981.382	2538.92
981.682	2532.14
981.981	2522.65
982.28	2498.92
982.579	2514.28
982.878	2493.27
983.177	2499.14
983.475	2437.22
983.774	2451.69
984.073	2456.43
984.372	2448.98
984.67	2439.03
984.969	2420.05
985.267	2438.35
985.566	2389.09
985.864	2381.41
986.162	2385.93
986.461	2363.1
986.759	2344.8
987.057	2320.84
987.355	2337.79
987.653	2306.15
987.951	2304.57
988.249	2294.18
988.547	2311.35
988.844	2267.74
989.142	2285.82
989.44	2264.8
989.737	2216.21
990.035	2245.59
990.332	2238.13
990.63	2217.57
990.927	2206.5
991.224	2178.47
991.521	2200.85
991.819	2174.63
992.116	2161.98
992.413	2158.81
992.71	2138.7
993.006	2138.02
993.303	2136.44
993.6	2141.86
993.897	2119.72
994.193	2091.92
994.49	2077.23
994.787	2085.59
995.083	2044.47
995.379	2037.69
995.676	2046.27
995.972	2026.16
996.268	2056.44
996.565	2003.11
996.861	2011.25
997.157	1989.55
997.453	1968.99
997.749	1966.95
998.044	1961.53
998.34	1935.99
998.636	1967.63
998.932	1957.01
999.227	1938.71
999.523	1906.39
999.818	1895.77
1000.114	1929.89
1000.409	1905.71
1000.704	1898.48
1001	1852.61
1001.295	1869.1
1001.59	1857.13
1001.885	1841.53
1002.18	1830.01
1002.475	1844.25
1002.77	1810.8
1003.065	1813.06
1003.359	1806.05
1003.654	1805.6
1003.949	1780.07
1004.243	1776.68
1004.538	1769.45
1004.832	1766.73
1005.127	1741.65
1005.421	1733.74
1005.715	1746.85
1006.009	1724.93
1006.304	1708.66
1006.598	1717.24
1006.892	1708.2
1007.186	1684.48
1007.48	1664.14
1007.773	1663.23
1008.067	1678.37
1008.361	1645.38
1008.655	1595.21
1008.948	1612.39
1009.242	1600.41
1009.535	1565.83
1009.829	1594.31
1010.122	1602.9
1010.415	1561.54
1010.708	1561.54
1011.001	1561.54
1011.295	1554.99
1011.588	1552.28
1011.881	1562.44
1012.173	1511.37
1012.466	1552.95
1012.759	1486.74
1013.052	1489.9
1013.344	1476.57
1013.637	1500.3
1013.93	1493.07
1014.222	1452.39
1014.514	1467.76
1014.807	1439.74
1015.099	1440.64
1015.391	1399.74
1015.683	1424.37
1015.976	1424.6
1016.268	1442.22
1016.56	1416.69
1016.851	1361.55
1017.143	1406.74
1017.435	1387.76
1017.727	1392.73
1018.018	1349.34
1018.31	1362.22
1018.602	1353.86
1018.893	1321.77
1019.185	1354.77
1019.476	1338.04
1019.767	1315.67
1020.058	1292.62
1020.35	1278.16
1020.641	1279.74
1020.932	1296.69
1021.223	1296.24
1021.514	1279.97
1021.804	1259.4
1022.095	1260.08
1022.386	1269.35
1022.677	1221.21
1022.967	1215.34
1023.258	1201.1
1023.548	1198.84
1023.839	1198.61
1024.129	1221.66
1024.419	1200.42
1024.709	1175.79
1025	1138.95
1025.29	1144.38
1025.58	1142.79
1025.87	1176.92
1026.16	1144.6
1026.449	1131.04
1026.739	1106.64
1027.029	1123.36
1027.319	1118.61
1027.608	1123.59
1027.898	1102.57
1028.187	1076.36
1028.477	1085.62
1028.766	1072.74
1029.055	1065.96
1029.344	1062.12
1029.634	1050.37
1029.923	1060.54
1030.212	1072.06
1030.501	1037.49
1030.79	1026.64
1031.078	1025.28
1031.367	1022.8
1031.656	991.16
1031.945	1003.82
1032.233	1005.62
1032.522	1003.14
1032.81	988.9
1033.099	998.17
1033.387	979.41
1033.675	981.9
1033.963	973.31
1034.251	973.53
1034.54	951.16
1034.828	958.17
1035.116	936.02
1035.403	945.51
1035.691	918.39
1035.979	931.27
1036.267	896.7
1036.554	906.64
1036.842	905.06
1037.129	878.17
1037.417	891.05
1037.704	895.57
1037.992	895.12
1038.279	869.36
1038.566	860.99
1038.853	860.99
1039.14	860.99
