Data from hue_270_FLMS001491_00002.txt Node
Date: Tue Feb 07 15:56:41 GMT 2017
User: dcchb
Spectrometer: FLMS00149
Trigger mode: 0
Integration Time (sec): 2.000000E-2
Scans to average: 10
Electric dark correction enabled: true
Nonlinearity correction enabled: false
Boxcar width: 0
XAxis mode: Wavelengths
Number of Pixels in Spectrum: 2048
>>>>>Begin Spectral Data<<<<<
341.393	-14.25
341.776	-14.25
342.16	-14.25
342.543	-56.28
342.927	-79.56
343.31	-86.57
343.693	-57.19
344.077	-70.29
344.46	-56.28
344.843	-54.48
345.226	-39.56
345.61	-11.31
345.993	-24.87
346.376	-4.53
346.759	-1.82
347.142	31.17
347.525	41.34
347.908	60.55
348.291	69.81
348.674	99.87
349.057	104.16
349.44	138.51
349.823	114.79
350.206	155.24
350.588	174.67
350.971	192.75
351.354	212.86
351.737	198.85
352.119	235.23
352.502	263.48
352.884	242.01
353.267	246.99
353.65	293.99
354.032	296.93
354.414	285.63
354.797	307.77
355.179	308.45
355.562	292.18
355.944	305.06
356.326	305.29
356.709	314.55
357.091	325.85
357.473	331.73
357.855	322.46
358.238	322.46
358.62	343.71
359.002	342.35
359.384	316.36
359.766	337.15
360.148	315.46
360.53	316.59
360.912	333.76
361.294	346.64
361.676	334.67
362.057	308.68
362.439	329.02
362.821	310.94
363.203	316.81
363.584	307.77
363.966	316.81
364.348	311.16
364.729	300.32
365.111	296.48
365.493	307.55
365.874	314.55
366.256	309.58
366.637	307.77
367.019	291.96
367.4	314.78
367.781	291.96
368.163	293.31
368.544	309.58
368.925	290.6
369.306	308.68
369.688	306.19
370.069	303.03
370.45	297.83
370.831	291.28
371.212	302.35
371.593	304.38
371.974	308.9
372.355	324.27
372.736	294.67
373.117	285.18
373.498	287.21
373.879	310.71
374.26	309.58
374.641	303.93
375.021	282.46
375.402	321.11
375.783	310.03
376.163	315.23
376.544	304.84
376.925	300.99
377.305	303.03
377.686	294.44
378.066	315.91
378.447	319.07
378.827	294.89
379.208	321.11
379.588	323.59
379.968	305.06
380.349	338.28
380.729	338.06
381.109	310.03
381.489	315.46
381.87	326.98
382.25	336.25
382.63	321.56
383.01	333.31
383.39	334.89
383.77	333.08
384.15	341.67
384.53	341.22
384.91	347.77
385.29	346.87
385.67	352.29
386.049	341.45
386.429	359.98
386.809	356.13
387.189	351.39
387.568	333.99
387.948	357.72
388.328	326.76
388.707	345.97
389.087	359.98
389.466	377.6
389.846	344.84
390.225	350.71
390.605	372.63
390.984	353.87
391.363	367.21
391.743	352.29
392.122	359.75
392.501	355.23
392.881	411.05
393.26	364.27
393.639	357.94
394.018	383.7
394.397	363.59
394.776	378.51
395.155	383.7
395.534	364.5
395.913	375.12
396.292	407.21
396.671	390.03
397.05	400.43
397.429	397.49
397.808	392.29
398.186	385.51
398.565	382.8
398.944	388
399.323	407.88
399.701	391.39
400.08	404.72
400.458	399.75
400.837	406.75
401.215	416.02
401.594	399.3
401.972	426.87
402.351	423.93
402.729	427.55
403.107	435.23
403.486	429.58
403.864	430.03
404.242	429.35
404.62	454.89
404.999	437.49
405.377	457.15
405.755	442.91
406.133	436.36
406.511	473.42
406.889	458.73
407.267	448.34
407.645	471.39
408.023	468
408.401	463.93
408.779	486.07
409.156	473.87
409.534	488.79
409.912	510.93
410.29	474.1
410.667	526.53
411.045	523.36
411.422	531.05
411.8	528.79
412.178	538.73
412.555	552.06
412.933	560.2
413.31	559.52
413.687	562.23
414.065	571.72
414.442	570.82
414.819	563.81
415.197	573.76
415.574	604.26
415.951	591.61
416.328	602.91
416.705	611.5
417.082	612.85
417.46	620.76
417.837	642.45
418.214	645.62
418.591	641.32
418.967	616.01
419.344	647.2
419.721	663.25
420.098	659.63
420.475	677.71
420.852	679.29
421.228	684.71
421.605	706.18
421.982	715.9
422.358	716.35
422.735	719.29
423.111	733.07
423.488	732.62
423.864	742.79
424.241	762
424.617	787.31
424.994	771.27
425.37	804.26
425.746	787.31
426.123	826.63
426.499	800.87
426.875	834.77
427.251	844.26
427.627	860.53
428.003	874.09
428.379	868.21
428.756	897.59
429.132	907.08
429.507	904.82
429.883	897.82
430.259	943.92
430.635	946.63
431.011	922.67
431.387	964.25
431.763	988.66
432.138	974.2
432.514	985.04
432.89	999.51
433.265	1031.6
433.641	1035.89
434.016	1060.07
434.392	1064.82
434.767	1106.4
435.143	1093.97
435.518	1109.79
435.894	1166.28
436.269	1144.59
436.644	1148.66
437.02	1173.97
437.395	1174.42
437.77	1218.26
438.145	1221.2
438.52	1240.63
438.895	1251.93
439.271	1275.21
439.646	1315.88
440.021	1337.13
440.395	1304.13
440.77	1315.88
441.145	1371.02
441.52	1344.36
441.895	1376.22
442.27	1381.87
442.645	1397.92
443.019	1439.72
443.394	1410.34
443.769	1425.03
444.143	1432.72
444.518	1455.99
444.892	1479.95
445.267	1470.46
445.641	1473.62
446.016	1458.7
446.39	1484.24
446.764	1492.38
447.139	1498.25
447.513	1506.84
447.887	1524.01
448.262	1535.76
448.636	1560.4
449.01	1572.6
449.384	1599.27
449.758	1579.38
450.132	1614.41
450.506	1611.47
450.88	1606.27
451.254	1587.74
451.628	1626.38
452.002	1624.12
452.376	1651.92
452.75	1667.96
453.123	1684.91
453.497	1693.05
453.871	1745.7
454.244	1746.61
454.618	1742.76
454.992	1776.66
455.365	1756.32
455.739	1795.42
456.112	1828.41
456.486	1827.06
456.859	1854.85
457.232	1895.98
457.606	1878.35
457.979	1877.68
458.352	1931.69
458.725	1958.58
459.099	1953.38
459.472	2013.27
459.845	1958.58
460.218	2032.93
460.591	2031.34
460.964	2047.16
461.337	2109.31
461.71	2145.24
462.083	2182.3
462.456	2104.34
462.829	2137.56
463.201	2177.56
463.574	2228.63
463.947	2235.86
464.32	2278.8
464.692	2273.37
465.065	2283.32
465.438	2343.88
465.81	2336.2
466.183	2383.65
466.555	2398.79
466.928	2417.55
467.3	2397.21
467.672	2459.58
468.045	2478.79
468.417	2490.09
468.789	2522.18
469.161	2554.72
469.534	2569.64
469.906	2633.36
470.278	2650.99
470.65	2667.71
471.022	2646.47
471.394	2697.77
471.766	2730.99
472.138	2776.41
472.51	2803.3
472.882	2860.7
473.253	2844.43
473.625	2930.76
473.997	2977.31
474.369	2991.77
474.74	2996.97
475.112	3048.27
475.484	3087.14
475.855	3137.98
476.227	3170.52
476.598	3260.92
476.97	3242.84
477.341	3287.81
477.713	3353.8
478.084	3318.99
478.455	3440.57
478.827	3468.6
479.198	3523.74
479.569	3543.4
479.94	3606.9
480.311	3603.05
480.682	3710.62
481.053	3751.53
481.424	3808.25
481.795	3822.03
482.166	3890.28
482.537	3922.82
482.908	4014.34
483.279	3990.16
483.65	4093.21
484.021	4122.14
484.391	4198.75
484.762	4229.03
485.133	4251.85
485.503	4246.2
485.874	4366.88
486.244	4390.38
486.615	4443.48
486.985	4504.05
487.356	4577.27
487.726	4586.08
488.097	4659.07
488.467	4701.33
488.837	4751.27
489.207	4791.05
489.578	4853.42
489.948	4895.22
490.318	4959.63
490.688	4933.19
491.058	4984.26
491.428	5031.94
491.798	5159.85
492.168	5211.6
492.538	5229.23
492.908	5235.1
493.278	5251.15
493.648	5304.93
494.017	5368.66
494.387	5381.54
494.757	5406.4
495.126	5473.29
495.496	5499.5
495.866	5474.19
496.235	5605.49
496.605	5604.36
496.974	5636.9
497.344	5682.32
497.713	5711.47
498.082	5700.17
498.452	5748.76
498.821	5747.63
499.19	5752.83
499.559	5830.12
499.928	5892.26
500.298	5936.78
500.667	5924.8
501.036	5934.75
501.405	5919.83
501.774	5957.8
502.143	5958.7
502.512	6021.52
502.88	6021.52
503.249	6068.98
503.618	6084.57
503.987	6119.82
504.356	6146.26
504.724	6126.6
505.093	6166.38
505.462	6160.95
505.83	6174.51
506.199	6186.72
506.567	6324.57
506.936	6274.4
507.304	6294.96
507.672	6341.74
508.041	6350.78
508.409	6388.74
508.777	6419.7
509.145	6447.95
509.514	6447.27
509.882	6494.5
510.25	6489.08
510.618	6517.55
510.986	6551.9
511.354	6600.72
511.722	6612.69
512.09	6646.59
512.458	6613.37
512.826	6645.91
513.193	6643.2
513.561	6647.04
513.929	6697.89
514.297	6764.78
514.664	6729.53
515.032	6723.65
515.4	6788.06
515.767	6805.46
516.135	6833.48
516.502	6751.45
516.869	6901.05
517.237	6902.18
517.604	6848.17
517.972	6868.51
518.339	6888.17
518.706	6933.14
519.073	6953.7
519.44	6910.76
519.808	6950.76
520.175	7006.36
520.542	7023.3
520.909	7051.55
521.276	7001.84
521.643	7099.91
522.009	7060.37
522.376	7134.49
522.743	7128.39
523.11	7211.32
523.477	7224.65
523.843	7269.17
524.21	7343.3
524.577	7332.45
524.943	7365.67
525.31	7355.05
525.676	7474.82
526.043	7475.72
526.409	7441.37
526.776	7475.27
527.142	7447.47
527.508	7555.27
527.874	7557.53
528.241	7547.36
528.607	7601.82
528.973	7589.62
529.339	7602.27
529.705	7678.43
530.071	7682.04
530.437	7691.54
530.803	7713.46
531.169	7684.98
531.535	7710.07
531.901	7707.35
532.267	7741.93
532.632	7785.09
532.998	7815.37
533.364	7848.59
533.73	7851.76
534.095	7868.71
534.461	7888.82
534.826	7903.73
535.192	7919.78
535.557	7962.04
535.923	7902.83
536.288	7914.13
536.653	8009.04
537.019	7953.9
537.384	7909.83
537.749	7985.31
538.114	7980.79
538.479	7957.74
538.845	7980.34
539.21	7987.12
539.575	8001.81
539.94	8022.37
540.305	8057.85
540.67	8007.23
541.034	8105.76
541.399	8098.53
541.764	8060.79
542.129	8059.21
542.494	8147.79
542.858	8125.65
543.223	8125.65
543.587	8166.32
543.952	8159.55
544.316	8136.27
544.681	8144.63
545.045	8172.2
545.41	8264.63
545.774	8247.9
546.138	8254.23
546.503	8280.22
546.867	8205.19
547.231	8319.99
547.595	8289.03
547.959	8279.77
548.324	8257.85
548.688	8279.32
549.052	8274.57
549.416	8305.98
549.779	8318.86
550.143	8303.27
550.507	8312.31
550.871	8362.7
551.235	8340.78
551.599	8363.38
551.962	8413.55
552.326	8395.7
552.689	8358.86
553.053	8395.47
553.417	8388.24
553.78	8488.8
554.143	8419.65
554.507	8438.63
554.87	8498.75
555.234	8529.93
555.597	8475.7
555.96	8545.52
556.323	8576.03
556.686	8586.43
557.05	8553.89
557.413	8606.77
557.776	8590.04
558.139	8679.53
558.502	8649.93
558.865	8633.66
559.228	8773.77
559.59	8693.77
559.953	8750.94
560.316	8845.4
560.679	8815.35
561.041	8900.32
561.404	8913.65
561.767	8950.26
562.129	8952.52
562.492	8967.89
562.854	8945.51
563.217	8975.8
563.579	9037.71
563.941	9015.79
564.304	9141.67
564.666	9052.18
565.028	9107.09
565.39	9169.69
565.753	9178.28
566.115	9241.55
566.477	9296.92
566.839	9302.34
567.201	9330.81
567.563	9369.91
567.925	9365.16
568.287	9342.57
568.648	9429.57
569.01	9440.19
569.372	9510.92
569.734	9479.96
570.095	9562.22
570.457	9599.06
570.819	9579.85
571.18	9595.67
571.542	9610.58
571.903	9610.13
572.265	9704.82
572.626	9721.54
572.987	9707.98
573.349	9812.84
573.71	9825.49
574.071	9918.82
574.432	9873.62
574.794	9957.69
575.155	9970.35
575.516	9944.13
575.877	10038.37
576.238	9966.05
576.599	10016.22
576.96	10033.85
577.32	10079.27
577.681	10152.04
578.042	10187.97
578.403	10179.83
578.763	10101.19
579.124	10308.19
579.485	10254.63
579.845	10349.32
580.206	10358.13
580.566	10360.39
580.927	10390.67
581.287	10385.48
581.648	10408.07
582.008	10492.82
582.368	10444.46
582.728	10548.41
583.089	10512.48
583.449	10535.98
583.809	10618.46
584.169	10599.48
584.529	10639.25
584.889	10707.73
585.249	10669.99
585.609	10726.94
585.969	10788.18
586.329	10739.59
586.688	10750.44
587.048	10830.21
587.408	10865.69
587.768	10813.94
588.127	10779.36
588.487	10861.85
588.846	10887.84
589.206	10923.09
589.565	10924.44
589.925	11002.86
590.284	10939.36
590.643	11002.18
591.003	11042.86
591.362	11111.11
591.721	11150.65
592.08	11098.45
592.44	11132.35
592.799	11229.97
593.158	11163.76
593.517	11169.18
593.876	11218
594.235	11189.97
594.593	11249.18
594.952	11291.21
595.311	11237.43
595.67	11359.24
596.029	11347.03
596.387	11390.87
596.746	11468.61
597.104	11370.31
597.463	11422.96
597.822	11452.79
598.18	11502.28
598.538	11376.64
598.897	11561.26
599.255	11464.77
599.613	11603.75
599.972	11457.99
600.33	11538.89
600.688	11498.44
601.046	11563.07
601.404	11656.63
601.762	11611.43
602.12	11661.83
602.478	11590.87
602.836	11639.68
603.194	11573.69
603.552	11641.26
603.91	11582.05
604.268	11695.5
604.625	11630.64
604.983	11669.74
605.341	11610.75
605.698	11779.79
606.056	11740.47
606.413	11659.34
606.771	11716.06
607.128	11778.89
607.485	11653.01
607.843	11801.26
608.2	11868.37
608.557	11831.77
608.914	11843.74
609.272	11825.21
609.629	11868.37
609.986	11928.26
610.343	11823.4
610.7	11895.27
611.057	11927.58
611.414	11839.67
611.771	11876.28
612.127	11973
612.484	11952.21
612.841	12002.16
613.198	11981.59
613.554	11951.08
613.911	11978.43
614.267	12056.17
614.624	11972.78
614.98	11970.52
615.337	12020.23
615.693	12125.32
616.05	12021.14
616.406	12132.1
616.762	12083.96
617.118	12071.53
617.475	12028.82
617.831	12172.55
618.187	12119.67
618.543	12169.16
618.899	12180.46
619.255	12137.75
619.611	12223.62
619.967	12193.56
620.323	12249.38
620.678	12154.24
621.034	12170.74
621.39	12205.31
621.746	12125.77
622.101	12266.56
622.457	12211.87
622.812	12248.25
623.168	12265.88
623.523	12166.9
623.879	12212.32
624.234	12160.57
624.589	12170.97
624.945	12245.09
625.3	12209.83
625.655	12240.34
626.01	12155.6
626.365	12206.67
626.72	12248.7
627.075	12188.82
627.43	12159.67
627.785	12180.23
628.14	12213.22
628.495	12134.81
628.85	12237.4
629.205	12110.85
629.559	12162.15
629.914	12092.55
630.269	12154.24
630.623	12063.17
630.978	12047.58
631.332	12104.07
631.687	12113.57
632.041	12059.56
632.396	12039.67
632.75	11961.71
633.104	12100.68
633.459	11971.65
633.813	11976.39
634.167	11981.37
634.521	11973
634.875	11987.02
635.229	11954.25
635.583	11897.07
635.937	11898.2
636.291	11937.07
636.645	11950.41
636.999	11871.76
637.352	11952.21
637.706	11759.68
638.06	11843.52
638.413	11839.9
638.767	11793.57
639.121	11807.36
639.474	11775.04
639.828	11689.17
640.181	11750.19
640.534	11791.99
640.888	11690.3
641.241	11635.39
641.594	11744.76
641.947	11712.45
642.301	11638.32
642.654	11699.11
643.007	11732.33
643.36	11712.45
643.713	11613.69
644.066	11654.59
644.419	11626.12
644.771	11641.71
645.124	11455.5
645.477	11490.53
645.83	11365.11
646.182	11300.03
646.535	11298.45
646.888	11286.69
647.24	11238.56
647.593	11279.01
647.945	11214.15
648.298	11186.13
648.65	11150.43
649.002	11160.14
649.355	11279.69
649.707	11260.93
650.059	11308.16
650.411	11467.93
650.763	11407.82
651.115	11483.75
651.467	11512.23
651.819	11495.95
652.171	11502.28
652.523	11455.28
652.875	11387.26
653.227	11374.83
653.578	11455.28
653.93	11459.8
654.282	11465.67
654.633	11351.1
654.985	11435.39
655.337	11508.16
655.688	11411.66
656.039	11420.93
656.391	11379.57
656.742	11362.4
657.094	11455.28
657.445	11442.85
657.796	11375.05
658.147	11367.82
658.498	11434.04
658.849	11442.4
659.2	11331.89
659.551	11404.21
659.902	11442.62
660.253	11395.62
660.604	11436.07
660.955	11392
661.306	11406.01
661.656	11384.09
662.007	11451.66
662.358	11356.07
662.708	11446.24
663.059	11377.99
663.409	11411.44
663.76	11451.21
664.11	11450.98
664.461	11448.95
664.811	11421.38
665.161	11400.14
665.511	11340.03
665.862	11429.29
666.212	11440.14
666.562	11473.36
666.912	11425.67
667.262	11437.65
667.612	11403.98
667.962	11431.78
668.312	11457.31
668.662	11402.4
669.011	11382.96
669.361	11385.22
669.711	11402.85
670.06	11334.83
670.41	11370.53
670.76	11339.57
671.109	11262.97
671.459	11345
671.808	11360.14
672.157	11410.08
672.507	11338.22
672.856	11332.57
673.205	11300.25
673.554	11327.15
673.904	11242.63
674.253	11336.41
674.602	11283.53
674.951	11177.09
675.3	11062.29
675.649	11262.97
675.998	11171.67
676.346	11222.29
676.695	11299.35
677.044	11180.71
677.393	11218
677.741	11145
678.09	11184.32
678.438	11176.42
678.787	11175.51
679.135	11154.49
679.484	11087.15
679.832	11121.95
680.181	11052.58
680.529	11074.72
680.877	11001.05
681.225	11021.62
681.573	11039.02
681.922	10915.63
682.27	10933.03
682.618	10957.66
682.966	10934.84
683.314	10986.82
683.661	10910.66
684.009	10876.76
684.357	10837.22
684.705	10848.74
685.053	10793.83
685.4	10822.3
685.748	10788.18
686.095	10760.15
686.443	10741.4
686.79	10685.58
687.138	10706.6
687.485	10686.26
687.832	10641.06
688.18	10661.85
688.527	10568.3
688.874	10537.11
689.221	10533.27
689.568	10501.63
689.915	10473.16
690.262	10455.08
690.609	10406.94
690.956	10353.39
691.303	10332.14
691.65	10286.27
691.997	10305.93
692.344	10262.09
692.69	10189.1
693.037	10193.39
693.383	10144.58
693.73	10159.72
694.077	10047.86
694.423	10037.91
694.769	10061.19
695.116	10052.83
695.462	10055.77
695.808	9966.05
696.155	9934.41
696.501	9867.97
696.847	9888.09
697.193	9811.25
697.539	9784.14
697.885	9767.64
698.231	9745.27
698.577	9747.3
698.923	9756.34
699.269	9585.5
699.614	9548.89
699.96	9521.77
700.306	9539.4
700.651	9508.66
700.997	9435.44
701.342	9459.85
701.688	9475.67
702.033	9325.16
702.379	9402.45
702.724	9318.38
703.069	9319.06
703.415	9230.48
703.76	9258.27
704.105	9258.95
704.45	9202
704.795	9115.68
705.14	9093.98
705.485	9026.64
705.83	9150.25
706.175	9114.32
706.52	8997.04
706.865	8997.26
707.209	8985.74
707.554	8875.91
707.899	8955
708.243	8895.35
708.588	8889.92
708.932	8815.35
709.277	8876.36
709.621	8804.05
709.966	8777.83
710.31	8780.09
710.654	8706.65
710.998	8678.63
711.342	8696.93
711.687	8620.1
712.031	8631.85
712.375	8584.62
712.719	8617.84
713.063	8596.14
713.407	8664.16
713.75	8564.05
714.094	8529.48
714.438	8485.64
714.782	8597.27
715.125	8470.5
715.469	8487.45
715.812	8486.32
716.156	8400.89
716.499	8454.23
716.843	8413.1
717.186	8378.3
717.53	8484.96
717.873	8440.67
718.216	8417.39
718.559	8388.47
718.902	8370.61
719.246	8362.25
719.589	8319.32
719.932	8267.34
720.275	8279.77
720.617	8291.97
720.96	8287
721.303	8328.58
721.646	8296.72
721.989	8208.81
722.331	8256.49
722.674	8276.83
723.016	8199.77
723.359	8195.93
723.701	8172.65
724.044	8167
724.386	8149.6
724.729	8136.5
725.071	8173.1
725.413	8122.48
725.755	8072.99
726.097	8124.52
726.439	8074.12
726.782	8081.81
727.124	8098.08
727.465	8058.08
727.807	8063.95
728.149	8126.33
728.491	8074.8
728.833	8068.25
729.175	7999.32
729.516	8004.97
729.858	8051.75
730.199	8004.97
730.541	8002.71
730.882	8054.69
731.224	8053.56
731.565	7961.81
731.906	8014.24
732.248	7998.19
732.589	8007.01
732.93	8015.82
733.271	8085.2
733.612	7988.93
733.953	7992.32
734.294	7945.54
734.635	7919.78
734.976	8056.27
735.317	7916.16
735.658	7914.81
735.999	7953.9
736.339	7991.19
736.68	7929.04
737.021	8009.72
737.361	7964.07
737.702	7970.85
738.042	7963.39
738.383	7946.44
738.723	7927.91
739.063	7915.71
739.404	7997.97
739.744	7982.6
740.084	7916.39
740.424	7991.64
740.764	7999.78
741.104	7987.35
741.444	8009.04
741.784	7960.68
742.124	8007.23
742.464	8014.24
742.804	8034.35
743.143	8034.8
743.483	8077.97
743.823	8031.19
744.162	8004.75
744.502	8055.37
744.841	8083.16
745.181	8175.14
745.52	8153.44
745.86	8214.23
746.199	8238.64
746.538	8251.07
746.877	8296.94
747.216	8324.51
747.556	8298.52
747.895	8362.03
748.234	8372.87
748.573	8424.4
748.911	8511.4
749.25	8529.93
749.589	8616.03
749.928	8614.9
750.267	8684.28
750.605	8733.54
750.944	8755.69
751.283	8838.85
751.621	8980.99
751.96	8938.28
752.298	9023.25
752.636	9104.15
752.975	9151.16
753.313	9227.99
753.651	9372.85
753.989	9435.9
754.327	9498.27
754.666	9573.75
755.004	9727.87
755.342	9874.3
755.679	9953.4
756.017	9951.36
756.355	10123.11
756.693	10273.61
757.031	10328.53
757.368	10471.8
757.706	10575.98
758.044	10665.24
758.381	10759.93
758.719	10955.86
759.056	11126.02
759.394	11222.06
759.731	11301.61
760.068	11474.49
760.405	11669.96
760.743	11838.09
761.08	11902.95
761.417	11996.28
761.754	12226.78
762.091	12321.47
762.428	12428.36
762.765	12562.14
763.102	12704.06
763.438	12977.27
763.775	12996.25
764.112	13223.14
764.449	13321.22
764.785	13496.58
765.122	13619.29
765.458	13767.99
765.795	13853.18
766.131	13974.31
766.467	14152.83
766.804	14214.75
767.14	14401.19
767.476	14531.81
767.812	14737
768.148	14886.15
768.485	14873.95
768.821	15007.73
769.157	15091.34
769.492	15318.23
769.828	15349.41
770.164	15443.42
770.5	15494.27
770.836	15619.91
771.171	15693.13
771.507	15814.71
771.842	15845.67
772.178	15983.07
772.513	16181.71
772.849	16193.01
773.184	16259.22
773.519	16371.53
773.855	16374.24
774.19	16377.63
774.525	16585.76
774.86	16686.55
775.195	16719.09
775.53	16738.3
775.865	16780.79
776.2	16774.01
776.535	16758.64
776.87	16946.21
777.205	16929.03
777.539	16916.38
777.874	17108.24
778.209	17077.05
778.543	17153.43
778.878	17118.41
779.212	17162.47
779.547	17067.56
779.881	17276.14
780.215	17204.05
780.55	17299.19
780.884	17163.6
781.218	17222.81
781.552	17326.76
781.886	17332.19
782.22	17216.48
782.554	17233.88
782.888	17223.49
783.222	17229.36
783.556	17071.18
783.889	17206.99
784.223	17109.82
784.557	17196.14
784.89	17186.2
785.224	17185.52
785.557	17128.12
785.891	17203.6
786.224	17171.51
786.558	17217.39
786.891	16990.95
787.224	17120.21
787.557	17018.52
787.891	17045.87
788.224	17029.37
788.557	17122.7
788.89	17069.59
789.223	17101.68
789.556	16905.53
789.888	16995.25
790.221	16949.6
790.554	16836.15
790.887	16871.18
791.219	16765.65
791.552	16835.25
791.884	16752.54
792.217	16730.62
792.549	16714.57
792.882	16674.35
793.214	16644.52
793.546	16711.64
793.879	16537.86
794.211	16535.6
794.543	16623.73
794.875	16537.63
795.207	16588.93
795.539	16535.37
795.871	16531.53
796.203	16370.18
796.535	16330.18
796.867	16298.77
797.198	16277.52
797.53	16331.76
797.862	16221.03
798.193	16330.86
798.525	16148.94
798.856	16174.7
799.188	16050.64
799.519	15979.23
799.85	15962.73
800.182	15933.8
800.513	15958.89
800.844	15854.94
801.175	15822.62
801.506	15860.13
801.837	15815.62
802.168	15734.26
802.499	15694.26
802.83	15654.26
803.161	15633.93
803.491	15652.68
803.822	15603.42
804.153	15507.15
804.483	15550.99
804.814	15422.86
805.145	15427.6
805.475	15433.93
805.805	15407.49
806.136	15496.53
806.466	15328.62
806.796	15367.72
807.126	15248.62
807.457	15249.3
807.787	15158.23
808.117	15086.59
808.447	15170.43
808.777	15209.08
809.107	15090.89
809.436	15049.53
809.766	15094.96
810.096	14964.34
810.426	14937.67
810.755	14962.08
811.085	14899.03
811.414	14902.64
811.744	14812.03
812.073	14779.26
812.403	14762.76
812.732	14701.29
813.061	14668.75
813.39	14634.18
813.719	14523.22
814.049	14726.15
814.378	14557.34
814.707	14524.35
815.036	14488.64
815.365	14476.44
815.693	14359.38
816.022	14426.27
816.351	14327.29
816.68	14313.28
817.008	14340.85
817.337	14219.5
817.665	14127.07
817.994	14229.89
818.322	14193.51
818.651	14080.97
818.979	14076.68
819.307	14230.35
819.636	14144.7
819.964	14098.37
820.292	14141.53
820.62	14126.62
820.948	14125.49
821.276	14202.78
821.604	14029.67
821.932	14032.16
822.259	14080.07
822.587	13952.84
822.915	14035.1
823.243	14133.17
823.57	14014.31
823.898	13966.4
824.225	14057.24
824.553	14053.85
824.88	14010.69
825.207	14070.12
825.535	13989.22
825.862	14071.71
826.189	13974.99
826.516	14094.08
826.843	14101.54
827.17	14125.94
827.497	14176.34
827.824	14100.63
828.151	14096.56
828.478	14061.09
828.805	14219.27
829.131	14050.69
829.458	14082.78
829.785	14009.34
830.111	14083.68
830.438	14189.9
830.764	14070.8
831.09	14106.96
831.417	14014.31
831.743	14122.1
832.069	14047.3
832.395	14011.37
832.722	14114.19
833.048	13986.28
833.374	14091.82
833.7	13937.47
834.026	14019.28
834.351	14003.01
834.677	13955.55
835.003	13986.28
835.329	13962.33
835.654	13946.06
835.98	13855.89
836.306	13914.2
836.631	13924.37
836.956	13901.99
837.282	13880.07
837.607	13849.34
837.932	13728.66
838.258	13816.57
838.583	13747.87
838.908	13763.69
839.233	13616.58
839.558	13640.76
839.883	13645.73
840.208	13545.17
840.533	13599.4
840.858	13585.39
841.182	13576.8
841.507	13567.09
841.832	13504.94
842.156	13499.52
842.481	13480.54
842.805	13460.65
843.13	13403.93
843.454	13404.83
843.778	13306.98
844.103	13306.53
844.427	13250.26
844.751	13371.61
845.075	13279.64
845.399	13179.75
845.723	13090.72
846.047	13088
846.371	13012.53
846.695	12982.92
847.019	12912.87
847.343	12865.41
847.666	12797.84
847.99	12768.01
848.313	12782.7
848.637	12655.47
848.96	12730.72
849.284	12592.42
849.607	12470.17
849.931	12499.32
850.254	12357.63
850.577	12367.12
850.9	12299.1
851.223	12237.86
851.546	12164.86
851.869	12146.33
852.192	12234.24
852.515	12017.07
852.838	12021.36
853.161	12068.6
853.483	11909.05
853.806	11930.52
854.129	11960.8
854.451	11866.79
854.774	11817.98
855.096	11786.34
855.419	11810.97
855.741	11740.02
856.063	11656.63
856.385	11583.18
856.708	11597.2
857.03	11540.25
857.352	11538.21
857.674	11502.28
857.996	11434.04
858.318	11327.82
858.64	11371.44
858.961	11364.43
859.283	11278.11
859.605	11250.09
859.926	11319.46
860.248	11271.55
860.57	11208.5
860.891	11167.83
861.212	11207.37
861.534	11140.48
861.855	11090.09
862.176	11076.53
862.498	11132.35
862.819	11135.51
863.14	11034.95
863.461	11020.49
863.782	10992.92
864.103	10988.17
864.424	10947.49
864.745	10900.26
865.065	10903.88
865.386	10929.42
865.707	10881.51
866.027	10916.53
866.348	10794.05
866.668	10869.3
866.989	10777.56
867.309	10727.84
867.63	10780.04
867.95	10740.04
868.27	10658.46
868.59	10706.15
868.91	10651.68
869.23	10640.61
869.55	10629.99
869.87	10694.39
870.19	10525.13
870.51	10617.11
870.83	10625.7
871.15	10494.17
871.469	10542.08
871.789	10579.82
872.109	10575.08
872.428	10482.65
872.748	10462.99
873.067	10494.85
873.386	10457.56
873.706	10433.84
874.025	10383.44
874.344	10356.32
874.663	10446.72
874.982	10347.96
875.301	10348.64
875.62	10358.58
875.939	10304.8
876.258	10313.84
876.577	10250.11
876.896	10235.2
877.214	10225.25
877.533	10227.51
877.852	10186.16
878.17	10215.76
878.489	10230.45
878.807	10136.67
879.125	10183.45
879.444	10143.9
879.762	10105.48
880.08	10075.65
880.398	10069.78
880.716	10015.99
881.034	10041.76
881.352	10009.44
881.67	9984.81
881.988	9979.84
882.306	9889.67
882.624	9898.71
882.941	9823
883.259	9849.44
883.577	9818.71
883.894	9795.66
884.212	9802.44
884.529	9797.92
884.846	9690.58
885.164	9716.57
885.481	9684.25
885.798	9765.15
886.115	9636.79
886.432	9594.76
886.75	9557.93
887.067	9550.92
887.383	9516.8
887.7	9575.55
888.017	9497.36
888.334	9537.81
888.651	9519.06
888.967	9470.7
889.284	9423.24
889.6	9408.55
889.917	9285.84
890.233	9361.77
890.55	9291.72
890.866	9343.47
891.182	9245.62
891.498	9269.57
891.815	9210.59
892.131	9186.41
892.447	9171.72
892.763	9138.05
893.079	9141.89
893.395	9072.06
893.71	9006.75
894.026	8960.43
894.342	8929.47
894.657	8961.33
894.973	8923.59
895.289	8909.58
895.604	8892.63
895.92	8778.74
896.235	8750.49
896.55	8816.03
896.865	8743.94
897.181	8712.3
897.496	8738.74
897.811	8673.66
898.126	8749.81
898.441	8603.38
898.756	8592.08
899.071	8526.09
899.386	8589.59
899.7	8480.21
900.015	8408.8
900.33	8369.48
900.644	8325.19
900.959	8360.9
901.273	8354.12
901.588	8294.46
901.902	8232.54
902.216	8187.57
902.531	8186.21
902.845	8142.14
903.159	8103.95
903.473	8058.53
903.787	8002.71
904.101	8016.5
904.415	7991.41
904.729	8019.21
905.042	7970.62
905.356	7911.64
905.67	7899.89
905.984	7821.48
906.297	7806.33
906.611	7809.5
906.924	7808.59
907.237	7770.85
907.551	7767.69
907.864	7651.08
908.177	7641.59
908.491	7666.45
908.804	7567.02
909.117	7561.82
909.43	7554.59
909.743	7497.87
910.056	7481.15
910.368	7361.6
910.681	7407.25
910.994	7337.65
911.307	7341.71
911.619	7246.8
911.932	7214.71
912.244	7212
912.557	7201.38
912.869	7162.06
913.181	7143.98
913.494	7074.38
913.806	7076.41
914.118	7030.76
914.43	7017.65
914.742	6944.89
915.054	6972.23
915.366	6897.66
915.678	6908.5
915.99	6892.91
916.302	6813.37
916.613	6870.54
916.925	6773.14
917.236	6768.85
917.548	6716.19
917.859	6700.37
918.171	6669.42
918.482	6629.19
918.794	6592.13
919.105	6633.71
919.416	6547.16
919.727	6557.55
920.038	6520.04
920.349	6504.9
920.66	6538.12
920.971	6454.96
921.282	6412.02
921.593	6441.17
921.903	6373.6
922.214	6345.58
922.525	6329.31
922.835	6301.29
923.146	6290.89
923.456	6214.29
923.767	6224.68
924.077	6173.83
924.387	6183.33
924.697	6184.46
925.008	6114.4
925.318	6087.96
925.628	6120.95
925.938	6046.61
926.248	6059.04
926.558	5965.93
926.867	5957.34
927.177	5953.73
927.487	5915.99
927.796	5850.91
928.106	5882.32
928.416	5887.74
928.725	5808.42
929.034	5823.79
929.344	5780.62
929.653	5780.4
929.962	5733.85
930.271	5762.55
930.581	5672.15
930.89	5672.38
931.199	5610.69
931.508	5673.28
931.817	5639.16
932.125	5601.42
932.434	5580.86
932.743	5565.72
933.051	5464.47
933.36	5460.86
933.669	5443.91
933.977	5425.15
934.286	5458.83
934.594	5422.67
934.902	5360.97
935.21	5321.43
935.519	5316.23
935.827	5335.89
936.135	5259.73
936.443	5202.79
936.751	5266.06
937.059	5182.45
937.367	5161.43
937.674	5251.15
937.982	5205.05
938.29	5114.43
938.597	5155.1
938.905	5060.19
939.213	5066.52
939.52	5029.91
939.827	5059.06
940.135	5004.15
940.442	4979.74
940.749	4962.34
941.056	4967.99
941.363	4922.12
941.67	4879.18
941.977	4912.63
942.284	4858.16
942.591	4802.57
942.898	4836.02
943.205	4801.89
943.511	4757.37
943.818	4764.83
944.125	4685.51
944.431	4716.92
944.738	4715.12
945.044	4647.77
945.35	4658.85
945.657	4630.37
945.963	4618.4
946.269	4562.8
946.575	4587.44
946.881	4542.92
947.187	4532.07
947.493	4507.66
947.799	4496.82
948.105	4516.93
948.41	4444.84
948.716	4440.1
949.022	4448.23
949.327	4417.5
949.633	4324.39
949.938	4332.53
950.244	4382.47
950.549	4336.6
950.854	4328.46
951.16	4265.64
951.465	4284.84
951.77	4244.85
952.075	4198.75
952.38	4228.12
952.685	4210.72
952.99	4137.28
953.294	4173.66
953.599	4123.04
953.904	4109.93
954.209	4103.38
954.513	4079.2
954.818	4031.07
955.122	4010.05
955.426	4030.16
955.731	4005.08
956.035	3976.38
956.339	4009.15
956.643	3983.38
956.948	3949.26
957.252	3943.61
957.556	3863.61
957.86	3884.18
958.163	3882.37
958.467	3867.68
958.771	3837.4
959.075	3848.92
959.378	3801.47
959.682	3788.59
959.985	3785.65
960.289	3729.83
960.592	3754.46
960.896	3727.35
961.199	3753.33
961.502	3700.23
961.805	3684.41
962.108	3675.37
962.411	3611.64
962.714	3613
963.017	3654.13
963.32	3609.61
963.623	3643.51
963.926	3568.93
964.228	3580.68
964.531	3513.79
964.833	3535.26
965.136	3477.18
965.438	3518.54
965.741	3475.83
966.043	3436.28
966.345	3476.28
966.648	3431.08
966.95	3390.63
967.252	3407.35
967.554	3400.8
967.856	3394.02
968.158	3342.04
968.46	3325.77
968.761	3339.11
969.063	3314.93
969.365	3326.23
969.666	3308.6
969.968	3253.23
970.269	3281.71
970.571	3264.98
970.872	3238.09
971.174	3179.79
971.475	3256.85
971.776	3219.11
972.077	3209.39
972.378	3166.91
972.679	3160.13
972.98	3151.54
973.281	3071.32
973.582	3110.19
973.883	3125.33
974.183	3099.79
974.484	3071.54
974.785	3052.11
975.085	3041.94
975.386	3048.95
975.686	3016.63
975.986	3022.96
976.287	3020.92
976.587	2973.02
976.887	2962.62
977.187	2966.69
977.487	2949.96
977.787	2956.29
978.087	2904.54
978.387	2925.78
978.687	2912.9
978.987	2882.85
979.286	2834.26
979.586	2839.01
979.885	2826.13
980.185	2816.18
980.484	2766.24
980.784	2807.82
981.083	2763.3
981.382	2785.68
981.682	2796.97
981.981	2756.75
982.28	2756.07
982.579	2707.03
982.878	2725.56
983.177	2714.04
983.475	2695.96
983.774	2656.87
984.073	2637.43
984.372	2674.94
984.67	2661.61
984.969	2619.58
985.267	2625.68
985.566	2602.18
985.864	2519.69
986.162	2569.41
986.461	2558.56
986.759	2544.78
987.057	2532.57
987.355	2512.46
987.653	2519.92
987.951	2510.88
988.249	2482.86
988.547	2471.33
988.844	2457.32
989.142	2458.45
989.44	2430.43
989.737	2444.44
990.035	2438.79
990.332	2370.77
990.63	2397.21
990.927	2384.56
991.224	2370.55
991.521	2351.56
991.819	2385.69
992.116	2362.41
992.413	2349.98
992.71	2296.42
993.006	2325.35
993.303	2319.47
993.6	2295.97
993.897	2316.99
994.193	2312.02
994.49	2281.73
994.787	2253.49
995.083	2246.71
995.379	2248.51
995.676	2235.63
995.972	2220.49
996.268	2176.2
996.565	2179.82
996.861	2167.39
997.157	2152.25
997.453	2142.08
997.749	2126.94
998.044	2094.62
998.34	2150.89
998.636	2098.69
998.932	2126.03
999.227	2111.12
999.523	2059.82
999.818	2040.16
1000.114	2062.53
1000.409	2051.46
1000.704	1992.7
1001	1992.25
1001.295	2011.23
1001.59	2013.04
1001.885	1998.58
1002.18	1979.14
1002.475	2007.39
1002.77	1945.02
1003.065	1932.14
1003.359	1913.16
1003.654	1938.24
1003.949	1915.87
1004.243	1912.25
1004.538	1882.42
1004.832	1878.81
1005.127	1870.22
1005.421	1827.28
1005.715	1852.82
1006.009	1835.19
1006.304	1827.96
1006.598	1823.67
1006.892	1799.26
1007.186	1784.57
1007.48	1792.93
1007.773	1796.32
1008.067	1771.46
1008.361	1747.96
1008.655	1747.96
1008.948	1729.21
1009.242	1742.31
1009.535	1728.53
1009.829	1744.57
1010.122	1699.6
1010.415	1694.63
1010.708	1668.42
1011.001	1675.42
1011.295	1663.9
1011.588	1631.36
1011.881	1628.64
1012.173	1630.23
1012.466	1616.21
1012.759	1594.07
1013.052	1609.89
1013.344	1615.31
1013.637	1579.83
1013.93	1566.72
1014.222	1561.07
1014.514	1565.37
1014.807	1555.65
1015.099	1548.19
1015.391	1509.55
1015.683	1519.95
1015.976	1504.35
1016.268	1509.32
1016.56	1475.2
1016.851	1507.52
1017.143	1467.52
1017.435	1457.57
1017.727	1446.05
1018.018	1451.02
1018.31	1465.71
1018.602	1408.76
1018.893	1421.42
1019.185	1410.57
1019.476	1420.29
1019.767	1387.29
1020.058	1366.73
1020.35	1382.55
1020.641	1364.7
1020.932	1355.2
1021.223	1364.02
1021.514	1307.52
1021.804	1343.68
1022.095	1331.25
1022.386	1320.86
1022.677	1319.73
1022.967	1323.57
1023.258	1297.35
1023.548	1286.28
1023.839	1275.66
1024.129	1275.21
1024.419	1229.78
1024.709	1276.11
1025	1240.63
1025.29	1232.5
1025.58	1242.67
1025.87	1214.87
1026.16	1207.19
1026.449	1180.29
1026.739	1213.51
1027.029	1192.04
1027.319	1167.41
1027.608	1183.01
1027.898	1162.89
1028.187	1174.19
1028.477	1142.55
1028.766	1124.48
1029.055	1133.29
1029.344	1125.61
1029.634	1133.74
1029.923	1107.08
1030.212	1121.09
1030.501	1115.66
1030.79	1102.56
1031.078	1083.57
1031.367	1065.72
1031.656	1066.85
1031.945	1055.55
1032.233	1054.2
1032.522	1035.66
1032.81	1052.84
1033.099	1023.01
1033.387	1031.37
1033.675	1034.08
1033.963	1019.62
1034.251	1010.58
1034.54	1008.09
1034.828	989.34
1035.116	1009.45
1035.403	979.4
1035.691	997.93
1035.979	970.36
1036.267	977.81
1036.554	977.36
1036.842	947.98
1037.129	927.19
1037.417	961.99
1037.704	926.97
1037.992	914.99
1038.279	922.22
1038.566	932.39
1038.853	932.39
1039.14	932.39
