Data from hue_90_FLMS001491_2.txt Node
Date: Mon Feb 06 15:24:35 GMT 2017
User: dcchb
Spectrometer: FLMS00149
Trigger mode: 0
Integration Time (sec): 2.000000E-2
Scans to average: 10
Electric dark correction enabled: true
Nonlinearity correction enabled: false
Boxcar width: 0
XAxis mode: Wavelengths
Number of Pixels in Spectrum: 2048
>>>>>Begin Spectral Data<<<<<
341.393	6.17
341.776	6.17
342.16	6.17
342.543	-57.78
342.927	-69.76
343.31	-45.8
343.693	-70.66
344.077	-58.91
344.46	-53.71
344.843	-80.15
345.226	-27.5
345.61	-20.72
345.993	-16.43
346.376	-23.88
346.759	5.49
347.142	23.57
347.525	35.55
347.908	56.79
348.291	76
348.674	103.12
349.057	97.24
349.44	116.9
349.823	137.02
350.206	165.94
350.588	190.35
350.971	214.3
351.354	219.5
351.737	217.47
352.119	230.57
352.502	266.5
352.884	255.88
353.267	260.63
353.65	279.84
354.032	274.19
354.414	285.03
354.797	308.99
355.179	327.07
355.562	313.28
355.944	338.59
356.326	320.51
356.709	335.2
357.091	335.43
357.473	323.68
357.855	323.23
358.238	328.88
358.62	327.52
359.002	339.5
359.384	330.23
359.766	326.39
360.148	340.63
360.53	343.34
360.912	333.85
361.294	334.3
361.676	348.08
362.057	329.55
362.439	338.14
362.821	315.77
363.203	324.13
363.584	336.56
363.966	323.68
364.348	321.42
364.729	354.41
365.111	322.32
365.493	313.51
365.874	301.31
366.256	314.19
366.637	312.38
367.019	306.5
367.4	319.84
367.781	325.26
368.163	309.22
368.544	320.51
368.925	306.28
369.306	318.25
369.688	311.25
370.069	320.51
370.45	296.11
370.831	320.97
371.212	307.86
371.593	305.83
371.974	292.04
372.355	308.76
372.736	306.73
373.117	291.14
373.498	327.52
373.879	311.93
374.26	331.81
374.641	299.05
375.021	304.7
375.402	319.16
375.783	304.7
376.163	338.14
376.544	302.66
376.925	330.01
377.305	310.8
377.686	302.21
378.066	302.89
378.447	319.16
378.827	333.4
379.208	324.58
379.588	334.3
379.968	308.31
380.349	326.62
380.729	332.49
381.109	309.44
381.489	337.91
381.87	327.29
382.25	339.5
382.63	328.42
383.01	323.9
383.39	345.15
383.77	348.31
384.15	330.91
384.53	327.07
384.91	326.39
385.29	347.86
385.67	359.84
386.049	351.93
386.429	344.69
386.809	347.18
387.189	330.68
387.568	352.83
387.948	335.88
388.328	337.24
388.707	357.58
389.087	336.11
389.466	339.04
389.846	351.02
390.225	341.3
390.605	315.99
390.984	339.72
391.363	362.09
391.743	365.71
392.122	371.81
392.501	372.49
392.881	366.84
393.26	371.59
393.639	378.82
394.018	374.75
394.397	349.44
394.776	366.39
395.155	375.43
395.534	381.3
395.913	379.04
396.292	368.2
396.671	396.44
397.05	389.66
397.429	392.38
397.808	379.04
398.186	379.72
398.565	403.68
398.944	393.51
399.323	382.66
399.701	405.71
400.08	403
400.458	389.44
400.837	396.22
401.215	407.29
401.594	379.72
401.972	400.29
402.351	394.18
402.729	390.34
403.107	412.72
403.486	401.87
403.864	420.4
404.242	408.87
404.62	416.1
404.999	406.84
405.377	433.96
405.755	418.14
406.133	439.38
406.511	405.71
406.889	431.92
407.267	422.43
407.645	438.48
408.023	427.18
408.401	437.8
408.779	461.3
409.156	446.39
409.534	442.09
409.912	438.48
410.29	429.66
410.667	436.9
411.045	472.37
411.422	458.36
411.8	466.73
412.178	451.13
412.555	476.89
412.933	482.32
413.31	474.41
413.687	457.46
414.065	458.36
414.442	475.76
414.819	459.72
415.197	491.81
415.574	495.42
415.951	501.75
416.328	476.89
416.705	487.52
417.082	478.7
417.46	496.78
417.837	510.79
418.214	504.46
418.591	506.05
418.967	494.97
419.344	524.58
419.721	484.58
420.098	509.66
420.475	520.96
420.852	507.4
421.228	522.54
421.605	528.42
421.982	524.58
422.358	531.81
422.735	528.64
423.111	539.49
423.488	529.55
423.864	559.15
424.241	554.41
424.617	556.21
424.994	555.08
425.37	589.21
425.746	534.07
426.123	553.28
426.499	586.5
426.875	568.64
427.251	609.55
427.627	563.22
428.003	591.24
428.379	593.95
428.756	601.41
429.132	597.57
429.507	616.1
429.883	593.5
430.259	615.42
430.635	627.85
431.011	621.52
431.387	629.88
431.763	668.75
432.138	628.3
432.514	648.87
432.89	642.09
433.265	648.87
433.641	650.22
434.016	672.82
434.392	685.02
434.767	682.31
435.143	689.32
435.518	684.35
435.894	702.43
436.269	686.38
436.644	727.74
437.02	711.92
437.395	712.14
437.77	717.11
438.145	743.1
438.52	743.1
438.895	732.03
439.271	715.76
439.646	754.63
440.021	738.13
440.395	743.78
440.77	745.59
441.145	777.23
441.52	786.94
441.895	773.16
442.27	765.02
442.645	806.6
443.019	797.56
443.394	819.03
443.769	797.34
444.143	790.56
444.518	841.63
444.892	781.29
445.267	832.82
445.641	812.48
446.016	848.86
446.39	826.94
446.764	843.44
447.139	834.17
447.513	865.13
447.887	862.87
448.262	852.03
448.636	848.64
449.01	878.01
449.384	884.57
449.758	855.64
450.132	884.79
450.506	920.95
450.88	903.1
451.254	905.13
451.628	948.75
452.002	926.15
452.376	924.34
452.75	921.85
453.123	938.35
453.497	942.87
453.871	975.86
454.244	944.68
454.618	1000.04
454.992	994.85
455.365	992.59
455.739	999.82
456.112	1009.54
456.486	1041.4
456.859	1037.78
457.232	1040.95
457.606	1050.66
457.979	1064.45
458.352	1075.97
458.725	1081.17
459.099	1086.82
459.472	1127.5
459.845	1149.87
460.218	1134.73
460.591	1155.75
460.964	1149.42
461.337	1187.16
461.71	1189.42
462.083	1209.98
462.456	1240.94
462.829	1231.22
463.201	1247.72
463.574	1273.03
463.947	1291.34
464.32	1332.92
464.692	1315.97
465.065	1339.47
465.438	1354.16
465.81	1365.46
466.183	1374.72
466.555	1416.08
466.928	1415.17
467.3	1447.72
467.672	1463.31
468.045	1503.08
468.417	1491.33
468.789	1520.03
469.161	1539.24
469.534	1575.4
469.906	1600.93
470.278	1634.6
470.65	1652.68
471.022	1717.99
471.394	1722.06
471.766	1743.08
472.138	1761.61
472.51	1826.01
472.882	1866.01
473.253	1895.61
473.625	1886.8
473.997	1960.25
474.369	1977.65
474.74	2002.5
475.112	2105.1
475.484	2075.95
475.855	2173.57
476.227	2211.54
476.598	2283.85
476.97	2292.89
477.341	2337.41
477.713	2400.23
478.084	2461.25
478.455	2562.04
478.827	2584.18
479.198	2681.36
479.569	2687.01
479.94	2796.61
480.311	2863.72
480.682	2927.68
481.053	3067.79
481.424	3119.08
481.795	3177.39
482.166	3216.71
482.537	3298.51
482.908	3422.13
483.279	3436.36
483.65	3562.46
484.021	3675.45
484.391	3745.06
484.762	3856.92
485.133	3911.15
485.503	3999.51
485.874	4173.52
486.244	4255.78
486.615	4311.6
486.985	4428.2
487.356	4578.26
487.726	4663.45
488.097	4776.67
488.467	4830.68
488.837	5044.46
489.207	5096.21
489.578	5221.4
489.948	5346.37
490.318	5465.69
490.688	5567.16
491.058	5674.5
491.428	5755.63
491.798	5949.07
492.168	6081.72
492.538	6148.84
492.908	6258.89
493.278	6428.83
493.648	6503.63
494.017	6622.72
494.387	6712.66
494.757	6785.43
495.126	7033.56
495.496	7004.63
495.866	7173.67
496.235	7271.07
496.605	7406.43
496.974	7484.85
497.344	7595.13
497.713	7679.87
498.082	7822.01
498.452	7899.52
498.821	8048.45
499.19	8010.93
499.559	8186.97
499.928	8311.04
500.298	8415.89
500.667	8509.9
501.036	8535.44
501.405	8641.43
501.774	8677.13
502.143	8785.15
502.512	8838.93
502.88	9001.42
503.249	9033.73
503.618	9092.94
503.987	9124.12
504.356	9276.66
504.724	9315.76
505.093	9429.88
505.462	9408.86
505.83	9500.61
506.199	9626.71
506.567	9759.36
506.936	9759.36
507.304	9885.23
507.672	9909.64
508.041	9961.62
508.409	10052.46
508.777	10171.1
509.145	10233.02
509.514	10173.59
509.882	10282.96
510.25	10237.54
510.618	10369.29
510.986	10444.09
511.354	10541.94
511.722	10569.06
512.09	10669.17
512.458	10651.54
512.826	10667.59
513.193	10756.4
513.561	10797.53
513.929	10768.38
514.297	10916.39
514.664	10945.32
515.032	11007.69
515.4	11078.88
515.767	11089.04
516.135	11108.03
516.502	11047.24
516.869	11251.75
517.237	11241.81
517.604	11167.01
517.972	11257.18
518.339	11388.92
518.706	11269.15
519.073	11341.69
519.44	11397.29
519.808	11512.76
520.175	11441.8
520.542	11547.79
520.909	11698.52
521.276	11463.5
521.643	11590.95
522.009	11654.23
522.376	11690.84
522.743	11702.59
523.11	11808.57
523.477	11803.6
523.843	11842.7
524.21	11993.65
524.577	11997.27
524.943	11980.55
525.31	11980.55
525.676	12068.68
526.043	12034.33
526.409	12119.53
526.776	12146.42
527.142	12113.42
527.508	12060.32
527.874	12218.28
528.241	12227.09
528.607	12192.52
528.973	12201.11
529.339	12299.18
529.705	12296.24
530.071	12305.06
530.437	12362.46
530.803	12347.54
531.169	12293.98
531.535	12246.53
531.901	12307.32
532.267	12276.36
532.632	12332.4
532.998	12316.36
533.364	12400.87
533.73	12301.89
534.095	12372.85
534.461	12299.86
534.826	12315
535.192	12346.64
535.557	12359.29
535.923	12324.94
536.288	12286.75
536.653	12260.09
537.019	12188
537.384	12178.73
537.749	12250.6
538.114	12159.07
538.479	12207.89
538.845	12090.15
539.21	12015.57
539.575	12018.29
539.94	12059.64
540.305	12077.27
540.67	11987.78
541.034	12078.17
541.399	12013.31
541.764	11928.8
542.129	11947.1
542.494	11979.87
542.858	11926.76
543.223	11869.82
543.587	11912.07
543.952	11863.49
544.316	11885.41
544.681	11832.98
545.045	11809.7
545.41	11911.4
545.774	11782.59
546.138	11750.5
546.503	11675.7
546.867	11701.23
547.231	11732.19
547.595	11694.68
547.959	11673.44
548.324	11662.14
548.688	11568.58
549.052	11627.11
549.416	11540.56
549.779	11556.83
550.143	11527.23
550.507	11626.21
550.871	11541.46
551.235	11473.44
551.599	11481.58
551.962	11499.66
552.326	11523.38
552.689	11488.81
553.053	11330.17
553.417	11400
553.78	11435.7
554.143	11396.16
554.507	11314.58
554.87	11302.6
555.234	11397.29
555.597	11199.55
555.96	11339.43
556.323	11329.26
556.686	11311.19
557.05	11303.73
557.413	11319.32
557.776	11258.31
558.139	11275.03
558.502	11346.66
558.865	11267.8
559.228	11353.22
559.59	11285.88
559.953	11218.31
560.316	11334.46
560.679	11346.89
561.041	11366.78
561.404	11342.37
561.767	11362.94
562.129	11294.46
562.492	11360.45
562.854	11339.89
563.217	11345.31
563.579	11400.9
563.941	11380.11
564.304	11417.17
564.666	11442.26
565.028	11381.69
565.39	11452.65
565.753	11424.18
566.115	11482.71
566.477	11513.89
566.839	11422.82
567.201	11593.66
567.563	11498.53
567.925	11576.72
568.287	11501.69
568.648	11619.43
569.01	11557.73
569.372	11551.86
569.734	11517.06
570.095	11671.85
570.457	11697.16
570.819	11643.83
571.18	11617.39
571.542	11739.87
571.903	11682.25
572.265	11653.32
572.626	11740.78
572.987	11785.98
573.349	11743.94
573.71	11740.55
574.071	11821.68
574.432	11747.11
574.794	11886.54
575.155	11832.08
575.516	11850.83
575.877	11818.97
576.238	11828.91
576.599	11836.6
576.96	11877.5
577.32	11889.7
577.681	11799.99
578.042	11933.32
578.403	11879.98
578.763	11837.95
579.124	11877.72
579.485	11991.62
579.845	11945.75
580.206	11933.32
580.566	11923.15
580.927	11856.03
581.287	11947.78
581.648	11852.87
582.008	11947.1
582.368	11895.58
582.728	11838.63
583.089	11865.75
583.449	11834.79
583.809	11942.81
584.169	11895.58
584.529	11796.82
584.889	11912.07
585.249	11835.24
585.609	11796.14
585.969	11902.58
586.329	11797.27
586.688	11836.82
587.048	11821.45
587.408	11834.11
587.768	11817.16
588.127	11806.99
588.487	11809.48
588.846	11897.16
589.206	11744.62
589.565	11727.22
589.925	11836.6
590.284	11714.56
590.643	11739.87
591.003	11758.63
591.362	11793.21
591.721	11685.64
592.08	11713.43
592.44	11792.08
592.799	11748.24
593.158	11741.23
593.517	11702.36
593.876	11816.94
594.235	11724.73
594.593	11724.73
594.952	11746.2
595.311	11626.43
595.67	11682.93
596.029	11730.61
596.387	11729.93
596.746	11674.11
597.104	11687.67
597.463	11734.68
597.822	11684.51
598.18	11602.93
598.538	11635.24
598.897	11724.96
599.255	11555.25
599.613	11745.98
599.972	11684.51
600.33	11773.32
600.688	11687.45
601.046	11662.14
601.404	11726.32
601.762	11684.96
602.12	11746.2
602.478	11636.83
602.836	11694.23
603.194	11719.99
603.552	11621.91
603.91	11611.97
604.268	11610.39
604.625	11750.27
604.983	11698.07
605.341	11667.56
605.698	11667.33
606.056	11712.76
606.413	11666.88
606.771	11692.87
607.128	11710.05
607.485	11729.25
607.843	11705.98
608.2	11658.97
608.557	11837.5
608.914	11798.18
609.272	11780.33
609.629	11719.54
609.986	11821.91
610.343	11742.81
610.7	11814
611.057	11821.45
611.414	11845.86
611.771	11775.81
612.127	11779.65
612.484	11891.06
612.841	11826.2
613.198	11932.86
613.554	11860.1
613.911	11884.96
614.267	11871.4
614.624	11909.36
614.98	11868.46
615.337	11973.77
615.693	11970.15
616.05	11854
616.406	12008.34
616.762	11961.56
617.118	11923.37
617.475	11963.37
617.831	11980.32
618.187	11961.11
618.543	11993.2
618.899	12029.81
619.255	11989.13
619.611	12034.56
619.967	12017.83
620.323	12097.61
620.678	11970.38
621.034	11990.94
621.39	12000.21
621.746	11948.91
622.101	12104.39
622.457	12051.96
622.812	12116.36
623.168	12033.2
623.523	12078.4
623.879	12059.19
624.234	11995.69
624.589	12132.41
624.945	12045.86
625.3	12122.69
625.655	12136.7
626.01	12106.87
626.365	12093.99
626.72	12129.92
627.075	12010.83
627.43	12015.57
627.785	11999.3
628.14	11994.56
628.495	12049.25
628.85	12032.75
629.205	11999.3
629.559	12065.74
629.914	11966.08
630.269	11972.64
630.623	11883.6
630.978	11956.37
631.332	11973.99
631.687	11942.36
632.041	11886.54
632.396	11996.59
632.75	11943.26
633.104	11935.8
633.459	11880.89
633.813	11912.75
634.167	11811.74
634.521	11866.2
634.875	11838.4
635.229	11871.85
635.583	11758.63
635.937	11812.42
636.291	11745.75
636.645	11750.5
636.999	11700.55
637.352	11694.68
637.706	11674.34
638.06	11696.26
638.413	11674.11
638.767	11608.35
639.121	11700.33
639.474	11541.24
639.828	11642.7
640.181	11626.66
640.534	11741
640.888	11559.77
641.241	11494.68
641.594	11542.37
641.947	11583.49
642.301	11532.87
642.654	11563.61
643.007	11572.42
643.36	11562.93
643.713	11525.64
644.066	11549.82
644.419	11534
644.771	11409.04
645.124	11309.83
645.477	11290.17
645.83	11224.18
646.182	11116.61
646.535	11133.11
646.888	11185.09
647.24	11090.63
647.593	11175.14
647.945	11194.58
648.298	11099.67
648.65	11096.28
649.002	11024.19
649.355	11088.59
649.707	11068.25
650.059	11150.51
650.411	11265.09
650.763	11313.22
651.115	11386.89
651.467	11364.97
651.819	11329.26
652.171	11322.94
652.523	11297.17
652.875	11298.98
653.227	11277.06
653.578	11392.54
653.93	11324.52
654.282	11282.49
654.633	11333.11
654.985	11388.25
655.337	11284.52
655.688	11300.79
656.039	11327
656.391	11288.81
656.742	11267.8
657.094	11263.96
657.445	11372.2
657.796	11274.35
658.147	11291.53
658.498	11290.85
658.849	11339.66
659.2	11302.15
659.551	11229.15
659.902	11362.94
660.253	11320.22
660.604	11286.33
660.955	11281.58
661.306	11357.29
661.656	11323.16
662.007	11294.46
662.358	11285.65
662.708	11296.72
663.059	11289.72
663.409	11310.51
663.76	11365.2
664.11	11305.99
664.461	11347.34
664.811	11370.62
665.161	11365.2
665.511	11313.22
665.862	11363.16
666.212	11425.53
666.562	11419.43
666.912	11392.31
667.262	11261.24
667.612	11385.99
667.962	11337.4
668.312	11321.81
668.662	11413.78
669.011	11313.45
669.361	11296.5
669.711	11253.11
670.06	11291.07
670.41	11306.44
670.76	11270.28
671.109	11372.2
671.459	11327.68
671.808	11283.62
672.157	11349.83
672.507	11177.4
672.856	11259.66
673.205	11289.27
673.554	11330.85
673.904	11182.6
674.253	11280.9
674.602	11229.61
674.951	11153.22
675.3	11054.92
675.649	11216.95
675.998	11129.5
676.346	11200.23
676.695	11158.87
677.044	11139.89
677.393	11117.07
677.741	11154.13
678.09	11144.41
678.438	11082.49
678.787	11050.63
679.135	11158.87
679.484	11051.08
679.832	11089.95
680.181	11041.59
680.529	11068.03
680.877	10989.39
681.225	10971.08
681.573	11079.1
681.922	10967.01
682.27	10922.04
682.618	10951.42
682.966	10877.3
683.314	10890.41
683.661	10803.4
684.009	10842.72
684.357	10761.37
684.705	10756.62
685.053	10760.24
685.4	10725.21
685.748	10711.88
686.095	10693.12
686.443	10599.34
686.79	10679.79
687.138	10585.55
687.485	10577.65
687.832	10571.54
688.18	10607.25
688.527	10490.19
688.874	10521.15
689.221	10485.67
689.568	10432.34
689.915	10408.84
690.262	10423.75
690.609	10449.51
690.956	10332.68
691.303	10308.5
691.65	10298.56
691.997	10280.93
692.344	10177.88
692.69	10153.93
693.037	10180.37
693.383	10143.76
693.73	10185.57
694.077	10081.16
694.423	10055.17
694.769	10037.55
695.116	9934.95
695.462	9967.72
695.808	9939.47
696.155	9952.8
696.501	9865.57
696.847	9822.86
697.193	9793.49
697.539	9758.01
697.885	9727.05
698.231	9660.61
698.577	9699.7
698.923	9603.66
699.269	9572.02
699.614	9511.68
699.96	9485.24
700.306	9544.45
700.651	9465.58
700.997	9433.49
701.342	9435.08
701.688	9336.77
702.033	9312.14
702.379	9334.06
702.724	9337.68
703.069	9319.15
703.415	9140.85
703.76	9168.64
704.105	9198.25
704.45	9134.07
704.795	9090.91
705.14	9058.59
705.485	9089.32
705.83	9026.95
706.175	8997.12
706.52	8985.37
706.865	8977.69
707.209	8906.28
707.554	8926.62
707.899	8934.3
708.243	8908.54
708.588	8820.63
708.932	8745.38
709.277	8724.14
709.621	8833.74
709.966	8688.66
710.31	8706.51
710.654	8616.34
710.998	8655.66
711.342	8678.49
711.687	8665.61
712.031	8600.75
712.375	8585.83
712.719	8588.55
713.063	8560.07
713.407	8547.19
713.75	8497.25
714.094	8545.16
714.438	8462
714.782	8514.42
715.125	8452.5
715.469	8462.9
715.812	8406.4
716.156	8344.26
716.499	8376.12
716.843	8336.35
717.186	8355.78
717.53	8398.49
717.873	8354.88
718.216	8379.74
718.559	8318.72
718.902	8216.13
719.246	8303.36
719.589	8259.74
719.932	8224.71
720.275	8243.92
720.617	8231.49
720.96	8186.07
721.303	8207.99
721.646	8217.93
721.989	8138.61
722.331	8213.87
722.674	8203.92
723.016	8181.32
723.359	8114.43
723.701	8121.44
724.044	8173.19
724.386	8095
724.729	8135.45
725.071	8128.67
725.413	8121.21
725.755	8069.69
726.097	8128.22
726.439	8057.49
726.782	8069.24
727.124	8104.72
727.465	8059.29
727.807	8067.2
728.149	8000.31
728.491	8080.31
728.833	7988.56
729.175	8007.77
729.516	8009.13
729.858	8047.09
730.199	7968
730.541	7995.34
730.882	8027.66
731.224	8045.51
731.565	7960.31
731.906	7931.39
732.248	7968.45
732.589	7920.31
732.93	7987.88
733.271	7881.45
733.612	7978.84
733.953	7948.56
734.294	7967.09
734.635	7941.78
734.976	7943.14
735.317	7920.77
735.658	7930.94
735.999	7989.01
736.339	7910.6
736.68	7968.67
737.021	7954.66
737.361	7922.12
737.702	7956.25
738.042	7996.24
738.383	7949.92
738.723	8000.31
739.063	8022.46
739.404	7985.17
739.744	7986.3
740.084	8002.12
740.424	7974.32
740.764	8007.09
741.104	8038.73
741.444	7997.83
741.784	7978.62
742.124	8075.11
742.464	8059.29
742.804	8086.19
743.143	8024.04
743.483	8083.02
743.823	8063.14
744.162	8168.9
744.502	8121.66
744.841	8131.83
745.181	8279.17
745.52	8191.72
745.86	8216.8
746.199	8265.16
746.538	8262.23
746.877	8309.23
747.216	8263.58
747.556	8395.56
747.895	8470.13
748.234	8462.9
748.573	8429
748.911	8522.11
749.25	8559.17
749.589	8563.46
749.928	8630.13
750.267	8724.14
750.605	8797.81
750.944	8878.48
751.283	8905.37
751.621	8978.37
751.96	9052.94
752.298	9185.59
752.636	9196.44
752.975	9286.83
753.313	9304.01
753.651	9526.37
753.989	9431.91
754.327	9556.43
754.666	9685.24
755.004	9793.49
755.342	9905.12
755.679	9994.16
756.017	10033.03
756.355	10167.26
756.693	10329.52
757.031	10383.07
757.368	10489.51
757.706	10626.46
758.044	10680.47
758.381	10875.72
758.719	10934.25
759.056	11136.95
759.394	11185.99
759.731	11303.95
760.068	11433.89
760.405	11602.48
760.743	11687.22
761.08	11898.74
761.417	11966.99
761.754	12094.22
762.091	12293.53
762.428	12455.56
762.765	12432.29
763.102	12651.49
763.438	12715.44
763.775	12902.1
764.112	13039.05
764.449	13201.53
764.785	13285.82
765.122	13355.88
765.458	13495.08
765.795	13578.92
766.131	13767.17
766.467	13871.57
766.804	13998.8
767.14	14040.61
767.476	14290.09
767.812	14290.32
768.148	14483.08
768.485	14528.95
768.821	14577.77
769.157	14697.54
769.492	14797.42
769.828	14886.23
770.164	14880.81
770.5	15107.24
770.836	15089.62
771.171	15200.12
771.507	15300.46
771.842	15353.34
772.178	15403.28
772.513	15480.12
772.849	15552.66
773.184	15519.66
773.519	15738.19
773.855	15685.31
774.19	15787
774.525	15791.52
774.86	15893.21
775.195	15951.06
775.53	15972.31
775.865	15828.81
776.2	15903.61
776.535	15903.38
776.87	16071.29
777.205	16023.15
777.539	16051.63
777.874	16065.18
778.209	16020.21
778.543	16099.08
778.878	16090.04
779.212	16137.5
779.547	16101.79
779.881	16141.12
780.215	16168.91
780.55	16276.7
780.884	16204.16
781.218	16223.37
781.552	16287.1
781.886	16127.33
782.22	16166.65
782.554	16188.8
782.888	16117.39
783.222	16102.7
783.556	16062.25
783.889	16011.85
784.223	15993.77
784.557	16090.04
784.89	16057.73
785.224	16066.99
785.557	15980.67
785.891	15979.54
786.224	15928.01
786.558	16027.67
786.891	15943.83
787.224	15850.73
787.557	15891.63
787.891	15890.95
788.224	15939.99
788.557	15933.66
788.89	15889.14
789.223	15885.53
789.556	15800.79
789.888	15793.55
790.221	15758.98
790.554	15532.77
790.887	15698.87
791.219	15655.25
791.552	15616.16
791.884	15603.73
792.217	15532.32
792.549	15598.53
792.882	15486.9
793.214	15434.92
793.546	15490.28
793.879	15393.79
794.211	15357.18
794.543	15284.87
794.875	15317.41
795.207	15435.37
795.539	15295.49
795.871	15321.93
796.203	15166
796.535	15137.3
796.867	15073.8
797.198	15039.22
797.53	15090.97
797.862	14960.81
798.193	15027.92
798.525	14972.33
798.856	14886.91
799.188	14765.78
799.519	14782.73
799.85	14736.63
800.182	14771.21
800.513	14697.99
800.844	14694.83
801.175	14714.94
801.506	14647.14
801.837	14613.02
802.168	14489.41
802.499	14453.25
802.83	14449.86
803.161	14428.39
803.491	14395.85
803.822	14430.2
804.153	14354.72
804.483	14197.21
804.814	14254.61
805.145	14253.03
805.475	14208.74
805.805	14285.34
806.136	14205.35
806.466	14125.57
806.796	14067.95
807.126	13964.9
807.457	14018.46
807.787	13964
808.117	13962.19
808.447	13889.87
808.777	13913.83
809.107	13920.83
809.436	13853.04
809.766	13800.16
810.096	13790.22
810.426	13790.22
810.755	13761.74
811.085	13772.36
811.414	13627.96
811.744	13581.18
812.073	13590.67
812.403	13579.15
812.732	13493.95
813.061	13507.29
813.39	13410.79
813.719	13378.93
814.049	13467.97
814.378	13436.33
814.707	13331.02
815.036	13396.55
815.365	13278.59
815.693	13168.09
816.022	13204.47
816.351	13150.91
816.68	13121.99
817.008	13213.73
817.337	12985.27
817.665	12963.57
817.994	13080.63
818.322	12993.63
818.651	12941.88
818.979	12903.23
819.307	13040.41
819.636	12982.55
819.964	12894.42
820.292	12869.34
820.62	12948.88
820.948	12886.51
821.276	12987.07
821.604	12862.11
821.932	12963.57
822.259	12897.13
822.587	12867.75
822.915	12862.11
823.243	12841.09
823.57	12880.18
823.898	12870.47
824.225	12801.54
824.553	12881.99
824.88	12891.48
825.207	12922.22
825.535	12946.17
825.862	12832.05
826.189	12873.4
826.516	12954.31
826.843	12970.35
827.17	12906.4
827.497	12941.65
827.824	12866.62
828.151	12947.98
828.478	12888.32
828.805	12945.04
829.131	12919.05
829.458	12866.85
829.785	12850.81
830.111	12861.2
830.438	12895.32
830.764	12950.24
831.09	12821.43
831.417	12790.69
831.743	12834.76
832.069	12868.43
832.395	12818.49
832.722	12854.2
833.048	12765.84
833.374	12831.15
833.7	12747.53
834.026	12716.8
834.351	12798.6
834.677	12806.74
835.003	12755.44
835.329	12738.94
835.654	12686.06
835.98	12642.45
836.306	12651.72
836.631	12595.9
836.956	12686.29
837.282	12669.79
837.607	12635.44
837.932	12612.39
838.258	12644.48
838.583	12529.46
838.908	12472.96
839.233	12625.95
839.558	12559.29
839.883	12430.25
840.208	12416.69
840.533	12468.67
840.858	12434.32
841.182	12433.64
841.507	12402.68
841.832	12310.93
842.156	12268.22
842.481	12310.48
842.805	12261.67
843.13	12324.04
843.454	12266.19
843.778	12232.07
844.103	12108.9
844.427	12137.83
844.751	12105.52
845.075	12023.71
845.399	12037.49
845.723	11971.28
846.047	12047.66
846.371	11963.82
846.695	11944.84
847.019	11801.79
847.343	11711.18
847.666	11698.75
847.99	11647
848.313	11637.28
848.637	11534
848.96	11614
849.284	11592.31
849.607	11441.8
849.931	11403.84
850.254	11392.77
850.577	11363.16
850.9	11213.34
851.223	11224.86
851.546	11220.79
851.869	11121.36
852.192	11101.7
852.515	11032.77
852.838	11036.84
853.161	11082.49
853.483	10993
853.806	10939.44
854.129	10895.38
854.451	10848.37
854.774	10787.13
855.096	10767.25
855.419	10740.13
855.741	10665.1
856.063	10652.67
856.385	10574.71
856.708	10588.49
857.03	10521.6
857.352	10562.5
857.674	10559.12
857.996	10463.52
858.318	10444.99
858.64	10483.18
858.961	10388.95
859.283	10380.81
859.605	10300.14
859.926	10384.2
860.248	10245.68
860.57	10287.03
860.891	10290.87
861.212	10194.83
861.534	10207.94
861.855	10150.09
862.176	10185.11
862.498	10130.43
862.819	10090.43
863.14	10058.11
863.461	9998.23
863.782	10063.53
864.103	9942.63
864.424	10000.94
864.745	9963.88
865.065	9969.53
865.386	9994.16
865.707	9859.47
866.027	9870.77
866.348	9895.18
866.668	9904.22
866.989	9883.65
867.309	9834.61
867.63	9845.46
867.95	9760.72
868.27	9781.06
868.59	9757.78
868.91	9720.94
869.23	9791.9
869.55	9652.7
869.87	9746.03
870.19	9687.73
870.51	9706.48
870.83	9723.2
871.15	9598.46
871.469	9618.12
871.789	9658.12
872.109	9597.11
872.428	9562.98
872.748	9529.09
873.067	9577.67
873.386	9529.09
873.706	9553.49
874.025	9500.39
874.344	9403.44
874.663	9503.78
874.982	9480.73
875.301	9453.38
875.62	9417
875.939	9454.06
876.258	9346.94
876.577	9334.97
876.896	9292.93
877.214	9296.1
877.533	9285.93
877.852	9350.33
878.17	9259.04
878.489	9268.53
878.807	9258.36
879.125	9237.12
879.444	9255.19
879.762	9234.18
880.08	9216.78
880.398	9201.86
880.716	9212.26
881.034	9115.99
881.352	9200.05
881.67	9134.07
881.988	9146.04
882.306	9120.73
882.624	9030.12
882.941	9039.15
883.259	8946.28
883.577	8953.51
883.894	8942.21
884.212	8930.46
884.529	8969.33
884.846	8925.71
885.164	8920.29
885.481	8927.75
885.798	8854.08
886.115	8813.85
886.432	8827.41
886.75	8789.9
887.067	8798.71
887.383	8768.43
887.7	8744.7
888.017	8692.5
888.334	8761.65
888.651	8658.6
888.967	8635.32
889.284	8544.03
889.6	8586.74
889.917	8549.45
890.233	8526.17
890.55	8567.53
890.866	8539.51
891.182	8491.82
891.498	8473.75
891.815	8433.75
892.131	8363.24
892.447	8411.83
892.763	8349.23
893.079	8332.51
893.395	8337.7
893.71	8303.81
894.026	8290.02
894.342	8199.18
894.657	8162.79
894.973	8175.9
895.289	8115.34
895.604	8114.21
895.92	8057.71
896.235	8089.8
896.55	8080.54
896.865	7963.03
897.181	8001.67
897.496	7976.36
897.811	7971.16
898.126	7886.19
898.441	7897.26
898.756	7902.91
899.071	7783.37
899.386	7775.46
899.7	7822.46
900.015	7645.29
900.33	7674.67
900.644	7671.28
900.959	7665.18
901.273	7591.74
901.588	7516.03
901.902	7484.17
902.216	7570.04
902.531	7480.1
902.845	7437.62
903.159	7396.94
903.473	7441.23
903.787	7387
904.101	7376.83
904.415	7354.45
904.729	7297.28
905.042	7210.28
905.356	7201.46
905.67	7266.55
905.984	7194.91
906.297	7203.05
906.611	7135.02
906.924	7095.93
907.237	7113.33
907.551	7082.37
907.864	7049.15
908.177	7019.55
908.491	7002.82
908.804	6905.65
909.117	6905.43
909.43	6841.02
909.743	6833.11
910.056	6851.19
910.368	6843.96
910.681	6781.14
910.994	6726.67
911.307	6731.42
911.619	6711.31
911.932	6687.8
912.244	6686.9
912.557	6603.51
912.869	6606.68
913.181	6554.47
913.494	6523.97
913.806	6514.48
914.118	6518.32
914.43	6457.75
914.742	6480.35
915.054	6421.14
915.366	6348.15
915.678	6354.71
915.99	6317.64
916.302	6282.62
916.613	6316.74
916.925	6275.39
917.236	6249.4
917.548	6220.25
917.859	6193.81
918.171	6167.82
918.482	6110.64
918.794	6048.5
919.105	6068.61
919.416	5995.39
919.727	5989.52
920.038	6007.82
920.349	5966.69
920.66	5929.18
920.971	5939.12
921.282	5891.89
921.593	5856.64
921.903	5828.84
922.214	5828.17
922.525	5798.56
922.835	5783.65
923.146	5723.08
923.456	5724.89
923.767	5703.42
924.077	5724.67
924.387	5705.68
924.697	5642.41
925.008	5636.53
925.318	5621.62
925.628	5573.71
925.938	5598.57
926.248	5568.96
926.558	5499.59
926.867	5492.36
927.177	5462.07
927.487	5444.9
927.796	5457.33
928.106	5410.1
928.416	5412.81
928.725	5388.63
929.034	5342.08
929.344	5335.98
929.653	5277.9
929.962	5252.81
930.271	5282.42
930.581	5186.83
930.89	5220.72
931.199	5182.76
931.508	5188.41
931.817	5140.95
932.125	5136.88
932.434	5091.24
932.743	5068.19
933.051	5094.17
933.36	5049.2
933.669	5029.32
933.977	4952.71
934.286	5004.01
934.594	5024.57
934.902	4900.96
935.21	4894.63
935.519	4895.54
935.827	4891.69
936.135	4861.19
936.443	4817.35
936.751	4836.55
937.059	4829.77
937.367	4765.14
937.674	4820.51
937.982	4745.26
938.29	4711.36
938.597	4707.29
938.905	4632.27
939.213	4654.64
939.52	4630.68
939.827	4664.81
940.135	4547.52
940.442	4585.49
940.749	4538.48
941.056	4575.09
941.363	4501.2
941.67	4533.74
941.977	4510.91
942.284	4457.35
942.591	4467.75
942.898	4443.57
943.205	4413.29
943.511	4400.18
943.818	4363.8
944.125	4332.61
944.431	4299.17
944.738	4347.3
945.044	4370.8
945.35	4256.23
945.657	4281.77
945.963	4236.34
946.269	4243.12
946.575	4232.5
946.881	4194.54
947.187	4206.74
947.493	4162.67
947.799	4163.35
948.105	4110.25
948.41	4133.75
948.716	4102.34
949.022	4042.22
949.327	4112.73
949.633	4008.33
949.938	3987.31
950.244	4004.49
950.549	3948.89
950.854	3938.95
951.16	3947.99
951.465	3939.85
951.77	3924.04
952.075	3870.03
952.38	3878.61
952.685	3881.1
952.99	3850.59
953.294	3868.22
953.599	3801.1
953.904	3828.67
954.209	3776.24
954.513	3788.22
954.818	3760.88
955.122	3728.11
955.426	3686.53
955.731	3691.72
956.035	3699.41
956.339	3686.98
956.643	3671.39
956.948	3660.99
957.252	3640.2
957.556	3605.17
957.86	3615.57
958.163	3597.04
958.467	3590.26
958.771	3588.22
959.075	3564.72
959.378	3530.15
959.682	3508
959.985	3438.85
960.289	3487.66
960.592	3501
960.896	3479.75
961.199	3439.08
961.502	3437.95
961.805	3387.55
962.108	3405.4
962.411	3381.45
962.714	3353.65
963.017	3341.23
963.32	3358.85
963.623	3324.5
963.926	3310.27
964.228	3287.22
964.531	3320.66
964.833	3248.8
965.136	3261.23
965.438	3233.88
965.741	3261.91
966.043	3188.01
966.345	3157.95
966.648	3157.5
966.95	3130.16
967.252	3129.93
967.554	3115.02
967.856	3103.27
968.158	3117.28
968.46	3117.95
968.761	3120.89
969.063	3080.89
969.365	3082.7
969.666	3033.89
969.968	3005.42
970.269	3022.36
970.571	2994.79
970.872	2976.72
971.174	2994.34
971.475	2956.15
971.776	2980.78
972.077	2958.41
972.378	2905.08
972.679	2922.25
972.98	2915.47
973.281	2854.01
973.582	2880.22
973.883	2893.78
974.183	2882.03
974.484	2859.2
974.785	2830.96
975.085	2809.04
975.386	2808.81
975.686	2837.51
975.986	2780.79
976.287	2771.52
976.587	2733.33
976.887	2733.11
977.187	2762.48
977.487	2714.58
977.787	2700.34
978.087	2693.79
978.387	2706.67
978.687	2646.33
978.987	2625.31
979.286	2645.42
979.586	2663.73
979.885	2656.5
980.185	2585.99
980.484	2571.08
980.784	2600.45
981.083	2592.54
981.382	2554.35
981.682	2580.79
981.981	2602.49
982.28	2564.97
982.579	2527.46
982.878	2528.37
983.177	2504.86
983.475	2530.63
983.774	2510.06
984.073	2449.27
984.372	2439.78
984.67	2421.48
984.969	2465.99
985.267	2457.41
985.566	2419.89
985.864	2387.35
986.162	2432.55
986.461	2387.58
986.759	2398.65
987.057	2357.3
987.355	2343.29
987.653	2381.93
987.951	2360.46
988.249	2309.16
988.547	2309.84
988.844	2297.41
989.142	2286.34
989.44	2285.43
989.737	2290.86
990.035	2280.46
990.332	2230.07
990.63	2200.92
990.927	2246.57
991.224	2214.93
991.521	2209.05
991.819	2162.05
992.116	2179.9
992.413	2221.26
992.71	2185.55
993.006	2176.74
993.303	2156.62
993.6	2146
993.897	2129.96
994.193	2115.04
994.49	2099.68
994.787	2083.63
995.083	2109.85
995.379	2065.55
995.676	2084.08
995.972	2078.89
996.268	2032.56
996.565	2001.15
996.861	2030.75
997.157	1996.18
997.453	2008.38
997.749	2000.02
998.044	1970.41
998.34	1995.27
998.636	1961.15
998.932	1953.24
999.227	1965.89
999.523	1967.7
999.818	1956.4
1000.114	1924.54
1000.409	1919.57
1000.704	1904.88
1001	1884.31
1001.295	1900.13
1001.59	1866.69
1001.885	1843.19
1002.18	1826.24
1002.475	1839.12
1002.77	1840.25
1003.065	1850.42
1003.359	1812.9
1003.654	1830.98
1003.949	1772
1004.243	1810.87
1004.538	1787.82
1004.832	1780.59
1005.127	1762.06
1005.421	1765.67
1005.715	1742.62
1006.009	1704.43
1006.304	1720.48
1006.598	1711.66
1006.892	1693.59
1007.186	1691.55
1007.48	1687.48
1007.773	1673.92
1008.067	1679.57
1008.361	1649.07
1008.655	1651.55
1008.948	1622.4
1009.242	1634.83
1009.535	1646.58
1009.829	1625.56
1010.122	1606.81
1010.415	1607.26
1010.708	1581.95
1011.001	1540.37
1011.295	1560.93
1011.588	1567.26
1011.881	1567.26
1012.173	1524.32
1012.466	1530.88
1012.759	1505.34
1013.052	1533.14
1013.344	1507.6
1013.637	1507.15
1013.93	1493.82
1014.222	1484.33
1014.514	1472.57
1014.807	1479.13
1015.099	1420.6
1015.391	1464.44
1015.683	1427.38
1015.976	1433.03
1016.268	1425.34
1016.56	1427.6
1016.851	1404.55
1017.143	1408.4
1017.435	1384.67
1017.727	1411.11
1018.018	1397.1
1018.31	1345.57
1018.602	1353.93
1018.893	1331.56
1019.185	1336.31
1019.476	1325.23
1019.767	1327.49
1020.058	1325.46
1020.35	1310.09
1020.641	1269.64
1020.932	1292.24
1021.223	1283.65
1021.514	1272.58
1021.804	1260.83
1022.095	1249.76
1022.386	1260.15
1022.677	1238.91
1022.967	1252.47
1023.258	1220.6
1023.548	1223.54
1023.839	1175.41
1024.129	1208.63
1024.419	1203.88
1024.709	1184.67
1025	1193.26
1025.29	1166.82
1025.58	1143.54
1025.87	1151.23
1026.16	1132.02
1026.449	1158.23
1026.739	1123.2
1027.029	1150.1
1027.319	1120.49
1027.608	1115.07
1027.898	1111.91
1028.187	1125.01
1028.477	1103.09
1028.766	1093.38
1029.055	1082.08
1029.344	1085.01
1029.634	1088.4
1029.923	1053.38
1030.212	1061.29
1030.501	1028.29
1030.79	1050.44
1031.078	1050.89
1031.367	1010.89
1031.656	1014.96
1031.945	990.55
1032.233	1003.21
1032.522	1020.38
1032.81	1012.02
1033.099	987.39
1033.387	974.73
1033.675	976.77
1033.963	948.07
1034.251	967.28
1034.54	974.28
1034.828	966.37
1035.116	935.41
1035.403	955.75
1035.691	917.33
1035.979	929.54
1036.267	922.53
1036.554	923.44
1036.842	898.8
1037.129	903.55
1037.417	882.99
1037.704	889.09
1037.992	879.14
1038.279	885.92
1038.566	863.1
1038.853	863.1
1039.14	863.1
