Data from hue_10_FLMS001491_80.txt Node
Date: Mon Feb 06 15:32:32 GMT 2017
User: dcchb
Spectrometer: FLMS00149
Trigger mode: 0
Integration Time (sec): 2.000000E-2
Scans to average: 10
Electric dark correction enabled: true
Nonlinearity correction enabled: false
Boxcar width: 0
XAxis mode: Wavelengths
Number of Pixels in Spectrum: 2048
>>>>>Begin Spectral Data<<<<<
341.393	-13.59
341.776	-13.59
342.16	-13.59
342.543	-51.33
342.927	-70.76
343.31	-61.04
343.693	-71.66
344.077	-76.64
344.46	-43.64
344.843	-55.17
345.226	-41.61
345.61	-33.93
345.993	-28.28
346.376	10.82
346.759	-5
347.142	28.22
347.525	47.88
347.908	51.27
348.291	71.16
348.674	85.85
349.057	121.78
349.44	143.24
349.823	139.18
350.206	150.25
350.588	203.13
350.971	201.1
351.354	239.97
351.737	223.02
352.119	257.37
352.502	261.89
352.884	286.07
353.267	273.86
353.65	286.07
354.032	300.08
354.414	333.97
354.797	319.29
355.179	326.06
355.562	337.36
355.944	336.46
356.326	329.45
356.709	340.98
357.091	337.36
357.473	330.13
357.855	352.5
358.238	345.05
358.62	343.24
359.002	357.02
359.384	344.6
359.766	352.05
360.148	337.82
360.53	360.19
360.912	362.9
361.294	352.05
361.676	326.74
362.057	334.88
362.439	335.1
362.821	336.46
363.203	323.13
363.584	323.13
363.966	329
364.348	321.09
364.729	328.55
365.111	322.9
365.493	298.49
365.874	321.77
366.256	316.8
366.637	309.34
367.019	312.05
367.4	308.89
367.781	309.34
368.163	305.5
368.544	320.42
368.925	317.25
369.306	320.19
369.688	302.34
370.069	333.3
370.45	305.27
370.831	310.02
371.212	314.99
371.593	311.6
371.974	310.02
372.355	316.8
372.736	333.07
373.117	303.92
373.498	308.66
373.879	311.6
374.26	310.7
374.641	333.07
375.021	302.56
375.402	300.98
375.783	300.98
376.163	344.6
376.544	304.14
376.925	313.18
377.305	329.91
377.686	330.81
378.066	325.61
378.447	317.25
378.827	305.27
379.208	338.27
379.588	329.91
379.968	316.57
380.349	320.19
380.729	340.08
381.109	329.45
381.489	333.52
381.87	335.56
382.25	338.95
382.63	354.99
383.01	342.79
383.39	342.34
383.77	353.86
384.15	329.68
384.53	344.14
384.91	331.04
385.29	340.98
385.67	333.52
386.049	338.27
386.429	332.62
386.809	329.68
387.189	353.41
387.568	322.9
387.948	352.73
388.328	346.4
388.707	352.73
389.087	339.4
389.466	345.73
389.846	344.82
390.225	340.53
390.605	355.44
390.984	333.07
391.363	360.41
391.743	363.8
392.122	359.74
392.501	347.31
392.881	352.28
393.26	347.53
393.639	359.51
394.018	364.26
394.397	357.25
394.776	362.45
395.155	376.46
395.534	367.42
395.913	359.74
396.292	385.27
396.671	353.41
397.05	380.3
397.429	367.42
397.808	390.47
398.186	377.36
398.565	356.12
398.944	371.49
399.323	380.75
399.701	383.92
400.08	353.41
400.458	344.6
400.837	394.76
401.215	384.14
401.594	379.85
401.972	370.81
402.351	396.35
402.729	377.81
403.107	355.22
403.486	385.72
403.864	383.24
404.242	396.12
404.62	388.66
404.999	375.33
405.377	386.4
405.755	408.55
406.133	386.63
406.511	393.63
406.889	385.27
407.267	390.24
407.645	396.35
408.023	410.81
408.401	398.38
408.779	392.5
409.156	429.56
409.534	423.24
409.912	432.28
410.29	418.27
410.667	431.37
411.045	396.8
411.422	422.11
411.8	412.62
412.178	428.66
412.555	408.55
412.933	402.67
413.31	425.27
413.687	421.66
414.065	438.6
414.442	417.81
414.819	438.6
415.197	424.82
415.574	441.77
415.951	435.44
416.328	434.31
416.705	453.52
417.082	446.06
417.46	443.8
417.837	449.9
418.214	447.19
418.591	463.91
418.967	447.19
419.344	455.1
419.721	471.37
420.098	453.29
420.475	468.66
420.852	470.69
421.228	464.37
421.605	466.85
421.982	471.15
422.358	458.26
422.735	468.66
423.111	486.74
423.488	478.6
423.864	484.25
424.241	486.06
424.617	456.23
424.994	474.31
425.37	491.71
425.746	514.99
426.123	495.1
426.499	495.33
426.875	492.61
427.251	516.79
427.627	525.61
428.003	517.92
428.379	518.38
428.756	508.66
429.132	495.78
429.507	497.13
429.883	547.98
430.259	524.03
430.635	530.13
431.011	524.03
431.387	524.7
431.763	557.92
432.138	550.47
432.514	564.02
432.89	552.27
433.265	580.97
433.641	575.78
434.016	556.57
434.392	582.78
434.767	567.41
435.143	559.05
435.518	555.21
435.894	593.63
436.269	584.14
436.644	602.89
437.02	584.36
437.395	592.27
437.77	590.92
438.145	600.41
438.52	599.73
438.895	604.02
439.271	594.53
439.646	610.13
440.021	623.68
440.395	619.16
440.77	618.94
441.145	625.94
441.52	634.98
441.895	635.66
442.27	617.81
442.645	637.47
443.019	640.41
443.394	620.52
443.769	650.58
444.143	644.25
444.518	666.17
444.892	651.71
445.267	652.16
445.641	664.59
446.016	643.12
446.39	653.51
446.764	677.92
447.139	670.01
447.513	686.28
447.887	676.34
448.262	674.76
448.636	667.07
449.01	687.86
449.384	687.64
449.758	692.61
450.132	703
450.506	677.69
450.88	693.74
451.254	710.01
451.628	697.58
452.002	705.72
452.376	710.91
452.75	718.82
453.123	725.38
453.497	730.35
453.871	716.34
454.244	742.78
454.618	745.94
454.992	738.48
455.365	756.56
455.739	757.47
456.112	751.59
456.486	752.04
456.859	766.05
457.232	805.83
457.606	775.09
457.979	771.48
458.352	794.98
458.725	809.22
459.099	817.58
459.472	833.85
459.845	823.68
460.218	837.46
460.591	844.02
460.964	847.18
461.337	842.89
461.71	865.71
462.083	875.43
462.456	858.25
462.829	864.58
463.201	881.98
463.574	900.74
463.947	900.29
464.32	919.04
464.692	938.48
465.065	935.31
465.438	933.51
465.81	939.83
466.183	972.38
466.555	991.81
466.928	964.01
467.3	978.25
467.672	982.32
468.045	1005.82
468.417	1045.59
468.789	998.36
469.161	1070
469.534	1033.39
469.906	1047.85
470.278	1078.81
470.65	1086.27
471.022	1142.54
471.394	1129.89
471.766	1137.79
472.138	1134.63
472.51	1173.05
472.882	1201.75
473.253	1201.3
473.625	1220.96
473.997	1192.93
474.369	1231.8
474.74	1296.89
475.112	1274.06
475.484	1332.59
475.855	1359.71
476.227	1356.32
476.598	1366.94
476.97	1407.39
477.341	1429.31
477.713	1469.09
478.084	1471.12
478.455	1475.64
478.827	1516.09
479.198	1581.4
479.569	1590.66
479.94	1632.25
480.311	1630.66
480.682	1639.25
481.053	1706.59
481.424	1757.21
481.795	1755.63
482.166	1787.04
482.537	1838.57
482.908	1875.4
483.279	1884.22
483.65	1930.99
484.021	1979.35
484.391	2013.25
484.762	2054.38
485.133	2105.68
485.503	2098.45
485.874	2158.33
486.244	2199.91
486.615	2239.46
486.985	2249.63
487.356	2315.62
487.726	2352.45
488.097	2384.32
488.467	2402.39
488.837	2458.21
489.207	2529.62
489.578	2521.71
489.948	2599.68
490.318	2582.28
490.688	2632.9
491.058	2696.62
491.428	2716.51
491.798	2757.87
492.168	2782.5
492.538	2803.97
492.908	2863.4
493.278	2932.32
493.648	2950.4
494.017	3008.93
494.387	2982.49
494.757	3033.79
495.126	3078.53
495.496	3075.82
495.866	3108.36
496.235	3143.17
496.605	3170.74
496.974	3176.61
497.344	3250.96
497.713	3295.93
498.082	3318.53
498.452	3339.54
498.821	3364.63
499.19	3358.53
499.559	3421.12
499.928	3423.61
500.298	3415.25
500.667	3459.77
501.036	3435.81
501.405	3506.77
501.774	3526.43
502.143	3562.14
502.512	3606.43
502.88	3587.67
503.249	3617.28
503.618	3589.03
503.987	3676.03
504.356	3652.08
504.724	3671.97
505.093	3695.02
505.462	3700.21
505.83	3761.45
506.199	3790.83
506.567	3817.95
506.936	3833.32
507.304	3827.67
507.672	3859.31
508.041	3876.48
508.409	3857.5
508.777	3867.44
509.145	3923.71
509.514	3929.36
509.882	3985.4
510.25	3935.24
510.618	4000.32
510.986	3974.1
511.354	4024.95
511.722	4034.22
512.09	4026.08
512.458	4038.96
512.826	4075.8
513.193	4104.95
513.561	4119.19
513.929	4136.59
514.297	4133.42
514.664	4135.91
515.032	4130.71
515.4	4200.99
515.767	4177.49
516.135	4213.65
516.502	4179.52
516.869	4242.35
517.237	4226.3
517.604	4216.58
517.972	4284.38
518.339	4230.37
518.706	4265.85
519.073	4291.16
519.44	4296.36
519.808	4335
520.175	4315.11
520.542	4306.98
520.909	4343.13
521.276	4359.18
521.643	4351.04
522.009	4393.98
522.376	4389.69
522.743	4406.41
523.11	4450.7
523.477	4478.95
523.843	4463.36
524.21	4500.64
524.577	4527.76
524.943	4532.28
525.31	4508.1
525.676	4571.38
526.043	4597.14
526.409	4614.31
526.776	4666.74
527.142	4657.7
527.508	4707.42
527.874	4702.9
528.241	4770.24
528.607	4724.37
528.973	4752.16
529.339	4781.31
529.705	4817.47
530.071	4858.6
530.437	4863.12
530.803	4899.73
531.169	4885.72
531.535	4926.4
531.901	4905.83
532.267	4892.5
532.632	4978.15
532.998	4987.41
533.364	4997.35
533.73	5034.42
534.095	5063.79
534.461	5088.88
534.826	5081.19
535.192	5124.13
535.557	5150.8
535.923	5172.04
536.288	5140.85
536.653	5172.27
537.019	5177.91
537.384	5193.06
537.749	5206.39
538.114	5261.3
538.479	5251.59
538.845	5271.92
539.21	5280.96
539.575	5310.79
539.94	5327.29
540.305	5370.45
540.67	5398.7
541.034	5369.32
541.399	5398.47
541.764	5438.92
542.129	5465.36
542.494	5515.31
542.858	5508.98
543.223	5519.83
543.587	5577.45
543.952	5574.29
544.316	5591.46
544.681	5646.38
545.045	5722.53
545.41	5670.78
545.774	5665.81
546.138	5727.28
546.503	5702.42
546.867	5740.16
547.231	5748.97
547.595	5797.11
547.959	5842.98
548.324	5831.46
548.688	5863.77
549.052	5831.46
549.416	5863.55
549.779	5936.31
550.143	5918.46
550.507	5929.31
550.871	5992.81
551.235	5964.56
551.599	6032.36
551.962	5971.79
552.326	6030.1
552.689	6095.18
553.053	6078.23
553.417	6103.77
553.78	6147.83
554.143	6152.13
554.507	6128.85
554.87	6204.1
555.234	6216.08
555.597	6189.19
555.96	6244.33
556.323	6216.76
556.686	6261.5
557.05	6263.31
557.413	6307.83
557.776	6316.64
558.139	6282.74
558.502	6326.13
558.865	6346.25
559.228	6391.89
559.59	6448.39
559.953	6437.77
560.316	6500.82
560.679	6445.23
561.041	6518.67
561.404	6460.14
561.767	6534.94
562.129	6524.09
562.492	6542.17
562.854	6566.13
563.217	6608.61
563.579	6627.59
563.941	6667.59
564.304	6682.73
564.666	6702.85
565.028	6721.38
565.39	6737.87
565.753	6739
566.115	6812.22
566.477	6867.14
566.839	6784.43
567.201	6826.91
567.563	6860.36
567.925	6905.55
568.287	6908.94
568.648	6894.03
569.01	6919.34
569.372	6969.96
569.734	7023.97
570.095	7022.39
570.457	7089.05
570.819	7131.76
571.18	7076.62
571.542	7201.36
571.903	7206.11
572.265	7219.89
572.626	7317.29
572.987	7328.37
573.349	7370.85
573.71	7463.05
574.071	7447.69
574.432	7518.64
574.794	7602.03
575.155	7622.82
575.516	7597.74
575.877	7775.36
576.238	7832.53
576.599	7880.89
576.96	7965.41
577.32	7965.64
577.681	8153.88
578.042	8211.51
578.403	8333.76
578.763	8469.81
579.124	8472.29
579.485	8573.31
579.845	8771.27
580.206	8825.28
580.566	8952.5
580.927	9099.39
581.287	9250.58
581.648	9418.03
582.008	9615.76
582.368	9743.67
582.728	9889.43
583.089	10038.13
583.449	10236.31
583.809	10380.26
584.169	10581.16
584.529	10776.64
584.889	11069.96
585.249	11276.06
585.609	11460.69
585.969	11737.06
586.329	11967.11
586.688	12245.3
587.048	12457.72
587.408	12650.26
587.768	12925.06
588.127	13259.51
588.487	13417.25
588.846	13822.66
589.206	14000.28
589.565	14345.58
589.925	14814.95
590.284	15012.23
590.643	15304.65
591.003	15723.85
591.362	16060.79
591.721	16382.59
592.08	16712.75
592.44	17012.86
592.799	17455.56
593.158	17739.17
593.517	18175.77
593.876	18512.71
594.235	18808.74
594.593	19130.54
594.952	19543.41
595.311	19861.6
595.67	20261.36
596.029	20853.89
596.387	21130.04
596.746	21504.27
597.104	21751.04
597.463	22114.42
597.822	22521.87
598.18	22875.98
598.538	23190.1
598.897	23736.52
599.255	23902.39
599.613	24641.81
599.972	24785.08
600.33	25133.32
600.688	25530.37
601.046	25988.21
601.404	26413.06
601.762	26680.63
602.12	27157.22
602.478	27469.53
602.836	27753.37
603.194	28032.23
603.552	28331.66
603.91	28621.14
604.268	29206.89
604.625	29412.76
604.983	29797.38
605.341	29949.24
605.698	30354.43
606.056	30843.68
606.413	31061.53
606.771	31490.67
607.128	31765.69
607.485	31904.44
607.843	32289.07
608.2	32897.19
608.557	33144.64
608.914	33207.91
609.272	33671.4
609.629	33958.17
609.986	34277.94
610.343	34527.43
610.7	35001.09
611.057	35103
611.414	35338.7
611.771	35565.82
612.127	35944.11
612.484	36087.84
612.841	36453.25
613.198	36651.66
613.554	36774.6
613.911	37191.99
614.267	37446.44
614.624	37553.11
614.98	37829.71
615.337	38154.67
615.693	38304.5
616.05	38446.42
616.406	38782.45
616.762	38863.36
617.118	38908.1
617.475	39243.01
617.831	39471.02
618.187	39691.36
618.543	39868.3
618.899	40115.98
619.255	40373.83
619.611	40337.89
619.967	40706.02
620.323	40911.89
620.678	40816.07
621.034	40886.13
621.39	41110.3
621.746	41212.45
622.101	41714.13
622.457	41313.69
622.812	41764.52
623.168	41896.05
623.523	42015.59
623.879	42103.27
624.234	42084.51
624.589	42165.19
624.945	42417.84
625.3	42435.69
625.655	42695.8
626.01	42669.36
626.365	42831.84
626.72	42880.43
627.075	42927.88
627.43	43030.03
627.785	42973.31
628.14	43191.6
628.495	43293.07
628.85	43343.01
629.205	43183.24
629.559	43678.6
629.914	43663.23
630.269	43599.05
630.623	43493.97
630.978	43545.49
631.332	43749.1
631.687	43799.05
632.041	43712.49
632.396	43836.79
632.75	43723.34
633.104	43891.02
633.459	43689.44
633.813	43868.2
634.167	43843.34
634.521	43899.38
634.875	43917.24
635.229	43880.85
635.583	43776
635.937	43784.13
636.291	43835.43
636.645	44084.91
636.999	43888.54
637.352	44091.69
637.706	43829.33
638.06	43900.06
638.413	43998.36
638.767	43804.92
639.121	44037.46
639.474	43795.2
639.828	43887.63
640.181	43884.69
640.534	43973.5
640.888	43840.4
641.241	43643.8
641.594	43768.76
641.947	43969.44
642.301	43867.74
642.654	43773.28
643.007	43892.38
643.36	43965.6
643.713	43844.69
644.066	43920.17
644.419	43749.78
644.771	43594.53
645.124	43149.8
645.477	43041.1
645.83	42868
646.182	42684.5
646.535	42638.62
646.888	42689.7
647.24	42568.8
647.593	42767.43
647.945	42800.88
648.298	42527.22
648.65	42508.23
649.002	42427.1
649.355	42516.59
649.707	42463.49
650.059	42701.22
650.411	43105.96
650.763	43130.59
651.115	43745.26
651.467	43494.2
651.819	43514.76
652.171	43445.61
652.523	43422.56
652.875	43447.87
653.227	43225.28
653.578	43592.95
653.93	43333.97
654.282	43257.14
654.633	43184.82
654.985	43253.3
655.337	43225.28
655.688	43262.79
656.039	43398.83
656.391	43003.13
656.742	43116.35
657.094	43171.27
657.445	43355.89
657.796	43392.73
658.147	43009.24
658.498	43101.89
658.849	43178.72
659.2	43090.59
659.551	42988.45
659.902	43227.08
660.253	43042.46
660.604	43084.71
660.955	42965.62
661.306	43027.77
661.656	43018.73
662.007	43132.85
662.358	42981.21
662.708	42952.06
663.059	43000.42
663.409	42693.54
663.76	42999.75
664.11	43001.33
664.461	43063.02
664.811	42916.36
665.161	42973.76
665.511	42804.72
665.862	42946.19
666.212	43067.99
666.562	42982.34
666.912	42912.97
667.262	42873.65
667.612	42764.27
667.962	42901.89
668.312	42882.23
668.662	42985.96
669.011	42955.68
669.361	42795.91
669.711	42748.9
670.06	42654.44
670.41	42808.34
670.76	42682.01
671.109	42843.14
671.459	42647.44
671.808	42678.4
672.157	42815.12
672.507	42571.06
672.856	42531.06
673.205	42755.01
673.554	42715.46
673.904	42572.41
674.253	42879.07
674.602	42633.88
674.951	42084.06
675.3	41951.41
675.649	42622.13
675.998	42536.93
676.346	42533.09
676.695	42638.62
677.044	42328.12
677.393	42290.39
677.741	42562.92
678.09	42472.98
678.438	42307.79
678.787	42433.66
679.135	42401.34
679.484	41985.08
679.832	42252.19
680.181	42003.16
680.529	42178.98
680.877	41882.03
681.225	41985.31
681.573	42239.31
681.922	41889.49
682.27	41727.24
682.618	41802.71
682.966	41667.12
683.314	41782.6
683.661	41633.91
684.009	41454.93
684.357	41391.43
684.705	41396.62
685.053	41458.99
685.4	41390.52
685.748	41230.07
686.095	41190.3
686.443	40876.86
686.79	40928.16
687.138	41073.92
687.485	41060.59
687.832	40776.07
688.18	40892.68
688.527	40752.12
688.874	40788.05
689.221	40606.36
689.568	40449.98
689.915	40360.72
690.262	40350.78
690.609	40274.84
690.956	40232.59
691.303	40139.48
691.65	39890.45
691.997	39979.94
692.344	39743.33
692.69	39777.23
693.037	39722.09
693.383	39488.65
693.73	39556.9
694.077	39338.6
694.423	39368.2
694.769	39244.14
695.116	39163.24
695.462	39089.57
695.808	39009.34
696.155	39136.12
696.501	38706.3
696.847	38755.11
697.193	38511.5
697.539	38702.68
697.885	38266.54
698.231	38296.82
698.577	38323.03
698.923	38128.23
699.269	37997.62
699.614	37883.5
699.96	37813.67
700.306	37838.98
700.651	37574.58
700.997	37575.48
701.342	37482.38
701.688	37409.16
702.033	37183.63
702.379	37370.97
702.724	37191.08
703.069	37256.85
703.415	36741.15
703.76	36840.81
704.105	36909.96
704.45	36752.9
704.795	36536.19
705.14	36434.04
705.485	36580.48
705.83	36296.19
706.175	36305.23
706.52	36306.59
706.865	36001.96
707.209	36105.24
707.554	35995.64
707.899	36015.52
708.243	35944.34
708.588	35894.85
708.932	35587.96
709.277	35661.63
709.621	35602.43
709.966	35284.47
710.31	35408.76
710.654	35173.96
710.998	35099.61
711.342	35210.12
711.687	35100.07
712.031	34927.64
712.375	34824.59
712.719	34845.38
713.063	34851.94
713.407	34913.18
713.75	34564.71
714.094	34684.03
714.438	34593.64
714.782	34518.84
715.125	34463.92
715.469	34367.2
715.812	34259.18
716.156	34042.69
716.499	34110.04
716.843	34186.19
717.186	33879.08
717.53	34081.79
717.873	34079.08
718.216	33936.03
718.559	33755.24
718.902	33583.72
719.246	33595.02
719.589	33560.22
719.932	33477.28
720.275	33418.75
720.617	33410.62
720.96	33434.35
721.303	33181.25
721.646	33374.01
721.989	33165.43
722.331	33235.26
722.674	33042.94
723.016	33176.73
723.359	33028.26
723.701	33066.45
724.044	32830.52
724.386	32670.75
724.729	32898.77
725.071	32749.39
725.413	32801.14
725.755	32711.2
726.097	32588.49
726.439	32427.82
726.782	32424.88
727.124	32475.5
727.465	32340.36
727.807	32289.97
728.149	32302.17
728.491	32261.04
728.833	32277.99
729.175	32127.26
729.516	32114.61
729.858	32106.7
730.199	32099.47
730.541	31956.87
730.882	31841.62
731.224	31980.37
731.565	31867.38
731.906	31751.23
732.248	31684.79
732.589	31589.65
732.93	31699.93
733.271	31497.67
733.612	31510.33
733.953	31565.92
734.294	31342.42
734.635	31270.79
734.976	31266.95
735.317	31185.14
735.658	31215.87
735.999	31253.84
736.339	31117.8
736.68	31202.99
737.021	31157.34
737.361	30974.3
737.702	31121.41
738.042	30976.11
738.383	30927.07
738.723	30934.3
739.063	30890.68
739.404	30797.13
739.744	30690.01
740.084	30695.66
740.424	30650.47
740.764	30717.13
741.104	30662.67
741.444	30490.47
741.784	30372.51
742.124	30478.94
742.464	30349.91
742.804	30380.42
743.143	30366.63
743.483	30319.4
743.823	30193.75
744.162	30211.15
744.502	30105.85
744.841	30025.4
745.181	30181.33
745.52	29922.12
745.86	29962.57
746.199	29964.16
746.538	29914.44
746.877	29880.77
747.216	29952.63
747.556	29892.52
747.895	29820.2
748.234	29641.9
748.573	29667.67
748.911	29706.99
749.25	29490.72
749.589	29524.62
749.928	29471.06
750.267	29435.58
750.605	29299.99
750.944	29257.06
751.283	29222.03
751.621	29291.18
751.96	28988.59
752.298	29151.75
752.636	29118.08
752.975	28918.99
753.313	28794.02
753.651	28839.44
753.989	28766
754.327	28714.92
754.666	28580.92
755.004	28561.03
755.342	28601.93
755.679	28490.52
756.017	28340.47
756.355	28458.43
756.693	28355.84
757.031	28351.77
757.368	28084.88
757.706	28187.03
758.044	28162.62
758.381	28213.47
758.719	27966.69
759.056	28042.62
759.394	27757.21
759.731	27746.13
760.068	27747.72
760.405	27657.78
760.743	27471.34
761.08	27643.54
761.417	27507.5
761.754	27461.62
762.091	27314.28
762.428	27281.51
762.765	27080.16
763.102	27073.38
763.438	26966.27
763.775	26891.47
764.112	26923.33
764.449	26985.7
764.785	26734.64
765.122	26409.67
765.458	26462.1
765.795	26507.75
766.131	26323.8
766.467	26333.74
766.804	26172.39
767.14	26126.06
767.476	26095.56
767.812	25930.36
768.148	25946.18
768.485	25871.38
768.821	25631.84
769.157	25673.42
769.492	25605.63
769.828	25539.41
770.164	25300.32
770.5	25400.21
770.836	25206.99
771.171	25035.7
771.507	24990.28
771.842	24886.32
772.178	24803.16
772.513	24733.33
772.849	24605.88
773.184	24571.76
773.519	24581.7
773.855	24426.22
774.19	24349.84
774.525	24214.48
774.86	24257.64
775.195	24197.75
775.53	24115.27
775.865	24000.47
776.2	23770.19
776.535	23647.71
776.87	23654.72
777.205	23578.11
777.539	23623.31
777.874	23507.6
778.209	23283.43
778.543	23194.84
778.878	23077.56
779.212	23114.39
779.547	23009.08
779.881	23011.34
780.215	22875.75
780.55	22867.39
780.884	22681.41
781.218	22695.87
781.552	22638.25
781.886	22561.64
782.22	22368.88
782.554	22353.28
782.888	22106.51
783.222	22010.01
783.556	21953.52
783.889	21924.82
784.223	21729.34
784.557	21741.55
784.89	21787.2
785.224	21696.12
785.557	21466.3
785.891	21491.16
786.224	21475.57
786.558	21394.89
786.891	21211.84
787.224	21098.63
787.557	21078.06
787.891	21033.09
788.224	21045.97
788.557	20906.77
788.89	20903.15
789.223	20794.68
789.556	20671.52
789.888	20622.71
790.221	20503.61
790.554	20387.91
790.887	20405.76
791.219	20432.65
791.552	20290.74
791.884	20268.14
792.217	20146.79
792.549	19979.11
792.882	19930.07
793.214	19810.3
793.546	19894.36
793.879	19778.66
794.211	19735.27
794.543	19634.03
794.875	19611.43
795.207	19622.96
795.539	19417.31
795.871	19477.2
796.203	19281.27
796.535	19212.35
796.867	19187.26
797.198	19095.51
797.53	19070.43
797.862	18946.37
798.193	19072.69
798.525	18882.87
798.856	18786.14
799.188	18728.97
799.519	18639.48
799.85	18523.78
800.182	18601.74
800.513	18547.73
800.844	18399.49
801.175	18429.09
801.506	18406.49
801.837	18212.15
802.168	18326.95
802.499	18216.44
802.83	18126.95
803.161	18029.1
803.491	17950.91
803.822	18045.6
804.153	17932.16
804.483	17770.58
804.814	17720.86
805.145	17731.71
805.475	17745.49
805.805	17664.37
806.136	17557.02
806.466	17584.59
806.796	17478.38
807.126	17424.15
807.457	17386.18
807.787	17330.36
808.117	17277.48
808.447	17167.66
808.777	17231.61
809.107	17190.48
809.436	17072.74
809.766	17109.58
810.096	16971.73
810.426	16983.71
810.755	17035.46
811.085	16867.1
811.414	16901.22
811.744	16760.44
812.073	16799.98
812.403	16738.97
812.732	16575.36
813.061	16621.23
813.39	16504.4
813.719	16434.12
814.049	16440.67
814.378	16533.55
814.707	16491.52
815.036	16299.2
815.365	16369.71
815.693	16207.91
816.022	16165.87
816.351	16080.45
816.68	15957.74
817.008	16035.93
817.337	15979.89
817.665	15923.39
817.994	15948.25
818.322	15925.43
818.651	15842.72
818.979	15708.49
819.307	15820.57
819.636	15751.65
819.964	15679.11
820.292	15700.35
820.62	15783.29
820.948	15727.47
821.276	15669.62
821.604	15586.91
821.932	15665.32
822.259	15643.18
822.587	15564.76
822.915	15668.26
823.243	15621.03
823.57	15588.94
823.898	15527.25
824.225	15505.55
824.553	15513.24
824.88	15631.88
825.207	15551.43
825.535	15474.82
825.862	15587.81
826.189	15515.04
826.516	15630.07
826.843	15582.84
827.17	15593.01
827.497	15532.44
827.824	15536.96
828.151	15573.12
828.478	15533.8
828.805	15648.37
829.131	15441.37
829.458	15555.27
829.785	15386.46
830.111	15444.09
830.438	15522.05
830.764	15516.85
831.09	15491.77
831.417	15526.8
831.743	15497.87
832.069	15457.19
832.395	15364.99
832.722	15412.22
833.048	15426.01
833.374	15425.1
833.7	15319.79
834.026	15329.06
834.351	15380.36
834.677	15331.32
835.003	15366.8
835.329	15349.85
835.654	15261.72
835.98	15235.73
836.306	15227.59
836.631	15108.28
836.956	15215.84
837.282	15185.34
837.607	15101.5
837.932	15083.87
838.258	15120.93
838.583	15040.48
838.908	14924.55
839.233	15000.26
839.558	14908.28
839.883	14964.1
840.208	14793.93
840.533	14880.26
840.858	14813.14
841.182	14840.71
841.507	14881.61
841.832	14757.55
842.156	14786.02
842.481	14714.16
842.805	14713.48
843.13	14723.88
843.454	14611.56
843.778	14572.24
844.103	14493.83
844.427	14498.57
844.751	14451.8
845.075	14425.58
845.399	14386.03
845.723	14312.14
846.047	14334.51
846.371	14275.98
846.695	14217
847.019	14186.27
847.343	14092.26
847.666	14041.41
847.99	13971.36
848.313	13949.44
848.637	13877.35
848.96	13849.78
849.284	13771.59
849.607	13711.7
849.931	13720.29
850.254	13572.04
850.577	13495.44
850.9	13393.52
851.223	13353.07
851.546	13382.9
851.869	13224.03
852.192	13292.96
852.515	13187.65
852.838	13082.34
853.161	13190.13
853.483	12983.13
853.806	12873.76
854.129	12976.58
854.451	12901.78
854.774	12863.81
855.096	12820.88
855.419	12726.19
855.741	12736.13
856.063	12789.92
856.385	12673.08
856.708	12666.76
857.03	12595.8
857.352	12565.97
857.674	12537.04
857.996	12459.08
858.318	12448.91
858.64	12449.59
858.961	12398.52
859.283	12336.6
859.605	12282.36
859.926	12232.42
860.248	12238.75
860.57	12218.41
860.891	12179.09
861.212	12143.38
861.534	12133.21
861.855	12106.55
862.176	12099.54
862.498	12106.32
862.819	12005.53
863.14	11985.65
863.461	11935.93
863.782	11890.28
864.103	11938.19
864.424	11801.47
864.745	11908.59
865.065	11845.99
865.386	11785.65
865.707	11770.96
866.027	11781.58
866.348	11761.02
866.668	11771.19
866.989	11652.55
867.309	11591.08
867.63	11597.86
867.95	11693.9
868.27	11540.69
868.59	11562.15
868.91	11670.17
869.23	11531.19
869.55	11467.69
869.87	11520.57
870.19	11488.71
870.51	11552.89
870.83	11447.58
871.15	11428.15
871.469	11381.37
871.789	11426.11
872.109	11421.82
872.428	11308.37
872.748	11337.98
873.067	11391.76
873.386	11333.91
873.706	11365.1
874.025	11271.09
874.344	11236.51
874.663	11289.62
874.982	11145.44
875.301	11190.64
875.62	11121.26
875.939	11136.85
876.258	11181.37
876.577	11041.72
876.896	11101.37
877.214	11108.15
877.533	11080.81
877.852	11055.95
878.17	11040.36
878.489	11035.61
878.807	10998.55
879.125	10943.19
879.444	10944.32
879.762	10893.92
880.08	11003.52
880.398	10845.79
880.716	10888.95
881.034	10857.77
881.352	10873.81
881.67	10727.15
881.988	10791.78
882.306	10801.95
882.624	10707.49
882.941	10690.99
883.259	10667.71
883.577	10660.26
883.894	10613.93
884.212	10591.11
884.529	10587.26
884.846	10543.88
885.164	10501.16
885.481	10581.16
885.798	10537.32
886.115	10373.71
886.432	10436.08
886.75	10469.75
887.067	10425.46
887.383	10394.5
887.7	10380.94
888.017	10256.88
888.334	10301.85
888.651	10244.45
888.967	10289.19
889.284	10149.08
889.6	10199.48
889.917	10099.37
890.233	10099.37
890.55	10139.37
890.866	10035.41
891.182	10056.2
891.498	10003.78
891.815	10080.84
892.131	9954.29
892.447	9941.41
892.763	9902.08
893.079	9826.38
893.395	9918.58
893.71	9824.8
894.026	9819.83
894.342	9771.24
894.657	9612.83
894.973	9690.79
895.289	9698.47
895.604	9651.92
895.92	9600.17
896.235	9547.07
896.55	9477.24
896.865	9481.53
897.181	9443.57
897.496	9419.16
897.811	9418.93
898.126	9326.73
898.441	9320.18
898.756	9341.65
899.071	9214.19
899.386	9307.07
899.7	9221.88
900.015	9097.36
900.33	9107.08
900.644	9100.52
900.959	9077.7
901.273	9043.12
901.588	8978.94
901.902	8925.84
902.216	8862.34
902.531	8916.8
902.845	8844.48
903.159	8856.91
903.473	8781.66
903.787	8726.07
904.101	8703.25
904.415	8694.88
904.729	8651.04
905.042	8628.9
905.356	8628.67
905.67	8530.14
905.984	8583.93
906.297	8466.42
906.611	8470.48
906.924	8458.96
907.237	8438.62
907.551	8375.8
907.864	8359.53
908.177	8268.68
908.491	8292.41
908.804	8246.76
909.117	8212.41
909.43	8148.01
909.743	8178.51
910.056	8132.87
910.368	8076.82
910.681	8055.58
910.994	8018.07
911.307	7931.29
911.619	7882.48
911.932	7936.94
912.244	7897.62
912.557	7908.01
912.869	7848.35
913.181	7820.11
913.494	7804.29
913.806	7783.72
914.118	7729.94
914.43	7623.27
914.742	7626.66
915.054	7618.08
915.366	7566.33
915.678	7455.59
915.99	7461.47
916.302	7486.78
916.613	7446.78
916.925	7415.6
917.236	7446.56
917.548	7358.2
917.859	7326.56
918.171	7299.89
918.482	7217.64
918.794	7249.95
919.105	7255.37
919.416	7182.61
919.727	7159.78
920.038	7062.38
920.349	7098.54
920.66	7026.91
920.971	7044.76
921.282	6981.94
921.593	6946.23
921.903	6875.72
922.214	6936.51
922.525	6877.53
922.835	6849.06
923.146	6823.97
923.456	6774.93
923.767	6739.68
924.077	6706.01
924.387	6670.76
924.697	6724.09
925.008	6653.81
925.318	6615.17
925.628	6606.8
925.938	6510.54
926.248	6485.68
926.558	6504.21
926.867	6493.13
927.177	6439.8
927.487	6363.42
927.796	6379.69
928.106	6371.56
928.416	6338.79
928.725	6305.12
929.034	6310.31
929.344	6288.85
929.653	6275.29
929.962	6176.31
930.271	6151.9
930.581	6102.64
930.89	6192.13
931.199	6100.15
931.508	6089.3
931.817	6082.52
932.125	6050.66
932.434	6021.51
932.743	5898.35
933.051	5905.81
933.36	5896.09
933.669	5870.1
933.977	5861.51
934.286	5800.05
934.594	5843.66
934.902	5775.41
935.21	5660.84
935.519	5693.16
935.827	5731.8
936.135	5724.12
936.443	5640.73
936.751	5634.63
937.059	5628.07
937.367	5567.06
937.674	5572.48
937.982	5529.32
938.29	5505.82
938.597	5480.51
938.905	5474.63
939.213	5361.41
939.52	5377.91
939.827	5407.29
940.135	5344.01
940.442	5345.82
940.749	5319.38
941.056	5281.64
941.363	5345.37
941.67	5254.07
941.977	5242.09
942.284	5165.71
942.591	5262.66
942.898	5160.29
943.205	5160.29
943.511	5107.86
943.818	5126.16
944.125	5116
944.431	5030.35
944.738	5039.39
945.044	5021.76
945.35	4998.71
945.657	4925.72
945.963	4961.65
946.269	4926.62
946.575	4921.2
946.881	4905.61
947.187	4859.28
947.493	4863.57
947.799	4812.73
948.105	4815.89
948.41	4763.69
948.716	4784.48
949.022	4729.34
949.327	4697.48
949.633	4688.44
949.938	4721.43
950.244	4666.97
950.549	4618.16
950.854	4630.13
951.16	4579.74
951.465	4532.96
951.77	4558.95
952.075	4555.11
952.38	4497.48
952.685	4491.38
952.99	4487.99
953.294	4433.53
953.599	4470.14
953.904	4374.32
954.209	4416.13
954.513	4415.67
954.818	4360.31
955.122	4294.77
955.426	4292.74
955.731	4329.8
956.035	4309.01
956.339	4280.54
956.643	4269.69
956.948	4223.14
957.252	4226.3
957.556	4217.04
957.86	4156.47
958.163	4188.34
958.467	4135.46
958.771	4145.85
959.075	4104.72
959.378	4130.48
959.682	4054.55
959.985	4036.48
960.289	4029.02
960.592	4013.88
960.896	3948.79
961.199	3986.76
961.502	3979.75
961.805	3924.39
962.108	3921.45
962.411	3923.03
962.714	3897.72
963.017	3888.01
963.32	3846.42
963.623	3871.28
963.926	3826.54
964.228	3830.83
964.531	3804.62
964.833	3786.31
965.136	3805.07
965.438	3762.58
965.741	3729.82
966.043	3729.37
966.345	3653.44
966.648	3679.65
966.95	3634.23
967.252	3625.87
967.554	3616.83
967.856	3653.66
968.158	3592.19
968.46	3585.19
968.761	3527.56
969.063	3544.29
969.365	3524.62
969.666	3522.37
969.968	3478.3
970.269	3505.87
970.571	3485.76
970.872	3444.4
971.174	3425.42
971.475	3401.24
971.776	3391.3
972.077	3381.35
972.378	3355.59
972.679	3362.14
972.98	3368.92
973.281	3347.91
973.582	3328.25
973.883	3310.85
974.183	3298.64
974.484	3286.89
974.785	3288.92
975.085	3268.81
975.386	3262.94
975.686	3206.89
975.986	3223.16
976.287	3222.03
976.587	3126.44
976.887	3141.58
977.187	3153.56
977.487	3150.4
977.787	3100.68
978.087	3137.29
978.387	3068.37
978.687	3079.66
978.987	3058.65
979.286	3028.59
979.586	3073.34
979.885	3031.53
980.185	3012.1
980.484	2991.53
980.784	2972.32
981.083	2970.74
981.382	2936.84
981.682	2936.62
981.981	2918.09
982.28	2921.02
982.579	2921.7
982.878	2914.25
983.177	2879.67
983.475	2888.94
983.774	2827.47
984.073	2833.57
984.372	2811.2
984.67	2806
984.969	2798.09
985.267	2810.29
985.566	2782.95
985.864	2763.06
986.162	2768.94
986.461	2724.65
986.759	2770.97
987.057	2717.41
987.355	2728.26
987.653	2722.61
987.951	2680.35
988.249	2650.98
988.547	2657.08
988.844	2629.73
989.142	2650.52
989.44	2624.08
989.737	2609.62
990.035	2576.63
990.332	2548.83
990.63	2560.58
990.927	2550.19
991.224	2534.59
991.521	2536.85
991.819	2519.91
992.116	2499.57
992.413	2511.54
992.71	2466.35
993.006	2469.29
993.303	2456.4
993.6	2471.09
993.897	2462.51
994.193	2430.42
994.49	2406.91
994.787	2432.68
995.083	2380.25
995.379	2397.87
995.676	2420.47
995.972	2339.12
996.268	2338.44
996.565	2353.81
996.861	2317.2
997.157	2323.53
997.453	2341.15
997.749	2321.27
998.044	2295.05
998.34	2246.47
998.636	2237.65
998.932	2257.31
999.227	2246.69
999.523	2247.37
999.818	2226.13
1000.114	2175.73
1000.409	2203.08
1000.704	2192
1001	2194.04
1001.295	2155.17
1001.59	2145.68
1001.885	2119.01
1002.18	2115.85
1002.475	2069.3
1002.77	2084.89
1003.065	2090.31
1003.359	2052.35
1003.654	2058.9
1003.949	2053.03
1004.243	2038.11
1004.538	2048.96
1004.832	2016.64
1005.127	1987.04
1005.421	2001.28
1005.715	1973.25
1006.009	1971.45
1006.304	1954.95
1006.598	1973.48
1006.892	1959.02
1007.186	1945.68
1007.48	1919.47
1007.773	1879.47
1008.067	1898.68
1008.361	1862.3
1008.655	1874.95
1008.948	1865.91
1009.242	1856.19
1009.535	1846.25
1009.829	1875.18
1010.122	1826.82
1010.415	1803.77
1010.708	1782.52
1011.001	1790.43
1011.295	1763.99
1011.588	1784.56
1011.881	1789.76
1012.173	1750.66
1012.466	1759.47
1012.759	1740.94
1013.052	1710.21
1013.344	1683.54
1013.637	1692.13
1013.93	1704.79
1014.222	1710.89
1014.514	1664.33
1014.807	1653.71
1015.099	1655.75
1015.391	1668.18
1015.683	1623.88
1015.976	1641.51
1016.268	1646.03
1016.56	1611
1016.851	1611
1017.143	1579.37
1017.435	1561.96
1017.727	1557.67
1018.018	1565.58
1018.31	1549.31
1018.602	1504.56
1018.893	1519.03
1019.185	1527.84
1019.476	1506.37
1019.767	1505.24
1020.058	1491.68
1020.35	1470.44
1020.641	1419.6
1020.932	1421.4
1021.223	1460.05
1021.514	1440.61
1021.804	1420.5
1022.095	1429.76
1022.386	1416.88
1022.677	1404.91
1022.967	1406.94
1023.258	1395.19
1023.548	1390.22
1023.839	1348.18
1024.129	1336.21
1024.419	1322.87
1024.709	1339.82
1025	1329.2
1025.29	1309.99
1025.58	1312.93
1025.87	1291.01
1026.16	1272.25
1026.449	1291.01
1026.739	1274.51
1027.029	1257.79
1027.319	1246.49
1027.608	1238.58
1027.898	1243.78
1028.187	1274.29
1028.477	1239.94
1028.766	1205.82
1029.055	1227.51
1029.344	1195.87
1029.634	1206.04
1029.923	1175.53
1030.212	1150.45
1030.501	1183.67
1030.79	1174.86
1031.078	1165.14
1031.367	1158.81
1031.656	1132.15
1031.945	1149.32
1032.233	1124.91
1032.522	1145.25
1032.81	1135.31
1033.099	1131.24
1033.387	1094.86
1033.675	1087.4
1033.963	1065.25
1034.251	1083.11
1034.54	1074.29
1034.828	1086.72
1035.116	1040.62
1035.403	1040.85
1035.691	1034.07
1035.979	1042.2
1036.267	1046.95
1036.554	1025.03
1036.842	1030.91
1037.129	1016.89
1037.417	995.65
1037.704	996.33
1037.992	989.78
1038.279	986.84
1038.566	994.52
1038.853	994.52
1039.14	994.52
