Data from hue_250_FLMS001491_00090.txt Node
Date: Tue Feb 07 16:01:36 GMT 2017
User: dcchb
Spectrometer: FLMS00149
Trigger mode: 0
Integration Time (sec): 2.000000E-2
Scans to average: 10
Electric dark correction enabled: true
Nonlinearity correction enabled: false
Boxcar width: 0
XAxis mode: Wavelengths
Number of Pixels in Spectrum: 2048
>>>>>Begin Spectral Data<<<<<
341.393	1.84
341.776	1.84
342.16	1.84
342.543	-63.92
342.927	-86.98
343.31	-64.83
343.693	-45.17
344.077	-57.82
344.46	-46.98
344.843	-69.35
345.226	-36.58
345.61	-35
345.993	-17.15
346.376	0.03
346.759	-9.91
347.142	31.67
347.525	46.81
347.908	64.21
348.291	75.73
348.674	63.76
349.057	100.59
349.44	113.92
349.823	123.19
350.206	160.25
350.588	202.73
350.971	201.38
351.354	209.97
351.737	234.15
352.119	264.65
352.502	252.45
352.884	266.01
353.267	261.94
353.65	262.17
354.032	274.6
354.414	293.58
354.797	287.93
355.179	330.19
355.562	310.98
355.944	319.79
356.326	309.17
356.709	318.44
357.091	320.25
357.473	312.11
357.855	328.83
358.238	334.71
358.62	339.45
359.002	328.83
359.384	320.02
359.766	337.19
360.148	330.19
360.53	339
360.912	310.98
361.294	325.22
361.676	339
362.057	322.05
362.439	323.64
362.821	294.71
363.203	335.84
363.584	307.82
363.966	309.85
364.348	332.45
364.729	302.62
365.111	299.46
365.493	297.42
365.874	332.9
366.256	304.2
366.637	304.2
367.019	297.2
367.4	297.42
367.781	297.2
368.163	318.66
368.544	320.92
368.925	307.36
369.306	295.61
369.688	313.69
370.069	307.82
370.45	307.59
370.831	317.53
371.212	296.07
371.593	303.52
371.974	311.88
372.355	300.81
372.736	304.43
373.117	341.94
373.498	315.95
373.879	317.99
374.26	282.51
374.641	319.79
375.021	307.82
375.402	302.39
375.783	299.23
376.163	360.02
376.544	328.83
376.925	306.01
377.305	314.82
377.686	324.99
378.066	308.27
378.447	308.72
378.827	329.74
379.208	327.03
379.588	323.18
379.968	335.39
380.349	339.68
380.729	324.31
381.109	334.93
381.489	331.54
381.87	335.61
382.25	339
382.63	347.82
383.01	340.58
383.39	352.79
383.77	323.18
384.15	325.22
384.53	342.39
384.91	357.31
385.29	337.19
385.67	347.59
386.049	340.13
386.429	342.62
386.809	355.05
387.189	338.32
387.568	347.82
387.948	346.23
388.328	342.39
388.707	349.4
389.087	354.14
389.466	359.34
389.846	360.24
390.225	376.06
390.605	371.09
390.984	356.63
391.363	357.53
391.743	366.8
392.122	372.67
392.501	374.71
392.881	366.12
393.26	379
393.639	343.75
394.018	389.4
394.397	376.52
394.776	390.98
395.155	361.83
395.534	404.09
395.913	392.11
396.292	376.29
396.671	388.72
397.05	373.58
397.429	419.68
397.808	388.94
398.186	385.1
398.565	416.97
398.944	400.02
399.323	391.43
399.701	402.28
400.08	398.89
400.458	393.92
400.837	404.54
401.215	420.13
401.594	416.29
401.972	416.97
402.351	411.09
402.729	418.77
403.107	416.51
403.486	424.42
403.864	433.46
404.242	417.42
404.62	433.01
404.999	423.97
405.377	430.3
405.755	453.35
406.133	454.93
406.511	447.7
406.889	460.13
407.267	462.61
407.645	462.39
408.023	483.41
408.401	490.64
408.779	466.23
409.156	484.08
409.534	495.38
409.912	510.07
410.29	482.5
410.667	482.28
411.045	493.8
411.422	508.04
411.8	525.44
412.178	533.12
412.555	544.19
412.933	534.25
413.31	543.29
413.687	566.12
414.065	567.24
414.442	575.15
414.819	568.37
415.197	580.35
415.574	577.64
415.951	581.48
416.328	623.06
416.705	601.59
417.082	573.35
417.46	615.38
417.837	641.14
418.214	628.26
418.591	616.28
418.967	633.68
419.344	658.09
419.721	629.39
420.098	640.24
420.475	677.52
420.852	646.79
421.228	676.39
421.605	689.05
421.982	693.12
422.358	701.93
422.735	697.19
423.111	723.17
423.488	719.11
423.864	747.35
424.241	753.45
424.617	790.29
424.994	748.48
425.37	797.75
425.746	778.31
426.123	783.96
426.499	785.77
426.875	806.33
427.251	803.4
427.627	841.59
428.003	818.54
428.379	861.7
428.756	870.97
429.132	839.55
429.507	888.59
429.883	887.01
430.259	893.79
430.635	906.45
431.011	917.52
431.387	947.12
431.763	952.32
432.138	953.22
432.514	974.92
432.89	1009.49
433.265	1018.98
433.641	1015.59
434.016	1067.34
434.392	1034.8
434.767	1065.99
435.143	1054.92
435.518	1098.76
435.894	1108.93
436.269	1079.77
436.644	1142.6
437.02	1134.91
437.395	1155.03
437.77	1191.64
438.145	1184.4
438.52	1207.68
438.895	1206.1
439.271	1232.31
439.646	1238.87
440.021	1262.59
440.395	1258.75
440.77	1267.11
441.145	1297.4
441.52	1320.45
441.895	1326.1
442.27	1341.46
442.645	1336.94
443.019	1347.56
443.394	1369.71
443.769	1381.46
444.143	1375.36
444.518	1423.72
444.892	1396.6
445.267	1443.83
445.641	1459.2
446.016	1450.16
446.39	1471.4
446.764	1435.24
447.139	1468.01
447.513	1508.24
447.887	1494.23
448.262	1516.37
448.636	1497.62
449.01	1537.39
449.384	1551.17
449.758	1529.71
450.132	1548.69
450.506	1573.55
450.88	1598.86
451.254	1611.06
451.628	1607.44
452.002	1656.26
452.376	1630.49
452.75	1638.63
453.123	1662.58
453.497	1672.07
453.871	1683.83
454.244	1701
454.618	1750.49
454.992	1750.94
455.365	1742.13
455.739	1827.55
456.112	1809.47
456.486	1803.82
456.859	1856.48
457.232	1837.95
457.606	1877.94
457.979	1870.26
458.352	1922.69
458.725	1947.77
459.099	1968.34
459.472	1993.2
459.845	1982.8
460.218	2012.18
460.591	2041.56
460.964	2050.6
461.337	2091.27
461.71	2095.79
462.083	2146.41
462.456	2117.03
462.829	2165.62
463.201	2165.62
463.574	2181.67
463.947	2241.55
464.32	2245.17
464.692	2240.65
465.065	2288.78
465.438	2287.43
465.81	2352.51
466.183	2381.21
466.555	2420.53
466.928	2430.92
467.3	2405.39
467.672	2466.86
468.045	2497.36
468.417	2548.66
468.789	2533.75
469.161	2526.52
469.534	2583.01
469.906	2637.7
470.278	2691.93
470.65	2701.43
471.022	2765.83
471.394	2779.84
471.766	2823
472.138	2863.23
472.51	2906.17
472.882	2914.98
473.253	2953.4
473.625	3003.57
473.997	3064.13
474.369	3055.09
474.74	3068.2
475.112	3131.92
475.484	3159.95
475.855	3248.98
476.227	3262.77
476.598	3311.13
476.97	3383.89
477.341	3420.28
477.713	3466.15
478.084	3458.92
478.455	3566.94
478.827	3558.8
479.198	3654.85
479.569	3668.41
479.94	3749.08
480.311	3799.48
480.682	3889.42
481.053	3952.69
481.424	3953.6
481.795	4030.43
482.166	4079.47
482.537	4072.69
482.908	4180.26
483.279	4179.81
483.65	4288.28
484.021	4328.5
484.391	4376.64
484.762	4400.59
485.133	4443.08
485.503	4563.3
485.874	4597.42
486.244	4634.93
486.615	4759.45
486.985	4764.65
487.356	4788.83
487.726	4868.37
488.097	4925.55
488.467	4920.12
488.837	5065.66
489.207	5074.92
489.578	5185.88
489.948	5158.31
490.318	5235.82
490.688	5256.61
491.058	5345.2
491.428	5413.22
491.798	5430.85
492.168	5493.67
492.538	5524.18
492.908	5569.83
493.278	5643.5
493.648	5627
494.017	5781.8
494.387	5766.88
494.757	5776.6
495.126	5865.64
495.496	5820.67
495.866	5879.65
496.235	5960.1
496.605	5963.49
496.974	6038.51
497.344	6056.59
497.713	6098.85
498.082	6106.08
498.452	6174.78
498.821	6209.36
499.19	6158.74
499.559	6224.27
499.928	6240.99
500.298	6301.11
500.667	6278.51
501.036	6342.23
501.405	6377.94
501.774	6383.36
502.143	6440.54
502.512	6463.59
502.88	6492.96
503.249	6526.64
503.618	6518.73
503.987	6574.32
504.356	6574.77
504.724	6605.05
505.093	6622
505.462	6663.58
505.83	6680.3
506.199	6748.1
506.567	6776.57
506.936	6818.61
507.304	6831.71
507.672	6861.54
508.041	6869.9
508.409	6939.51
508.777	6869.45
509.145	6876.68
509.514	6939.51
509.882	6968.43
510.25	6975.89
510.618	7050.46
510.986	7014.31
511.354	7065.38
511.722	7122.1
512.09	7174.08
512.458	7119.62
512.826	7161.87
513.193	7212.27
513.561	7169.78
513.929	7254.3
514.297	7226.5
514.664	7232.83
515.032	7271.7
515.4	7341.3
515.767	7341.3
516.135	7318.93
516.502	7322.55
516.869	7387.63
517.237	7410.91
517.604	7325.49
517.972	7472.83
518.339	7498.36
518.706	7396.67
519.073	7478.93
519.44	7449.32
519.808	7594.18
520.175	7534.97
520.542	7587.17
520.909	7574.52
521.276	7535.88
521.643	7588.53
522.009	7578.36
522.376	7686.83
522.743	7669.66
523.11	7711.69
523.477	7737.68
523.843	7770.67
524.21	7846.38
524.577	7891.12
524.943	7872.14
525.31	7876.21
525.676	7948.52
526.043	7942.19
526.409	7986.94
526.776	7925.92
527.142	7928.18
527.508	7949.42
527.874	8036.88
528.241	8032.81
528.607	8002.98
528.973	8049.31
529.339	8042.75
529.705	8093.37
530.071	8113.49
530.437	8057.22
530.803	8123.43
531.169	8129.98
531.535	8104.45
531.901	8071.91
532.267	8220.83
532.632	8181.28
532.998	8219.7
533.364	8246.14
533.73	8211.79
534.095	8205.91
534.461	8173.37
534.826	8259.7
535.192	8271
535.557	8287.72
535.923	8238.23
536.288	8178.57
536.653	8311
537.019	8207.95
537.384	8249.3
537.749	8193.71
538.114	8219.02
538.479	8146.71
538.845	8276.19
539.21	8160.04
539.575	8215.63
539.94	8173.37
540.305	8181.06
540.67	8168.85
541.034	8209.98
541.399	8249.3
541.764	8195.29
542.129	8239.13
542.494	8234.84
542.858	8243.88
543.223	8192.81
543.587	8215.86
543.952	8202.98
544.316	8140.15
544.681	8090.89
545.045	8201.39
545.41	8132.47
545.774	8202.07
546.138	8199.36
546.503	8186.48
546.867	8156.88
547.231	8257.21
547.595	8214.73
547.959	8196.65
548.324	8180.38
548.688	8192.13
549.052	8157.1
549.416	8120.94
549.779	8144.67
550.143	8124.79
550.507	8128.63
550.871	8137.44
551.235	8100.83
551.599	8191.9
551.962	8139.7
552.326	8155.52
552.689	8119.81
553.053	8113.49
553.417	8101.51
553.78	8222.64
554.143	8095.41
554.507	8191.23
554.87	8172.92
555.234	8194.16
555.597	8216.99
555.96	8175.18
556.323	8214.95
556.686	8130.89
557.05	8235.97
557.413	8182.19
557.776	8194.62
558.139	8250.43
558.502	8247.04
558.865	8255.18
559.228	8287.27
559.59	8226.7
559.953	8253.82
560.316	8336.53
560.679	8327.72
561.041	8365.46
561.404	8400.03
561.767	8431.22
562.129	8402.97
562.492	8496.3
562.854	8373.59
563.217	8440.26
563.579	8501.5
563.941	8471.22
564.304	8546.24
564.666	8607.49
565.028	8571.33
565.39	8594.38
565.753	8555.28
566.115	8595.06
566.477	8637.32
566.839	8679.57
567.201	8692
567.563	8684.55
567.925	8689.07
568.287	8682.74
568.648	8725
569.01	8760.93
569.372	8808.16
569.734	8780.81
570.095	8763.19
570.457	8813.81
570.819	8861.04
571.18	8860.13
571.542	8924.31
571.903	8972
572.265	8948.27
572.626	8951.88
572.987	8973.13
573.349	8970.41
573.71	9052.22
574.071	8985.33
574.432	9051.09
574.794	9114.82
575.155	9114.59
575.516	9138.09
575.877	9060.13
576.238	9184.19
576.599	9259.22
576.96	9203.85
577.32	9192.33
577.681	9305.32
578.042	9222.84
578.403	9294.93
578.763	9294.47
579.124	9266.45
579.485	9346.45
579.845	9339.67
580.206	9343.51
580.566	9382.38
580.927	9378.99
581.287	9403.62
581.648	9406.33
582.008	9448.82
582.368	9435.49
582.728	9512.32
583.089	9461.93
583.449	9505.54
583.809	9482.26
584.169	9544.18
584.529	9581.7
584.889	9591.19
585.249	9520.68
585.609	9517.07
585.969	9581.25
586.329	9579.89
586.688	9593.9
587.048	9668.7
587.408	9617.85
587.768	9629.61
588.127	9611.75
588.487	9637.51
588.846	9724.07
589.206	9624.63
589.565	9633.22
589.925	9712.09
590.284	9707.57
590.643	9722.48
591.003	9796.83
591.362	9795.02
591.721	9753.67
592.08	9735.82
592.44	9816.95
592.799	9747.57
593.158	9766.55
593.517	9828.47
593.876	9803.16
594.235	9788.7
594.593	9789.15
594.952	9840
595.311	9776.95
595.67	9834.35
596.029	9885.42
596.387	9868.47
596.746	9886.32
597.104	9858.53
597.463	9886.1
597.822	9890.62
598.18	9854.46
598.538	9852.2
598.897	9866.66
599.255	9816.04
599.613	9938.75
599.972	9860.11
600.33	9912.76
600.688	9918.64
601.046	9985.3
601.404	10010.84
601.762	9967.22
602.12	10028.69
602.478	9994.79
602.836	9973.78
603.194	9986.21
603.552	9971.74
603.91	9956.15
604.268	10011.74
604.625	9901.24
604.983	10010.84
605.341	9913.44
605.698	10025.3
606.056	9973.55
606.413	10006.09
606.771	10000.67
607.128	10058.52
607.485	10048.35
607.843	10029.82
608.2	10119.08
608.557	10072.31
608.914	10019.65
609.272	10134.9
609.629	10166.77
609.986	10156.15
610.343	10075.02
610.7	10185.3
611.057	10170.61
611.414	10112.3
611.771	10182.81
612.127	10229.59
612.484	10252.41
612.841	10240.66
613.198	10194.79
613.554	10208.8
613.911	10261.23
614.267	10348.23
614.624	10247.67
614.98	10300.32
615.337	10295.58
615.693	10310.04
616.05	10321.11
616.406	10338.29
616.762	10334.45
617.118	10325.18
617.475	10298.97
617.831	10291.74
618.187	10315.92
618.543	10275.92
618.899	10358.17
619.255	10334.45
619.611	10340.32
619.967	10350.72
620.323	10399.3
620.678	10297.61
621.034	10362.24
621.39	10343.03
621.746	10390.49
622.101	10468.68
622.457	10439.08
622.812	10386.87
623.168	10346.2
623.523	10439.98
623.879	10396.14
624.234	10372.41
624.589	10403.37
624.945	10351.85
625.3	10444.95
625.655	10421.68
626.01	10392.75
626.365	10338.74
626.72	10411.05
627.075	10383.94
627.43	10412.64
627.785	10332.19
628.14	10315.46
628.495	10323.6
628.85	10413.54
629.205	10354.33
629.559	10299.64
629.914	10366.99
630.269	10293.32
630.623	10347.78
630.978	10256.48
631.332	10295.35
631.687	10375.57
632.041	10271.85
632.396	10320.66
632.75	10192.3
633.104	10273.88
633.459	10175.35
633.813	10088.58
634.167	10166.54
634.521	10176.26
634.875	10212.42
635.229	10175.35
635.583	10077.28
635.937	10181.68
636.291	10113.66
636.645	10138.52
636.999	10035.47
637.352	10087.9
637.706	10028.69
638.06	10082.02
638.413	10073.66
638.767	10023.04
639.121	10026.21
639.474	9965.19
639.828	9946.43
640.181	9990.27
640.534	9963.83
640.888	9928.13
641.241	10001.8
641.594	9931.29
641.947	9965.64
642.301	9924.74
642.654	9952.31
643.007	9936.26
643.36	9898.07
643.713	9859.66
644.066	9883.38
644.419	9859.43
644.771	9849.49
645.124	9764.29
645.477	9696.04
645.83	9685.2
646.182	9661.47
646.535	9656.95
646.888	9613.56
647.24	9479.1
647.593	9543.96
647.945	9591.87
648.298	9489.04
648.65	9568.36
649.002	9494.69
649.355	9509.83
649.707	9516.16
650.059	9557.52
650.411	9691.3
650.763	9682.03
651.115	9723.61
651.467	9745.31
651.819	9727.23
652.171	9690.85
652.523	9708.02
652.875	9656.05
653.227	9686.33
653.578	9734.69
653.93	9678.19
654.282	9673.22
654.633	9649.72
654.985	9711.19
655.337	9701.92
655.688	9765.2
656.039	9753.9
656.391	9716.38
656.742	9667.12
657.094	9634.58
657.445	9713.45
657.796	9663.95
658.147	9616.72
658.498	9664.41
658.849	9636.16
659.2	9746.89
659.551	9678.87
659.902	9740.56
660.253	9595.93
660.604	9644.29
660.955	9569.49
661.306	9664.41
661.656	9725.87
662.007	9642.26
662.358	9654.01
662.708	9632.77
663.059	9631.64
663.409	9589.61
663.76	9654.69
664.11	9585.76
664.461	9645.88
664.811	9640.9
665.161	9703.5
665.511	9657.18
665.862	9642.94
666.212	9674.58
666.562	9649.27
666.912	9713.22
667.262	9650.85
667.612	9574.01
667.962	9682.94
668.312	9594.13
668.662	9652.43
669.011	9680.45
669.361	9591.87
669.711	9625.54
670.06	9628.25
670.41	9593.9
670.76	9581.02
671.109	9623.96
671.459	9637.51
671.808	9718.87
672.157	9616.72
672.507	9483.85
672.856	9568.36
673.205	9545.99
673.554	9580.12
673.904	9568.59
674.253	9567.01
674.602	9517.74
674.951	9429.16
675.3	9379.44
675.649	9536.5
675.998	9491.08
676.346	9454.02
676.695	9511.42
677.044	9467.8
677.393	9480.23
677.741	9487.46
678.09	9351.42
678.438	9415.15
678.787	9496.5
679.135	9421.48
679.484	9348.93
679.832	9418.09
680.181	9308.26
680.529	9393.68
680.877	9335.15
681.225	9318.2
681.573	9387.13
681.922	9298.54
682.27	9281.59
682.618	9210.86
682.966	9267.13
683.314	9222.16
683.661	9249.05
684.009	9222.84
684.357	9186
684.705	9115.04
685.053	9150.97
685.4	9165.44
685.748	9109.17
686.095	9080.02
686.443	9112.11
686.79	9051.09
687.138	9086.57
687.485	9068.04
687.832	9034.59
688.18	8949.4
688.527	8969.06
688.874	9041.15
689.221	8978.55
689.568	8916.4
689.915	8871.21
690.262	8907.82
690.609	8863.3
690.956	8813.13
691.303	8746.69
691.65	8741.95
691.997	8689.07
692.344	8613.36
692.69	8622.17
693.037	8608.84
693.383	8586.02
693.73	8620.37
694.077	8530.88
694.423	8468.73
694.769	8481.39
695.116	8472.8
695.462	8472.35
695.808	8406.81
696.155	8453.59
696.501	8339.47
696.847	8311
697.193	8329.53
697.539	8326.14
697.885	8300.15
698.231	8218.34
698.577	8209.3
698.923	8175.86
699.269	8175.41
699.614	8118.91
699.96	8167.05
700.306	8104.22
700.651	8079.59
700.997	8041.17
701.342	8025.58
701.688	8069.19
702.033	7978.35
702.379	7950.78
702.724	8001.4
703.069	7959.59
703.415	7847.51
703.76	7869.88
704.105	7877.79
704.45	7810.44
704.795	7788.98
705.14	7753.72
705.485	7700.16
705.83	7659.94
706.175	7678.24
706.52	7717.34
706.865	7674.85
707.209	7657.68
707.554	7619.49
707.899	7617.23
708.243	7561.41
708.588	7518.7
708.932	7563.22
709.277	7531.13
709.621	7492.26
709.966	7422.43
710.31	7468.31
710.654	7375.43
710.998	7411.58
711.342	7414.52
711.687	7348.08
712.031	7377.01
712.375	7286.62
712.719	7335.2
713.063	7325.49
713.407	7298.59
713.75	7279.38
714.094	7242.78
714.438	7218.82
714.782	7247.52
715.125	7177.01
715.469	7260.63
715.812	7192.16
716.156	7143.34
716.499	7147.18
716.843	7174.53
717.186	7123.68
717.53	7143.12
717.873	7125.72
718.216	7092.5
718.559	7062.44
718.902	7037.13
719.246	7073.06
719.589	7072.16
719.932	6988.32
720.275	6997.58
720.617	6975.66
720.96	6994.42
721.303	6965.95
721.646	7029.45
721.989	6968.66
722.331	6964.59
722.674	7001.65
723.016	6958.26
723.359	6973.63
723.701	6953.29
724.044	6907.42
724.386	6906.51
724.729	6937.02
725.071	6847.76
725.413	6956.68
725.755	6832.39
726.097	6895.89
726.439	6787.65
726.782	6814.76
727.124	6858.83
727.465	6805.27
727.807	6816.12
728.149	6815.44
728.491	6790.58
728.833	6859.06
729.175	6822.45
729.516	6802.11
729.858	6907.87
730.199	6825.39
730.541	6840.98
730.882	6784.48
731.224	6831.04
731.565	6775.22
731.906	6843.92
732.248	6847.76
732.589	6795.33
732.93	6753.3
733.271	6781.54
733.612	6777.93
733.953	6857.7
734.294	6764.14
734.635	6738.83
734.976	6760.53
735.317	6743.35
735.658	6707.65
735.999	6724.6
736.339	6762.79
736.68	6740.42
737.021	6736.35
737.361	6705.39
737.702	6770.25
738.042	6773.64
738.383	6732.51
738.723	6766.63
739.063	6747.65
739.404	6739.51
739.744	6742.9
740.084	6757.59
740.424	6776.57
740.764	6741.77
741.104	6796.91
741.444	6719.85
741.784	6781.54
742.124	6812.73
742.464	6785.39
742.804	6785.84
743.143	6784.48
743.483	6782.45
743.823	6825.16
744.162	6763.47
744.502	6890.69
744.841	6797.14
745.181	6844.14
745.52	6855.67
745.86	6984.25
746.199	6950.81
746.538	6932.95
746.877	7030.58
747.216	6987.19
747.556	7014.08
747.895	7091.82
748.234	7108.32
748.573	7100.41
748.911	7132.72
749.25	7217.01
749.589	7167.3
749.928	7279.38
750.267	7335.2
750.605	7369.1
750.944	7362.77
751.283	7403.68
751.621	7439.15
751.96	7451.36
752.298	7573.61
752.636	7667.4
752.975	7708.07
753.313	7717.34
753.651	7782.87
753.989	7839.37
754.327	7916.43
754.666	7988.29
755.004	8037.56
755.342	8195.29
755.679	8262.41
756.017	8235.74
756.355	8423.08
756.693	8474.61
757.031	8583.76
757.368	8643.64
757.706	8725.9
758.044	8787.37
758.381	8972.22
758.719	9053.12
759.056	9173.57
759.394	9212.89
759.731	9230.97
760.068	9338.99
760.405	9513.9
760.743	9537.86
761.08	9698.08
761.417	9771.75
761.754	9947.56
762.091	9998.64
762.428	10037.05
762.765	10111.4
763.102	10291.96
763.438	10357.95
763.775	10455.35
764.112	10602.46
764.449	10679.07
764.785	10765.85
765.122	10783.47
765.458	10932.4
765.795	11034.77
766.131	11134.2
766.467	11195.89
766.804	11281.31
767.14	11351.37
767.476	11500.29
767.812	11516.56
768.148	11584.36
768.485	11602.21
768.821	11713.39
769.157	11735.99
769.492	11830.23
769.828	11918.81
770.164	11924.91
770.5	11979.37
770.836	12074.29
771.171	12123.1
771.507	12233.38
771.842	12205.58
772.178	12217.11
772.513	12306.37
772.849	12375.97
773.184	12407.39
773.519	12503.65
773.855	12461.62
774.19	12496.2
774.525	12495.74
774.86	12638.11
775.195	12584.78
775.53	12613.71
775.865	12556.31
776.2	12577.55
776.535	12596.53
776.87	12620.94
777.205	12644.89
777.539	12668.62
777.874	12747.72
778.209	12610.32
778.543	12694.61
778.878	12630.2
779.212	12705.46
779.547	12719.69
779.881	12786.81
780.215	12662.75
780.55	12740.48
780.884	12776.87
781.218	12775.06
781.552	12776.87
781.886	12745.23
782.22	12691.9
782.554	12637.44
782.888	12622.07
783.222	12607.15
783.556	12568.29
783.889	12568.74
784.223	12528.51
784.557	12572.81
784.89	12537.78
785.224	12534.16
785.557	12537.78
785.891	12486.25
786.224	12532.58
786.558	12478.57
786.891	12361.51
787.224	12444.22
787.557	12373.26
787.891	12426.37
788.224	12374.39
788.557	12340.27
788.89	12375.97
789.223	12344.56
789.556	12336.43
789.888	12303.21
790.221	12333.04
790.554	12202.42
790.887	12194.06
791.219	12178.24
791.552	12178.24
791.884	12134.4
792.217	12153.61
792.549	12114.29
792.882	12089.88
793.214	11987.06
793.546	12004.46
793.879	11967.62
794.211	11887.17
794.543	11976.89
794.875	11899.38
795.207	11905.93
795.539	11886.95
795.871	11968.53
796.203	11794.29
796.535	11785.48
796.867	11720.62
797.198	11693.28
797.53	11697.12
797.862	11717.01
798.193	11658.7
798.525	11591.81
798.856	11630.68
799.188	11485.38
799.519	11460.74
799.85	11470.69
800.182	11461.2
800.513	11476.56
800.844	11377.36
801.175	11481.53
801.506	11390.46
801.837	11339.39
802.168	11320.41
802.499	11324.25
802.83	11307.3
803.161	11206.97
803.491	11226.85
803.822	11257.81
804.153	11136.23
804.483	11055.78
804.814	11027.76
805.145	11093.52
805.475	11007.42
805.805	10992.28
806.136	11075.44
806.466	10977.59
806.796	11095.33
807.126	10875.67
807.457	10907.54
807.787	10888.78
808.117	10846.97
808.447	10852.17
808.777	10891.27
809.107	10810.14
809.436	10701.44
809.766	10799.52
810.096	10740.54
810.426	10763.59
810.755	10706.87
811.085	10677.94
811.414	10598.85
811.744	10598.39
812.073	10606.76
812.403	10573.54
812.732	10523.59
813.061	10590.71
813.39	10449.47
813.719	10415.12
814.049	10519.98
814.378	10454.89
814.707	10435.91
815.036	10397.04
815.365	10285.63
815.693	10321.34
816.022	10301.9
816.351	10185.75
816.68	10244.05
817.008	10296.25
817.337	10175.58
817.665	10169.48
817.994	10190.04
818.322	10206.54
818.651	10128.8
818.979	10188.69
819.307	10217.84
819.636	10153.43
819.964	10070.05
820.292	10107.11
820.62	10047.45
820.948	10068.01
821.276	10045.64
821.604	10067.11
821.932	10117.73
822.259	10042.25
822.587	9954.79
822.915	10014.91
823.243	10081.8
823.57	9982.14
823.898	10030.95
824.225	9993.21
824.553	10023.95
824.88	10047.22
825.207	10061.68
825.535	10098.97
825.862	10071.18
826.189	9959.54
826.516	10034.11
826.843	10092.64
827.17	10053.78
827.497	10044.51
827.824	10011.29
828.151	10074.11
828.478	10004.74
828.805	10114.34
829.131	10142.59
829.458	10045.64
829.785	10032.08
830.111	10023.95
830.438	10068.24
830.764	10069.59
831.09	10049.71
831.417	9990.27
831.743	10042.02
832.069	9936.94
832.395	9929.48
832.722	9938.3
833.048	9956.83
833.374	10002.93
833.7	9912.31
834.026	9984.17
834.351	9999.99
834.677	9925.64
835.003	10002.93
835.329	9951.86
835.654	9894.46
835.98	9915.7
836.306	9902.82
836.631	9885.19
836.956	9975.36
837.282	9865.31
837.607	9842.48
837.932	9831.63
838.258	9843.39
838.583	9782.6
838.908	9800.9
839.233	9800.22
839.558	9759.55
839.883	9732.43
840.208	9682.03
840.533	9749.6
840.858	9696.72
841.182	9686.33
841.507	9720.22
841.832	9652.43
842.156	9642.94
842.481	9623.96
842.805	9625.99
843.13	9522.49
843.454	9565.2
843.778	9511.42
844.103	9515.26
844.427	9526.56
844.751	9488.82
845.075	9445.2
845.399	9409.27
845.723	9427.35
846.047	9368.82
846.371	9362.27
846.695	9301.93
847.019	9178.77
847.343	9205.89
847.666	9100.81
847.99	9166.79
848.313	9096.51
848.637	9032.11
848.96	9067.81
849.284	8980.13
849.607	8928.61
849.931	8975.39
850.254	8893.58
850.577	8836.86
850.9	8798.21
851.223	8788.05
851.546	8731.78
851.869	8708.95
852.192	8754.15
852.515	8719.57
852.838	8593.7
853.161	8594.6
853.483	8585.11
853.806	8556.87
854.129	8594.83
854.451	8510.99
854.774	8506.02
855.096	8470.09
855.419	8422.86
855.741	8406.59
856.063	8385.34
856.385	8374.27
856.708	8301.28
857.03	8254.05
857.352	8320.04
857.674	8222.18
857.996	8222.64
858.318	8136.99
858.64	8210.66
858.961	8195.74
859.283	8107.84
859.605	8122.75
859.926	8087.05
860.248	8094.73
860.57	7996.43
860.891	8052.92
861.212	7958.92
861.534	7957.33
861.855	7951.23
862.176	7984
862.498	8011.12
862.819	7984.9
863.14	7941.29
863.461	7939.03
863.782	7863.78
864.103	7924.57
864.424	7862.42
864.745	7870.56
865.065	7813.83
865.386	7825.81
865.707	7854.51
866.027	7765.93
866.348	7775.87
866.668	7802.08
866.989	7795.3
867.309	7731.35
867.63	7733.84
867.95	7711.69
868.27	7667.4
868.59	7698.13
868.91	7699.71
869.23	7677.79
869.55	7674.85
869.87	7615.42
870.19	7600.05
870.51	7639.83
870.83	7606.61
871.15	7547.85
871.469	7590.56
871.789	7597.57
872.109	7524.8
872.428	7540.62
872.748	7541.75
873.067	7587.63
873.386	7569.77
873.706	7508.98
874.025	7437.57
874.344	7473.05
874.663	7462.43
874.982	7469.66
875.301	7489.32
875.62	7472.37
875.939	7426.05
876.258	7451.13
876.577	7376.78
876.896	7410.23
877.214	7355.32
877.533	7384.47
877.852	7322.55
878.17	7337.91
878.489	7374.75
878.807	7306.05
879.125	7317.8
879.444	7352.83
879.762	7292.72
880.08	7304.69
880.398	7201.87
880.716	7262.89
881.034	7217.47
881.352	7254.98
881.67	7194.87
881.988	7243.68
882.306	7110.35
882.624	7137.47
882.941	7106.06
883.259	7134.98
883.577	7081.2
883.894	7096.34
884.212	7084.14
884.529	7111.71
884.846	7008.21
885.164	7037.36
885.481	7003.91
885.798	6994.42
886.115	6969.11
886.432	6945.61
886.75	6927.98
887.067	6919.62
887.383	6879.4
887.7	6896.12
888.017	6855.89
888.334	6951.48
888.651	6897.7
888.967	6868.55
889.284	6802.56
889.6	6779.51
889.917	6758.49
890.233	6684.82
890.55	6710.13
890.866	6754.43
891.182	6725.5
891.498	6689.34
891.815	6737.48
892.131	6626.97
892.447	6604.83
892.763	6621.1
893.079	6596.92
893.395	6564.83
893.71	6554.43
894.026	6513.53
894.342	6559.18
894.657	6464.27
894.973	6481.21
895.289	6479.63
895.604	6445.28
895.92	6418.39
896.235	6436.7
896.55	6363.93
896.865	6383.36
897.181	6346.3
897.496	6318.28
897.811	6269.24
898.126	6307.21
898.441	6248.45
898.756	6256.36
899.071	6217.27
899.386	6132.75
899.7	6134.33
900.015	6120.32
900.33	6095.91
900.644	6092.3
900.959	6058.85
901.273	6043.94
901.588	6010.94
901.902	5944.05
902.216	5941.57
902.531	5929.36
902.845	5904.51
903.159	5900.89
903.473	5885.98
903.787	5877.16
904.101	5782.02
904.415	5840.78
904.729	5818.41
905.042	5732.53
905.356	5746.54
905.67	5741.57
905.984	5775.24
906.297	5702.48
906.611	5711.06
906.924	5648.92
907.237	5673.78
907.551	5680.33
907.864	5585.42
908.177	5604.4
908.491	5575.47
908.804	5563.72
909.117	5468.13
909.43	5477.62
909.743	5451.86
910.056	5473.78
910.368	5393.78
910.681	5412.99
910.994	5408.7
911.307	5382.49
911.619	5324.18
911.932	5346.55
912.244	5302.71
912.557	5324.18
912.869	5233.56
913.181	5211.87
913.494	5253
913.806	5182.49
914.118	5202.38
914.43	5094.58
914.742	5149.05
915.054	5080.8
915.366	5099.56
915.678	5049.84
915.99	5084.41
916.302	5017.52
916.613	5007.58
916.925	5028.37
917.236	4967.36
917.548	4902.95
917.859	4937.3
918.171	4945.43
918.482	4921.71
918.794	4815.95
919.105	4883.29
919.416	4866.34
919.727	4854.14
920.038	4799.45
920.349	4775.27
920.66	4759.68
920.971	4770.98
921.282	4746.8
921.593	4722.16
921.903	4680.13
922.214	4645.33
922.525	4650.98
922.835	4629.06
923.146	4579.57
923.456	4595.39
923.767	4603.75
924.077	4598.78
924.387	4560.59
924.697	4575.05
925.008	4509.51
925.318	4492.79
925.628	4493.7
925.938	4456.18
926.248	4421.38
926.558	4419.12
926.867	4415.96
927.177	4424.09
927.487	4378.22
927.796	4336.19
928.106	4326.24
928.416	4289.63
928.725	4314.94
929.034	4272.23
929.344	4285.79
929.653	4275.17
929.962	4241.95
930.271	4205.12
930.581	4206.02
930.89	4194.49
931.199	4147.72
931.508	4123.54
931.817	4153.82
932.125	4109.3
932.434	4106.59
932.743	4085.34
933.051	4108.39
933.36	4070.43
933.669	4036.98
933.977	4024.78
934.286	3988.4
934.594	3987.95
934.902	3988.4
935.21	3928.51
935.519	3955.18
935.827	3959.47
936.135	3950.88
936.443	3871.11
936.751	3858.46
937.059	3844.67
937.367	3870.66
937.674	3848.51
937.982	3815.97
938.29	3819.81
938.597	3833.6
938.905	3792.47
939.213	3768.29
939.52	3730.33
939.827	3764.9
940.135	3707.5
940.442	3707.95
940.749	3704.34
941.056	3670.21
941.363	3637.67
941.67	3645.36
941.977	3605.13
942.284	3573.95
942.591	3620.72
942.898	3605.58
943.205	3601.74
943.511	3577.11
943.818	3551.12
944.125	3544.34
944.431	3490.11
944.738	3513.38
945.044	3463.21
945.35	3468.86
945.657	3465.25
945.963	3477.9
946.269	3453.27
946.575	3389.32
946.881	3404.01
947.187	3399.49
947.493	3344.12
947.799	3339.83
948.105	3320.39
948.41	3295.53
948.716	3354.06
949.022	3312.03
949.327	3311.81
949.633	3285.37
949.938	3234.52
950.244	3237.23
950.549	3207.85
950.854	3223.9
951.16	3216.44
951.465	3164.92
951.77	3170.79
952.075	3111.36
952.38	3152.71
952.685	3169.44
952.99	3107.52
953.294	3109.1
953.599	3077.24
953.904	3070.68
954.209	3050.34
954.513	3025.03
954.818	3043.11
955.122	3061.42
955.426	3000.4
955.731	3024.81
956.035	2996.11
956.339	2979.38
956.643	2959.72
956.948	3011.47
957.252	2948.43
957.556	2945.26
957.86	2898.48
958.163	2917.92
958.467	2877.92
958.771	2879.73
959.075	2884.47
959.378	2836.11
959.682	2836.34
959.985	2826.85
960.289	2817.58
960.592	2803.8
960.896	2817.13
961.199	2786.62
961.502	2778.71
961.805	2784.81
962.108	2770.35
962.411	2766.74
962.714	2746.4
963.017	2699.39
963.32	2765.61
963.623	2698.71
963.926	2693.97
964.228	2651.26
964.531	2698.71
964.833	2673.63
965.136	2624.59
965.438	2603.58
965.741	2634.99
966.043	2632.95
966.345	2604.71
966.648	2604.48
966.95	2571.71
967.252	2563.58
967.554	2534.88
967.856	2542.11
968.158	2513.63
968.46	2519.06
968.761	2538.27
969.063	2488.78
969.365	2501.21
969.666	2478.61
969.968	2500.53
970.269	2454.43
970.571	2462.34
970.872	2452.85
971.174	2436.12
971.475	2431.15
971.776	2384.15
972.077	2420.08
972.378	2391.6
972.679	2373.53
972.98	2379.85
973.281	2339.63
973.582	2372.62
973.883	2328.1
974.183	2309.12
974.484	2347.31
974.785	2322.45
975.085	2326.75
975.386	2306.63
975.686	2288.33
975.986	2262.79
976.287	2276.13
976.587	2271.15
976.887	2252.4
977.187	2261.66
977.487	2252.85
977.787	2182.34
978.087	2240.42
978.387	2204.26
978.687	2167.43
978.987	2201.78
979.286	2158.84
979.586	2177.15
979.885	2119.75
980.185	2146.86
980.484	2112.74
980.784	2117.71
981.083	2093.98
981.382	2100.99
981.682	2115.23
981.981	2089.46
982.28	2068.45
982.579	2115.9
982.878	2085.17
983.177	2071.84
983.475	2040.65
983.774	2038.39
984.073	2013.31
984.372	2018.05
984.67	2008.56
984.969	2029.13
985.267	2007.66
985.566	2000.65
985.864	1990.71
986.162	1988.45
986.461	1975.34
986.759	1972.63
987.057	1910.71
987.355	1936.47
987.653	1904.61
987.951	1904.61
988.249	1929.24
988.547	1907.77
988.844	1916.36
989.142	1874.1
989.44	1858.28
989.737	1861.45
990.035	1892.63
990.332	1849.7
990.63	1862.35
990.927	1836.36
991.224	1835.46
991.521	1824.61
991.819	1816.48
992.116	1836.59
992.413	1811.05
992.71	1821.68
993.006	1773.09
993.303	1780.32
993.6	1805.63
993.897	1756.37
994.193	1768.8
994.49	1768.8
994.787	1741.9
995.083	1769.47
995.379	1703.03
995.676	1709.36
995.972	1715.92
996.268	1720.43
996.565	1679.08
996.861	1691.74
997.157	1691.28
997.453	1631.4
997.749	1657.61
998.044	1649.48
998.34	1670.04
998.636	1633.66
998.932	1642.47
999.227	1624.62
999.523	1621
999.818	1605.41
1000.114	1621
1000.409	1587.78
1000.704	1594.34
1001	1587.11
1001.295	1591.85
1001.59	1568.12
1001.885	1564.05
1002.18	1534
1002.475	1528.35
1002.77	1543.72
1003.065	1510.5
1003.359	1514.79
1003.654	1492.19
1003.949	1511.63
1004.243	1501.68
1004.538	1522.93
1004.832	1465.07
1005.127	1479.31
1005.421	1458.75
1005.715	1442.93
1006.009	1448.58
1006.304	1452.65
1006.598	1408.8
1006.892	1432.08
1007.186	1419.88
1007.48	1414.68
1007.773	1383.04
1008.067	1402.48
1008.361	1386.66
1008.655	1383.49
1008.948	1372.65
1009.242	1349.6
1009.535	1347.79
1009.829	1348.69
1010.122	1333.33
1010.415	1322.71
1010.708	1339.65
1011.001	1327.45
1011.295	1343.27
1011.588	1298.3
1011.881	1287.23
1012.173	1280.45
1012.466	1296.27
1012.759	1285.64
1013.052	1290.16
1013.344	1254.01
1013.637	1274.35
1013.93	1242.93
1014.222	1246.32
1014.514	1238.64
1014.807	1229.83
1015.099	1237.96
1015.391	1222.14
1015.683	1223.95
1015.976	1210.39
1016.268	1213.56
1016.56	1175.14
1016.851	1198.41
1017.143	1166.55
1017.435	1170.62
1017.727	1130.62
1018.018	1141.47
1018.31	1164.29
1018.602	1165.65
1018.893	1140.56
1019.185	1098.98
1019.476	1157.74
1019.767	1152.31
1020.058	1115.03
1020.35	1099.89
1020.641	1101.02
1020.932	1096.5
1021.223	1090.62
1021.514	1070.96
1021.804	1069.15
1022.095	1079.32
1022.386	1066.67
1022.677	1033.22
1022.967	1039.55
1023.258	1052.88
1023.548	1052.66
1023.839	994.35
1024.129	1011.53
1024.419	998.19
1024.709	991.64
1025	1018.98
1025.29	982.6
1025.58	1015.37
1025.87	992.77
1026.16	979.44
1026.449	985.54
1026.739	966.78
1027.029	976.95
1027.319	964.07
1027.608	964.3
1027.898	956.16
1028.187	946.67
1028.477	935.14
1028.766	944.41
1029.055	945.31
1029.344	908.93
1029.634	937.18
1029.923	933.34
1030.212	914.35
1030.501	908.7
1030.79	909.61
1031.078	869.16
1031.367	854.92
1031.656	867.12
1031.945	881.14
1032.233	863.28
1032.522	876.84
1032.81	880.46
1033.099	854.02
1033.387	844.98
1033.675	835.94
1033.963	852.66
1034.251	839.78
1034.54	835.03
1034.828	856.73
1035.116	818.99
1035.403	806.79
1035.691	834.81
1035.979	817.63
1036.267	813.34
1036.554	796.84
1036.842	810.4
1037.129	780.35
1037.417	766.56
1037.704	780.12
1037.992	790.52
1038.279	774.92
1038.566	761.36
1038.853	761.36
1039.14	761.36
