Data from hue_30_FLMS001491_45.txt Node
Date: Mon Feb 06 15:05:22 GMT 2017
User: dcchb
Spectrometer: FLMS00149
Trigger mode: 0
Integration Time (sec): 2.000000E-2
Scans to average: 10
Electric dark correction enabled: true
Nonlinearity correction enabled: false
Boxcar width: 0
XAxis mode: Wavelengths
Number of Pixels in Spectrum: 2048
>>>>>Begin Spectral Data<<<<<
341.393	-1.84
341.776	-1.84
342.16	-1.84
342.543	-58.78
342.927	-75.05
343.31	-56.98
343.693	-60.82
344.077	-45.68
344.46	-61.95
344.843	-34.38
345.226	-32.57
345.61	-46.58
345.993	-23.08
346.376	-14.94
346.759	18.05
347.142	-1.16
347.525	39.52
347.908	60.99
348.291	66.18
348.674	88.56
349.057	104.83
349.44	132.85
349.823	134.21
350.206	155.45
350.588	194.32
350.971	218.27
351.354	206.29
351.737	229.12
352.119	240.19
352.502	239.06
352.884	264.37
353.267	271.83
353.65	272.51
354.032	310.92
354.414	311.38
354.797	324.03
355.179	307.76
355.562	328.78
355.944	340.53
356.326	345.27
356.709	319.96
357.091	331.94
357.473	333.97
357.855	336.46
358.238	329.45
358.62	324.48
359.002	330.36
359.384	354.76
359.766	356.8
360.148	339.4
360.53	357.7
360.912	347.76
361.294	331.26
361.676	309.12
362.057	325.84
362.439	303.69
362.821	336.01
363.203	333.52
363.584	326.74
363.966	316.57
364.348	318.38
364.729	311.38
365.111	296.69
365.493	303.24
365.874	324.03
366.256	330.13
366.637	326.06
367.019	311.38
367.4	315.67
367.781	326.74
368.163	332.84
368.544	300.08
368.925	301.21
369.306	308.21
369.688	304.6
370.069	298.49
370.45	318.83
370.831	302.34
371.212	304.37
371.593	310.02
371.974	307.31
372.355	317.7
372.736	305.73
373.117	301.43
373.498	314.99
373.879	307.08
374.26	303.69
374.641	295.11
375.021	306.18
375.402	331.26
375.783	325.84
376.163	336.91
376.544	329.68
376.925	334.65
377.305	308.89
377.686	297.59
378.066	317.25
378.447	333.97
378.827	335.56
379.208	314.99
379.588	330.36
379.968	331.04
380.349	333.07
380.729	321.09
381.109	336.46
381.489	314.99
381.87	354.76
382.25	350.25
382.63	331.26
383.01	344.82
383.39	326.74
383.77	321.77
384.15	323.13
384.53	333.07
384.91	341.43
385.29	325.16
385.67	350.25
386.049	348.89
386.429	348.21
386.809	358.15
387.189	361.09
387.568	357.48
387.948	347.53
388.328	360.64
388.707	363.8
389.087	360.41
389.466	360.19
389.846	343.92
390.225	367.19
390.605	344.6
390.984	364.71
391.363	353.41
391.743	357.93
392.122	356.57
392.501	352.96
392.881	351.6
393.26	357.7
393.639	374.43
394.018	374.65
394.397	362.22
394.776	336.23
395.155	358.61
395.534	362
395.913	371.71
396.292	376.69
396.671	358.38
397.05	374.65
397.429	367.65
397.808	383.69
398.186	374.65
398.565	369.68
398.944	373.07
399.323	374.2
399.701	354.54
400.08	387.53
400.458	382.79
400.837	387.76
401.215	388.66
401.594	419.62
401.972	397.02
402.351	401.77
402.729	419.4
403.107	406.51
403.486	377.59
403.864	399.28
404.242	416.91
404.62	427.98
404.999	418.94
405.377	392.96
405.755	432.95
406.133	399.06
406.511	409.9
406.889	418.72
407.267	398.38
407.645	417.14
408.023	414.65
408.401	436.12
408.779	433.86
409.156	424.14
409.534	445.38
409.912	442.67
410.29	433.63
410.667	421.2
411.045	427.31
411.422	444.71
411.8	450.81
412.178	455.33
412.555	446.97
412.933	437.7
413.31	479.28
413.687	462.78
414.065	454.65
414.442	447.87
414.819	469.79
415.197	459.85
415.574	489.68
415.951	470.02
416.328	477.7
416.705	472.5
417.082	475.44
417.46	474.99
417.837	492.84
418.214	495.1
418.591	479.51
418.967	487.87
419.344	509.34
419.721	510.47
420.098	498.72
420.475	505.27
420.852	489.45
421.228	507.98
421.605	534.19
421.982	507.53
422.358	514.53
422.735	505.95
423.111	525.38
423.488	520.41
423.864	530.35
424.241	517.25
424.617	532.61
424.994	512.05
425.37	541.88
425.746	536
426.123	540.97
426.499	531.26
426.875	562.67
427.251	561.76
427.627	572.39
428.003	529
428.379	595.21
428.756	560.41
429.132	562.44
429.507	573.74
429.883	571.71
430.259	584.36
430.635	574.19
431.011	600.86
431.387	617.58
431.763	606.51
432.138	633.18
432.514	630.46
432.89	630.46
433.265	641.99
433.641	635.66
434.016	629.33
434.392	647.64
434.767	661.42
435.143	668.88
435.518	685.15
435.894	668.88
436.269	653.29
436.644	658.94
437.02	679.05
437.395	671.14
437.77	685.83
438.145	676.11
438.52	705.72
438.895	695.55
439.271	686.73
439.646	718.37
440.021	722.44
440.395	706.17
440.77	714.76
441.145	724.92
441.52	730.12
441.895	721.99
442.27	717.92
442.645	762.21
443.019	748.88
443.394	743.23
443.769	747.07
444.143	758.6
444.518	751.36
444.892	777.35
445.267	735.09
445.641	756.34
446.016	777.13
446.39	771.7
446.764	779.39
447.139	763.57
447.513	758.6
447.887	799.95
448.262	788.88
448.636	794.08
449.01	836.56
449.384	811.48
449.758	800.4
450.132	826.62
450.506	827.29
450.88	841.98
451.254	848.09
451.628	870.46
452.002	848.99
452.376	829.55
452.75	866.84
453.123	880.85
453.497	873.62
453.871	884.47
454.244	903.22
454.618	910.23
454.992	892.6
455.365	876.33
455.739	914.3
456.112	930.79
456.486	934.64
456.859	920.4
457.232	953.62
457.606	942.32
457.979	954.07
458.352	976.22
458.725	969.44
459.099	998.36
459.472	991.36
459.845	1014.86
460.218	1026.61
460.591	1033.62
460.964	1039.94
461.337	1053.73
461.71	1067.29
462.083	1089.21
462.456	1062.77
462.829	1092.37
463.201	1117.68
463.574	1121.52
463.947	1141.64
464.32	1140.05
464.692	1166.95
465.065	1174.86
465.438	1160.85
465.81	1192.71
466.183	1224.12
466.555	1208.08
466.928	1244.68
467.3	1256.44
467.672	1278.81
468.045	1275.19
468.417	1292.37
468.789	1299.15
469.161	1344.34
469.534	1346.38
469.906	1371.01
470.278	1378.92
470.65	1374.85
471.022	1420.27
471.394	1430.89
471.766	1444
472.138	1475.64
472.51	1498.46
472.882	1546.37
473.253	1522.87
473.625	1575.98
473.997	1606.71
474.369	1604
474.74	1646.71
475.112	1701.62
475.484	1715.86
475.855	1728.97
476.227	1791.79
476.598	1810.77
476.97	1833.14
477.341	1851.67
477.713	1923.76
478.084	1919.02
478.455	1958.11
478.827	2032.01
479.198	2085.79
479.569	2059.58
479.94	2145.45
480.311	2203.08
480.682	2213.92
481.053	2278.56
481.424	2335.5
481.795	2346.8
482.166	2392.45
482.537	2474.71
482.908	2542.5
483.279	2592.9
483.65	2565.55
484.021	2638.55
484.391	2699.34
484.762	2740.24
485.133	2738.2
485.503	2876.96
485.874	2900.23
486.244	2980.68
486.615	3036.5
486.985	3054.58
487.356	3127.57
487.726	3194.69
488.097	3236.5
488.467	3258.42
488.837	3369.6
489.207	3460.9
489.578	3508.58
489.948	3532.08
490.318	3595.81
490.688	3607.56
491.058	3693.43
491.428	3762.81
491.798	3815.01
492.168	3929.13
492.538	3951.73
492.908	4004.16
493.278	4047.55
493.648	4083.93
494.017	4153.53
494.387	4197.6
494.757	4248.45
495.126	4339.07
495.496	4318.95
495.866	4355.56
496.235	4446.18
496.605	4485.96
496.974	4566.63
497.344	4626.06
497.713	4655.44
498.082	4650.92
498.452	4741.77
498.821	4814.31
499.19	4767.76
499.559	4848.88
499.928	4868.54
500.298	4937.02
500.667	4986.06
501.036	5009.33
501.405	5072.83
501.774	5079.39
502.143	5193.73
502.512	5151.47
502.88	5217.01
503.249	5268.76
503.618	5220.4
503.987	5320.96
504.356	5319.15
504.724	5418.36
505.093	5408.19
505.462	5452.48
505.83	5426.27
506.199	5570.22
506.567	5597.56
506.936	5612.25
507.304	5678.24
507.672	5735.87
508.041	5758.46
508.409	5751.91
508.777	5797.56
509.145	5819.71
509.514	5857.22
509.882	5896.09
510.25	5858.35
510.618	5950.55
510.986	5973.83
511.354	6012.92
511.722	6072.81
512.09	6115.52
512.458	6047.5
512.826	6150.77
513.193	6116.42
513.561	6238.9
513.929	6259.92
514.297	6273.48
514.664	6307.6
515.032	6282.07
515.4	6377.66
515.767	6386.24
516.135	6424.44
516.502	6350.54
516.869	6540.14
517.237	6510.76
517.604	6539.46
517.972	6642.51
518.339	6591.66
518.706	6641.83
519.073	6639.8
519.44	6700.36
519.808	6716.41
520.175	6742.62
520.542	6817.65
520.909	6816.29
521.276	6882.5
521.643	6920.24
522.009	6944.65
522.376	6967.7
522.743	6973.8
523.11	7042.5
523.477	7071.65
523.843	7124.3
524.21	7165.43
524.577	7240.91
524.943	7238.43
525.31	7287.01
525.676	7350.74
526.043	7408.36
526.409	7444.75
526.776	7487.91
527.142	7481.81
527.508	7510.51
527.874	7564.52
528.241	7617.17
528.607	7642.93
528.973	7683.84
529.339	7717.51
529.705	7734.01
530.071	7872.76
530.437	7857.17
530.803	7925.87
531.169	8034.34
531.535	7936.94
531.901	7981.23
532.267	8071.62
532.632	8050.16
532.998	8084.05
533.364	8165.18
533.73	8199.53
534.095	8219.87
534.461	8218.51
534.826	8318.62
535.192	8354.78
535.557	8424.38
535.923	8409.02
536.288	8496.25
536.653	8515.45
537.019	8468.45
537.384	8535.79
537.749	8540.54
538.114	8578.73
538.479	8618.95
538.845	8621.89
539.21	8656.24
539.575	8782.79
539.94	8762.45
540.305	8781.44
540.67	8790.93
541.034	8795.9
541.399	8875.67
541.764	8859.17
542.129	8978.94
542.494	8963.8
542.858	9059.39
543.223	9095.55
543.587	9119.96
543.952	9034.31
544.316	9117.92
544.681	9169.67
545.045	9185.49
545.41	9263.68
545.774	9305.26
546.138	9304.13
546.503	9376.45
546.867	9295.09
547.231	9477.01
547.595	9483.79
547.959	9543.68
548.324	9517.91
548.688	9508.42
549.052	9632.26
549.416	9605.37
549.779	9623.22
550.143	9638.59
550.507	9784.12
550.871	9761.52
551.235	9756.55
551.599	9858.02
551.962	9827.28
552.326	9851.69
552.689	9952.7
553.053	9895.53
553.417	9894.17
553.78	10069.31
554.143	10091.23
554.507	10110.67
554.87	10079.48
555.234	10188.4
555.597	10098.46
555.96	10172.81
556.323	10199.25
556.686	10244.45
557.05	10301.62
557.413	10388.17
557.776	10336.42
558.139	10521.28
558.502	10375.07
558.865	10421.84
559.228	10544.33
559.59	10524.67
559.953	10568.96
560.316	10682.4
560.679	10684.66
561.041	10684.89
561.404	10720.14
561.767	10817.31
562.129	10736.86
562.492	10864.32
562.854	10803.08
563.217	10819.57
563.579	10962.85
563.941	10922.4
564.304	11078.1
564.666	11092.56
565.028	11121.94
565.39	11152.22
565.753	11153.8
566.115	11172.56
566.477	11264.76
566.839	11267.02
567.201	11384.53
567.563	11426.11
567.925	11437.64
568.287	11428.6
568.648	11469.95
569.01	11516.28
569.372	11608.03
569.734	11647.8
570.095	11641.25
570.457	11690.06
570.819	11754.46
571.18	11798.53
571.542	11878.53
571.903	11861.81
572.265	12039.43
572.626	12006.44
572.987	12047.34
573.349	12140.67
573.71	12259.31
574.071	12353.55
574.432	12408.69
574.794	12448.68
575.155	12521.22
575.516	12556.93
575.877	12560.32
576.238	12731.61
576.599	12780.65
576.96	12817.71
577.32	12903.14
577.681	12992.4
578.042	13080.08
578.403	13171.38
578.763	13275.1
579.124	13350.13
579.485	13592.83
579.845	13665.38
580.206	13649.78
580.566	13747.41
580.927	14013.84
581.287	14170.9
581.648	14228.98
582.008	14365.92
582.368	14551.45
582.728	14745.8
583.089	14819.92
583.449	15015.17
583.809	15162.06
584.169	15409.06
584.529	15377.19
584.889	15767.92
585.249	15775.6
585.609	16043.17
585.969	16252.88
586.329	16382.59
586.688	16553.43
587.048	16821.45
587.408	17066.42
587.768	17206.98
588.127	17425.95
588.487	17637.47
588.846	17948.88
589.206	18146.84
589.565	18298.93
589.925	18669.31
590.284	18860.04
590.643	19021.17
591.003	19248.96
591.362	19610.76
591.721	19809.62
592.08	20095.04
592.44	20310.4
592.799	20545.19
593.158	20840.1
593.517	21029.7
593.876	21324.16
594.235	21576.81
594.593	21724.15
594.952	22189.22
595.311	22249.78
595.67	22555.31
596.029	22850.67
596.387	23110.1
596.746	23350.09
597.104	23526.58
597.463	23789.85
597.822	24016.06
598.18	24095.61
598.538	24464.87
598.897	24706.89
599.255	24877.51
599.613	25418.74
599.972	25406.76
600.33	25842
600.688	25887.43
601.046	26237.7
601.404	26502.1
601.762	26712.26
602.12	27035.65
602.478	27180.05
602.836	27494.84
603.194	27550.43
603.552	27803.99
603.91	27885.11
604.268	28213.69
604.625	28372.33
604.983	28679.67
605.341	28751.31
605.698	29020.45
606.056	29236.27
606.413	29428.12
606.771	29697.5
607.128	29979.75
607.485	29884.16
607.843	30011.16
608.2	30391.49
608.557	30654.53
608.914	30601.88
609.272	31072.83
609.629	31215.87
609.986	31436.66
610.343	31322.54
610.7	31754.39
611.057	31882.52
611.414	31928.4
611.771	32177.88
612.127	32389.85
612.484	32468.95
612.841	32638.66
613.198	32699.45
613.554	32781.48
613.911	33094.02
614.267	33177.63
614.624	33296.27
614.98	33311.19
615.337	33723.83
615.693	33714.34
616.05	33772.64
616.406	34143.93
616.762	34127.44
617.118	34157.04
617.475	34336.7
617.831	34479.52
618.187	34627.54
618.543	34734.65
618.899	35071.82
619.255	35059.16
619.611	35120.86
619.967	35278.82
620.323	35241.98
620.678	35220.97
621.034	35298.03
621.39	35462.32
621.746	35475.42
622.101	35789.77
622.457	35809.2
622.812	35879.03
623.168	35965.81
623.523	36019.36
623.879	36260.71
624.234	36013.71
624.589	36212.35
624.945	36283.54
625.3	36365.8
625.655	36467.26
626.01	36408.05
626.365	36470.65
626.72	36486.92
627.075	36578.9
627.43	36512.68
627.785	36553.13
628.14	36706.13
628.495	36816.4
628.85	36714.26
629.205	36603.08
629.559	36959.9
629.914	36766.01
630.269	36867.48
630.623	36747.03
630.978	36806.91
631.332	36977.98
631.687	37078.09
632.041	36863.18
632.396	37129.84
632.75	36910.87
633.104	37015.95
633.459	36852.34
633.813	36878.32
634.167	36967.14
634.521	37016.17
634.875	36929.62
635.229	37015.5
635.583	36786.58
635.937	36933.01
636.291	36957.19
636.645	36946.57
636.999	36868.61
637.352	37077.19
637.706	36916.74
638.06	36887.14
638.413	36914.26
638.767	36876.97
639.121	36947.02
639.474	36750.87
639.828	36824.54
640.181	36760.59
640.534	36816.63
640.888	36832.9
641.241	36624.55
641.594	36832
641.947	36823.86
642.301	36710.19
642.654	36772.11
643.007	36733.92
643.36	36657.09
643.713	36634.26
644.066	36845.56
644.419	36459.13
644.771	36240.6
645.124	35994.73
645.477	36011.23
645.83	35753.61
646.182	35759.71
646.535	35519.94
646.888	35545.03
647.24	35516.1
647.593	35615.76
647.945	35568.98
648.298	35498.02
648.65	35420.74
649.002	35291.7
649.355	35487.4
649.707	35488.76
650.059	35586.61
650.411	35884.9
650.763	36022.53
651.115	36322.41
651.467	36259.81
651.819	36380.03
652.171	36220.49
652.523	36217.78
652.875	36156.54
653.227	36145.01
653.578	36264.55
653.93	36203.77
654.282	36049.65
654.633	36030.89
654.985	36056.42
655.337	36001.74
655.688	36106.14
656.039	36292.35
656.391	35897.56
656.742	36027.73
657.094	36004.22
657.445	36100.94
657.796	36060.72
658.147	36062.53
658.498	35887.84
658.849	35871.12
659.2	35838.8
659.551	35956.54
659.902	35988.4
660.253	35980.95
660.604	35969.87
660.955	35746.83
661.306	35813.95
661.656	35779.6
662.007	35821.4
662.358	35831.35
662.708	35867.05
663.059	35783.89
663.409	35616.44
663.76	35852.14
664.11	35792.25
664.461	35873.15
664.811	35894.85
665.161	35707.06
665.511	35619.83
665.862	35680.84
666.212	35884.9
666.562	35979.82
666.912	35831.35
667.262	35641.97
667.612	35718.58
667.962	35789.54
668.312	35707.28
668.662	35882.64
669.011	35679.26
669.361	35674.51
669.711	35712.93
670.06	35649.43
670.41	35666.15
670.76	35557
671.109	35812.59
671.459	35603.56
671.808	35624.12
672.157	35801.52
672.507	35446.5
672.856	35455.99
673.205	35465.03
673.554	35486.27
673.904	35498.02
674.253	35665.25
674.602	35533.95
674.951	35012.61
675.3	34819.4
675.649	35491.69
675.998	35217.35
676.346	35385.26
676.695	35490.11
677.044	35196.11
677.393	35367.86
677.741	35370.34
678.09	35262.1
678.438	35283.56
678.787	35161.99
679.135	35308.65
679.484	35131.03
679.832	35127.41
680.181	35060.97
680.529	35009.22
680.877	35059.16
681.225	34998.37
681.573	35063.91
681.922	34872.73
682.27	34881.99
682.618	34841.09
682.966	34779.4
683.314	34684.94
683.661	34634.54
684.009	34515.67
684.357	34467.54
684.705	34615.11
685.053	34439.97
685.4	34290.6
685.748	34317.71
686.095	34340.99
686.443	34157.72
686.79	34042.92
687.138	34124.5
687.485	34063.48
687.832	34070.49
688.18	34067.1
688.527	33948.91
688.874	33934.22
689.221	33545.3
689.568	33742.59
689.915	33674.79
690.262	33593.21
690.609	33428.92
690.956	33359.09
691.303	33377.63
691.65	33252.66
691.997	33193.22
692.344	33054.47
692.69	33008.14
693.037	32969.27
693.383	32753.01
693.73	32898.54
694.077	32547.36
694.423	32740.35
694.769	32482.28
695.116	32471.66
695.462	32450.19
695.808	32257.65
696.155	32406.13
696.501	32066.7
696.847	32184.66
697.193	31933.82
697.539	32048.39
697.885	31826.03
698.231	31719.82
698.577	31757.55
698.923	31721.17
699.269	31412.93
699.614	31407.06
699.96	31313.05
700.306	31449.54
700.651	31226.04
700.997	31087.52
701.342	31047.97
701.688	31097.69
702.033	30875.54
702.379	30955.99
702.724	30833.29
703.069	30875.09
703.415	30505.84
703.76	30587.64
704.105	30436.91
704.45	30352.39
704.795	30263.58
705.14	30188.33
705.485	30176.13
705.83	29979.52
706.175	29978.62
706.52	29948.11
706.865	29914.21
707.209	29852.52
707.554	29795.8
707.899	29879.41
708.243	29591.74
708.588	29574.34
708.932	29387
709.277	29432.42
709.621	29386.77
709.966	29232.88
710.31	29326.21
710.654	29018.87
710.998	29090.73
711.342	29049.83
711.687	28980.23
712.031	28882.15
712.375	28781.14
712.719	28841.25
713.063	28853
713.407	28892.09
713.75	28631.99
714.094	28656.17
714.438	28516.06
714.782	28516.28
715.125	28424.54
715.469	28399.23
715.812	28249.17
716.156	28141.6
716.499	28089.85
716.843	28204.2
717.186	27958.11
717.53	28090.98
717.873	28162.4
718.216	28058.89
718.559	27870.2
718.902	27818.68
719.246	27761.28
719.589	27793.82
719.932	27620.26
720.275	27712.01
720.617	27620.26
720.96	27492.36
721.303	27614.61
721.646	27503.66
721.989	27434.73
722.331	27374.17
722.674	27429.08
723.016	27294.85
723.359	27200.16
723.701	27273.83
724.044	27140.28
724.386	26970.79
724.729	27180.73
725.071	27007.85
725.413	27081.07
725.755	26924.91
726.097	26899.38
726.439	26771.02
726.782	26687.86
727.124	26849.89
727.465	26697.57
727.807	26674.98
728.149	26691.25
728.491	26525.38
728.833	26609.67
729.175	26486.96
729.516	26548.65
729.858	26423.23
730.199	26505.04
730.541	26347.98
730.882	26309.34
731.224	26386.85
731.565	26354.98
731.906	26283.8
732.248	26334.65
732.589	26134.43
732.93	26062.11
733.271	26087.42
733.612	26057.14
733.953	26110.47
734.294	25795.68
734.635	25885.17
734.976	25883.36
735.317	25833.64
735.658	25857.37
735.999	25908.9
736.339	25700.76
736.68	25797.71
737.021	25660.99
737.361	25581.9
737.702	25751.16
738.042	25565.4
738.383	25559.98
738.723	25681.33
739.063	25447.21
739.404	25525.4
739.744	25462.13
740.084	25394.56
740.424	25510.94
740.764	25274.34
741.104	25398.17
741.444	25338.06
741.784	25175.13
742.124	25290.83
742.464	25185.07
742.804	25120.67
743.143	25032.76
743.483	24991.18
743.823	24981.01
744.162	24992.76
744.502	25004.74
744.841	24772.2
745.181	24956.6
745.52	24898.07
745.86	24816.27
746.199	24752.99
746.538	24769.26
746.877	24669.38
747.216	24752.32
747.556	24662.6
747.895	24623.51
748.234	24660.79
748.573	24636.16
748.911	24597.07
749.25	24465.54
749.589	24516.16
749.928	24470.97
750.267	24514.81
750.605	24491.08
750.944	24372.21
751.283	24329.73
751.621	24324.98
751.96	24203.63
752.298	24199.11
752.636	24187.81
752.975	24074.82
753.313	23926.35
753.651	24118.89
753.989	23958.21
754.327	23861.94
754.666	23852.68
755.004	23887.25
755.342	23822.4
755.679	23773.58
756.017	23684.55
756.355	23676.86
756.693	23620.14
757.031	23614.04
757.368	23621.95
757.706	23578.11
758.044	23363.2
758.381	23487.49
758.719	23340.6
759.056	23303.99
759.394	23252.24
759.731	23057.44
760.068	23148.06
760.405	23066.48
760.743	23035.52
761.08	22969.99
761.417	22983.77
761.754	22774.74
762.091	22801.18
762.428	22682.31
762.765	22612.03
763.102	22679.15
763.438	22584.46
763.775	22344.24
764.112	22434.41
764.449	22462.21
764.785	22327.75
765.122	22162.1
765.458	22029.67
765.795	22131.59
766.131	22160.52
766.467	22023.35
766.804	21901.99
767.14	21775.9
767.476	21701.1
767.812	21674.43
768.148	21779.06
768.485	21640.53
768.821	21501.78
769.157	21404.61
769.492	21389.92
769.828	21375.23
770.164	21114.44
770.5	21168.68
770.836	21173.43
771.171	20984.5
771.507	20928.01
771.842	20802.36
772.178	20764.4
772.513	20727.79
772.849	20663.38
773.184	20563.95
773.519	20581.35
773.855	20581.13
774.19	20374.58
774.525	20338.87
774.86	20354.24
775.195	20309.27
775.53	20107.01
775.865	20005.77
776.2	19898.21
776.535	19876.74
776.87	19847.81
777.205	19784.76
777.539	19686.23
777.874	19652.11
778.209	19470.87
778.543	19413.92
778.878	19354.72
779.212	19392
779.547	19194.5
779.881	19275.85
780.215	19067.27
780.55	19093.48
780.884	19018.23
781.218	18972.13
781.552	18860.94
781.886	18792.47
782.22	18774.17
782.554	18714.73
782.888	18525.13
783.222	18510.22
783.556	18375.76
783.889	18365.82
784.223	18225.71
784.557	18147.74
784.89	18307.06
785.224	18133.28
785.557	18095.54
785.891	17917.47
786.224	17948.88
786.558	17857.36
786.891	17830.69
787.224	17722.67
787.557	17592.05
787.891	17616.01
788.224	17585.95
788.557	17571.71
788.89	17532.39
789.223	17428.44
789.556	17334.21
789.888	17250.82
790.221	17195.68
790.554	17078.84
790.887	16999.75
791.219	16970.6
791.552	16985.51
791.884	16921.33
792.217	16861.9
792.549	16844.05
792.882	16646.09
793.214	16615.58
793.546	16692.41
793.879	16527.45
794.211	16428.47
794.543	16520.44
794.875	16453.78
795.207	16422.59
795.539	16306.66
795.871	16284.74
796.203	16153.67
796.535	16089.72
796.867	16095.59
797.198	16002.71
797.53	16096.72
797.862	16001.81
798.193	15842.95
798.525	15809.73
798.856	15753.46
799.188	15674.36
799.519	15603.4
799.85	15487.47
800.182	15557.53
800.513	15496.51
800.844	15419.91
801.175	15476.4
801.506	15374.93
801.837	15294.26
802.168	15302.62
802.499	15213.13
802.83	15172.91
803.161	15155.28
803.491	15109.18
803.822	15063.98
804.153	15048.39
804.483	14977.21
804.814	14848.17
805.145	14931.78
805.475	14797.1
805.805	14778.79
806.136	14752.8
806.466	14756.19
806.796	14733.37
807.126	14624.45
807.457	14604.56
807.787	14554.39
808.117	14533.6
808.447	14497.9
808.777	14524.79
809.107	14440.27
809.436	14388.97
809.766	14290.67
810.096	14253.38
810.426	14180.39
810.755	14202.99
811.085	14134.74
811.414	14243.89
811.744	14062.43
812.073	14024.24
812.403	14046.61
812.732	13850.68
813.061	13938.81
813.39	13803.45
813.719	13751.25
814.049	13785.15
814.378	13812.94
814.707	13778.82
815.036	13679.61
815.365	13648.88
815.693	13604.13
816.022	13477.81
816.351	13559.16
816.68	13452.73
817.008	13431.03
817.337	13419.05
817.665	13311.94
817.994	13327.53
818.322	13391.94
818.651	13293.41
818.979	13193.3
819.307	13258.61
819.636	13246.4
819.964	13189
820.292	13294.09
820.62	13262
820.948	13107.88
821.276	13185.61
821.604	13069.46
821.932	13108.78
822.259	13070.59
822.587	13133.19
822.915	13098.61
823.243	13220.19
823.57	13050.7
823.898	13069.91
824.225	13012.28
824.553	12992.62
824.88	12953.53
825.207	13158.04
825.535	13045.96
825.862	13082.57
826.189	13050.93
826.516	13065.39
826.843	13119.63
827.17	13040.31
827.497	13094.54
827.824	13042.57
828.151	13037.6
828.478	13002.57
828.805	13114.66
829.131	12977.71
829.458	12972.51
829.785	12993.98
830.111	12976.58
830.438	13010.25
830.764	13064.26
831.09	13086.41
831.417	12965.05
831.743	12977.03
832.069	12909.69
832.395	12923.7
832.722	12960.08
833.048	12915.56
833.374	12898.62
833.7	12844.38
834.026	12916.69
834.351	12935
834.677	12885.73
835.003	12921.89
835.329	12932.06
835.654	12811.61
835.98	12765.96
836.306	12803.93
836.631	12689.13
836.956	12761.67
837.282	12734.78
837.607	12653.88
837.932	12727.55
838.258	12745.4
838.583	12650.49
838.908	12574.56
839.233	12679.41
839.558	12527.78
839.883	12558.06
840.208	12507.67
840.533	12534.56
840.858	12503.6
841.182	12563.48
841.507	12400.78
841.832	12386.76
842.156	12424.28
842.481	12344.73
842.805	12351.74
843.13	12370.27
843.454	12290.95
843.778	12295.69
844.103	12210.5
844.427	12220.22
844.751	12183.15
845.075	12103.83
845.399	12079.43
845.723	12008.02
846.047	12058.19
846.371	11918.3
846.695	11927.12
847.019	11810.51
847.343	11716.73
847.666	11784.97
847.99	11696.16
848.313	11702.49
848.637	11624.07
848.96	11701.13
849.284	11558.99
849.607	11439.22
849.931	11410.07
850.254	11317.87
850.577	11263.4
850.9	11262.5
851.223	11237.87
851.546	11149.28
851.869	11106.12
852.192	11153.12
852.515	11102.73
852.838	10996.52
853.161	11088.49
853.483	10943.64
853.806	10884.21
854.129	10887.37
854.451	10838.56
854.774	10771.89
855.096	10751.78
855.419	10775.51
855.741	10742.74
856.063	10657.32
856.385	10611.9
856.708	10639.24
857.03	10561.95
857.352	10565.34
857.674	10479.24
857.996	10500.26
858.318	10456.65
858.64	10459.13
858.961	10461.62
859.283	10365.57
859.605	10303.88
859.926	10306.82
860.248	10323.32
860.57	10232.92
860.891	10242.19
861.212	10164.22
861.534	10177.11
861.855	10156.77
862.176	10157.44
862.498	10135.98
862.819	10123.32
863.14	10051.23
863.461	10045.81
863.782	10001.97
864.103	10013.27
864.424	9954.06
864.745	10020.95
865.065	9905.93
865.386	9885.59
865.707	9892.82
866.027	9888.3
866.348	9878.81
866.668	9846.72
866.989	9877.45
867.309	9753.61
867.63	9859.15
867.95	9806.27
868.27	9766.04
868.59	9769.43
868.91	9734.41
869.23	9748.87
869.55	9730.79
869.87	9731.24
870.19	9593.39
870.51	9716.1
870.83	9660.51
871.15	9596.56
871.469	9724.46
871.789	9643.11
872.109	9603.56
872.428	9500.96
872.748	9639.27
873.067	9606.05
873.386	9521.53
873.706	9556.78
874.025	9462.32
874.344	9515.65
874.663	9516.78
874.982	9414.19
875.301	9368.09
875.62	9389.78
875.939	9432.49
876.258	9433.4
876.577	9362.21
876.896	9320.4
877.214	9334.87
877.533	9281.76
877.852	9319.27
878.17	9346.17
878.489	9268.65
878.807	9310.69
879.125	9271.82
879.444	9342.78
879.762	9293.06
880.08	9200.41
880.398	9219.84
880.716	9134.87
881.034	9142.33
881.352	9159.5
881.67	9091.03
881.988	9114.99
882.306	9128.55
882.624	9086.74
882.941	9002.45
883.259	8991.15
883.577	9003.58
883.894	8941.21
884.212	8955.22
884.529	8908.66
884.846	8885.84
885.164	8880.19
885.481	8795.22
885.798	8868.89
886.115	8817.59
886.432	8834.99
886.75	8718.84
887.067	8826.86
887.383	8682.68
887.7	8657.82
888.017	8717.71
888.334	8709.57
888.651	8694.43
888.967	8674.77
889.284	8632.29
889.6	8577.15
889.917	8468
890.233	8493.76
890.55	8453.53
890.866	8462.8
891.182	8432.97
891.498	8516.36
891.815	8402.24
892.131	8351.39
892.447	8439.98
892.763	8320.43
893.079	8306.87
893.395	8275.91
893.71	8288.12
894.026	8282.47
894.342	8227.1
894.657	8165.18
894.973	8131.06
895.289	8154.56
895.604	8095.13
895.92	8024.17
896.235	8117.27
896.55	8117.5
896.865	8077.73
897.181	8016.71
897.496	7971.51
897.811	7944.4
898.126	7961.57
898.441	7890.39
898.756	7843.38
899.071	7799.31
899.386	7836.6
899.7	7749.82
900.015	7780.78
900.33	7698.3
900.644	7697.62
900.959	7698.75
901.273	7658.53
901.588	7614.69
901.902	7563.61
902.216	7534.46
902.531	7447.91
902.845	7500.57
903.159	7458.08
903.473	7395.26
903.787	7384.41
904.101	7331.08
904.415	7305.54
904.729	7306.45
905.042	7295.6
905.356	7246.56
905.67	7226.67
905.984	7210.63
906.297	7190.29
906.611	7158.65
906.924	7136.51
907.237	7111.65
907.551	7073.91
907.864	7066.68
908.177	7050.18
908.491	6970.86
908.804	6980.13
909.117	6927.02
909.43	6887.47
909.743	6871.88
910.056	6816.52
910.368	6814.48
910.681	6820.58
910.994	6761.38
911.307	6761.15
911.619	6705.56
911.932	6635.05
912.244	6675.28
912.557	6610.19
912.869	6546.69
913.181	6626.92
913.494	6570.42
913.806	6514.6
914.118	6582.4
914.43	6455.17
914.742	6399.13
915.054	6419.69
915.366	6396.19
915.678	6375.62
915.99	6366.58
916.302	6298.34
916.613	6242.29
916.925	6249.07
917.236	6274.84
917.548	6179.92
917.859	6218.57
918.171	6184.67
918.482	6144.22
918.794	6123.88
919.105	6119.13
919.416	6062.19
919.727	6111.22
920.038	6067.16
920.349	6002.53
920.66	5961.85
920.971	5991.9
921.282	5972.7
921.593	5897.9
921.903	5852.47
922.214	5851.34
922.525	5816.32
922.835	5816.09
923.146	5776.32
923.456	5750.33
923.767	5715.98
924.077	5683.89
924.387	5710.1
924.697	5667.85
925.008	5662.42
925.318	5594.4
925.628	5622.65
925.938	5574.97
926.248	5512.82
926.558	5533.39
926.867	5543.78
927.177	5429.43
927.487	5420.17
927.796	5376.33
928.106	5381.07
928.416	5376.33
928.725	5367.74
929.034	5336.55
929.344	5314.41
929.653	5304.01
929.962	5287.06
930.271	5257.69
930.581	5233.96
930.89	5141.76
931.199	5198.03
931.508	5135.43
931.817	5198.71
932.125	5113.51
932.434	5118.48
932.743	5054.08
933.051	5048.2
933.36	5015.21
933.669	4983.8
933.977	4944.25
934.286	4993.51
934.594	4908.09
934.902	4912.38
935.21	4892.5
935.519	4849.56
935.827	4814.08
936.135	4814.31
936.443	4779.96
936.751	4757.59
937.059	4767.53
937.367	4715.78
937.674	4756.68
937.982	4707.64
938.29	4701.32
938.597	4675.56
938.905	4664.26
939.213	4626.52
939.52	4620.42
939.827	4653.18
940.135	4568.21
940.442	4573.18
940.749	4572.96
941.056	4545.39
941.363	4466.97
941.67	4508.1
941.977	4450.7
942.284	4407.31
942.591	4433.98
942.898	4408.44
943.205	4421.1
943.511	4398.95
943.818	4325.06
944.125	4311.72
944.431	4344.26
944.738	4316.92
945.044	4271.95
945.35	4261.33
945.657	4241.22
945.963	4214.78
946.269	4226.75
946.575	4208.9
946.881	4180.65
947.187	4166.42
947.493	4161.9
947.799	4118.51
948.105	4102.91
948.41	4104.95
948.716	4075.12
949.022	4063.14
949.327	4055.46
949.633	3983.82
949.938	3999.19
950.244	4023.14
950.549	3957.16
950.854	3927.55
951.16	3909.47
951.465	3882.81
951.77	3877.84
952.075	3864.5
952.38	3879.87
952.685	3874.9
952.99	3834.22
953.294	3786.31
953.599	3757.84
953.904	3761.91
954.209	3731.4
954.513	3769.14
954.818	3712.19
955.122	3710.61
955.426	3726.88
955.731	3659.08
956.035	3659.31
956.339	3624.28
956.643	3643.94
956.948	3631.74
957.252	3594.45
957.556	3575.7
957.86	3555.36
958.163	3567.56
958.467	3524.4
958.771	3530.5
959.075	3530.5
959.378	3518.75
959.682	3506.77
959.985	3467.9
960.289	3473.78
960.592	3451.18
960.896	3448.69
961.199	3385.65
961.502	3422.71
961.805	3343.61
962.108	3381.35
962.411	3339.77
962.714	3309.04
963.017	3327.34
963.32	3320.79
963.623	3280.34
963.926	3276.27
964.228	3289.38
964.531	3248.25
964.833	3238.98
965.136	3235.37
965.438	3174.13
965.741	3196.72
966.043	3198.76
966.345	3173.45
966.648	3196.95
966.95	3149.04
967.252	3152.88
967.554	3108.36
967.856	3092.32
968.158	3046.67
968.46	3068.14
968.761	3060
969.063	3090.29
969.365	3008.48
969.666	3032.43
969.968	2997.86
970.269	2974.13
970.571	2977.52
970.872	2991.76
971.174	2940.91
971.475	2909.5
971.776	2870.18
972.077	2922.83
972.378	2918.54
972.679	2874.02
972.98	2877.86
973.281	2885.55
973.582	2888.48
973.883	2862.95
974.183	2820.24
974.484	2845.32
974.785	2821.14
975.085	2780.46
975.386	2818.2
975.686	2784.31
975.986	2758.32
976.287	2753.35
976.587	2717.41
976.887	2733.01
977.187	2722.84
977.487	2695.72
977.787	2679.45
978.087	2675.38
978.387	2653.91
978.687	2644.42
978.987	2618.66
979.286	2615.27
979.586	2608.49
979.885	2612.78
980.185	2589.28
980.484	2587.93
980.784	2571.43
981.083	2576.85
981.382	2547.48
981.682	2521.49
981.981	2500.7
982.28	2514.93
982.579	2481.26
982.878	2507.25
983.177	2488.04
983.475	2486.23
983.774	2461.15
984.073	2452.34
984.372	2477.87
984.67	2441.04
984.969	2415.05
985.267	2419.57
985.566	2407.82
985.864	2389.74
986.162	2378.44
986.461	2378.21
986.759	2369.4
987.057	2343.64
987.355	2314.71
987.653	2320.59
987.951	2348.61
988.249	2333.24
988.547	2299.8
988.844	2282.4
989.142	2263.42
989.44	2245.56
989.737	2228.39
990.035	2266.58
990.332	2236.3
990.63	2212.79
990.927	2219.8
991.224	2232.91
991.521	2199.91
991.819	2182.51
992.116	2146.58
992.413	2150.88
992.71	2122.4
993.006	2144.77
993.303	2128.28
993.6	2122.85
993.897	2114.94
994.193	2143.64
994.49	2090.76
994.787	2090.31
995.083	2061.84
995.379	2077.43
995.676	2059.35
995.972	2058.67
996.268	2038.11
996.565	2031.56
996.861	2047.15
997.157	1982.97
997.453	1950.43
997.749	2001.5
998.044	1974.84
998.34	1991.11
998.636	1961.5
998.932	1954.95
999.227	1922.63
999.523	1948.85
999.818	1900.94
1000.114	1890.09
1000.409	1873.37
1000.704	1890.54
1001	1879.7
1001.295	1866.36
1001.59	1846.25
1001.885	1857.78
1002.18	1837.89
1002.475	1807.38
1002.77	1845.35
1003.065	1807.61
1003.359	1817.1
1003.654	1790.21
1003.949	1788.63
1004.243	1805.12
1004.538	1790.66
1004.832	1757.21
1005.127	1751.56
1005.421	1739.14
1005.715	1717.21
1006.009	1732.81
1006.304	1724.45
1006.598	1700.27
1006.892	1693.94
1007.186	1707.95
1007.48	1674.96
1007.773	1629.08
1008.067	1636.54
1008.361	1655.75
1008.655	1639.25
1008.948	1632.47
1009.242	1643.54
1009.535	1619.82
1009.829	1592.47
1010.122	1593.15
1010.415	1581.4
1010.708	1579.82
1011.001	1570.55
1011.295	1571.68
1011.588	1568.52
1011.881	1532.13
1012.173	1560.38
1012.466	1511.57
1012.759	1502.53
1013.052	1482.64
1013.344	1471.12
1013.637	1507.05
1013.93	1490.1
1014.222	1485.36
1014.514	1471.12
1014.807	1460.05
1015.099	1442.87
1015.391	1431.8
1015.683	1414.17
1015.976	1418.24
1016.268	1427.96
1016.56	1430.67
1016.851	1408.75
1017.143	1394.29
1017.435	1389.77
1017.727	1377.34
1018.018	1378.47
1018.31	1376.66
1018.602	1374.4
1018.893	1354.06
1019.185	1318.58
1019.476	1310.22
1019.767	1339.82
1020.058	1291.24
1020.35	1304.12
1020.641	1289.2
1020.932	1267.06
1021.223	1295.53
1021.514	1269.54
1021.804	1251.01
1022.095	1239.04
1022.386	1235.42
1022.677	1237.68
1022.967	1222.76
1023.258	1227.96
1023.548	1214.63
1023.839	1209.21
1024.129	1184.8
1024.419	1194.06
1024.709	1186.38
1025	1167.62
1025.29	1147.96
1025.58	1122.43
1025.87	1183.22
1026.16	1145.93
1026.449	1148.64
1026.739	1134.63
1027.029	1133.05
1027.319	1093.05
1027.608	1118.13
1027.898	1125.59
1028.187	1104.8
1028.477	1094.63
1028.766	1090.79
1029.055	1078.59
1029.344	1081.98
1029.634	1070
1029.923	1053.5
1030.212	1072.94
1030.501	1063.67
1030.79	1037.91
1031.078	1032.04
1031.367	1025.03
1031.656	1030
1031.945	1013.5
1032.233	994.97
1032.522	974.64
1032.81	990.68
1033.099	972.83
1033.387	990
1033.675	968.08
1033.963	951.59
1034.251	965.6
1034.54	945.94
1034.828	949.55
1035.116	946.39
1035.403	924.69
1035.691	950.91
1035.979	955.43
1036.267	921.76
1036.554	893.51
1036.842	914.3
1037.129	904.13
1037.417	915.88
1037.704	900.51
1037.992	898.25
1038.279	893.51
1038.566	912.72
1038.853	912.72
1039.14	912.72
