Data from hue_24_FLMS001491_00051.txt Node
Date: Tue Feb 07 17:12:26 GMT 2017
User: dcchb
Spectrometer: FLMS00149
Trigger mode: 0
Integration Time (sec): 2.000000E-2
Scans to average: 10
Electric dark correction enabled: true
Nonlinearity correction enabled: false
Boxcar width: 0
XAxis mode: Wavelengths
Number of Pixels in Spectrum: 2048
>>>>>Begin Spectral Data<<<<<
341.393	-19.21
341.776	-19.21
342.16	-19.21
342.543	-52.65
342.927	-48.59
343.31	-82.03
343.693	-53.56
344.077	-79.32
344.46	-56.27
344.843	-61.47
345.226	-37.97
345.61	-36.16
345.993	-29.38
346.376	-1.81
346.759	9.94
347.142	14.69
347.525	53.33
347.908	49.72
348.291	94.01
348.674	87.68
349.057	128.58
349.44	108.92
349.823	168.36
350.206	160.67
350.588	188.7
350.971	214.68
351.354	208.81
351.737	224.4
352.119	253.1
352.502	252.2
352.884	266.66
353.267	280.44
353.65	295.36
354.032	310.73
354.414	298.3
354.797	310.05
355.179	325.42
355.562	310.27
355.944	312.31
356.326	335.81
356.709	342.36
357.091	315.47
357.473	339.2
357.855	338.52
358.238	332.42
358.62	341.69
359.002	345.53
359.384	317.05
359.766	345.98
360.148	334.45
360.53	333.55
360.912	348.01
361.294	355.92
361.676	330.61
362.057	337.84
362.439	324.29
362.821	331.06
363.203	335.13
363.584	341.91
363.966	320.22
364.348	297.85
364.729	318.18
365.111	306.43
365.493	305.53
365.874	324.74
366.256	309.37
366.637	320.22
367.019	320.67
367.4	319.31
367.781	323.16
368.163	337.84
368.544	322.93
368.925	325.64
369.306	318.41
369.688	300.78
370.069	282.7
370.45	294
370.831	305.53
371.212	306.88
371.593	312.31
371.974	301.91
372.355	301.91
372.736	311.18
373.117	309.37
373.498	313.44
373.879	331.74
374.26	337.39
374.641	317.51
375.021	319.77
375.402	318.18
375.783	322.7
376.163	323.38
376.544	319.99
376.925	314.57
377.305	300.33
377.686	327.22
378.066	334.45
378.447	343.04
378.827	312.76
379.208	344.17
379.588	327.45
379.968	328.8
380.349	329.03
380.729	324.06
381.109	356.37
381.489	339.2
381.87	330.61
382.25	332.87
382.63	333.1
383.01	316.38
383.39	339.2
383.77	336.49
384.15	341.46
384.53	347.11
384.91	339.88
385.29	337.17
385.67	347.11
386.049	352.99
386.429	341.69
386.809	369.48
387.189	362.02
387.568	363.61
387.948	348.24
388.328	345.08
388.707	352.31
389.087	352.76
389.466	364.74
389.846	369.03
390.225	364.96
390.605	358.86
390.984	365.41
391.363	378.07
391.743	365.64
392.122	373.1
392.501	369.48
392.881	384.4
393.26	357.28
393.639	361.8
394.018	365.64
394.397	372.87
394.776	370.16
395.155	373.55
395.534	374.68
395.913	362.7
396.292	390.5
396.671	375.81
397.05	360.67
397.429	385.53
397.808	369.93
398.186	372.87
398.565	399.09
398.944	394.11
399.323	391.85
399.701	388.24
400.08	388.24
400.458	385.53
400.837	380.1
401.215	387.11
401.594	404.96
401.972	404.51
402.351	408.35
402.729	397.05
403.107	402.02
403.486	410.16
403.864	398.18
404.242	383.04
404.62	405.64
404.999	401.57
405.377	425.07
405.755	414.9
406.133	401.35
406.511	424.4
406.889	406.77
407.267	439.54
407.645	441.12
408.023	430.72
408.401	427.11
408.779	426.2
409.156	448.35
409.534	444.06
409.912	443.38
410.29	451.51
410.667	451.51
411.045	455.81
411.422	446.32
411.8	461
412.178	445.86
412.555	461.91
412.933	470.5
413.31	476.15
413.687	457.39
414.065	484.28
414.442	462.13
414.819	482.47
415.197	474.11
415.574	472.53
415.951	480.89
416.328	467.33
416.705	492.42
417.082	520.21
417.46	479.99
417.837	471.17
418.214	482.25
418.591	488.12
418.967	499.2
419.344	505.98
419.721	512.3
420.098	505.75
420.475	527.9
420.852	505.98
421.228	516.6
421.605	515.24
421.982	525.64
422.358	531.29
422.735	512.98
423.111	513.21
423.488	534
423.864	544.62
424.241	539.87
424.617	538.74
424.994	539.65
425.37	543.26
425.746	553.21
426.123	571.74
426.499	581.23
426.875	543.71
427.251	557.27
427.627	564.28
428.003	569.7
428.379	583.26
428.756	590.49
429.132	565.41
429.507	590.27
429.883	598.85
430.259	610.38
430.635	598.18
431.011	621.9
431.387	614.45
431.763	630.49
432.138	611.96
432.514	639.53
432.89	642.47
433.265	648.12
433.641	641.57
434.016	641.79
434.392	650.38
434.767	650.83
435.143	653.99
435.518	654.9
435.894	674.11
436.269	681.34
436.644	686.76
437.02	703.71
437.395	689.47
437.77	707.1
438.145	705.74
438.52	725.63
438.895	699.87
439.271	705.07
439.646	710.49
440.021	698.51
440.395	743.03
440.77	720.21
441.145	734.22
441.52	742.13
441.895	728.34
442.27	760.43
442.645	735.35
443.019	747.78
443.394	757.04
443.769	767.44
444.143	763.14
444.518	753.2
444.892	741.9
445.267	746.42
445.641	785.97
446.016	795.46
446.39	755.46
446.764	778.74
447.139	806.31
447.513	800.2
447.887	811.05
448.262	805.85
448.636	816.7
449.01	814.67
449.384	829.36
449.758	817.61
450.132	828.9
450.506	839.3
450.88	812.18
451.254	848.79
451.628	857.15
452.002	869.13
452.376	861.45
452.75	854.89
453.123	878.85
453.497	849.7
453.871	904.16
454.244	916.36
454.618	883.14
454.992	919.75
455.365	898.51
455.739	912.07
456.112	932.18
456.486	951.84
456.859	970.14
457.232	955
457.606	946.42
457.979	953.65
458.352	998.62
458.725	981.22
459.099	996.13
459.472	996.13
459.845	1025.28
460.218	1039.97
460.591	1050.37
460.964	1019.63
461.337	1060.09
461.71	1072.51
462.083	1078.39
462.456	1058.96
462.829	1102.34
463.201	1120.2
463.574	1107.54
463.947	1113.64
464.32	1118.84
464.692	1152.51
465.065	1135.11
465.438	1166.75
465.81	1185.51
466.183	1192.96
466.555	1216.92
466.928	1247.42
467.3	1230.25
467.672	1237.26
468.045	1298.72
468.417	1289.91
468.789	1294.43
469.161	1327.65
469.534	1365.16
469.906	1348.67
470.278	1357.7
470.65	1388.21
471.022	1428.21
471.394	1408.55
471.766	1433.41
472.138	1450.36
472.51	1475.22
472.882	1503.46
473.253	1506.18
473.625	1546.63
473.997	1565.61
474.369	1589.56
474.74	1611.26
475.112	1640.18
475.484	1666.17
475.855	1689.9
476.227	1707.3
476.598	1742.33
476.97	1801.31
477.341	1828.2
477.713	1806.28
478.084	1838.14
478.455	1928.31
478.827	1936.67
479.198	1985.03
479.569	1981.64
479.94	2054.18
480.311	2023.9
480.682	2145.71
481.053	2203.78
481.424	2212.6
481.795	2237.68
482.166	2260.51
482.537	2308.87
482.908	2347.96
483.279	2419.82
483.65	2444
484.021	2495.75
484.391	2515.87
484.762	2556.09
485.133	2627.5
485.503	2691.68
485.874	2701.62
486.244	2757.67
486.615	2816.88
486.985	2830.89
487.356	2849.64
487.726	2926.02
488.097	3028.17
488.467	3002.86
488.837	3109.97
489.207	3145.68
489.578	3163.98
489.948	3220.03
490.318	3257.99
490.688	3330.99
491.058	3360.82
491.428	3393.58
491.798	3423.64
492.168	3538.44
492.538	3529.62
492.908	3559.68
493.278	3643.52
493.648	3641.49
494.017	3709.73
494.387	3773.46
494.757	3785.66
495.126	3813.69
495.496	3805.32
495.866	3914.25
496.235	3906.11
496.605	3957.41
496.974	3975.94
497.344	4009.84
497.713	4084.64
498.082	4112.21
498.452	4163.28
498.821	4225.2
499.19	4214.8
499.559	4274.24
499.928	4228.14
500.298	4263.39
500.667	4314.01
501.036	4320.34
501.405	4360.34
501.774	4400.11
502.143	4425.65
502.512	4467
502.88	4481.24
503.249	4513.78
503.618	4525.3
503.987	4520.79
504.356	4627.9
504.724	4600.33
505.093	4681.68
505.462	4660.89
505.83	4702.48
506.199	4736.37
506.567	4760.78
506.936	4718.07
507.304	4816.14
507.672	4832.64
508.041	4895.46
508.409	4922.58
508.777	4946.31
509.145	4962.58
509.514	4938.85
509.882	4956.48
510.25	4984.28
510.618	5071.96
510.986	5059.08
511.354	5126.64
511.722	5073.31
512.09	5139.07
512.458	5119.19
512.826	5204.38
513.193	5209.81
513.561	5252.29
513.929	5258.17
514.297	5284.83
514.664	5361.67
515.032	5342.91
515.4	5360.54
515.767	5370.71
516.135	5432.4
516.502	5389.46
516.869	5469.01
517.237	5481.66
517.604	5451.16
517.972	5498.39
518.339	5517.6
518.706	5546.29
519.073	5585.39
519.44	5594.43
519.808	5661.32
520.175	5621.55
520.542	5665.61
520.909	5670.36
521.276	5733.86
521.643	5738.38
522.009	5755.78
522.376	5763.92
522.743	5916.68
523.11	5876.23
523.477	5962.56
523.843	5969.56
524.21	5989.45
524.577	6031.48
524.943	6075.55
525.31	6050.01
525.676	6070.12
526.043	6181.53
526.409	6149.67
526.776	6214.75
527.142	6209.78
527.508	6282.77
527.874	6380.17
528.241	6363.22
528.607	6379.27
528.973	6440.06
529.339	6424.92
529.705	6537.23
530.071	6496.55
530.437	6557.34
530.803	6613.84
531.169	6660.39
531.535	6580.84
531.901	6648.86
532.267	6637.79
532.632	6725.47
532.998	6729.99
533.364	6765.47
533.73	6804.11
534.095	6895.86
534.461	6842.53
534.826	6922.76
535.192	6870.55
535.557	6965.92
535.923	6930.44
536.288	6956.88
536.653	7026.03
537.019	7044.11
537.384	7079.36
537.749	7068.06
538.114	7089.53
538.479	7123.88
538.845	7142.64
539.21	7104.67
539.575	7169.08
539.94	7265.12
540.305	7262.63
540.67	7319.13
541.034	7304.44
541.399	7341.05
541.764	7397.77
542.129	7369.75
542.494	7402.52
542.858	7438.67
543.223	7497.66
543.587	7540.59
543.952	7603.42
544.316	7654.94
544.681	7541.04
545.045	7605.9
545.41	7661.27
545.774	7673.92
546.138	7725.22
546.503	7744.2
546.867	7745.79
547.231	7811.09
547.595	7849.29
547.959	7874.14
548.324	7881.6
548.688	7891.32
549.052	7869.17
549.416	7971.09
549.779	8005.67
550.143	8015.83
550.507	8031.43
550.871	8117.98
551.235	8115.04
551.599	8139.67
551.962	8098.09
552.326	8225.32
552.689	8206.79
553.053	8187.58
553.417	8250.18
553.78	8366.79
554.143	8321.59
554.507	8332.66
554.87	8349.61
555.234	8449.5
555.597	8475.03
555.96	8451.76
556.323	8444.52
556.686	8503.28
557.05	8529.49
557.413	8597.29
557.776	8641.58
558.139	8648.59
558.502	8640.9
558.865	8649.49
559.228	8771.07
559.59	8690.17
559.953	8747.34
560.316	8841.8
560.679	8877.73
561.041	8858.52
561.404	8894.68
561.767	8983.27
562.129	8945.53
562.492	9020.55
562.854	9096.71
563.217	9015.81
563.579	9047.45
563.941	9164.5
564.304	9183.49
564.666	9209.48
565.028	9299.64
565.39	9208.8
565.753	9325.86
566.115	9351.39
566.477	9326.53
566.839	9481.56
567.201	9489.92
567.563	9433.42
567.925	9537.6
568.287	9540.31
568.648	9585.28
569.01	9659.86
569.372	9677.03
569.734	9609.46
570.095	9731.95
570.457	9755
570.819	9772.4
571.18	9853.53
571.542	9933.07
571.903	9933.3
572.265	9947.76
572.626	9985.05
572.987	10024.14
573.349	10069.79
573.71	10174.42
574.071	10239.05
574.432	10272.05
574.794	10349.78
575.155	10367.86
575.516	10404.47
575.877	10453.96
576.238	10552.26
576.599	10594.98
576.96	10694.18
577.32	10745.71
577.681	10836.1
578.042	10992.93
578.403	11052.14
578.763	11072.93
579.124	11181.63
579.485	11375.52
579.845	11415.75
580.206	11481.96
580.566	11597.89
580.927	11742.06
581.287	11851.44
581.648	11845.56
582.008	12112
582.368	12180.24
582.728	12418.66
583.089	12493.23
583.449	12679.44
583.809	12798.99
584.169	13013.9
584.529	13133.89
584.889	13462.92
585.249	13527.33
585.609	13697.49
585.969	13970.71
586.329	14031.72
586.688	14383.8
587.048	14606.4
587.408	14737.47
587.768	14958.02
588.127	15145.14
588.487	15311.24
588.846	15770.43
589.206	15765.24
589.565	16180.37
589.925	16421.94
590.284	16617.19
590.643	16898.09
591.003	17293.33
591.362	17555.02
591.721	17767.89
592.08	18018.51
592.44	18418.72
592.799	18646.74
593.158	18947.75
593.517	19182.32
593.876	19511.58
594.235	19743.66
594.593	20058.46
594.952	20394.72
595.311	20734.14
595.67	21019.79
596.029	21376.16
596.387	21709.03
596.746	22045.3
597.104	22247.55
597.463	22394.89
597.822	22953.75
598.18	23146.06
598.538	23384.7
598.897	23858.36
599.255	23968.18
599.613	24568.62
599.972	24797.31
600.33	25028.04
600.688	25270.97
601.046	25730.4
601.404	26135.58
601.762	26263.04
602.12	26709.35
602.478	26979.86
602.836	27331.71
603.194	27381.2
603.552	27858.7
603.91	27948.87
604.268	28502.75
604.625	28655.52
604.983	28885.12
605.341	29056.64
605.698	29480.35
606.056	29804.87
606.413	30021.36
606.771	30306.77
607.128	30538.41
607.485	30685.97
607.843	30826.53
608.2	31351.49
608.557	31680.07
608.914	31812.27
609.272	32206.84
609.629	32442.99
609.986	32781.06
610.343	32654.51
610.7	33085.01
611.057	33170.88
611.414	33389.63
611.771	33649.06
612.127	33999.33
612.484	34185.32
612.841	34324.75
613.198	34514.57
613.554	34582.14
613.911	34951.85
614.267	35049.25
614.624	35263.48
614.98	35436.81
615.337	35808.1
615.693	35928.09
616.05	36080.86
616.406	36364.92
616.762	36450.12
617.118	36522.2
617.475	36631.81
617.831	36890.1
618.187	37093.49
618.543	37261.62
618.899	37563.98
619.255	37504.32
619.611	37766.24
619.967	37953.35
620.323	38222.95
620.678	38022.05
621.034	38031.09
621.39	38350.63
621.746	38232.89
622.101	38820.22
622.457	38562.38
622.812	38763.27
623.168	38958.52
623.523	39041.91
623.879	39324.16
624.234	39105.86
624.589	39365.74
624.945	39403.48
625.3	39558.96
625.655	39649.35
626.01	39657.26
626.365	39803.93
626.72	39812.29
627.075	39850.7
627.43	39749.24
627.785	39837.82
628.14	40028.78
628.495	40184.71
628.85	40117.82
629.205	40040.3
629.559	40324.14
629.914	40201.43
630.269	40299.73
630.623	40214.31
630.978	40403.91
631.332	40384.02
631.687	40516
632.041	40509.67
632.396	40635.09
632.75	40418.15
633.104	40509.44
633.459	40458.82
633.813	40455.66
634.167	40432.38
634.521	40492.27
634.875	40589.22
635.229	40632.6
635.583	40353.52
635.937	40387.64
636.291	40541.53
636.645	40673.05
636.999	40512.61
637.352	40574.53
637.706	40408.43
638.06	40499.27
638.413	40530.46
638.767	40513.29
639.121	40563.23
639.474	40352.61
639.828	40547.18
640.181	40455.66
640.534	40466.05
640.888	40477.81
641.241	40367.3
641.594	40450.91
641.947	40562.78
642.301	40477.58
642.654	40532.04
643.007	40444.13
643.36	40509.67
643.713	40456.34
644.066	40607.07
644.419	40389.9
644.771	40146.06
645.124	39753.98
645.477	39585.63
645.83	39475.8
646.182	39415.23
646.535	39178.18
646.888	39439.64
647.24	39198.74
647.593	39370.72
647.945	39259.98
648.298	39198.52
648.65	39048.69
649.002	39075.36
649.355	39250.72
649.707	39141.12
650.059	39300.66
650.411	39878.95
650.763	39800.76
651.115	40130.02
651.467	40118.49
651.819	40032.17
652.171	40002.56
652.523	39982.45
652.875	39985.62
653.227	39811.61
653.578	40056.8
653.93	40007.76
654.282	39829.24
654.633	39749.92
654.985	39844.83
655.337	39843.02
655.688	39914.2
656.039	39972.51
656.391	39704.04
656.742	39674.66
657.094	39649.8
657.445	39979.74
657.796	39766.41
658.147	39855.22
658.498	39646.19
658.849	39826.3
659.2	39666.3
659.551	39565.97
659.902	39753.53
660.253	39664.95
660.604	39862
660.955	39603.7
661.306	39737.94
661.656	39619.75
662.007	39560.99
662.358	39699.75
662.708	39626.3
663.059	39666.53
663.409	39502.92
663.76	39741.1
664.11	39784.04
664.461	39725.51
664.811	39626.53
665.161	39527.55
665.511	39560.99
665.862	39607.32
666.212	39681.22
666.562	39700.43
666.912	39568.68
667.262	39513.76
667.612	39684.83
667.962	39549.69
668.312	39537.94
668.662	39784.04
669.011	39575.68
669.361	39486.42
669.711	39497.94
670.06	39390.83
670.41	39469.47
670.76	39447.32
671.109	39526.87
671.459	39395.12
671.808	39344.05
672.157	39442.35
672.507	39115.58
672.856	39349.25
673.205	39334.11
673.554	39422.92
673.904	39200.78
674.253	39544.95
674.602	39331.17
674.951	38683.95
675.3	38603.05
675.649	39216.6
675.998	39207.78
676.346	39118.75
676.695	39384.05
677.044	38972.99
677.393	39021.8
677.741	39025.41
678.09	38990.84
678.438	39002.36
678.787	39088.24
679.135	39138.63
679.484	38949.71
679.832	38939.99
680.181	38789.71
680.529	38678.53
680.877	38712.43
681.225	38722.15
681.573	38871.97
681.922	38653.67
682.27	38448.25
682.618	38577.29
682.966	38357.86
683.314	38586.33
683.661	38445.99
684.009	38140.01
684.357	38178.21
684.705	38049.85
685.053	38244.64
685.4	38231.09
685.748	37915.16
686.095	38050.07
686.443	37961.49
686.79	37834.94
687.138	38000.13
687.485	37832.23
687.832	37627.49
688.18	37643.3
688.527	37471.78
688.874	37563.53
689.221	37446.25
689.568	37420.49
689.915	37251.9
690.262	37194.5
690.609	37161.73
690.956	36966.03
691.303	37040.16
691.65	36710.45
691.997	36794.96
692.344	36715.19
692.69	36560.62
693.037	36718.58
693.383	36280.63
693.73	36546.16
694.077	36204.92
694.423	36270.01
694.769	36076.11
695.116	36030.24
695.462	35996.34
695.808	35880.86
696.155	35902.11
696.501	35687.88
696.847	35604.04
697.193	35388.22
697.539	35617.37
697.885	35256.02
698.231	35123.82
698.577	35194.78
698.923	35186.65
699.269	35091.73
699.614	34859.87
699.96	34793.21
700.306	34835.47
700.651	34554.12
700.997	34520.9
701.342	34484.07
701.688	34490.62
702.033	34327.91
702.379	34340.79
702.724	34138.09
703.069	34407.91
703.415	33893.35
703.76	33795.04
704.105	34073.45
704.45	33847.92
704.795	33570.64
705.14	33676.4
705.485	33538.55
705.83	33486.13
706.175	33398.44
706.52	33480.48
706.865	33174.27
707.209	33166.13
707.554	33060.6
707.899	33196.42
708.243	32908.29
708.588	32909.19
708.932	32596.88
709.277	32624.45
709.621	32839.81
709.966	32467.39
710.31	32691.57
710.654	32263.56
710.998	32320.96
711.342	32423.55
711.687	32260.85
712.031	32111.02
712.375	31961.42
712.719	32090.68
713.063	32020.18
713.407	32154.63
713.75	31895.66
714.094	31942.89
714.438	31865.38
714.782	31797.58
715.125	31563.92
715.469	31687.3
715.812	31534.31
716.156	31335.22
716.499	31414.09
716.843	31317.59
717.186	31176.36
717.53	31462.45
717.873	31316.92
718.216	31357.82
718.559	31123.7
718.902	30857.49
719.246	30935.23
719.589	30817.49
719.932	30751.06
720.275	30800.32
720.617	30810.94
720.96	30603.26
721.303	30635.35
721.646	30642.36
721.989	30499.99
722.331	30637.39
722.674	30384.96
723.016	30466.54
723.359	30399.88
723.701	30377.05
724.044	30180.22
724.386	30074.01
724.729	30314.01
725.071	30066.1
725.413	30001.7
725.755	30125.99
726.097	29916.73
726.439	29871.98
726.782	29766
727.124	29907.69
727.465	29745.43
727.807	29696.17
728.149	29770.29
728.491	29653.46
728.833	29656.62
729.175	29555.38
729.516	29518.09
729.858	29509.05
730.199	29393.35
730.541	29432.45
730.882	29428.6
731.224	29451.65
731.565	29194.03
731.906	29248.04
732.248	29285.78
732.589	29129.4
732.93	28990.42
733.271	28955.62
733.612	28959.01
733.953	29067.71
734.294	28854.61
734.635	28897.32
734.976	28959.69
735.317	28800.82
735.658	28793.82
735.999	28664.33
736.339	28634.05
736.68	28809.41
737.021	28634.05
737.361	28598.34
737.702	28657.55
738.042	28607.38
738.383	28576.42
738.723	28584.11
739.063	28390.44
739.404	28488.52
739.744	28298.92
740.084	28247.39
740.424	28341.4
740.764	28227.73
741.104	28447.16
741.444	28139.37
741.784	28155.87
742.124	28116.55
742.464	28016.44
742.804	28120.39
743.143	27899.83
743.483	28058.7
743.823	27837.91
744.162	27738.71
744.502	27870.91
744.841	27865.48
745.181	27811.7
745.52	27776.9
745.86	27779.83
746.199	27654.19
746.538	27627.75
746.877	27668.2
747.216	27687.41
747.556	27645.15
747.895	27538.94
748.234	27519.05
748.573	27427.53
748.911	27482.22
749.25	27391.82
749.589	27268.21
749.928	27424.82
750.267	27429.56
750.605	27256.01
750.944	27283.12
751.283	27121.09
751.621	27292.62
751.96	26997.03
752.298	26951.16
752.636	27093.75
752.975	26906.41
753.313	26813.98
753.651	26846.53
753.989	26763.59
754.327	26695.8
754.666	26652.18
755.004	26578.96
755.342	26647.43
755.679	26537.38
756.017	26338.52
756.355	26624.61
756.693	26383.26
757.031	26309.14
757.368	26287.67
757.706	26231.85
758.044	26134.45
758.381	26151.4
758.719	26033.44
759.056	26098.3
759.394	25932.88
759.731	25748.02
760.068	25818.98
760.405	25710.74
760.743	25645.65
761.08	25707.8
761.417	25607.91
761.754	25482.04
762.091	25522.49
762.428	25389.39
762.765	25245.44
763.102	25323.18
763.438	25176.74
763.775	25111.43
764.112	25138.32
764.449	25077.31
764.785	25046.35
765.122	24792.57
765.458	24711.89
765.795	24703.31
766.131	24694.49
766.467	24571.56
766.804	24474.16
767.14	24366.59
767.476	24393.48
767.812	24229.65
768.148	24221.06
768.485	24133.6
768.821	23850.9
769.157	24018.8
769.492	23933.83
769.828	23931.8
770.164	23702.65
770.5	23584.01
770.836	23612.71
771.171	23446.84
771.507	23425.37
771.842	23198.03
772.178	23239.61
772.513	23197.58
772.849	23144.48
773.184	22925.95
773.519	23011.82
773.855	22850.25
774.19	22780.87
774.525	22657.71
774.86	22709.91
775.195	22592.4
775.53	22580.65
775.865	22398.96
776.2	22293.2
776.535	22203.48
776.87	22242.13
777.205	21990.83
777.539	22022.25
777.874	21972.76
778.209	21872.42
778.543	21777.96
778.878	21612.54
779.212	21570.28
779.547	21477.18
779.881	21576.83
780.215	21404.86
780.55	21447.12
780.884	21336.84
781.218	21217.52
781.552	21284.86
781.886	21135.94
782.22	20918.55
782.554	20942.27
782.888	20709.74
783.222	20620.02
783.556	20625.9
783.889	20664.54
784.223	20402.18
784.557	20350.65
784.89	20377.32
785.224	20330.31
785.557	20199.69
785.891	20088.74
786.224	20053.71
786.558	20101.39
786.891	19810.78
787.224	19810.55
787.557	19787.05
787.891	19704.57
788.224	19582.76
788.557	19583.44
788.89	19576.43
789.223	19499.83
789.556	19375.99
789.888	19303.45
790.221	19242.88
790.554	19097.58
790.887	19036.34
791.219	19038.14
791.552	18921.99
791.884	18915.66
792.217	18908.66
792.549	18875.44
792.882	18748.89
793.214	18558.38
793.546	18666.18
793.879	18528.55
794.211	18397.26
794.543	18456.01
794.875	18303.93
795.207	18355.68
795.539	18243.14
795.871	18240.65
796.203	18058.96
796.535	17959.53
796.867	18029.36
797.198	18018.51
797.53	17916.14
797.862	17779.42
798.193	17795.69
798.525	17669.14
798.856	17668.46
799.188	17581.01
799.519	17436.6
799.85	17343.72
800.182	17321.58
800.513	17380.79
800.844	17234.35
801.175	17316.83
801.506	17246.33
801.837	17221.69
802.168	17146.22
802.499	16988.03
802.83	16994.36
803.161	16891.76
803.491	16832.33
803.822	16901.02
804.153	16840.46
804.483	16688.15
804.814	16656.74
805.145	16606.57
805.475	16620.58
805.805	16476.63
806.136	16501.49
806.466	16571.32
806.796	16443.18
807.126	16428.27
807.457	16331.32
807.787	16350.53
808.117	16160.48
808.447	16168.39
808.777	16266.46
809.107	16029.41
809.436	16030.99
809.766	16040.03
810.096	15945.8
810.426	15935.85
810.755	15929.3
811.085	15924.33
811.414	15816.76
811.744	15689.08
812.073	15703.32
812.403	15726.82
812.732	15625.58
813.061	15673.03
813.39	15504.9
813.719	15506.03
814.049	15599.14
814.378	15460.84
814.707	15366.83
815.036	15378.13
815.365	15222.42
815.693	15216.1
816.022	15219.94
816.351	15133.61
816.68	15035.99
817.008	15046.38
817.337	14947.4
817.665	14916.9
817.994	15000.28
818.322	14970.23
818.651	14865.82
818.979	14713.06
819.307	14913.05
819.636	14766.62
819.964	14697.69
820.292	14788.31
820.62	14774.75
820.948	14669.67
821.276	14761.87
821.604	14608.66
821.932	14669.9
822.259	14763
822.587	14656.11
822.915	14688.2
823.243	14557.36
823.57	14606.4
823.898	14694.53
824.225	14493.63
824.553	14675.32
824.88	14608.2
825.207	14643.68
825.535	14592.38
825.862	14656.79
826.189	14511.03
826.516	14561.65
826.843	14629.9
827.17	14633.29
827.497	14551.93
827.824	14622.44
828.151	14686.62
828.478	14610.92
828.805	14607.75
829.131	14540.86
829.458	14607.3
829.785	14513.97
830.111	14575.21
830.438	14665.83
830.764	14624.7
831.09	14578.15
831.417	14437.13
831.743	14494.31
832.069	14571.37
832.395	14492.27
832.722	14528.66
833.048	14448.66
833.374	14539.5
833.7	14297.93
834.026	14330.7
834.351	14424.71
834.677	14462.67
835.003	14405.72
835.329	14338.61
835.654	14419.28
835.98	14346.52
836.306	14365.05
836.631	14259.06
836.956	14260.64
837.282	14330.02
837.607	14262.9
837.932	14214.32
838.258	14255.22
838.583	14162.79
838.908	14095.67
839.233	14094.09
839.558	14027.2
839.883	14004.15
840.208	13979.97
840.533	13926.19
840.858	13990.82
841.182	13988.78
841.507	13977.94
841.832	13890.03
842.156	13823.82
842.481	13909.01
842.805	13832.4
843.13	13836.47
843.454	13693.43
843.778	13714.67
844.103	13630.83
844.427	13549.7
844.751	13608.46
845.075	13619.3
845.399	13583.6
845.723	13513.09
846.047	13504.5
846.371	13338.18
846.695	13463.6
847.019	13227.9
847.343	13218.86
847.666	13211.63
847.99	13065.65
848.313	13084.63
848.637	13005.99
848.96	13057.28
849.284	12942.03
849.607	12868.59
849.931	12832.88
850.254	12695.26
850.577	12700.68
850.9	12611.42
851.223	12597.18
851.546	12591.31
851.869	12483.74
852.192	12543.62
852.515	12388.37
852.838	12357.64
853.161	12391.99
853.483	12377.08
853.806	12277.87
854.129	12150.64
854.451	12178.66
854.774	12085.78
855.096	12067.48
855.419	12007.82
855.741	11987.93
856.063	11932.12
856.385	11881.5
856.708	11873.13
857.03	11852.57
857.352	11808.5
857.674	11773.93
857.996	11686.47
858.318	11605.12
858.64	11710.88
858.961	11620.71
859.283	11588.62
859.605	11546.82
859.926	11556.31
860.248	11505.91
860.57	11427.04
860.891	11479.25
861.212	11361.96
861.534	11353.37
861.855	11304.56
862.176	11299.14
862.498	11276.09
862.819	11353.15
863.14	11334.62
863.461	11235.18
863.782	11187.05
864.103	11207.39
864.424	11150.67
864.745	11205.81
865.065	11139.82
865.386	11093.04
865.707	11068.86
866.027	11104.57
866.348	11053.04
866.668	11036.09
866.989	10984.34
867.309	10985.47
867.63	10986.38
867.95	10983.44
868.27	10919.26
868.59	10903.22
868.91	10888.98
869.23	10843.1
869.55	10833.61
869.87	10877.68
870.19	10876.32
870.51	10793.61
870.83	10870.45
871.15	10768.76
871.469	10812.37
871.789	10780.06
872.109	10705.93
872.428	10604.24
872.748	10710.68
873.067	10701.19
873.386	10711.36
873.706	10612.83
874.025	10599.95
874.344	10548.65
874.663	10577.8
874.982	10531.25
875.301	10540.51
875.62	10526.73
875.939	10612.15
876.258	10537.35
876.577	10496.9
876.896	10505.03
877.214	10423.91
877.533	10368.77
877.852	10378.48
878.17	10343.68
878.489	10361.54
878.807	10340.97
879.125	10345.94
879.444	10242.67
879.762	10313.63
880.08	10332.16
880.398	10218.94
880.716	10267.98
881.034	10204.03
881.352	10187.75
881.67	10150.47
881.988	10224.82
882.306	10115.44
882.624	10142.11
882.941	10074.31
883.259	10075.67
883.577	10012.39
883.894	10010.58
884.212	9977.59
884.529	9995.44
884.846	9945.5
885.164	9906.41
885.481	9860.53
885.798	9820.76
886.115	9806.75
886.432	9839.74
886.75	9821.89
887.067	9853.07
887.383	9768.1
887.7	9879.06
888.017	9703.02
888.334	9756.13
888.651	9696.02
888.967	9650.37
889.284	9617.83
889.6	9602.23
889.917	9536.02
890.233	9514.33
890.55	9507.55
890.866	9513.87
891.182	9473.2
891.498	9449.92
891.815	9402.69
892.131	9332.86
892.447	9365.4
892.763	9251.28
893.079	9339.19
893.395	9261.68
893.71	9199.53
894.026	9251.51
894.342	9180.1
894.657	9133.09
894.973	9120.21
895.289	9100.55
895.604	9081.34
895.92	9046.77
896.235	8956.6
896.55	9042.7
896.865	8869.37
897.181	8896.49
897.496	8925.64
897.811	8867.56
898.126	8877.51
898.441	8830.28
898.756	8755.48
899.071	8717.74
899.386	8723.84
899.7	8647.46
900.015	8616.72
900.33	8489.95
900.644	8616.04
900.959	8577.4
901.273	8451.98
901.588	8491.08
901.902	8441.59
902.216	8449.5
902.531	8379.21
902.845	8398.2
903.159	8301.02
903.473	8322.72
903.787	8284.3
904.101	8234.81
904.415	8217.64
904.729	8186.45
905.042	8161.59
905.356	8121.82
905.67	8128.15
905.984	8122.95
906.297	8049.28
906.611	7984.42
906.924	8051.99
907.237	8015.83
907.551	7946.68
907.864	7916.18
908.177	7847.93
908.491	7830.53
908.804	7849.06
909.117	7787.14
909.43	7638.44
909.743	7707.37
910.056	7702.17
910.368	7695.62
910.681	7664.88
910.994	7590.53
911.307	7532.68
911.619	7525.45
911.932	7582.63
912.244	7428.96
912.557	7459.69
912.869	7402.97
913.181	7364.55
913.494	7310.09
913.806	7308.73
914.118	7244.56
914.43	7250.2
914.742	7225.35
915.054	7197.32
915.366	7212.01
915.678	7112.36
915.99	7073.49
916.302	7046.59
916.613	7002.53
916.925	6981.96
917.236	6967.73
917.548	6903.77
917.859	6946.71
918.171	6897.22
918.482	6837.56
918.794	6837.11
919.105	6856.54
919.416	6756.66
919.727	6775.64
920.038	6721.86
920.349	6684.12
920.66	6633.27
920.971	6667.62
921.282	6626.04
921.593	6555.08
921.903	6566.38
922.214	6531.13
922.525	6519.6
922.835	6442.32
923.146	6440.06
923.456	6437.8
923.767	6365.71
924.077	6416.78
924.387	6325.48
924.697	6315.31
925.008	6291.81
925.318	6274.86
925.628	6225.15
925.938	6228.99
926.248	6110.57
926.558	6148.99
926.867	6140.86
927.177	6094.08
927.487	6065.38
927.796	6011.59
928.106	5998.71
928.416	5984.02
928.725	5992.16
929.034	5965.04
929.344	5939.96
929.653	5936.34
929.962	5803.46
930.271	5878.26
930.581	5802.11
930.89	5832.39
931.199	5732.05
931.508	5722.11
931.817	5747.87
932.125	5702.45
932.434	5704.48
932.743	5659.06
933.051	5607.31
933.36	5590.14
933.669	5542.45
933.977	5565.28
934.286	5528.89
934.594	5469.23
934.902	5492.28
935.21	5445.73
935.519	5418.61
935.827	5402.57
936.135	5403.93
936.443	5376.36
936.751	5346.07
937.059	5299.07
937.367	5287.09
937.674	5301.56
937.982	5287.32
938.29	5237.83
938.597	5153.31
938.905	5134.55
939.213	5131.62
939.52	5091.62
939.827	5099.3
940.135	5078.74
940.442	5082.8
940.749	5030.38
941.056	5095.23
941.363	4988.34
941.67	4977.72
941.977	4977.95
942.284	4915.12
942.591	4956.48
942.898	4900.44
943.205	4859.31
943.511	4885.3
943.818	4851.85
944.125	4841.23
944.431	4789.7
944.738	4736.15
945.044	4681.91
945.35	4667.45
945.657	4658.86
945.963	4723.94
946.269	4662.7
946.575	4621.8
946.881	4591.52
947.187	4624.74
947.493	4609.82
947.799	4551.97
948.105	4587.45
948.41	4536.15
948.716	4499.99
949.022	4499.32
949.327	4452.31
949.633	4443.05
949.938	4449.83
950.244	4429.94
950.549	4364.86
950.854	4356.95
951.16	4373.9
951.465	4346.55
951.77	4327.34
952.075	4310.62
952.38	4289.15
952.685	4300.9
952.99	4234.24
953.294	4215.48
953.599	4224.52
953.904	4178.42
954.209	4129.83
954.513	4161.92
954.818	4116.73
955.122	4100.68
955.426	4118.31
955.731	4060.46
956.035	4046.22
956.339	4017.07
956.643	4048.48
956.948	3991.53
957.252	3962.83
957.556	4012.78
957.86	3966
958.163	3944.98
958.467	3947.24
958.771	3914.47
959.075	3889.16
959.378	3880.35
959.682	3880.58
959.985	3820.46
960.289	3776.62
960.592	3800.8
960.896	3795.38
961.199	3811.2
961.502	3758.77
961.805	3747.02
962.108	3709.96
962.411	3677.87
962.714	3737.08
963.017	3673.58
963.32	3657.53
963.623	3626.57
963.926	3600.36
964.228	3590.41
964.531	3570.75
964.833	3556.29
965.136	3513.58
965.438	3561.04
965.741	3508.83
966.043	3532.11
966.345	3506.8
966.648	3498.21
966.95	3484.88
967.252	3434.71
967.554	3421.15
967.856	3420.25
968.158	3414.6
968.46	3410.08
968.761	3349.52
969.063	3368.5
969.365	3407.37
969.666	3347.93
969.968	3307.94
970.269	3267.94
970.571	3306.13
970.872	3274.26
971.174	3267.03
971.475	3265.68
971.776	3269.97
972.077	3243.53
972.378	3236.53
972.679	3175.51
972.98	3217.54
973.281	3142.29
973.582	3157.21
973.883	3182.06
974.183	3143.19
974.484	3074.72
974.785	3122.86
975.085	3104.78
975.386	3117.88
975.686	3107.71
975.986	3031.33
976.287	3056.42
976.587	3002.41
976.887	2974.61
977.187	2985.01
977.487	2973.71
977.787	2955.4
978.087	2978.68
978.387	2942.97
978.687	2907.04
978.987	2888.74
979.286	2938.23
979.586	2900.49
979.885	2883.31
980.185	2867.95
980.484	2856.65
980.784	2844.67
981.083	2841.73
981.382	2842.86
981.682	2832.02
981.981	2808.74
982.28	2797.44
982.579	2760.38
982.878	2764.67
983.177	2708.63
983.475	2715.18
983.774	2726.71
984.073	2700.27
984.372	2674.05
984.67	2672.47
984.969	2684.22
985.267	2667.95
985.566	2644
985.864	2673.15
986.162	2636.99
986.461	2569.88
986.759	2613.04
987.057	2573.94
987.355	2563.77
987.653	2550.89
987.951	2549.76
988.249	2528.75
988.547	2515.64
988.844	2505.47
989.142	2542.53
989.44	2503.66
989.737	2473.83
990.035	2480.84
990.332	2439.26
990.63	2426.38
990.927	2450.11
991.224	2460.95
991.521	2434.51
991.819	2406.04
992.116	2402.65
992.413	2395.64
992.71	2383.89
993.006	2388.64
993.303	2342.54
993.6	2326.49
993.897	2312.48
994.193	2325.59
994.49	2294.85
994.787	2272.71
995.083	2277
995.379	2287.85
995.676	2264.12
995.972	2252.82
996.268	2241.3
996.565	2187.29
996.861	2249.21
997.157	2206.95
997.453	2189.32
997.749	2196.1
998.044	2222.31
998.34	2157.46
998.636	2140.96
998.932	2141.86
999.227	2148.64
999.523	2148.19
999.818	2084.24
1000.114	2106.61
1000.409	2086.5
1000.704	2073.84
1001	2078.14
1001.295	2063.22
1001.59	2056.22
1001.885	2020.06
1002.18	2024.35
1002.475	2011.92
1002.77	2011.25
1003.065	2010.34
1003.359	1976.45
1003.654	1975.54
1003.949	1976.67
1004.243	1937.35
1004.538	1935.77
1004.832	1917.01
1005.127	1907.75
1005.421	1888.31
1005.715	1907.97
1006.009	1876.11
1006.304	1867.75
1006.598	1858.48
1006.892	1858.26
1007.186	1854.41
1007.48	1839.05
1007.773	1816.22
1008.067	1847.64
1008.361	1799.05
1008.655	1807.86
1008.948	1759.05
1009.242	1756.56
1009.535	1747.3
1009.829	1757.47
1010.122	1755.43
1010.415	1764.25
1010.708	1728.99
1011.001	1683.57
1011.295	1723.34
1011.588	1709.11
1011.881	1681.31
1012.173	1662.33
1012.466	1633.86
1012.759	1668.43
1013.052	1649
1013.344	1651.26
1013.637	1628.66
1013.93	1625.27
1014.222	1596.79
1014.514	1591.37
1014.807	1619.17
1015.099	1599.28
1015.391	1593.18
1015.683	1592.27
1015.976	1524.48
1016.268	1544.14
1016.56	1537.36
1016.851	1545.04
1017.143	1517.7
1017.435	1495.55
1017.727	1510.69
1018.018	1506.85
1018.31	1493.29
1018.602	1480.19
1018.893	1501.66
1019.185	1457.36
1019.476	1438.38
1019.767	1459.62
1020.058	1431.83
1020.35	1418.04
1020.641	1430.24
1020.932	1386.4
1021.223	1399.06
1021.514	1406.74
1021.804	1369.91
1022.095	1351.6
1022.386	1387.31
1022.677	1365.61
1022.967	1358.83
1023.258	1326.29
1023.548	1326.29
1023.839	1317.71
1024.129	1300.76
1024.419	1286.75
1024.709	1281.77
1025	1279.29
1025.29	1283.36
1025.58	1263.92
1025.87	1270.7
1026.16	1225.73
1026.449	1228.22
1026.739	1217.14
1027.029	1222.57
1027.319	1207.88
1027.608	1209.91
1027.898	1192.29
1028.187	1210.59
1028.477	1184.15
1028.766	1153.87
1029.055	1164.04
1029.344	1169.69
1029.634	1158.39
1029.923	1128.56
1030.212	1138.05
1030.501	1131.5
1030.79	1118.39
1031.078	1122.91
1031.367	1122.46
1031.656	1094.89
1031.945	1093.08
1032.233	1106.41
1032.522	1083.14
1032.81	1054.89
1033.099	1087.2
1033.387	1077.03
1033.675	1063.02
1033.963	1039.07
1034.251	1043.14
1034.54	1042.23
1034.828	1027.77
1035.116	1026.41
1035.403	992.97
1035.691	1004.27
1035.979	1017.83
1036.267	1015.34
1036.554	990.71
1036.842	963.36
1037.129	990.48
1037.417	989.58
1037.704	977.6
1037.992	969.01
1038.279	944.61
1038.566	944.83
1038.853	944.83
1039.14	944.83
