Data from hue_22_FLMS001491_00032.txt Node
Date: Tue Feb 07 17:10:01 GMT 2017
User: dcchb
Spectrometer: FLMS00149
Trigger mode: 0
Integration Time (sec): 2.000000E-2
Scans to average: 10
Electric dark correction enabled: true
Nonlinearity correction enabled: false
Boxcar width: 0
XAxis mode: Wavelengths
Number of Pixels in Spectrum: 2048
>>>>>Begin Spectral Data<<<<<
341.393	-3.56
341.776	-3.56
342.16	-3.56
342.543	-92.37
342.927	-60.51
343.31	-71.81
343.693	-56.21
344.077	-76.33
344.46	-49.66
344.843	-64.57
345.226	-36.55
345.61	-28.19
345.993	-21.64
346.376	-19.38
346.759	-2.43
347.142	25.59
347.525	44.12
347.908	64.24
348.291	61.3
348.674	93.16
349.057	138.36
349.44	117.34
349.823	139.04
350.206	160.05
350.588	192.14
350.971	184.68
351.354	215.87
351.737	235.53
352.119	253.16
352.502	252.71
352.884	282.08
353.267	268.3
353.65	293.38
354.032	312.59
354.414	296.09
354.797	307.39
355.179	301.07
355.562	312.59
355.944	309.88
356.326	347.84
356.709	341.74
357.091	338.35
357.473	333.61
357.855	329.99
358.238	320.27
358.62	351.23
359.002	337.9
359.384	329.99
359.766	344.23
360.148	334.06
360.53	348.75
360.912	345.13
361.294	321.86
361.676	334.28
362.057	337.22
362.439	309.88
362.821	313.49
363.203	311.46
363.584	308.07
363.966	334.28
364.348	309.43
364.729	314.4
365.111	320.73
365.493	330.9
365.874	313.95
366.256	296.09
366.637	319.14
367.019	305.59
367.4	308.97
367.781	293.61
368.163	324.34
368.544	303.55
368.925	301.29
369.306	319.14
369.688	301.52
370.069	306.94
370.45	304.46
370.831	307.62
371.212	319.6
371.593	300.61
371.974	324.57
372.355	323.21
372.736	314.4
373.117	346.71
373.498	306.94
373.879	294.96
374.26	324.12
374.641	329.77
375.021	315.98
375.402	323.89
375.783	321.63
376.163	345.13
376.544	355.08
376.925	335.87
377.305	311.91
377.686	338.35
378.066	327.51
378.447	330.67
378.827	328.41
379.208	330.22
379.588	335.41
379.968	336.09
380.349	314.85
380.729	351.23
381.109	346.49
381.489	323.66
381.87	324.12
382.25	358.47
382.63	343.1
383.01	349.2
383.39	338.8
383.77	320.27
384.15	318.24
384.53	355.98
384.91	340.84
385.29	354.62
385.67	335.64
386.049	326.38
386.429	378.58
386.809	355.53
387.189	346.26
387.568	354.85
387.948	356.43
388.328	366.15
388.707	380.61
389.087	372.93
389.466	346.71
389.846	369.54
390.225	372.48
390.605	362.76
390.984	377
391.363	382.65
391.743	360.5
392.122	382.19
392.501	367.28
392.881	377.45
393.26	370.89
393.639	380.84
394.018	384.23
394.397	366.6
394.776	367.05
395.155	401.85
395.534	374.28
395.913	390.78
396.292	395.53
396.671	395.98
397.05	390.55
397.429	394.4
397.808	390.1
398.186	410.67
398.565	399.59
398.944	394.85
399.323	402.08
399.701	407.96
400.08	421.29
400.458	392.59
400.837	407.73
401.215	393.04
401.594	405.02
401.972	409.99
402.351	412.25
402.729	425.13
403.107	425.13
403.486	414.96
403.864	411.8
404.242	446.37
404.62	424.9
404.999	417.22
405.377	433.72
405.755	415.19
406.133	434.85
406.511	424.68
406.889	448.63
407.267	443.21
407.645	437.11
408.023	426.03
408.401	426.49
408.779	434.85
409.156	443.66
409.534	450.89
409.912	444.11
410.29	448.41
410.667	459.93
411.045	456.32
411.422	464.45
411.8	442.98
412.178	470.33
412.555	449.76
412.933	476.88
413.31	495.41
413.687	489.99
414.065	471.68
414.442	485.92
414.819	475.98
415.197	493.15
415.574	510.1
415.951	497.44
416.328	517.11
416.705	518.46
417.082	513.94
417.46	507.61
417.837	537.9
418.214	514.62
418.591	523.66
418.967	522.53
419.344	526.14
419.721	504.68
420.098	534.51
420.475	538.35
420.852	520.04
421.228	546.48
421.605	523.21
421.982	552.36
422.358	553.49
422.735	558.23
423.111	568.18
423.488	565.69
423.864	572.47
424.241	581.06
424.617	577.22
424.994	565.69
425.37	581.96
425.746	584.45
426.123	569.08
426.499	587.39
426.875	590.55
427.251	599.36
427.627	610.44
428.003	617.44
428.379	624.9
428.756	611.57
429.132	646.37
429.507	635.75
429.883	632.13
430.259	641.62
430.635	643.88
431.011	638.91
431.387	664.45
431.763	647.27
432.138	661.51
432.514	671
432.89	648.85
433.265	672.13
433.641	678.91
434.016	668.51
434.392	660.6
434.767	720.49
435.143	712.13
435.518	701.51
435.894	738.57
436.269	723.43
436.644	734.73
437.02	723.88
437.395	764.78
437.77	755.74
438.145	730.21
438.52	751.45
438.895	771.11
439.271	753.03
439.646	793.93
440.021	792.58
440.395	786.48
440.77	785.35
441.145	771.79
441.52	797.55
441.895	804.33
442.27	788.96
442.645	811.56
443.019	812.24
443.394	809.3
443.769	846.81
444.143	806.81
444.518	815.4
444.892	842.29
445.267	838.23
445.641	856.31
446.016	844.55
446.39	858.79
446.764	857.66
447.139	852.01
447.513	859.02
447.887	874.61
448.262	860.37
448.636	863.31
449.01	870.09
449.384	878.68
449.758	901.05
450.132	893.14
450.506	895.4
450.88	910.77
451.254	924.55
451.628	918
452.002	918.45
452.376	966.36
452.75	948.51
453.123	918.9
453.497	965.23
453.871	945.79
454.244	1005.68
454.618	1012.23
454.992	1011.56
455.365	1018.56
455.739	1032.57
456.112	1050.2
456.486	1041.16
456.859	1050.2
457.232	1076.19
457.606	1061.5
457.979	1077.77
458.352	1098.78
458.725	1114.6
459.099	1123.42
459.472	1129.74
459.845	1137.2
460.218	1149.4
460.591	1143.76
460.964	1152.79
461.337	1187.82
461.71	1188.5
462.083	1219.46
462.456	1208.61
462.829	1213.13
463.201	1235.05
463.574	1258.1
463.947	1261.49
464.32	1314.6
464.692	1286.8
465.065	1311.21
465.438	1315.5
465.81	1347.82
466.183	1333.81
466.555	1367.25
466.928	1402.28
467.3	1372.22
467.672	1393.24
468.045	1444.54
468.417	1436.18
468.789	1465.33
469.161	1466.01
469.534	1506.91
469.906	1502.39
470.278	1533.35
470.65	1596.85
471.022	1615.61
471.394	1600.24
471.766	1630.97
472.138	1637.53
472.51	1685.89
472.882	1706.45
473.253	1729.73
473.625	1743.29
473.997	1807.47
474.369	1810.18
474.74	1816.73
475.112	1856.5
475.484	1899.67
475.855	1903.51
476.227	1903.51
476.598	1973.11
476.97	2020.12
477.341	2048.14
477.713	2081.58
478.084	2088.59
478.455	2148.25
478.827	2196.16
479.198	2232.54
479.569	2252.2
479.94	2302.14
480.311	2321.13
480.682	2409.26
481.053	2438.41
481.424	2464.62
481.795	2513.89
482.166	2526.77
482.537	2596.15
482.908	2660.55
483.279	2703.94
483.65	2726.31
484.021	2800.43
484.391	2822.13
484.762	2864.84
485.133	2913.43
485.503	2954.56
485.874	2993.42
486.244	3039.3
486.615	3107.55
486.985	3150.93
487.356	3194.77
487.726	3257.82
488.097	3294.21
488.467	3323.81
488.837	3430.25
489.207	3454.2
489.578	3491.72
489.948	3535.56
490.318	3626.85
490.688	3637.02
491.058	3662.11
491.428	3749.56
491.798	3800.18
492.168	3876.79
492.538	3893.06
492.908	3938.26
493.278	3953.85
493.648	4021.65
494.017	4072.49
494.387	4109.1
494.757	4151.13
495.126	4179.16
495.496	4204.24
495.866	4233.84
496.235	4277.01
496.605	4358.13
496.974	4341.41
497.344	4435.19
497.713	4441.3
498.082	4470.45
498.452	4498.02
498.821	4542.99
499.19	4573.04
499.559	4605.36
499.928	4625.02
500.298	4684.68
500.667	4713.83
501.036	4709.31
501.405	4716.54
501.774	4759.48
502.143	4851
502.512	4840.38
502.88	4871.11
503.249	4890.32
503.618	4900.49
503.987	4975.29
504.356	4955.63
504.724	4996.76
505.093	5037.66
505.462	5063.43
505.83	5045.35
506.199	5126.93
506.567	5185.46
506.936	5169.19
507.304	5241.05
507.672	5222.74
508.041	5302.74
508.409	5288.96
508.777	5335.51
509.145	5372.34
509.514	5374.6
509.882	5400.59
510.25	5408.95
510.618	5459.8
510.986	5470.65
511.354	5474.26
511.722	5545.22
512.09	5576.63
512.458	5580.7
512.826	5649.17
513.193	5647.82
513.561	5678.33
513.929	5748.83
514.297	5706.35
514.664	5822.28
515.032	5758.1
515.4	5836.06
515.767	5858.21
516.135	5905.21
516.502	5784.76
516.869	5948.6
517.237	5921.26
517.604	5935.95
517.972	5976.85
518.339	6000.8
518.706	5963.97
519.073	6042.38
519.44	6095.04
519.808	6130.97
520.175	6124.42
520.542	6204.87
520.909	6243.51
521.276	6194.92
521.643	6291.42
522.009	6304.75
522.376	6370.28
522.743	6358.08
523.11	6398.31
523.477	6464.07
523.843	6531.18
524.21	6559.21
524.577	6579.09
524.943	6617.28
525.31	6636.94
525.676	6710.16
526.043	6728.24
526.409	6766.43
526.776	6798.07
527.142	6787.67
527.508	6857.5
527.874	6931.17
528.241	6921.23
528.607	6971.17
528.973	7085.52
529.339	7018.63
529.705	7124.61
530.071	7106.08
530.437	7153.31
530.803	7210.49
531.169	7243.71
531.535	7276.02
531.901	7313.76
532.267	7326.42
532.632	7310.37
532.998	7411.16
533.364	7443.93
533.73	7496.81
534.095	7498.84
534.461	7525.51
534.826	7594.66
535.192	7605.05
535.557	7675.11
535.923	7626.75
536.288	7707.65
536.653	7711.27
537.019	7696.8
537.384	7725.28
537.749	7769.57
538.114	7810.7
538.479	7774.32
538.845	7897.25
539.21	7887.53
539.575	7930.47
539.94	7962.11
540.305	8013.41
540.67	8031.94
541.034	8016.79
541.399	8056.34
541.764	8145.15
542.129	8178.37
542.494	8198.94
542.858	8137.92
543.223	8183.34
543.587	8271.48
543.952	8272.83
544.316	8299.05
544.681	8330.23
545.045	8358.25
545.41	8490.23
545.774	8456.78
546.138	8490.23
546.503	8515.31
546.867	8490
547.231	8619.04
547.595	8628.76
547.959	8587.18
548.324	8664.91
548.688	8681.18
549.052	8706.27
549.416	8766.38
549.779	8691.58
550.143	8804.57
550.507	8783.78
550.871	8865.81
551.235	8906.04
551.599	8970.44
551.962	8945.13
552.326	8968.86
552.689	9044.79
553.053	9015.41
553.417	9019.03
553.78	9191.68
554.143	9111.68
554.507	9196.88
554.87	9185.13
555.234	9234.16
555.597	9240.04
555.96	9245.92
556.323	9319.81
556.686	9257.21
557.05	9389.41
557.413	9391.22
557.776	9377.89
558.139	9406.14
558.502	9457.21
558.865	9435.97
559.228	9562.97
559.59	9595.28
559.953	9598.22
560.316	9719.57
560.679	9680.48
561.041	9790.76
561.404	9771.55
561.767	9819.91
562.129	9820.36
562.492	9932.68
562.854	9928.16
563.217	9924.32
563.579	9987.36
563.941	10033.46
564.304	10070.53
564.666	10127.25
565.028	10152.78
565.39	10125.44
565.753	10203.63
566.115	10242.5
566.477	10279.11
566.839	10301.03
567.201	10317.98
567.563	10414.47
567.925	10452.21
568.287	10438.88
568.648	10486.79
569.01	10564.3
569.372	10693.56
569.734	10573.56
570.095	10693.79
570.457	10657.63
570.819	10663.05
571.18	10770.39
571.542	10849.94
571.903	10854.46
572.265	10941.01
572.626	10978.07
572.987	10973.33
573.349	11132.19
573.71	11109.37
574.071	11222.13
574.432	11249.03
574.794	11344.62
575.155	11405.86
575.516	11431.39
575.877	11481.11
576.238	11546.19
576.599	11669.81
576.96	11696.92
577.32	11670.94
577.681	11832.06
578.042	11859.86
578.403	11982.79
578.763	12080.19
579.124	12122
579.485	12225.95
579.845	12344.82
580.206	12378.71
580.566	12508.88
580.927	12679.05
581.287	12824.13
581.648	12907.06
582.008	13057.57
582.368	13151.58
582.728	13293.94
583.089	13379.82
583.449	13613.48
583.809	13741.62
584.169	13878.34
584.529	13961.5
584.889	14237.65
585.249	14298.44
585.609	14496.85
585.969	14751.08
586.329	14959.21
586.688	15087.57
587.048	15357.84
587.408	15419.31
587.768	15818.17
588.127	15923.25
588.487	16197.14
588.846	16485.27
589.206	16654.31
589.565	16939.27
589.925	17328.19
590.284	17454.29
590.643	17782.19
591.003	18083.2
591.362	18341.72
591.721	18619
592.08	18880.92
592.44	19156.16
592.799	19481.8
593.158	19639.09
593.517	19959.08
593.876	20338.5
594.235	20578.05
594.593	20870.02
594.952	21195.21
595.311	21438.59
595.67	21840.16
596.029	22286.02
596.387	22583.42
596.746	22789.51
597.104	23059.11
597.463	23255.94
597.822	23652.77
598.18	23854.8
598.538	24161.68
598.897	24612.97
599.255	24707.43
599.613	25439.16
599.972	25484.13
600.33	25932.03
600.688	26196.43
601.046	26441.62
601.404	26803.65
601.762	27153.47
602.12	27341.03
602.478	27762.26
602.836	28125.19
603.194	28195.47
603.552	28540.55
603.91	28845.63
604.268	29206.07
604.625	29458.49
604.983	29855.32
605.341	29960.85
605.698	30293.05
606.056	30646.71
606.413	30917.21
606.771	31250.08
607.128	31476.52
607.485	31604.42
607.843	31916.73
608.2	32270.17
608.557	32644.85
608.914	32617.28
609.272	33084.16
609.629	33359.86
609.986	33766.4
610.343	33746.97
610.7	34204.35
611.057	34158.93
611.414	34465.59
611.771	34742.65
612.127	35026.03
612.484	35153.93
612.841	35521.83
613.198	35643.41
613.554	35672.11
613.911	36188.48
614.267	36434.35
614.624	36482.04
614.98	36759.77
615.337	37079.08
615.693	37223.94
616.05	37169.7
616.406	37599.07
616.762	37656.47
617.118	37759.52
617.475	37888.33
617.831	38275.43
618.187	38329.22
618.543	38487.41
618.899	38836.32
619.255	39062.98
619.611	39026.83
619.967	39349.3
620.323	39445.8
620.678	39415.97
621.034	39490.54
621.39	39607.38
621.746	39691.67
622.101	40377.3
622.457	39976.86
622.812	40181.15
623.168	40365.32
623.523	40598.54
623.879	40756.05
624.234	40557.41
624.589	40699.1
624.945	40880.34
625.3	40956.72
625.655	41071.74
626.01	41086.66
626.365	41206.88
626.72	41249.59
627.075	41240.78
627.43	41356.03
627.785	41423.15
628.14	41478.74
628.495	41606.65
628.85	41720.32
629.205	41601.9
629.559	41772.07
629.914	41673.54
630.269	41750.15
630.623	41881.89
630.978	41902.01
631.332	41972.96
631.687	42133.19
632.041	42026.52
632.396	42105.39
632.75	42046.41
633.104	42240.53
633.459	42147.87
633.813	41954.43
634.167	42157.82
634.521	42133.41
634.875	42257.48
635.229	42057.26
635.583	42016.58
635.937	42035.79
636.291	42206.63
636.645	42208.89
636.999	42106.75
637.352	42431.94
637.706	42145.16
638.06	42245.27
638.413	42129.57
638.767	42090.93
639.121	42240.3
639.474	41975.9
639.828	42035.34
640.181	42252.5
640.534	42200.08
640.888	42244.6
641.241	42089.8
641.594	42134.77
641.947	42254.31
642.301	42124.6
642.654	42231.94
643.007	42214.31
643.36	42146.52
643.713	42075.11
644.066	42119.85
644.419	42002.79
644.771	41805.51
645.124	41441
645.477	41396.03
645.83	41224.96
646.182	40969.37
646.535	41027.23
646.888	41034.01
647.24	40775.48
647.593	41025.42
647.945	40947.68
648.298	40760.57
648.65	40788.14
649.002	40580.23
649.355	40986.78
649.707	40835.37
650.059	40998.3
650.411	41513.54
650.763	41533.2
651.115	41767.77
651.467	41642.35
651.819	41871.5
652.171	41645.06
652.523	41497.04
652.875	41593.54
653.227	41531.85
653.578	41851.39
653.93	41645.74
654.282	41476.03
654.633	41387.22
654.985	41558.74
655.337	41520.32
655.688	41575.01
656.039	41779.75
656.391	41364.39
656.742	41276.26
657.094	41460.89
657.445	41504.28
657.796	41458.4
658.147	41558.06
658.498	41424.96
658.849	41594.67
659.2	41493.65
659.551	41264.73
659.902	41467.67
660.253	41366.88
660.604	41464.28
660.955	41309.48
661.306	41490.49
661.656	41457.72
662.007	41464.05
662.358	41452.98
662.708	41329.82
663.059	41325.52
663.409	41162.14
663.76	41354.45
664.11	41425.41
664.461	41429.02
664.811	41217.28
665.161	41410.72
665.511	41182.7
665.862	41261.8
666.212	41450.94
666.562	41500.21
666.912	41297.73
667.262	41191.06
667.612	41302.93
667.962	41233.55
668.312	41140.9
668.662	41260.44
669.011	41263.38
669.361	41064.51
669.711	41211.18
670.06	41124.4
670.41	41123.95
670.76	41119.2
671.109	41234
671.459	41167.56
671.808	41050.28
672.157	41220.89
672.507	40977.74
672.856	40964.63
673.205	41087.79
673.554	41124.62
673.904	41046.21
674.253	41210.5
674.602	41099.31
674.951	40485.77
675.3	40380.24
675.649	40921.01
675.998	40937.29
676.346	40888.02
676.695	40991.07
677.044	40649.38
677.393	40854.12
677.741	40887.79
678.09	40950.62
678.438	40739.55
678.787	40829.04
679.135	40757.18
679.484	40560.57
679.832	40671.08
680.181	40478.54
680.529	40498.2
680.877	40434.93
681.225	40383.18
681.573	40576.84
681.922	40295.72
682.27	40156.29
682.618	40306.34
682.966	40137.31
683.314	40234.25
683.661	39986.35
684.009	39853.7
684.357	39980.02
684.705	39958.33
685.053	39795.62
685.4	39967.59
685.748	39593.82
686.095	39512.01
686.443	39558.34
686.79	39567.38
687.138	39568.73
687.485	39557.21
687.832	39455.52
688.18	39470.21
688.527	39189.76
688.874	39174.17
689.221	39177.33
689.568	39022.31
689.915	38835.19
690.262	38976.43
690.609	38750
690.956	38753.16
691.303	38670.23
691.65	38531.25
691.997	38499.16
692.344	38385.94
692.69	38359.95
693.037	38302.1
693.383	37909.34
693.73	38115.89
694.077	37922.45
694.423	38020.53
694.769	37804.94
695.116	37694.66
695.462	37642.68
695.808	37575.57
696.155	37580.54
696.501	37304.16
696.847	37416.47
697.193	37131.06
697.539	37192.3
697.885	36894.68
698.231	36842.7
698.577	36897.84
698.923	36860.33
699.269	36595.25
699.614	36530.62
699.96	36503.96
700.306	36416.73
700.651	36207.92
700.997	36055.83
701.342	36237.75
701.688	36028.94
702.033	35995.95
702.379	35955.72
702.724	35897.42
703.069	35835.05
703.415	35508.95
703.76	35497.65
704.105	35509.63
704.45	35453.59
704.795	35201.62
705.14	35127.49
705.485	35096.31
705.83	35037.78
706.175	35098.57
706.52	35009.76
706.865	34878.46
707.209	34814.28
707.554	34682.76
707.899	34559.6
708.243	34610.22
708.588	34356.89
708.932	34265.37
709.277	34249.55
709.621	34334.75
709.966	34011.37
710.31	34109.44
710.654	33849.11
710.998	33791.94
711.342	33855.21
711.687	33765.04
712.031	33672.62
712.375	33646.18
712.719	33470.59
713.063	33558.27
713.407	33626.06
713.75	33469.91
714.094	33440.76
714.438	33170.94
714.782	33186.98
715.125	33192.18
715.469	33150.6
715.812	32997.38
716.156	32844.84
716.499	32896.37
716.843	32924.39
717.186	32782.47
717.53	32801.45
717.873	32727.78
718.216	32896.14
718.559	32535.47
718.902	32466.32
719.246	32582.7
719.589	32377.51
719.932	32191.98
720.275	32227.23
720.617	32184.97
720.96	32088.48
721.303	32120.12
721.646	32184.52
721.989	31917.41
722.331	32039.89
722.674	31824.3
723.016	31977.07
723.359	31809.16
723.701	31905.88
724.044	31636.96
724.386	31537.08
724.729	31685.1
725.071	31502.05
725.413	31559
725.755	31524.43
726.097	31248.27
726.439	31115.4
726.782	31159.69
727.124	31400.59
727.465	31216.86
727.807	31117.2
728.149	31024.33
728.491	31048.28
728.833	31017.09
729.175	30947.04
729.516	30964.89
729.858	30867.72
730.199	30839.47
730.541	30862.07
730.882	30673.37
731.224	30904.78
731.565	30690.1
731.906	30700.72
732.248	30651.23
732.589	30356.55
732.93	30347.51
733.271	30399.03
733.612	30320.39
733.953	30509.31
734.294	30393.38
734.635	30278.58
734.976	30261.63
735.317	30046.27
735.658	30216.89
735.999	30143.44
736.339	30029.32
736.68	30122.2
737.021	30004.92
737.361	29895.54
737.702	30105.48
738.042	29902.32
738.383	29842.89
738.723	29818.71
739.063	29716.56
739.404	29845.37
739.744	29681.54
740.084	29728.54
740.424	29617.13
740.764	29607.87
741.104	29661.65
741.444	29425.72
741.784	29459.39
742.124	29521.31
742.464	29471.37
742.804	29345.27
743.143	29328.32
743.483	29359.96
743.823	29237.93
744.162	29183.24
744.502	29214.88
744.841	29009.46
745.181	29197.03
745.52	29046.52
745.86	29001.55
746.199	28955.45
746.538	28997.71
746.877	29087.43
747.216	28951.39
747.556	28823.93
747.895	28891.5
748.234	28646.99
748.573	28726.53
748.911	28779.19
749.25	28849.69
749.589	28515.24
749.928	28649.25
750.267	28602.47
750.605	28482.02
750.944	28471.85
751.283	28287.45
751.621	28410.16
751.96	28269.6
752.298	28258.97
752.636	28199.32
752.975	28124.29
753.313	28071.86
753.651	28094.01
753.989	28069.83
754.327	27910.74
754.666	27776.05
755.004	27949.83
755.342	27886.1
755.679	27731.98
756.017	27596.84
756.355	27728.37
756.693	27547.13
757.031	27609.5
757.368	27330.19
757.706	27419
758.044	27419.67
758.381	27387.13
758.719	27228.72
759.056	27355.27
759.394	27172.45
759.731	27039.8
760.068	27017.88
760.405	26936.52
760.743	26702.63
761.08	26820.14
761.417	26651.79
761.754	26612.46
762.091	26635.06
762.428	26495.41
762.765	26333.6
763.102	26462.41
763.438	26321.17
763.775	26224.45
764.112	26171.57
764.449	26241.63
764.785	26112.82
765.122	25824.24
765.458	25876.44
765.795	25768.87
766.131	25746.27
766.467	25729.32
766.804	25576.79
767.14	25391.03
767.476	25424.25
767.812	25419.5
768.148	25350.8
768.485	24993.07
768.821	25027.2
769.157	25000.76
769.492	24902.68
769.828	24929.12
770.164	24690.48
770.5	24728.9
770.836	24660.43
771.171	24550.6
771.507	24480.54
771.842	24315.8
772.178	24244.39
772.513	24221.11
772.849	24110.16
773.184	24145.86
773.519	24007.79
773.855	23897.96
774.19	23789.71
774.525	23708.36
774.86	23697.51
775.195	23694.8
775.53	23525.77
775.865	23375.26
776.2	23281.7
776.535	23075.38
776.87	23087.36
777.205	23029.06
777.539	22872.9
777.874	22989.06
778.209	22681.27
778.543	22795.16
778.878	22545.23
779.212	22625.68
779.547	22453.93
779.881	22523.31
780.215	22251.67
780.55	22385
780.884	22241.73
781.218	22165.58
781.552	22085.35
781.886	22044.45
782.22	21899.37
782.554	21842.65
782.888	21700.73
783.222	21655.08
783.556	21422.32
783.889	21528.76
784.223	21259.61
784.557	21339.16
784.89	21263.23
785.224	21131.03
785.557	21043.8
785.891	20958.6
786.224	20959.51
786.558	20942.78
786.891	20780.53
787.224	20686.29
787.557	20566.52
787.891	20541.21
788.224	20592.51
788.557	20487.43
788.89	20422.57
789.223	20405.62
789.556	20215.12
789.888	20181.22
790.221	20051.73
790.554	19910.72
790.887	19991.85
791.219	19876.82
791.552	19924.5
791.884	19690.84
792.217	19619.2
792.549	19645.87
792.882	19598.41
793.214	19429.15
793.546	19456.04
793.879	19326.78
794.211	19179.67
794.543	19267.12
794.875	19161.36
795.207	19170.85
795.539	19015.83
795.871	19054.92
796.203	18917.3
796.535	18807.02
796.867	18708.04
797.198	18688.38
797.53	18698.77
797.862	18654.71
798.193	18577.2
798.525	18514.82
798.856	18463.53
799.188	18246.81
799.519	18230.54
799.85	18121.84
800.182	18183.31
800.513	18128.17
800.844	18007.72
801.175	18095.85
801.506	18023.09
801.837	17986.93
802.168	17857.21
802.499	17826.71
802.83	17716.65
803.161	17662.64
803.491	17697.22
803.822	17604.11
804.153	17612.47
804.483	17427.17
804.814	17393.72
805.145	17365.48
805.475	17262.43
805.805	17264.69
806.136	17207.29
806.466	17233.95
806.796	17200.06
807.126	17105.14
807.457	16969.33
807.787	17051.13
808.117	16955.77
808.447	16907.41
808.777	16838.71
809.107	16781.99
809.436	16689.79
809.766	16763.68
810.096	16599.39
810.426	16598.26
810.755	16603.69
811.085	16513.52
811.414	16501.77
811.744	16319.4
812.073	16398.04
812.403	16361.89
812.732	16276.92
813.061	16134.55
813.39	16164.6
813.719	16146.07
814.049	16177.26
814.378	16077.37
814.707	16003.48
815.036	16066.3
815.365	15951.95
815.693	15851.84
816.022	15886.64
816.351	15778.85
816.68	15771.62
817.008	15771.39
817.337	15591.06
817.665	15626.09
817.994	15653.43
818.322	15540.89
818.651	15497.28
818.979	15408.01
819.307	15545.64
819.636	15499.08
819.964	15435.58
820.292	15427
820.62	15358.07
820.948	15394.23
821.276	15360.78
821.604	15285.53
821.932	15340.9
822.259	15334.57
822.587	15269.49
822.915	15241.92
823.243	15336.83
823.57	15326.66
823.898	15309.71
824.225	15221.35
824.553	15153.33
824.88	15219.54
825.207	15288.24
825.535	15142.26
825.862	15306.77
826.189	15240.33
826.516	15313.33
826.843	15419.76
827.17	15337.96
827.497	15301.12
827.824	15238.98
828.151	15310.16
828.478	15252.31
828.805	15284.85
829.131	15289.15
829.458	15203.72
829.785	15175.48
830.111	15238.98
830.438	15195.59
830.764	15194.46
831.09	15282.82
831.417	15103.61
831.743	15184.52
832.069	15187.68
832.395	15152.2
832.722	15153.33
833.048	15087.57
833.374	15143.61
833.7	15128.47
834.026	15029.27
834.351	15026.55
834.677	15016.61
835.003	15059.55
835.329	15036.27
835.654	15036.95
835.98	14928.25
836.306	14907.46
836.631	14918.31
836.956	14950.62
837.282	14906.33
837.607	14853.9
837.932	14840.8
838.258	14869.27
838.583	14804.86
838.908	14720.57
839.233	14749.27
839.558	14764.19
839.883	14572.33
840.208	14562.16
840.533	14555.15
840.858	14589.05
841.182	14640.12
841.507	14541.14
841.832	14484.87
842.156	14510.41
842.481	14457.3
842.805	14436.29
843.13	14323.52
843.454	14374.82
843.778	14281.49
844.103	14259.34
844.427	14195.16
844.751	14303.64
845.075	14190.87
845.399	14113.58
845.723	14110.19
846.047	14054.83
846.371	13914.04
846.695	13933.7
847.019	13875.4
847.343	13822.52
847.666	13692.58
847.99	13733.48
848.313	13636.99
848.637	13549.98
848.96	13552.47
849.284	13477.22
849.607	13393.83
849.931	13380.27
850.254	13269.09
850.577	13212.14
850.9	13066.15
851.223	13119.26
851.546	13066.61
851.869	13029.77
852.192	13091.01
852.515	12899.38
852.838	12830
853.161	12821.41
853.483	12808.08
853.806	12766.5
854.129	12738.7
854.451	12659.84
854.774	12572.16
855.096	12560.63
855.419	12565.83
855.741	12568.99
856.063	12420.75
856.385	12361.09
856.708	12445.15
857.03	12274.54
857.352	12364.25
857.674	12278.15
857.996	12270.02
858.318	12139.62
858.64	12177.36
858.961	12113.86
859.283	12131.49
859.605	12052.17
859.926	12065.73
860.248	12076.8
860.57	11926.52
860.891	11994.09
861.212	11935.11
861.534	11904.83
861.855	11907.54
862.176	11801.33
862.498	11797.71
862.819	11785.96
863.14	11827.32
863.461	11668.9
863.782	11704.61
864.103	11712.97
864.424	11645.4
864.745	11719.3
865.065	11653.99
865.386	11676.59
865.707	11494.44
866.027	11532.18
866.348	11560.43
866.668	11477.27
866.989	11517.72
867.309	11426.65
867.63	11514.78
867.95	11340.1
868.27	11399.3
868.59	11474.11
868.91	11421
869.23	11386.42
869.55	11244.05
869.87	11335.35
870.19	11273.21
870.51	11227.33
870.83	11300.1
871.15	11274.34
871.469	11273.88
871.789	11276.82
872.109	11256.94
872.428	11141.46
872.748	11134
873.067	11104.62
873.386	10996.38
873.706	11060.1
874.025	10972.42
874.344	11009.94
874.663	11094
874.982	10994.12
875.301	10977.62
875.62	10899.2
875.939	10915.02
876.258	10906.66
876.577	10813.78
876.896	10862.82
877.214	10827.12
877.533	10815.59
877.852	10810.17
878.17	10836.61
878.489	10842.26
878.807	10799.09
879.125	10693.33
879.444	10817.4
879.762	10732.43
880.08	10718.87
880.398	10688.14
880.716	10658.53
881.034	10689.27
881.352	10627.12
881.67	10612.66
881.988	10627.57
882.306	10570.85
882.624	10562.49
882.941	10489.72
883.259	10480.68
883.577	10498.31
883.894	10506.67
884.212	10483.4
884.529	10448.14
884.846	10408.6
885.164	10357.3
885.481	10293.57
885.798	10252.67
886.115	10280.92
886.432	10260.58
886.75	10204.31
887.067	10279.33
887.383	10195.95
887.7	10213.8
888.017	10159.11
888.334	10182.39
888.651	10108.04
888.967	10067.36
889.284	9988.27
889.6	9997.99
889.917	9901.27
890.233	9994.14
890.55	9871.44
890.866	9939.46
891.182	9933.81
891.498	9846.58
891.815	9725.9
892.131	9819.01
892.447	9704.66
892.763	9667.15
893.079	9713.7
893.395	9670.76
893.71	9643.19
894.026	9597.32
894.342	9595.74
894.657	9576.3
894.973	9506.7
895.289	9467.83
895.604	9438
895.92	9419.92
896.235	9346.48
896.55	9339.7
896.865	9348.29
897.181	9297.89
897.496	9316.87
897.811	9237.55
898.126	9157.56
898.441	9156.43
898.756	9201.85
899.071	9110.33
899.386	9100.83
899.7	9027.62
900.015	8999.14
900.33	8957.56
900.644	8927.73
900.959	8992.59
901.273	8823.78
901.588	8819.71
901.902	8850.67
902.216	8792.14
902.531	8784.46
902.845	8730.22
903.159	8675.76
903.473	8681.64
903.787	8617.91
904.101	8558.25
904.415	8613.84
904.729	8554.41
905.042	8483.68
905.356	8464.01
905.67	8466.73
905.984	8382.43
906.297	8358.25
906.611	8269.44
906.924	8316.67
907.237	8323.91
907.551	8315.77
907.864	8224.25
908.177	8206.85
908.491	8149.9
908.804	8154.42
909.117	8043.23
909.43	8018.38
909.743	8042.56
910.056	7976.57
910.368	8026.29
910.681	7917.36
910.994	7889.57
911.307	7837.59
911.619	7786.74
911.932	7846.63
912.244	7749.68
912.557	7714.2
912.869	7675.79
913.181	7659.06
913.494	7624.49
913.806	7606.86
914.118	7584.94
914.43	7534.55
914.742	7577.94
915.054	7468.33
915.366	7454.78
915.678	7425.62
915.99	7367.55
916.302	7289.81
916.613	7290.03
916.925	7299.98
917.236	7268.34
917.548	7245.97
917.859	7232.63
918.171	7154.9
918.482	7105.41
918.794	7090.49
919.105	7115.12
919.416	7055.46
919.727	7044.39
920.038	7050.94
920.349	6934.79
920.66	6950.61
920.971	6919.2
921.282	6894.34
921.593	6863.15
921.903	6806.66
922.214	6808.69
922.525	6762.82
922.835	6734.79
923.146	6671.52
923.456	6697.28
923.767	6611.63
924.077	6621.13
924.387	6568.25
924.697	6602.82
925.008	6516.95
925.318	6492.09
925.628	6498.64
925.938	6440.57
926.248	6433.56
926.558	6385.43
926.867	6423.39
927.177	6323.96
927.487	6334.13
927.796	6306.56
928.106	6284.86
928.416	6278.99
928.725	6223.17
929.034	6172.78
929.344	6207.8
929.653	6220.01
929.962	6104.08
930.271	6051.87
930.581	6057.07
930.89	5977.07
931.199	5980.69
931.508	5969.84
931.817	5955.83
932.125	5950.86
932.434	5907.92
932.743	5850.3
933.051	5777.76
933.36	5806.23
933.669	5752.67
933.977	5728.95
934.286	5728.95
934.594	5731.66
934.902	5673.35
935.21	5650.98
935.519	5663.41
935.827	5669.96
936.135	5550.87
936.443	5575.96
936.751	5545.22
937.059	5575.5
937.367	5506.58
937.674	5537.09
937.982	5466.81
938.29	5464.32
938.597	5423.19
938.905	5393.81
939.213	5381.61
939.52	5402.17
939.827	5354.04
940.135	5248.73
940.442	5285.79
940.749	5231.56
941.056	5265
941.363	5197.89
941.67	5202.63
941.977	5154.5
942.284	5192.69
942.591	5132.35
942.898	5131.9
943.205	5074.5
943.511	5071.56
943.818	5019.36
944.125	5032.01
944.431	4962.64
944.738	4994.95
945.044	4966.48
945.35	4959.93
945.657	4892.36
945.963	4872.24
946.269	4862.98
946.575	4866.37
946.881	4775.98
947.187	4771.23
947.493	4793.15
947.799	4754.28
948.105	4767.16
948.41	4766.03
948.716	4707.96
949.022	4638.35
949.327	4630.22
949.633	4649.43
949.938	4674.96
950.244	4617.11
950.549	4566.72
950.854	4545.02
951.16	4524.68
951.465	4491.69
951.77	4433.39
952.075	4429.32
952.38	4439.26
952.685	4434.06
952.99	4386.61
953.294	4348.64
953.599	4348.42
953.904	4360.62
954.209	4331.24
954.513	4323.56
954.818	4283.33
955.122	4285.59
955.426	4231.58
955.731	4260.74
956.035	4215.31
956.339	4187.29
956.643	4178.48
956.948	4113.39
957.252	4155.88
957.556	4159.27
957.86	4084.24
958.163	4108.88
958.467	4060.97
958.771	4042.89
959.075	4034.75
959.378	4017.8
959.682	4015.54
959.985	3999.27
960.289	3973.96
960.592	3970.35
960.896	3939.16
961.199	3943.91
961.502	3919.95
961.805	3855.32
962.108	3929.22
962.411	3846.28
962.714	3835.21
963.017	3826.4
963.32	3823.68
963.623	3797.24
963.926	3767.87
964.228	3772.84
964.531	3736.68
964.833	3727.87
965.136	3703.24
965.438	3709.11
965.741	3708.43
966.043	3670.69
966.345	3645.38
966.648	3649
966.95	3605.84
967.252	3567.42
967.554	3545.27
967.856	3573.07
968.158	3510.7
968.46	3528.78
968.761	3520.64
969.063	3532.62
969.365	3517.03
969.666	3487.65
969.968	3483.35
970.269	3419.18
970.571	3395.9
970.872	3428.89
971.174	3411.94
971.475	3398.61
971.776	3362.23
972.077	3346.41
972.378	3345.51
972.679	3350.02
972.98	3371.72
973.281	3286.52
973.582	3270.25
973.883	3245.85
974.183	3249.46
974.484	3250.37
974.785	3235.9
975.085	3194.32
975.386	3201.78
975.686	3182.12
975.986	3182.35
976.287	3158.39
976.587	3150.71
976.887	3072.74
977.187	3083.37
977.487	3092.18
977.787	3084.27
978.087	3045.4
978.387	3052.41
978.687	3060.77
978.987	3048.34
979.286	3026.87
979.586	3020.09
979.885	2965.18
980.185	2956.59
980.484	2983.25
980.784	2929.7
981.083	2953.65
981.382	2953.65
981.682	2903.03
981.981	2915.01
982.28	2872.75
982.579	2884.73
982.878	2850.6
983.177	2880.66
983.475	2839.08
983.774	2834.33
984.073	2805.63
984.372	2815.58
984.67	2781.45
984.969	2758.85
985.267	2794.56
985.566	2732.87
985.864	2754.11
986.162	2739.87
986.461	2702.36
986.759	2698.06
987.057	2679.53
987.355	2660.1
987.653	2666.43
987.951	2689.03
988.249	2627.33
988.547	2640.21
988.844	2606.54
989.142	2563.38
989.44	2594.11
989.737	2574.68
990.035	2583.94
990.332	2588.01
990.63	2562.7
990.927	2520.22
991.224	2494.45
991.521	2526.77
991.819	2491.97
992.116	2513.21
992.413	2499.65
992.71	2468.24
993.006	2443.16
993.303	2428.92
993.6	2439.99
993.897	2409.26
994.193	2415.36
994.49	2402.71
994.787	2403.84
995.083	2371.97
995.379	2350.5
995.676	2383.04
995.972	2326.77
996.268	2344.63
996.565	2307.11
996.861	2316.61
997.157	2308.02
997.453	2272.54
997.749	2290.62
998.044	2261.01
998.34	2249.26
998.636	2225.76
998.932	2211.98
999.227	2181.47
999.523	2214.24
999.818	2214.91
1000.114	2182.37
1000.409	2179.43
1000.704	2156.84
1001	2185.99
1001.295	2134.69
1001.59	2127.46
1001.885	2124.97
1002.18	2089.95
1002.475	2074.58
1002.77	2062.38
1003.065	2056.05
1003.359	2060.79
1003.654	2087.69
1003.949	2058.53
1004.243	2042.26
1004.538	1996.39
1004.832	2014.24
1005.127	2019.21
1005.421	1942.38
1005.715	1973.79
1006.009	1968.59
1006.304	1960
1006.598	1938.08
1006.892	1933.56
1007.186	1889.95
1007.48	1936.28
1007.773	1907.8
1008.067	1912.77
1008.361	1876.62
1008.655	1869.39
1008.948	1839.1
1009.242	1858.31
1009.535	1825.09
1009.829	1815.38
1010.122	1807.01
1010.415	1806.79
1010.708	1787.13
1011.001	1764.08
1011.295	1786.22
1011.588	1776.73
1011.881	1749.84
1012.173	1765.21
1012.466	1728.37
1012.759	1739.67
1013.052	1707.13
1013.344	1683.4
1013.637	1685.44
1013.93	1696.28
1014.222	1663.29
1014.514	1649.96
1014.807	1672.78
1015.099	1621.26
1015.391	1623.06
1015.683	1629.62
1015.976	1627.13
1016.268	1608.38
1016.56	1597.98
1016.851	1570.41
1017.143	1574.03
1017.435	1548.49
1017.727	1540.58
1018.018	1533.58
1018.31	1490.41
1018.602	1536.51
1018.893	1484.76
1019.185	1490.86
1019.476	1477.31
1019.767	1497.19
1020.058	1472.11
1020.35	1462.16
1020.641	1456.06
1020.932	1448.83
1021.223	1424.2
1021.514	1437.31
1021.804	1397.76
1022.095	1407.7
1022.386	1388.04
1022.677	1377.42
1022.967	1338.78
1023.258	1390.08
1023.548	1357.76
1023.839	1351.21
1024.129	1351.43
1024.419	1335.39
1024.709	1318.67
1025	1327.48
1025.29	1310.3
1025.58	1313.92
1025.87	1298.55
1026.16	1319.12
1026.449	1301.94
1026.739	1297.88
1027.029	1288.16
1027.319	1251.32
1027.608	1227.14
1027.898	1239.12
1028.187	1249.74
1028.477	1223.75
1028.766	1209.97
1029.055	1212.23
1029.344	1226.01
1029.634	1178.1
1029.923	1171.78
1030.212	1169.07
1030.501	1169.97
1030.79	1180.36
1031.078	1153.02
1031.367	1134.94
1031.656	1149.63
1031.945	1123.42
1032.233	1130.87
1032.522	1127.48
1032.81	1121.16
1033.099	1094.04
1033.387	1090.88
1033.675	1087.49
1033.963	1072.34
1034.251	1080.03
1034.54	1062.85
1034.828	1047.49
1035.116	1054.27
1035.403	1054.49
1035.691	1051.78
1035.979	1039.35
1036.267	1035.28
1036.554	1011.56
1036.842	1014.27
1037.129	1001.16
1037.417	1006.81
1037.704	990.99
1037.992	972.23
1038.279	971.56
1038.566	960.94
1038.853	960.94
1039.14	960.94
