Data from hue_160_FLMS001491_00015.txt Node
Date: Tue Feb 07 16:50:49 GMT 2017
User: dcchb
Spectrometer: FLMS00149
Trigger mode: 0
Integration Time (sec): 2.000000E-2
Scans to average: 10
Electric dark correction enabled: true
Nonlinearity correction enabled: false
Boxcar width: 0
XAxis mode: Wavelengths
Number of Pixels in Spectrum: 2048
>>>>>Begin Spectral Data<<<<<
341.393	-18.3
341.776	-18.3
342.16	-18.3
342.543	-68.02
342.927	-78.87
343.31	-64.41
343.693	-75.03
344.077	-56.72
344.46	-71.41
344.843	-61.47
345.226	-36.84
345.61	-36.84
345.993	-21.69
346.376	-7.23
346.759	6.55
347.142	24.41
347.525	47.46
347.908	58.08
348.291	81.81
348.674	100.79
349.057	112.54
349.44	117.51
349.823	137.85
350.206	175.14
350.588	184.85
350.971	195.93
351.354	228.02
351.737	235.93
352.119	247.23
352.502	262.82
352.884	274.8
353.267	275.02
353.65	284.96
354.032	299.2
354.414	327
354.797	310.05
355.179	319.77
355.562	319.77
355.944	329.71
356.326	343.27
356.709	321.12
357.091	315.25
357.473	342.14
357.855	342.82
358.238	315.25
358.62	342.14
359.002	325.64
359.384	336.26
359.766	339.65
360.148	332.87
360.53	343.04
360.912	342.36
361.294	335.58
361.676	329.93
362.057	329.71
362.439	348.24
362.821	308.47
363.203	337.17
363.584	314.57
363.966	324.74
364.348	328.58
364.729	331.06
365.111	301.24
365.493	343.27
365.874	324.96
366.256	317.96
366.637	295.36
367.019	298.07
367.4	323.38
367.781	313.21
368.163	323.61
368.544	318.41
368.925	306.66
369.306	326.09
369.688	322.93
370.069	315.7
370.45	303.95
370.831	329.26
371.212	318.18
371.593	310.5
371.974	305.53
372.355	327.45
372.736	305.75
373.117	320.9
373.498	327.45
373.879	321.35
374.26	340.78
374.641	316.6
375.021	299.88
375.402	294.23
375.783	330.61
376.163	319.99
376.544	333.1
376.925	324.74
377.305	333.1
377.686	329.03
378.066	329.26
378.447	316.15
378.827	316.15
379.208	328.8
379.588	341.23
379.968	326.77
380.349	336.26
380.729	329.93
381.109	342.14
381.489	344.17
381.87	351.86
382.25	341.69
382.63	353.66
383.01	344.62
383.39	328.58
383.77	345.98
384.15	341.46
384.53	340.33
384.91	344.17
385.29	350.5
385.67	361.8
386.049	353.66
386.429	369.93
386.809	357.5
387.189	360.22
387.568	366.77
387.948	372.87
388.328	377.84
388.707	363.83
389.087	346.88
389.466	365.87
389.846	379.2
390.225	392.31
390.605	357.73
390.984	366.32
391.363	378.07
391.743	358.63
392.122	381.68
392.501	381.23
392.881	393.44
393.26	371.29
393.639	369.93
394.018	385.53
394.397	368.13
394.776	373.55
395.155	384.17
395.534	382.81
395.913	396.6
396.292	384.85
396.671	395.24
397.05	404.96
397.429	399.54
397.808	404.06
398.186	363.15
398.565	383.27
398.944	395.7
399.323	367.9
399.701	386.43
400.08	380.78
400.458	397.05
400.837	392.08
401.215	411.51
401.594	435.47
401.972	404.74
402.351	394.11
402.729	392.98
403.107	410.61
403.486	406.54
403.864	419.42
404.242	402.48
404.62	425.3
404.999	432.53
405.377	388.69
405.755	430.72
406.133	417.16
406.511	424.4
406.889	446.32
407.267	452.87
407.645	445.19
408.023	426.88
408.401	449.48
408.779	442.02
409.156	459.65
409.534	463.94
409.912	445.86
410.29	449.03
410.667	458.75
411.045	453.1
411.422	474.34
411.8	469.59
412.178	468.24
412.555	472.08
412.933	464.62
413.31	486.54
413.687	494.45
414.065	480.67
414.442	482.47
414.819	502.81
415.197	477.73
415.574	500.55
415.951	514.11
416.328	474.79
416.705	503.04
417.082	524.05
417.46	531.51
417.837	533.55
418.214	519.76
418.591	521.57
418.967	508.01
419.344	531.29
419.721	519.53
420.098	542.58
420.475	538.29
420.852	537.61
421.228	547.56
421.605	532.42
421.982	541.45
422.358	545.07
422.735	567.89
423.111	533.32
423.488	547.78
423.864	590.04
424.241	603.15
424.617	570.83
424.994	587.1
425.37	578.29
425.746	599.31
426.123	617.38
426.499	604.28
426.875	591.85
427.251	578.52
427.627	625.07
428.003	621.45
428.379	611.51
428.756	602.92
429.132	624.39
429.507	634.33
429.883	650.6
430.259	639.98
430.635	668.91
431.011	644.05
431.387	664.16
431.763	648.8
432.138	664.16
432.514	677.95
432.89	711.62
433.265	672.52
433.641	710.72
434.016	716.14
434.392	728.34
434.767	711.39
435.143	717.27
435.518	721.11
435.894	708.91
436.269	723.14
436.644	749.58
437.02	731.51
437.395	754.78
437.77	760.21
438.145	754.33
438.52	753.43
438.895	774.22
439.271	789.13
439.646	786.87
440.021	807.66
440.395	802.69
440.77	810.83
441.145	803.37
441.52	831.62
441.895	835.23
442.27	832.75
442.645	838.4
443.019	856.02
443.394	849.7
443.769	838.17
444.143	857.38
444.518	889.69
444.892	861.22
445.267	865.74
445.641	880.2
446.016	878.62
446.39	875.46
446.764	887.43
447.139	907.77
447.513	901.45
447.887	931.73
448.262	906.87
448.636	905.51
449.01	927.21
449.384	946.87
449.758	942.12
450.132	957.04
450.506	963.82
450.88	995.91
451.254	960.65
451.628	988.9
452.002	980.77
452.376	996.81
452.75	1001.56
453.123	1013.98
453.497	1044.49
453.871	1041.55
454.244	1068.45
454.618	1038.16
454.992	1045.62
455.365	1063.47
455.739	1111.84
456.112	1107.99
456.486	1103.47
456.859	1117.94
457.232	1134.21
457.606	1145.28
457.979	1146.86
458.352	1192.96
458.725	1200.87
459.099	1195.22
459.472	1209.23
459.845	1230.7
460.218	1200.87
460.591	1240.87
460.964	1251.72
461.337	1269.12
461.71	1303.47
462.083	1309.34
462.456	1307.54
462.829	1343.02
463.201	1359.74
463.574	1356.57
463.947	1377.82
464.32	1438.38
464.692	1433.63
465.065	1434.54
465.438	1492.16
465.81	1524.93
466.183	1530.13
466.555	1546.85
466.928	1535.55
467.3	1570.81
467.672	1607.87
468.045	1647.19
468.417	1652.39
468.789	1647.19
469.161	1691.71
469.534	1721.31
469.906	1788.88
470.278	1799.73
470.65	1826.17
471.022	1837.69
471.394	1917.69
471.766	1921.31
472.138	1948.2
472.51	1978.48
472.882	2035.65
473.253	2075.88
473.625	2132.15
473.997	2146.16
474.369	2196.1
474.74	2245.59
475.112	2301.86
475.484	2335.08
475.855	2382.54
476.227	2431.8
476.598	2511.12
476.97	2571.91
477.341	2626.37
477.713	2713.15
478.084	2734.39
478.455	2814.16
478.827	2884.67
479.198	3013.93
479.569	3031.11
479.94	3109.52
480.311	3181.39
480.682	3298.9
481.053	3379.12
481.424	3456.18
481.795	3537.76
482.166	3656.4
482.537	3750.18
482.908	3830.63
483.279	3884.64
483.65	4037.41
484.021	4150.17
484.391	4215.48
484.762	4283.28
485.133	4429.94
485.503	4479.88
485.874	4619.77
486.244	4726.2
486.615	4858.18
486.985	4997.83
487.356	5100.43
487.726	5176.14
488.097	5354.89
488.467	5432.63
488.837	5606.63
489.207	5695.22
489.578	5866.29
489.948	5968.2
490.318	6091.59
490.688	6156.22
491.058	6285.71
491.428	6470.56
491.798	6576.1
492.168	6749.88
492.538	6800.05
492.908	6958.69
493.278	7128.17
493.648	7118.23
494.017	7363.87
494.387	7462.85
494.757	7520.03
495.126	7649.97
495.496	7809.29
495.866	7858.32
496.235	7972.45
496.605	8152.33
496.974	8247.01
497.344	8315.94
497.713	8407.46
498.082	8511.64
498.452	8663.95
498.821	8697.62
499.19	8758.19
499.559	8867.56
499.928	8975.36
500.298	9115.92
500.667	9248.8
501.036	9252.19
501.405	9360.43
501.774	9472.07
502.143	9535.12
502.512	9594.32
502.88	9719.74
503.249	9678.16
503.618	9831.61
503.987	9852.85
504.356	9958.16
504.724	10062.79
505.093	10058.27
505.462	10161.77
505.83	10227.98
506.199	10358.15
506.567	10418.03
506.936	10352.95
507.304	10517.24
507.672	10583.22
508.041	10620.74
508.409	10704.35
508.777	10751.36
509.145	10841.3
509.514	10876.78
509.882	10949.09
510.25	10962.65
510.618	10966.94
510.986	11095.53
511.354	11084
511.722	11205.36
512.09	11305.92
512.458	11213.72
512.826	11309.99
513.193	11335.3
513.561	11453.26
513.929	11419.36
514.297	11527.38
514.664	11509.98
515.032	11601.5
515.4	11593.59
515.767	11658
516.135	11756.08
516.502	11637.43
516.869	11760.82
517.237	11770.76
517.604	11746.58
517.972	11822.51
518.339	11838.78
518.706	11889.4
519.073	11894.15
519.44	11949.97
519.808	11950.87
520.175	11908.39
520.542	12059.12
520.909	12101.38
521.276	12102.05
521.643	12097.99
522.009	12163.07
522.376	12173.01
522.743	12213.92
523.11	12350.64
523.477	12352.22
523.843	12374.36
524.21	12398.09
524.577	12478.54
524.943	12471.99
525.31	12465.66
525.676	12572.32
526.043	12518.54
526.409	12580.01
526.776	12636.73
527.142	12636.5
527.508	12609.16
527.874	12632.21
528.241	12557.41
528.607	12622.94
528.973	12644.41
529.339	12589.05
529.705	12755.14
530.071	12737.29
530.437	12746.11
530.803	12655.94
531.169	12721.7
531.535	12725.09
531.901	12657.07
532.267	12666.56
532.632	12697.52
532.998	12736.16
533.364	12665.43
533.73	12614.81
534.095	12653.45
534.461	12646.67
534.826	12630.63
535.192	12599.22
535.557	12655.49
535.923	12589.27
536.288	12579.78
536.653	12576.84
537.019	12469.05
537.384	12477.64
537.749	12406.91
538.114	12426.34
538.479	12344.99
538.845	12394.7
539.21	12351.77
539.575	12313.35
539.94	12195.39
540.305	12261.15
540.67	12212.33
541.034	12187.02
541.399	12214.82
541.764	12179.34
542.129	12123.3
542.494	12116.74
542.858	12005.33
543.223	12022.51
543.587	11988.39
543.952	11997.88
544.316	11979.57
544.681	11954.26
545.045	11887.82
545.41	11902.29
545.774	11822.74
546.138	11837.43
546.503	11818.9
546.867	11759.46
547.231	11787.49
547.595	11710.65
547.959	11703.87
548.324	11659.81
548.688	11653.48
549.052	11622.29
549.416	11568.06
549.779	11509.53
550.143	11459.36
550.507	11485.12
550.871	11469.75
551.235	11371.68
551.599	11425.46
551.962	11415.75
552.326	11401.51
552.689	11331.68
553.053	11279.7
553.417	11289.87
553.78	11414.16
554.143	11284.22
554.507	11238.12
554.87	11236.99
555.234	11298.23
555.597	11163.1
555.96	11239.7
556.323	11226.82
556.686	11117.45
557.05	11171.68
557.413	11167.84
557.776	11150.89
558.139	11271.57
558.502	11106.15
558.865	11037.22
559.228	11148.86
559.59	11107.28
559.953	11084
560.316	11137.11
560.679	11120.61
561.041	11082.87
561.404	11185.47
561.767	11159.93
562.129	11092.82
562.492	11160.38
562.854	11077.45
563.217	11113.61
563.579	11120.84
563.941	11108.63
564.304	11126.71
564.666	11218.01
565.028	11263.88
565.39	11145.02
565.753	11261.4
566.115	11240.16
566.477	11266.14
566.839	11288.29
567.201	11306.37
567.563	11289.65
567.925	11361.96
568.287	11265.47
568.648	11311.79
569.01	11380.94
569.372	11323.77
569.734	11349.98
570.095	11363.54
570.457	11370.1
570.819	11388.63
571.18	11392.92
571.542	11367.38
571.903	11320.15
572.265	11453.03
572.626	11420.49
572.987	11446.03
573.349	11431.11
573.71	11508.17
574.071	11421.62
574.432	11463.88
574.794	11558.11
575.155	11524.67
575.516	11421.39
575.877	11487.38
576.238	11564.44
576.599	11500.94
576.96	11478.79
577.32	11547.94
577.681	11560.83
578.042	11501.17
578.403	11495.29
578.763	11549.53
579.124	11515.86
579.485	11592.69
579.845	11623.2
580.206	11515.4
580.566	11488.51
580.927	11520.15
581.287	11531
581.648	11505.01
582.008	11566.48
582.368	11496.19
582.728	11556.76
583.089	11482.41
583.449	11485.12
583.809	11428.4
584.169	11523.99
584.529	11444.9
584.889	11551.11
585.249	11481.73
585.609	11430.21
585.969	11569.41
586.329	11446.93
586.688	11480.15
587.048	11432.92
587.408	11423.88
587.768	11397.89
588.127	11403.77
588.487	11364.67
588.846	11389.76
589.206	11407.61
589.565	11443.31
589.925	11409.87
590.284	11421.85
590.643	11328.52
591.003	11438.57
591.362	11389.53
591.721	11378.01
592.08	11369.87
592.44	11347.27
592.799	11353.83
593.158	11340.27
593.517	11332.13
593.876	11293.26
594.235	11282.19
594.593	11310.44
594.952	11363.54
595.311	11267.27
595.67	11317.89
596.029	11353.83
596.387	11391.11
596.746	11365.8
597.104	11321.28
597.463	11261.85
597.822	11312.24
598.18	11295.97
598.538	11233.38
598.897	11274.73
599.255	11175.3
599.613	11330.32
599.972	11307.05
600.33	11366.03
600.688	11219.14
601.046	11306.82
601.404	11337.55
601.762	11282.64
602.12	11314.5
602.478	11278.12
602.836	11400.38
603.194	11265.01
603.552	11293.26
603.91	11305.92
604.268	11268.63
604.625	11368.51
604.983	11274.96
605.341	11224.34
605.698	11307.27
606.056	11287.61
606.413	11349.08
606.771	11313.37
607.128	11354.5
607.485	11276.09
607.843	11207.39
608.2	11302.98
608.557	11338.68
608.914	11339.36
609.272	11384.33
609.629	11371.45
609.986	11376.2
610.343	11343.88
610.7	11424.33
611.057	11379.14
611.414	11347.95
611.771	11370.32
612.127	11431.34
612.484	11473.14
612.841	11417.55
613.198	11371.23
613.554	11377.78
613.911	11499.58
614.267	11437.21
614.624	11389.53
614.98	11407.84
615.337	11475.86
615.693	11510.21
616.05	11492.81
616.406	11533.71
616.762	11502.3
617.118	11487.83
617.475	11536.42
617.831	11556.31
618.187	11525.57
618.543	11539.36
618.899	11571.22
619.255	11607.6
619.611	11607.38
619.967	11592.01
620.323	11685.79
620.678	11515.18
621.034	11575.97
621.39	11529.87
621.746	11477.21
622.101	11659.58
622.457	11543.88
622.812	11556.53
623.168	11656.19
623.523	11566.02
623.879	11597.21
624.234	11518.57
624.589	11592.92
624.945	11628.39
625.3	11609.41
625.655	11623.65
626.01	11602.41
626.365	11627.26
626.72	11655.51
627.075	11616.42
627.43	11573.48
627.785	11634.27
628.14	11522.63
628.495	11622.52
628.85	11691.44
629.205	11501.39
629.559	11662.74
629.914	11495.97
630.269	11507.72
630.623	11494.84
630.978	11479.47
631.332	11556.08
631.687	11471.56
632.041	11522.86
632.396	11516.08
632.75	11434.95
633.104	11492.35
633.459	11406.03
633.813	11464.11
634.167	11453.26
634.521	11398.12
634.875	11385.69
635.229	11303.43
635.583	11359.02
635.937	11223.21
636.291	11334.39
636.645	11288.29
636.999	11237.44
637.352	11367.61
637.706	11286.93
638.06	11332.36
638.413	11275.64
638.767	11262.53
639.121	11290.32
639.474	11188.86
639.828	11180.5
640.181	11196.99
640.534	11201.29
640.888	11183.43
641.241	11138.69
641.594	11193.83
641.947	11159.48
642.301	11179.82
642.654	11086.26
643.007	11164.45
643.36	11054.62
643.713	11111.57
644.066	11172.14
644.419	11073.61
644.771	11031.57
645.124	10868.41
645.477	10885.36
645.83	10685.14
646.182	10742.32
646.535	10749.77
646.888	10742.54
647.24	10683.33
647.593	10851.69
647.945	10741.41
648.298	10728.31
648.65	10688.08
649.002	10690.57
649.355	10680.4
649.707	10715.42
650.059	10736.21
650.411	10906.61
650.763	10894.4
651.115	11021.41
651.467	10950.9
651.819	10960.39
652.171	10963.1
652.523	10873.61
652.875	10907.06
653.227	10893.72
653.578	10991.8
653.93	10985.25
654.282	10945.47
654.633	10838.81
654.985	10878.81
655.337	10931.24
655.688	10971.01
656.039	11021.18
656.391	10873.16
656.742	10925.81
657.094	10931.92
657.445	11006.72
657.796	10924.68
658.147	10989.09
658.498	10907.06
658.849	10933.72
659.2	10906.61
659.551	10895.31
659.902	10965.36
660.253	10904.35
660.604	10976.66
660.955	10958.81
661.306	10976.43
661.656	10973.04
662.007	11081.29
662.358	10983.67
662.708	10961.97
663.059	11008.07
663.409	10955.64
663.76	10991.12
664.11	11020.73
664.461	11000.61
664.811	11089.43
665.161	11010.33
665.511	10970.11
665.862	11057.34
666.212	11084.91
666.562	10997.9
666.912	10956.1
667.262	11036.32
667.612	11001.97
667.962	11011.91
668.312	10912.48
668.662	11009.88
669.011	10954.29
669.361	10957.23
669.711	10965.81
670.06	10960.84
670.41	10979.6
670.76	10960.39
671.109	10992.48
671.459	10936.21
671.808	10918.81
672.157	10947.96
672.507	10902.76
672.856	10911.58
673.205	10895.08
673.554	10998.35
673.904	10912.03
674.253	10932.59
674.602	10870
674.951	10741.86
675.3	10733.5
675.649	10869.32
675.998	10882.65
676.346	10869.32
676.695	10888.75
677.044	10808.08
677.393	10809.66
677.741	10780.28
678.09	10776.21
678.438	10724.01
678.787	10812.15
679.135	10820.73
679.484	10702.32
679.832	10721.98
680.181	10704.58
680.529	10708.19
680.877	10677.46
681.225	10665.93
681.573	10760.17
681.922	10661.64
682.27	10576.67
682.618	10615.77
682.966	10578.7
683.314	10513.62
683.661	10565.6
684.009	10419.61
684.357	10437.92
684.705	10466.84
685.053	10473.17
685.4	10432.49
685.748	10416.45
686.095	10368.09
686.443	10329.22
686.79	10325.15
687.138	10383.68
687.485	10376.68
687.832	10259.84
688.18	10206.96
688.527	10119.06
688.874	10196.34
689.221	10177.59
689.568	10100.3
689.915	10147.08
690.262	10091.49
690.609	10038.15
690.956	10080.19
691.303	10018.04
691.65	9999.96
691.997	9977.59
692.344	9924.26
692.69	9882.68
693.037	9877.93
693.383	9800.87
693.73	9861.44
694.077	9790.03
694.423	9733.76
694.769	9686.98
695.116	9749.12
695.462	9684.72
695.808	9655.57
696.155	9631.61
696.501	9551.84
696.847	9542.57
697.193	9469.58
697.539	9496.47
697.885	9440.66
698.231	9395.91
698.577	9368.12
698.923	9371.51
699.269	9306.42
699.614	9237.5
699.96	9176.26
700.306	9232.75
700.651	9180.32
700.997	9096.48
701.342	9153.88
701.688	9095.35
702.033	9007.22
702.379	9049.48
702.724	8984.62
703.069	9015.81
703.415	8943.04
703.76	8885.87
704.105	8935.58
704.45	8861.01
704.795	8887
705.14	8834.57
705.485	8792.54
705.83	8730.39
706.175	8715.03
706.52	8722.26
706.865	8698.75
707.209	8615.59
707.554	8658.08
707.899	8629.15
708.243	8555.26
708.588	8600
708.932	8477.97
709.277	8508.93
709.621	8486.1
709.966	8426.67
710.31	8456.05
710.654	8392.77
710.998	8381.7
711.342	8375.82
711.687	8350.06
712.031	8276.39
712.375	8259.67
712.719	8339.22
713.063	8247.92
713.407	8313.45
713.75	8280.46
714.094	8247.92
714.438	8209.73
714.782	8209.73
715.125	8182.16
715.469	8199.33
715.812	8171.54
716.156	8094.7
716.499	8119.11
716.843	8091.09
717.186	8136.06
717.53	8102.84
717.873	8102.61
718.216	8077.98
718.559	8040.92
718.902	7955.95
719.246	8016.51
719.589	7996.4
719.932	7950.3
720.275	7956.63
720.617	8022.16
720.96	7953.92
721.303	7970.64
721.646	7959.79
721.989	7875.5
722.331	7893.58
722.674	7912.11
723.016	7933.12
723.359	7888.61
723.701	7881.83
724.044	7847.48
724.386	7875.73
724.729	7882.28
725.071	7802.51
725.413	7857.87
725.755	7828.49
726.097	7795.28
726.439	7781.04
726.782	7739.68
727.124	7846.12
727.465	7756.18
727.807	7810.87
728.149	7736.52
728.491	7718.89
728.833	7793.47
729.175	7717.54
729.516	7752.56
729.858	7671.66
730.199	7749.4
730.541	7793.24
730.882	7806.57
731.224	7772.68
731.565	7715.96
731.906	7769.74
732.248	7732
732.589	7684.32
732.93	7796.86
733.271	7751.43
733.612	7760.47
733.953	7830.08
734.294	7741.72
734.635	7719.12
734.976	7763.64
735.317	7732.23
735.658	7722.28
735.999	7746.24
736.339	7754.82
736.68	7766.8
737.021	7810.87
737.361	7706.46
737.702	7756.63
738.042	7727.93
738.383	7745.79
738.723	7785.56
739.063	7763.19
739.404	7824.43
739.744	7788.04
740.084	7835.5
740.424	7832.79
740.764	7734.26
741.104	7763.86
741.444	7869.62
741.784	7823.52
742.124	7908.04
742.464	7817.87
742.804	7912.79
743.143	7921.37
743.483	7929.28
743.823	7922.73
744.162	7956.85
744.502	8014.03
744.841	7972.45
745.181	8058.55
745.52	8040.47
745.86	8118.43
746.199	8114.81
746.538	8205.21
746.877	8249.95
747.216	8289.95
747.556	8329.95
747.895	8388.03
748.234	8378.31
748.573	8421.47
748.911	8499.66
749.25	8550.28
749.589	8560
749.928	8655.14
750.267	8670.05
750.605	8723.39
750.944	8850.84
751.283	8842.48
751.621	8967
751.96	9034.34
752.298	9054.9
752.636	9229.81
752.975	9274.78
753.313	9303.94
753.651	9438.85
753.989	9537.83
754.327	9645.62
754.666	9701.89
755.004	9823.24
755.342	9946.86
755.679	10100.07
756.017	10207.19
756.355	10325.38
756.693	10453.96
757.031	10601.3
757.368	10605.14
757.706	10776.89
758.044	10942.09
758.381	11065.7
758.719	11191.12
759.056	11398.8
759.394	11556.08
759.731	11584.1
760.068	11753.36
760.405	11873.81
760.743	12017.09
761.08	12264.99
761.417	12426.11
761.754	12574.81
762.091	12690.06
762.428	12844.86
762.765	12924.41
763.102	13156.94
763.438	13231.74
763.775	13471.74
764.112	13569.13
764.449	13836.25
764.785	13939.29
765.122	14042.57
765.458	14135.9
765.795	14262
766.131	14527.53
766.467	14541.54
766.804	14636.68
767.14	14849.33
767.476	14936.1
767.812	15045.25
768.148	15271.69
768.485	15347.62
768.821	15508.07
769.157	15563.66
769.492	15654.28
769.828	15812.01
770.164	15856.76
770.5	15992.12
770.836	16073.93
771.171	16148.95
771.507	16270.08
771.842	16269.85
772.178	16428.95
772.513	16463.3
772.849	16638.43
773.184	16627.13
773.519	16718.43
773.855	16819.9
774.19	16725.66
774.525	16917.3
774.86	17010.85
775.195	17158.19
775.53	17154.35
775.865	17141.24
776.2	17152.77
776.535	17122.49
776.87	17225.76
777.205	17170.62
777.539	17298.08
777.874	17367.23
778.209	17287.68
778.543	17332.43
778.878	17416.27
779.212	17342.82
779.547	17389.37
779.881	17448.13
780.215	17482.48
780.55	17565.64
780.884	17463.04
781.218	17541.23
781.552	17509.37
781.886	17526.54
782.22	17446.32
782.554	17527.9
782.888	17378.53
783.222	17430.5
783.556	17475.92
783.889	17410.62
784.223	17318.19
784.557	17392.99
784.89	17428.69
785.224	17372.88
785.557	17289.71
785.891	17468.24
786.224	17322.93
786.558	17397.28
786.891	17295.14
787.224	17287.23
787.557	17294.23
787.891	17271.64
788.224	17322.71
788.557	17340.34
788.89	17222.15
789.223	17167.46
789.556	17117.06
789.888	17122.49
790.221	17135.37
790.554	16998.65
790.887	17091.3
791.219	16969.27
791.552	16910.74
791.884	16974.47
792.217	16842.27
792.549	16887.01
792.882	16825.77
793.214	16737.64
793.546	16837.07
793.879	16661.03
794.211	16561.6
794.543	16754.59
794.875	16664.19
795.207	16688.15
795.539	16558.66
795.871	16594.59
796.203	16491.32
796.535	16453.35
796.867	16383.52
797.198	16370.19
797.53	16380.36
797.862	16262.85
798.193	16264.66
798.525	16228.27
798.856	16183.98
799.188	16065.57
799.519	16049.52
799.85	15929.07
800.182	16081.16
800.513	16106.7
800.844	15923.2
801.175	15985.57
801.506	15883.88
801.837	15912.8
802.168	15824.44
802.499	15763.88
802.83	15800.26
803.161	15696.54
803.491	15767.72
803.822	15744.9
804.153	15585.35
804.483	15599.82
804.814	15527.73
805.145	15467.39
805.475	15495.19
805.805	15474.85
806.136	15385.36
806.466	15394.4
806.796	15442.31
807.126	15263.1
807.457	15315.76
807.787	15231.24
808.117	15050.23
808.447	15124.12
808.777	15128.42
809.107	15158.25
809.436	15052.71
809.766	15057.68
810.096	14959.83
810.426	14933.62
810.755	15003.45
811.085	14956.44
811.414	14886.16
811.744	14774.3
812.073	14740.86
812.403	14830.57
812.732	14695.21
813.061	14760.52
813.39	14630.58
813.719	14601.42
814.049	14647.98
814.378	14665.38
814.707	14568.88
815.036	14570.24
815.365	14586.96
815.693	14495.66
816.022	14398.27
816.351	14438.26
816.68	14323.01
817.008	14372.96
817.337	14260.64
817.665	14193.07
817.994	14252.51
818.322	14287.08
818.651	14124.15
818.979	14106.97
819.307	14299.96
819.636	14191.49
819.964	14106.52
820.292	14101.78
820.62	14189.01
820.948	14031.27
821.276	14158.95
821.604	14070.36
821.932	14103.81
822.259	14047.31
822.587	14082.79
822.915	14082.12
823.243	14115.79
823.57	14069.01
823.898	14135
824.225	14012.96
824.553	14032.85
824.88	14015
825.207	14052.51
825.535	14014.09
825.862	14091.38
826.189	14051.38
826.516	14166.41
826.843	14113.75
827.17	14175.22
827.497	14226.07
827.824	14118.95
828.151	14117.14
828.478	14092.28
828.805	14137.03
829.131	14069.69
829.458	14040.99
829.785	14054.32
830.111	14048.22
830.438	14220.19
830.764	14047.99
831.09	14090.7
831.417	14047.99
831.743	14105.62
832.069	14097.71
832.395	14013.64
832.722	14086.86
833.048	13993.08
833.374	14012.74
833.7	13922.57
834.026	14028.11
834.351	13991.72
834.677	13972.29
835.003	13935
835.329	14019.52
835.654	13956.92
835.98	13857.49
836.306	13847.09
836.631	13844.61
836.956	13838.51
837.282	13963.47
837.607	13897.04
837.932	13788.34
838.258	13757.6
838.583	13773.42
838.908	13665.18
839.233	13723.03
839.558	13697.04
839.883	13683.71
840.208	13553.99
840.533	13584.5
840.858	13657.04
841.182	13601
841.507	13592.86
841.832	13487.78
842.156	13561.9
842.481	13542.69
842.805	13433.55
843.13	13488.46
843.454	13383.6
843.778	13317.62
844.103	13325.07
844.427	13288.69
844.751	13327.79
845.075	13259.54
845.399	13194.23
845.723	13130.05
846.047	13128.69
846.371	13083.95
846.695	13090.96
847.019	12921.47
847.343	12925.99
847.666	12844.18
847.99	12778.2
848.313	12796.73
848.637	12641.02
848.96	12627.46
849.284	12714.69
849.607	12581.14
849.931	12510.63
850.254	12469.73
850.577	12376.85
850.9	12342.27
851.223	12318.32
851.546	12253.01
851.869	12075.61
852.192	12217.31
852.515	12064.54
852.838	12101.83
853.161	12057.08
853.483	11990.42
853.806	11954.49
854.129	11939.12
854.451	11914.71
854.774	11795.62
855.096	11796.07
855.419	11801.05
855.741	11723.53
856.063	11598.34
856.385	11639.02
856.708	11596.98
857.03	11542.75
857.352	11554.72
857.674	11545.69
857.996	11499.36
858.318	11395.18
858.64	11398.34
858.961	11396.08
859.283	11366.93
859.605	11229.76
859.926	11374.39
860.248	11231.8
860.57	11268.18
860.891	11238.8
861.212	11147.05
861.534	11110.22
861.855	11118.8
862.176	11182.98
862.498	11108.41
862.819	11052.82
863.14	11007.17
863.461	11084
863.782	10972.59
864.103	10979.82
864.424	10961.52
864.745	10911.35
865.065	10921.97
865.386	10884.01
865.707	10811.24
866.027	10861.64
866.348	10820.51
866.668	10817.57
866.989	10818.92
867.309	10714.07
867.63	10821.64
867.95	10751.58
868.27	10677.69
868.59	10681.75
868.91	10723.33
869.23	10637.91
869.55	10580.29
869.87	10650.79
870.19	10668.87
870.51	10610.12
870.83	10650.12
871.15	10565.6
871.469	10546.39
871.789	10593.17
872.109	10550.01
872.428	10499.16
872.748	10498.26
873.067	10502.32
873.386	10470.23
873.706	10404.47
874.025	10420.06
874.344	10348.65
874.663	10378.26
874.982	10345.72
875.301	10317.02
875.62	10362.67
875.939	10380.74
876.258	10281.09
876.577	10256.45
876.896	10284.48
877.214	10213.06
877.533	10210.58
877.852	10202.22
878.17	10268.2
878.489	10230.47
878.807	10198.83
879.125	10140.75
879.444	10199.96
879.762	10088.55
880.08	10125.38
880.398	10094.42
880.716	10097.36
881.034	9940.3
881.352	10051.49
881.67	9999.96
881.988	9940.98
882.306	9974.2
882.624	9929.68
882.941	9878.61
883.259	9848.78
883.577	9796.13
883.894	9833.19
884.212	9787.77
884.529	9818.5
884.846	9843.58
885.164	9727.43
885.481	9743.7
885.798	9698.73
886.115	9681.78
886.432	9656.7
886.75	9660.08
887.067	9660.99
887.383	9543.7
887.7	9604.27
888.017	9562.23
888.334	9552.07
888.651	9556.81
888.967	9473.65
889.284	9444.5
889.6	9451.5
889.917	9425.06
890.233	9406.76
890.55	9312.75
890.866	9351.62
891.182	9322.01
891.498	9191.62
891.815	9196.37
892.131	9208.8
892.447	9130.61
892.763	9149.59
893.079	9086.09
893.395	9120.21
893.71	9064.62
894.026	9036.37
894.342	9031.4
894.657	8951.63
894.973	8968.35
895.289	8934
895.604	8895.81
895.92	8788.7
896.235	8781.92
896.55	8797.28
896.865	8732.88
897.181	8806.55
897.496	8754.8
897.811	8726.1
898.126	8629.83
898.441	8644.52
898.756	8608.14
899.071	8520.91
899.386	8471.87
899.7	8487.46
900.015	8452.66
900.33	8387.8
900.644	8333.11
900.959	8378.76
901.273	8337.86
901.588	8312.32
901.902	8246.11
902.216	8256.96
902.531	8208.15
902.845	8222.61
903.159	8161.14
903.473	8122.95
903.787	8073.01
904.101	8071.65
904.415	8068.26
904.729	8049.73
905.042	7998.21
905.356	7958.89
905.67	7906.91
905.984	7892
906.297	7914.14
906.611	7875.27
906.924	7838.21
907.237	7791.66
907.551	7759.34
907.864	7728.16
908.177	7616.07
908.491	7707.59
908.804	7638.22
909.117	7563.42
909.43	7525.68
909.743	7562.51
910.056	7509.63
910.368	7447.94
910.681	7376.76
910.994	7390.77
911.307	7317.1
911.619	7279.36
911.932	7334.5
912.244	7278.23
912.557	7256.53
912.869	7145.35
913.181	7210.43
913.494	7167.04
913.806	7114.16
914.118	7049.98
914.43	7016.76
914.742	7050.66
915.054	7020.38
915.366	6988.29
915.678	6918.46
915.99	6924.56
916.302	6925.02
916.613	6863.55
916.925	6829.88
917.236	6838.46
917.548	6769.31
917.859	6786.04
918.171	6737.9
918.482	6691.8
918.794	6655.19
919.105	6617
919.416	6592.82
919.727	6625.81
920.038	6555.53
920.349	6535.65
920.66	6513.95
920.971	6532.48
921.282	6506.95
921.593	6448.64
921.903	6414.29
922.214	6355.31
922.525	6354.64
922.835	6380.17
923.146	6280.74
923.456	6291.36
923.767	6263.79
924.077	6233.06
924.387	6171.14
924.697	6175.88
925.008	6131.82
925.318	6134.08
925.628	6123.68
925.938	6067.64
926.248	6014.53
926.558	6012.72
926.867	5991.03
927.177	5945.61
927.487	6010.69
927.796	5885.27
928.106	5905.38
928.416	5840.75
928.725	5923.91
929.034	5838.94
929.344	5810.24
929.653	5799.17
929.962	5760.98
930.271	5737.48
930.581	5708.78
930.89	5664.03
931.199	5634.88
931.508	5620.64
931.817	5628.1
932.125	5592.85
932.434	5572.73
932.743	5558.05
933.051	5523.92
933.36	5502.68
933.669	5470.59
933.977	5446.18
934.286	5444.83
934.594	5411.16
934.902	5416.13
935.21	5388.56
935.519	5377.49
935.827	5377.71
936.135	5283.02
936.443	5259.75
936.751	5252.74
937.059	5275.57
937.367	5230.82
937.674	5234.21
937.982	5219.98
938.29	5170.26
938.597	5155.57
938.905	5132.29
939.213	5082.13
939.52	5061.34
939.827	5039.42
940.135	5010.26
940.442	5010.49
940.749	4997.61
941.056	4974.11
941.363	4918.29
941.67	4938.18
941.977	4859.08
942.284	4843.26
942.591	4878.29
942.898	4828.8
943.205	4822.02
943.511	4799.42
943.818	4776.37
944.125	4763.94
944.431	4796.48
944.738	4725.98
945.044	4700.22
945.35	4672.19
945.657	4618.86
945.963	4673.55
946.269	4611.4
946.575	4570.28
946.881	4568.69
947.187	4576.15
947.493	4565.76
947.799	4536.6
948.105	4467.45
948.41	4446.89
948.716	4469.49
949.022	4403.27
949.327	4421.13
949.633	4373.9
949.938	4387.46
950.244	4375.93
950.549	4357.17
950.854	4356.95
951.16	4300
951.465	4324.41
951.77	4314.24
952.075	4269.94
952.38	4262.26
952.685	4199.89
952.99	4208.25
953.294	4158.99
953.599	4153.34
953.904	4173.68
954.209	4104.07
954.513	4133.9
954.818	4142.72
955.122	4092.77
955.426	4050.97
955.731	4022.27
956.035	3999.22
956.339	4042.83
956.643	3991.99
956.948	3988.37
957.252	3974.36
957.556	3967.35
957.86	3903.4
958.163	3900.91
958.467	3903.63
958.771	3893.68
959.075	3852.1
959.378	3815.72
959.682	3831.31
959.985	3791.99
960.289	3799.45
960.592	3769.84
960.896	3764.42
961.199	3769.62
961.502	3697.08
961.805	3744.76
962.108	3679.45
962.411	3700.24
962.714	3659.79
963.017	3666.57
963.32	3661.15
963.623	3646.23
963.926	3659.11
964.228	3596.29
964.531	3600.13
964.833	3599.91
965.136	3527.36
965.438	3531.66
965.741	3502.05
966.043	3509.96
966.345	3465.45
966.648	3497.08
966.95	3472.68
967.252	3453.69
967.554	3445.56
967.856	3413.92
968.158	3333.92
968.46	3361.27
968.761	3363.08
969.063	3354.71
969.365	3323.98
969.666	3313.36
969.968	3280.82
970.269	3265.22
970.571	3285.79
970.872	3242.4
971.174	3212.34
971.475	3240.37
971.776	3217.09
972.077	3198.56
972.378	3195.85
972.679	3168.28
972.98	3143.42
973.281	3169.86
973.582	3153.36
973.883	3135.51
974.183	3124.21
974.484	3098.9
974.785	3075.4
975.085	3082.4
975.386	3030.43
975.686	3027.49
975.986	3004.67
976.287	3056.87
976.587	3019.58
976.887	2984.55
977.187	2986.36
977.487	2958.79
977.787	2962.41
978.087	2914.27
978.387	2913.6
978.687	2899.36
978.987	2907.04
979.286	2911.34
979.586	2884.67
979.885	2854.16
980.185	2856.2
980.484	2877.66
980.784	2839.93
981.083	2799.93
981.382	2795.18
981.682	2789.53
981.981	2736.65
982.28	2767.61
982.579	2749.98
982.878	2725.8
983.177	2678.35
983.475	2689.65
983.774	2716.54
984.073	2672.02
984.372	2694.39
984.67	2681.96
984.969	2670.44
985.267	2615.07
985.566	2606.71
985.864	2608.52
986.162	2631.8
986.461	2605.36
986.759	2618.46
987.057	2567.16
987.355	2559.03
987.653	2550.44
987.951	2540.05
988.249	2513.38
988.547	2493.27
988.844	2498.24
989.142	2510.22
989.44	2495.53
989.737	2464.12
990.035	2446.94
990.332	2456.88
990.63	2420.05
990.927	2418.02
991.224	2427.51
991.521	2426.6
991.819	2430.67
992.116	2387.73
992.413	2402.87
992.71	2342.76
993.006	2335.53
993.303	2360.84
993.6	2350.9
993.897	2324.01
994.193	2314.06
994.49	2263.67
994.787	2255.99
995.083	2247.62
995.379	2259.38
995.676	2248.3
995.972	2225.25
996.268	2218.7
996.565	2180.06
996.861	2208.3
997.157	2156.33
997.453	2198.59
997.749	2189.55
998.044	2168.53
998.34	2129.89
998.636	2143.45
998.932	2134.63
999.227	2130.57
999.523	2140.51
999.818	2102.77
1000.114	2081.53
1000.409	2084.92
1000.704	2046.95
1001	2087.85
1001.295	2050.12
1001.59	2033.17
1001.885	2008.53
1002.18	2002.43
1002.475	1976.45
1002.77	2009.21
1003.065	1976.67
1003.359	1966.5
1003.654	1952.27
1003.949	1944.58
1004.243	1928.54
1004.538	1905.26
1004.832	1924.7
1005.127	1883.57
1005.421	1861.87
1005.715	1889.22
1006.009	1875.2
1006.304	1847.64
1006.598	1884.24
1006.892	1853.28
1007.186	1797.47
1007.48	1821.65
1007.773	1821.65
1008.067	1814.64
1008.361	1764.47
1008.655	1766.28
1008.948	1754.98
1009.242	1745.94
1009.535	1771.93
1009.829	1760.63
1010.122	1714.53
1010.415	1709.56
1010.708	1733.97
1011.001	1682.89
1011.295	1664.36
1011.588	1717.47
1011.881	1653.52
1012.173	1650.58
1012.466	1665.49
1012.759	1644.7
1013.052	1657.58
1013.344	1649.22
1013.637	1636.34
1013.93	1604.03
1014.222	1581.65
1014.514	1581.2
1014.807	1573.29
1015.099	1581.88
1015.391	1578.49
1015.683	1562.67
1015.976	1534.42
1016.268	1533.97
1016.56	1519.06
1016.851	1505.72
1017.143	1512.5
1017.435	1495.33
1017.727	1474.54
1018.018	1463.01
1018.31	1472.73
1018.602	1453.97
1018.893	1482.22
1019.185	1457.14
1019.476	1434.99
1019.767	1405.84
1020.058	1394.77
1020.35	1402.9
1020.641	1388.89
1020.932	1382.34
1021.223	1363.81
1021.514	1375.33
1021.804	1351.6
1022.095	1357.7
1022.386	1310.47
1022.677	1350.47
1022.967	1333.3
1023.258	1314.32
1023.548	1303.02
1023.839	1304.82
1024.129	1296.46
1024.419	1274.99
1024.709	1284.71
1025	1281.32
1025.29	1256.01
1025.58	1239.74
1025.87	1246.75
1026.16	1244.94
1026.449	1237.26
1026.739	1211.95
1027.029	1215.34
1027.319	1200.42
1027.608	1207.65
1027.898	1188.44
1028.187	1196.58
1028.477	1176.01
1028.766	1193.19
1029.055	1140.76
1029.344	1126.07
1029.634	1138.95
1029.923	1137.37
1030.212	1137.82
1030.501	1158.39
1030.79	1114.77
1031.078	1120.87
1031.367	1093.76
1031.656	1096.69
1031.945	1082.46
1032.233	1103.25
1032.522	1075.23
1032.81	1078.84
1033.099	1071.84
1033.387	1063.47
1033.675	1065.28
1033.963	1017.83
1034.251	1034.1
1034.54	1026.41
1034.828	1015.79
1035.116	1006.98
1035.403	1000.65
1035.691	1030.03
1035.979	1004.49
1036.267	992.06
1036.554	967.43
1036.842	968.34
1037.129	983.7
1037.417	965.85
1037.704	950.26
1037.992	950.26
1038.279	929.47
1038.566	942.12
1038.853	942.12
1039.14	942.12
