Data from hue_26_FLMS001491_00084.txt Node
Date: Tue Feb 07 17:14:41 GMT 2017
User: dcchb
Spectrometer: FLMS00149
Trigger mode: 0
Integration Time (sec): 2.000000E-2
Scans to average: 10
Electric dark correction enabled: true
Nonlinearity correction enabled: false
Boxcar width: 0
XAxis mode: Wavelengths
Number of Pixels in Spectrum: 2048
>>>>>Begin Spectral Data<<<<<
341.393	-7.54
341.776	-7.54
342.16	-7.54
342.543	-54.55
342.927	-77.82
343.31	-66.75
343.693	-76.47
344.077	-59.97
344.46	-58.39
344.843	-69.91
345.226	-42.57
345.61	-38.05
345.993	-7.32
346.376	13.02
346.759	10.99
347.142	15.96
347.525	20.71
347.908	66.81
348.291	83.75
348.674	95.05
349.057	113.13
349.44	137.31
349.823	121.95
350.206	154.26
350.588	192.68
350.971	200.59
351.354	217.76
351.737	230.19
352.119	238.33
352.502	244.2
352.884	273.58
353.267	281.26
353.65	307.03
354.032	299.12
354.414	316.07
354.797	319.91
355.179	334.14
355.562	340.47
355.944	331.66
356.326	323.75
356.709	328.04
357.091	326.91
357.473	323.75
357.855	346.8
358.238	350.87
358.62	357.87
359.002	331.88
359.384	350.19
359.766	314.71
360.148	337.08
360.53	329.62
360.912	346.8
361.294	324.88
361.676	347.93
362.057	326.69
362.439	324.65
362.821	346.57
363.203	327.36
363.584	325.1
363.966	323.52
364.348	338.44
364.729	310.42
365.111	328.72
365.493	330.53
365.874	313.58
366.256	296.18
366.637	306.35
367.019	309.74
367.4	328.95
367.781	319.68
368.163	311.09
368.544	303.86
368.925	302.96
369.306	309.06
369.688	314.94
370.069	315.61
370.45	311.09
370.831	308.38
371.212	326.69
371.593	297.08
371.974	313.13
372.355	322.62
372.736	297.53
373.117	316.97
373.498	316.52
373.879	325.1
374.26	333.47
374.641	309.51
375.021	319.23
375.402	322.39
375.783	304.31
376.163	320.58
376.544	326.23
376.925	321.49
377.305	308.61
377.686	302.05
378.066	319.23
378.447	327.14
378.827	325.1
379.208	331.43
379.588	345.89
379.968	354.71
380.349	344.54
380.729	360.58
381.109	332.11
381.489	352.67
381.87	357.19
382.25	346.57
382.63	332.34
383.01	348.61
383.39	339.79
383.77	355.39
384.15	344.54
384.53	331.21
384.91	350.87
385.29	351.54
385.67	359.45
386.049	364.43
386.429	356.06
386.809	353.8
387.189	359.23
387.568	329.85
387.948	335.95
388.328	365.78
388.707	369.62
389.087	359.91
389.466	376.85
389.846	355.16
390.225	358.1
390.605	371.88
390.984	337.53
391.363	377.76
391.743	362.39
392.122	359.68
392.501	372.33
392.881	389.51
393.26	392.22
393.639	371.2
394.018	348.15
394.397	372.33
394.776	375.5
395.155	393.35
395.534	404.2
395.913	379.11
396.292	373.01
396.671	365.33
397.05	385.89
397.429	398.1
397.808	375.72
398.186	380.92
398.565	377.76
398.944	379.57
399.323	370.08
399.701	392
400.08	368.27
400.458	400.81
400.837	403.52
401.215	386.8
401.594	390.87
401.972	388.38
402.351	396.97
402.729	423.41
403.107	422.73
403.486	415.72
403.864	406.46
404.242	426.57
404.62	424.31
404.999	425.21
405.377	420.24
405.755	420.02
406.133	431.99
406.511	428.38
406.889	435.61
407.267	416.4
407.645	439.23
408.023	444.88
408.401	434.25
408.779	441.49
409.156	444.42
409.534	444.2
409.912	437.42
410.29	432.67
410.667	447.59
411.045	450.07
411.422	449.17
411.8	444.88
412.178	467.47
412.555	464.31
412.933	467.25
413.31	452.11
413.687	465.89
414.065	467.02
414.442	486.68
414.819	471.32
415.197	478.32
415.574	481.03
415.951	479.9
416.328	469.28
416.705	462.95
417.082	482.61
417.46	488.94
417.837	491.65
418.214	501.6
418.591	509.73
418.967	495.95
419.344	494.82
419.721	519.9
420.098	511.09
420.475	494.14
420.852	509.51
421.228	501.37
421.605	513.35
421.982	519.9
422.358	529.84
422.735	547.92
423.111	542.73
423.488	530.97
423.864	537.08
424.241	524.65
424.617	542.27
424.994	532.78
425.37	540.47
425.746	533.46
426.123	561.48
426.499	554.48
426.875	549.05
427.251	566
427.627	563.06
428.003	566.91
428.379	584.98
428.756	573.69
429.132	603.29
429.507	572.33
429.883	602.16
430.259	605.55
430.635	587.47
431.011	608.49
431.387	592.22
431.763	614.36
432.138	616.4
432.514	625.89
432.89	639.45
433.265	639.22
433.641	627.7
434.016	649.62
434.392	625.21
434.767	648.49
435.143	658.65
435.518	656.17
435.894	662.5
436.269	648.71
436.644	658.88
437.02	671.76
437.395	684.42
437.77	688.26
438.145	685.55
438.52	681.48
438.895	716.05
439.271	710.86
439.646	739.1
440.021	705.66
440.395	729.61
440.77	724.19
441.145	729.16
441.52	714.7
441.895	728.94
442.27	742.27
442.645	742.04
443.019	735.72
443.394	754.7
443.769	730.97
444.143	733.91
444.518	766.9
444.892	747.92
445.267	743.17
445.641	784.98
446.016	738.43
446.39	775.71
446.764	774.36
447.139	764.87
447.513	784.53
447.887	788.37
448.262	767.8
448.636	786.11
449.01	805.77
449.384	803.51
449.758	815.71
450.132	821.36
450.506	824.3
450.88	820.46
451.254	864.98
451.628	868.37
452.002	856.62
452.376	870.85
452.75	852.32
453.123	866.56
453.497	876.5
453.871	869.04
454.244	876.73
454.618	886.22
454.992	904.98
455.365	897.29
455.739	920.34
456.112	921.92
456.486	949.72
456.859	952.88
457.232	963.28
457.606	952.21
457.979	982.71
458.352	966.9
458.725	991.53
459.099	988.59
459.472	1016.61
459.845	1007.57
460.218	1004.63
460.591	1014.13
460.964	1050.96
461.337	1043.96
461.71	1059.55
462.083	1058.87
462.456	1081.69
462.829	1066.33
463.201	1118.76
463.574	1117.85
463.947	1106.1
464.32	1149.49
464.692	1160.11
465.065	1157.85
465.438	1161.69
465.81	1194.69
466.183	1210.28
466.555	1222.03
466.928	1236.04
467.3	1260.9
467.672	1267.23
468.045	1241.24
468.417	1296.38
468.789	1299.99
469.161	1298.86
469.534	1323.27
469.906	1350.61
470.278	1362.82
470.65	1390.84
471.022	1390.61
471.394	1435.58
471.766	1425.87
472.138	1448.46
472.51	1500.44
472.882	1509.25
473.253	1539.08
473.625	1544.28
473.997	1577.95
474.369	1577.27
474.74	1617.27
475.112	1612.75
475.484	1639.65
475.855	1671.28
476.227	1731.62
476.598	1746.54
476.97	1800.32
477.341	1807.1
477.713	1867.66
478.084	1866.98
478.455	1911.05
478.827	1924.16
479.198	1981.56
479.569	1988.56
479.94	2076.47
480.311	2083.48
480.682	2128.9
481.053	2204.38
481.424	2221.1
481.795	2237.14
482.166	2287.76
482.537	2322.34
482.908	2397.82
483.279	2392.62
483.65	2453.18
484.021	2513.07
484.391	2591.94
484.762	2645.5
485.133	2644.59
485.503	2701.77
485.874	2730.24
486.244	2806.4
486.615	2830.12
486.985	2843.68
487.356	2913.96
487.726	2946.5
488.097	3053.85
488.467	3076.67
488.837	3161.64
489.207	3174.52
489.578	3235.31
489.948	3238.93
490.318	3327.96
490.688	3372.48
491.058	3417
491.428	3436.21
491.798	3518.69
492.168	3596.2
492.538	3612.02
492.908	3685.47
493.278	3704.68
493.648	3727.27
494.017	3800.27
494.387	3816.31
494.757	3882.75
495.126	3912.58
495.496	3960.49
495.866	3950.32
496.235	4018.79
496.605	4074.84
496.974	4141.73
497.344	4139.47
497.713	4191.44
498.082	4239.8
498.452	4283.87
498.821	4338.11
499.19	4340.14
499.559	4343.98
499.928	4400.48
500.298	4415.39
500.667	4484.32
501.036	4501.04
501.405	4550.3
501.774	4543.52
502.143	4604.54
502.512	4593.24
502.88	4656.52
503.249	4662.17
503.618	4748.72
503.987	4719.57
504.356	4744.65
504.724	4740.58
505.093	4782.39
505.462	4832.33
505.83	4870.3
506.199	4921.82
506.567	4934.7
506.936	4935.15
507.304	4982.84
507.672	5004.98
508.041	5044.75
508.409	5100.12
508.777	5124.07
509.145	5110.06
509.514	5175.15
509.882	5193.45
510.25	5180.8
510.618	5263.96
510.986	5270.74
511.354	5252.43
511.722	5311.87
512.09	5324.3
512.458	5356.38
512.826	5353.9
513.193	5369.72
513.561	5425.31
513.929	5497.17
514.297	5530.84
514.664	5581.46
515.032	5502.82
515.4	5546.89
515.767	5624.85
516.135	5649.71
516.502	5573.78
516.869	5694
517.237	5710.73
517.604	5651.29
517.972	5737.39
518.339	5777.62
518.706	5748.69
519.073	5820.33
519.44	5827.33
519.808	5877.73
520.175	5816.49
520.542	5865.07
520.909	5969.48
521.276	5966.54
521.643	6017.16
522.009	6032.3
522.376	6062.35
522.743	6052.86
523.11	6113.43
523.477	6132.41
523.843	6166.98
524.21	6215.8
524.577	6268.45
524.943	6352.74
525.31	6342.8
525.676	6353.87
526.043	6457.15
526.409	6417.37
526.776	6463.25
527.142	6477.26
527.508	6540.31
527.874	6576.69
528.241	6630.93
528.607	6616.92
528.973	6677.71
529.339	6679.97
529.705	6758.38
530.071	6825.95
530.437	6819.62
530.803	6828.66
531.169	6844.71
531.535	6886.51
531.901	6875.89
532.267	6884.03
532.632	6983.23
532.998	6985.04
533.364	7030.69
533.73	7062.33
534.095	7141.42
534.461	7123.8
534.826	7231.82
535.192	7238.82
535.557	7214.19
535.923	7255.32
536.288	7252.15
536.653	7348.65
537.019	7302.55
537.384	7376.22
537.749	7396.33
538.114	7379.61
538.479	7418.48
538.845	7455.31
539.21	7499.61
539.575	7510.68
539.94	7557.91
540.305	7611.47
540.67	7608.3
541.034	7657.79
541.399	7673.61
541.764	7695.53
542.129	7724.46
542.494	7762.42
542.858	7826.15
543.223	7815.53
543.587	7858.69
543.952	7839.26
544.316	7911.35
544.681	7947.5
545.045	7983.21
545.41	8049.2
545.774	8027.05
546.138	8036.09
546.503	8134.62
546.867	8091.68
547.231	8189.76
547.595	8140.27
547.959	8208.96
548.324	8198.34
548.688	8265.91
549.052	8312.92
549.416	8313.59
549.779	8375.74
550.143	8356.98
550.507	8437.43
550.871	8495.51
551.235	8436.08
551.599	8511.33
551.962	8547.49
552.326	8589.52
552.689	8620.48
553.053	8550.88
553.417	8613.93
553.78	8691.21
554.143	8689.4
554.507	8655.05
554.87	8731.89
555.234	8843.52
555.597	8810.76
555.96	8809.4
556.323	8829.97
556.686	8905.9
557.05	8917.65
557.413	8878.78
557.776	8996.74
558.139	9048.94
558.502	9050.98
558.865	9046.91
559.228	9148.6
559.59	9195.38
559.953	9089.39
560.316	9274.93
560.679	9259.11
561.041	9340.01
561.404	9356.05
561.767	9414.13
562.129	9318.77
562.492	9412.55
562.854	9385.43
563.217	9453.68
563.579	9463.4
563.941	9419.1
564.304	9535.03
564.666	9584.97
565.028	9622.04
565.39	9623.62
565.753	9643.96
566.115	9737.74
566.477	9842.82
566.839	9829.26
567.201	9865.64
567.563	9854.35
567.925	9970.73
568.287	9922.59
568.648	9966.66
569.01	9996.71
569.372	10069.48
569.734	10085.07
570.095	10116.26
570.457	10172.76
570.819	10280.1
571.18	10242.58
571.542	10365.07
571.903	10351.51
572.265	10349.93
572.626	10448
572.987	10473.31
573.349	10511.28
573.71	10596.92
574.071	10699.75
574.432	10694.78
574.794	10846.18
575.155	10810.48
575.516	10872.17
575.877	10930.25
576.238	10990.36
576.599	11156.91
576.96	11208.43
577.32	11256.57
577.681	11356.9
578.042	11475.55
578.403	11502.21
578.763	11626.05
579.124	11642.32
579.485	11860.17
579.845	12054.74
580.206	12053.61
580.566	12124.57
580.927	12253.38
581.287	12412.7
581.648	12505.12
582.008	12683.42
582.368	12789.18
582.728	12984.66
583.089	13139
583.449	13294.25
583.809	13374.03
584.169	13625.32
584.529	13765.43
584.889	14017.85
585.249	14173.55
585.609	14277.28
585.969	14595.24
586.329	14792.07
586.688	14995.91
587.048	15152.51
587.408	15459.85
587.768	15650.8
588.127	15826.84
588.487	16100.73
588.846	16459.82
589.206	16589.99
589.565	16865.01
589.925	17221.84
590.284	17340.02
590.643	17639.23
591.003	17923.96
591.362	18258.19
591.721	18449.37
592.08	18724.85
592.44	19107.44
592.799	19375
593.158	19594.88
593.517	19801.2
593.876	20273.96
594.235	20519.83
594.593	20794.4
594.952	21131.56
595.311	21227.15
595.67	21686.12
596.029	22154.81
596.387	22449.95
596.746	22777.17
597.104	22936.94
597.463	23271.62
597.822	23649.91
598.18	23784.83
598.538	24125.83
598.897	24527.86
599.255	24594.3
599.613	25213.49
599.972	25316.31
600.33	25753.81
600.688	25840.59
601.046	26277.19
601.404	26715.6
601.762	26859.77
602.12	27275.81
602.478	27593.99
602.836	27866.08
603.194	27950.82
603.552	28285.27
603.91	28471.93
604.268	28899.27
604.625	29081.64
604.983	29312.36
605.341	29497.44
605.698	29892.91
606.056	30215.17
606.413	30462.39
606.771	30590.98
607.128	30996.61
607.485	31070.96
607.843	31290.17
608.2	31856.03
608.557	32059.41
608.914	32149.58
609.272	32372.4
609.629	32639.96
609.986	33073.17
610.343	33078.59
610.7	33549.99
611.057	33588.86
611.414	33745.24
611.771	33871.79
612.127	34259.13
612.484	34336.64
612.841	34665.9
613.198	34709.29
613.554	34968.94
613.911	35211.42
614.267	35413.67
614.624	35554.91
614.98	35711.52
615.337	36099.53
615.693	36192.41
616.05	36121.68
616.406	36387.66
616.762	36540.65
617.118	36771.15
617.475	36832.17
617.831	37112.39
618.187	37177.47
618.543	37316.22
618.899	37703.33
619.255	37762.99
619.611	37758.92
619.967	38100.16
620.323	38169.08
620.678	38088.86
621.034	38056.77
621.39	38333.37
621.746	38247.05
622.101	38889.51
622.457	38641.84
622.812	38908.5
623.168	38971.77
623.523	39078.44
623.879	39268.71
624.234	39058.55
624.589	39431.42
624.945	39558.2
625.3	39631.19
625.655	39648.14
626.01	39736.72
626.365	39823.5
626.72	39755.93
627.075	39885.19
627.43	40026.66
627.785	39825.31
628.14	40023.95
628.495	40178.29
628.85	40164.28
629.205	39968.36
629.559	40358.18
629.914	40335.35
630.269	40319.08
630.623	40360.66
630.978	40290.83
631.332	40458.96
631.687	40575.57
632.041	40477.95
632.396	40577.38
632.75	40549.13
633.104	40576.02
633.459	40539.64
633.813	40487.89
634.167	40490.83
634.521	40583.93
634.875	40611.95
635.229	40576.7
635.583	40465.52
635.937	40435.01
636.291	40388.68
636.645	40548.91
636.999	40543.03
637.352	40604.5
637.706	40484.05
638.06	40624.38
638.413	40510.71
638.767	40483.6
639.121	40571.73
639.474	40250.38
639.828	40360.44
640.181	40572.86
640.534	40429.36
640.888	40412.86
641.241	40316.82
641.594	40508
641.947	40573.54
642.301	40472.52
642.654	40548.68
643.007	40454.44
643.36	40509.58
643.713	40396.82
644.066	40739.64
644.419	40234.11
644.771	40151.63
645.124	39686.78
645.477	39655.6
645.83	39499.44
646.182	39409.73
646.535	39318.66
646.888	39365.43
647.24	39050.19
647.593	39325.21
647.945	39364.08
648.298	39092.22
648.65	39079.57
649.002	39081.6
649.355	39173.57
649.707	39147.13
650.059	39388.03
650.411	39760.23
650.763	39793.9
651.115	40218.52
651.467	40073.44
651.819	40145.75
652.171	39995.02
652.523	39865.76
652.875	39974.23
653.227	39674.35
653.578	40109.6
653.93	39876.38
654.282	39837.29
654.633	39764.07
654.985	39901.01
655.337	39922.26
655.688	39905.76
656.039	39983.95
656.391	39678.19
656.742	39882.26
657.094	39806.33
657.445	40024.4
657.796	39822.15
658.147	39815.37
658.498	39776.04
658.849	39808.81
659.2	39574.92
659.551	39630.29
659.902	39873.44
660.253	39750.96
660.604	39771.3
660.955	39650.17
661.306	39809.26
661.656	39704.41
662.007	39684.52
662.358	39652.88
662.708	39647.01
663.059	39681.58
663.409	39511.87
663.76	39821.47
664.11	39815.82
664.461	39717.29
664.811	39597.07
665.161	39693.33
665.511	39728.14
665.862	39613.34
666.212	39643.39
666.562	39589.61
666.912	39695.59
667.262	39583.28
667.612	39650.85
667.962	39604.98
668.312	39483.62
668.662	39716.84
669.011	39625.54
669.361	39481.81
669.711	39428.94
670.06	39416.73
670.41	39435.71
670.76	39430.52
671.109	39589.83
671.459	39461.02
671.808	39410.86
672.157	39650.17
672.507	39200.01
672.856	39204.31
673.205	39224.19
673.554	39602.04
673.904	39294.93
674.253	39492.44
674.602	39400.46
674.951	38823.75
675.3	38776.07
675.649	39358.2
675.998	39182.39
676.346	39240.92
676.695	39422.83
677.044	39132.45
677.393	39250.41
677.741	39261.26
678.09	38975.16
678.438	39100.13
678.787	39019.45
679.135	39075.05
679.484	39023.75
679.832	38891.32
680.181	38800.48
680.529	38957.53
680.877	38670.31
681.225	38716.41
681.573	38993.92
681.922	38677.09
682.27	38479.81
682.618	38584.44
682.966	38583.31
683.314	38505.8
683.661	38429.41
684.009	38109.87
684.357	38322.07
684.705	38193.94
685.053	38232.13
685.4	38123.88
685.748	37838.02
686.095	38099.93
686.443	37844.8
686.79	37884.57
687.138	37910.78
687.485	37831.91
687.832	37807.96
688.18	37677.34
688.527	37588.98
688.874	37625.59
689.221	37525.48
689.568	37348.09
689.915	37379.95
690.262	37322.32
690.609	37241.2
690.956	36965.95
691.303	37119.39
691.65	36925.27
691.997	36964.59
692.344	36748.78
692.69	36704.26
693.037	36705.62
693.383	36464.72
693.73	36500.42
694.077	36303.82
694.423	36416.58
694.769	36172.75
695.116	36211.17
695.462	36055.24
695.808	35911.06
696.155	36062.47
696.501	35778.18
696.847	35918.97
697.193	35443.5
697.539	35639.43
697.885	35332.55
698.231	35279.21
698.577	35304.75
698.923	35173.23
699.269	35122.61
699.614	34844.2
699.96	34795.84
700.306	34876.29
700.651	34819.79
700.997	34658.21
701.342	34524.66
701.688	34534.15
702.033	34368.96
702.379	34448.73
702.724	34267.49
703.069	34476.97
703.415	33965.58
703.76	34066.82
704.105	34025.69
704.45	33930.55
704.795	33625.02
705.14	33671.8
705.485	33627.73
705.83	33470
706.175	33575.76
706.52	33507.06
706.865	33271.58
707.209	33271.81
707.554	33129.89
707.899	33240.62
708.243	33065.26
708.588	32853.06
708.932	32797.24
709.277	32750.24
709.621	32766.51
709.966	32572.17
710.31	32539.62
710.654	32290.14
710.998	32377.37
711.342	32504.82
711.687	32319.29
712.031	32223.02
712.375	32127.21
712.719	32144.61
713.063	32075.91
713.407	32181.22
713.75	31922.01
714.094	32025.29
714.438	31887.89
714.782	31870.94
715.125	31702.81
715.469	31814.9
715.812	31560.22
716.156	31451.52
716.499	31513.66
716.843	31493.32
717.186	31280.67
717.53	31496.94
717.873	31403.84
718.216	31366.32
718.559	31211.3
718.902	31007.01
719.246	31189.38
719.589	31067.35
719.932	30779.44
720.275	30851.31
720.617	30768.6
720.96	30703.97
721.303	30768.6
721.646	30693.35
721.989	30435.73
722.331	30619.22
722.674	30586
723.016	30553.01
723.359	30553.01
723.701	30591.65
724.044	30270.98
724.386	30187.6
724.729	30373.35
725.071	30174.49
725.413	30141.95
725.755	30113.7
726.097	30035.28
726.439	29891.11
726.782	29934.27
727.124	30022.4
727.465	29829.87
727.807	29760.49
728.149	29894.72
728.491	29709.87
728.833	29785.35
729.175	29578.12
729.516	29562.75
729.858	29681.17
730.199	29507.16
730.541	29529.31
730.882	29489.54
731.224	29572.25
731.565	29360.05
731.906	29289.77
732.248	29358.69
732.589	29224.23
732.93	29116.89
733.271	29204.8
733.612	29284.57
733.953	29165.7
734.294	29068.08
734.635	29020.4
734.976	29081.41
735.317	28847.29
735.658	28959.83
735.999	28851.36
736.339	28769.78
736.68	28898.36
737.021	28809.33
737.361	28700.86
737.702	28643.68
738.042	28624.7
738.383	28543.8
738.723	28703.79
739.063	28516
739.404	28517.58
739.744	28426.51
740.084	28293.18
740.424	28358.72
740.764	28325.27
741.104	28443.69
741.444	28191.26
741.784	28224.48
742.124	28098.84
742.464	28087.54
742.804	28160.76
743.143	28016.35
743.483	28083.24
743.823	27823.14
744.162	27876.24
744.502	28067.43
744.841	27692.97
745.181	27904.04
745.52	27826.3
745.86	27741.78
746.199	27761.9
746.538	27798.28
746.877	27850.03
747.216	27737.72
747.556	27572.07
747.895	27635.12
748.234	27490.72
748.573	27469.02
748.911	27383.38
749.25	27455.01
749.589	27334.34
749.928	27359.87
750.267	27408.01
750.605	27303.83
750.944	27296.6
751.283	27139.09
751.621	27149.03
751.96	27047.34
752.298	27150.39
752.636	26935.48
752.975	26841.02
753.313	26832.66
753.651	26789.95
753.989	26758.53
754.327	26715.82
754.666	26564.87
755.004	26670.63
755.342	26653.45
755.679	26529.61
756.017	26455.26
756.355	26346.34
756.693	26358.09
757.031	26416.85
757.368	26145.22
757.706	26153.35
758.044	26115.16
758.381	26123.97
758.719	25937.31
759.056	26108.38
759.394	25911.78
759.731	25840.59
760.068	25708.39
760.405	25728.28
760.743	25639.92
761.08	25720.37
761.417	25405.57
761.754	25446.25
762.091	25403.09
762.428	25345.46
762.765	25283.77
763.102	25333.94
763.438	25176.43
763.775	25017.34
764.112	25108.63
764.449	25048.3
764.785	24998.13
765.122	24725.59
765.458	24660.74
765.795	24683.11
766.131	24721.53
766.467	24500.51
766.804	24437.01
767.14	24282.67
767.476	24307.07
767.812	24165.16
768.148	24240.18
768.485	24026.63
768.821	23899.4
769.157	23916.35
769.492	23857.37
769.828	23776.01
770.164	23607.66
770.5	23602.01
770.836	23580.76
771.171	23411.96
771.507	23437.27
771.842	23152.53
772.178	23169.25
772.513	23066.65
772.849	23002.93
773.184	22931.74
773.519	22946.2
773.855	22793.21
774.19	22696.49
774.525	22647.46
774.86	22551.19
775.195	22516.61
775.53	22341.47
775.865	22296.05
776.2	22138.99
776.535	21959.79
776.87	22023.52
777.205	21943.29
777.539	21834.82
777.874	21907.59
778.209	21705.11
778.543	21545.56
778.878	21504.21
779.212	21572.91
779.547	21348.51
779.881	21486.81
780.215	21280.26
780.55	21271.9
780.884	21191
781.218	21094.05
781.552	21056.31
781.886	20915.07
782.22	20835.75
782.554	20773.61
782.888	20614.51
783.222	20540.62
783.556	20450.22
783.889	20438.47
784.223	20248.42
784.557	20217.24
784.89	20304.24
785.224	20141.53
785.557	19996.68
785.891	19979.5
786.224	19937.7
786.558	19928.66
786.891	19740.87
787.224	19663.8
787.557	19462.68
787.891	19607.31
788.224	19543.13
788.557	19578.61
788.89	19370.25
789.223	19474.88
789.556	19325.73
789.888	19222.23
790.221	19220.65
790.554	18911.51
790.887	19009.81
791.219	19001.22
791.552	18940.66
791.884	18846.65
792.217	18746.99
792.549	18635.58
792.882	18631.29
793.214	18552.42
793.546	18522.82
793.879	18469.71
794.211	18288.25
794.543	18330.73
794.875	18343.39
795.207	18343.16
795.539	18202.83
795.871	18149.27
796.203	18020.91
796.535	17892.78
796.867	17876.73
797.198	17838.32
797.53	17849.62
797.862	17722.16
798.193	17730.52
798.525	17671.09
798.856	17586.12
799.188	17439.46
799.519	17368.27
799.85	17297.99
800.182	17276.98
800.513	17285.11
800.844	17101.61
801.175	17316.75
801.506	17175.73
801.837	17061.16
802.168	17046.02
802.499	17022.07
802.83	16843.77
803.161	16876.99
803.491	16837.89
803.822	16834.73
804.153	16738.01
804.483	16666.6
804.814	16567.84
805.145	16499.37
805.475	16528.52
805.805	16399.94
806.136	16355.19
806.466	16321.75
806.796	16381.86
807.126	16258.24
807.457	16191.35
807.787	16232.71
808.117	16166.95
808.447	16013.51
808.777	16092.15
809.107	15972.15
809.436	15989.1
809.766	15854.41
810.096	15862.1
810.426	15796.11
810.755	15827.52
811.085	15769.44
811.414	15751.14
811.744	15562.9
812.073	15676.11
812.403	15610.35
812.732	15427.08
813.061	15536.91
813.39	15472.95
813.719	15419.4
814.049	15392.5
814.378	15313.64
814.707	15331.26
815.036	15283.58
815.365	15204.49
815.693	15134.21
816.022	15066.19
816.351	14991.61
816.68	14992.06
817.008	15029.12
817.337	14816.47
817.665	14932.4
817.994	14931.27
818.322	14846.53
818.651	14799.75
818.979	14787.55
819.307	14836.81
819.636	14804.27
819.964	14621.23
820.292	14680.21
820.62	14685.63
820.948	14571.74
821.276	14644.73
821.604	14615.8
821.932	14631.85
822.259	14702.35
822.587	14605.41
822.915	14582.13
823.243	14541
823.57	14509.82
823.898	14546.2
824.225	14491.29
824.553	14547.1
824.88	14465.52
825.207	14610.38
825.535	14553.43
825.862	14529.93
826.189	14496.71
826.516	14635.24
826.843	14546.88
827.17	14573.09
827.497	14573.77
827.824	14548.01
828.151	14552.98
828.478	14447.67
828.805	14496.03
829.131	14539.19
829.458	14481.12
829.785	14405.86
830.111	14456.48
830.438	14543.26
830.764	14504.62
831.09	14521.79
831.417	14474.56
831.743	14426.88
832.069	14415.58
832.395	14406.09
832.722	14380.1
833.048	14415.58
833.374	14427.33
833.7	14277.05
834.026	14322.02
834.351	14331.29
834.677	14325.41
835.003	14378.07
835.329	14284.51
835.654	14353.44
835.98	14212.87
836.306	14164.74
836.631	14235.93
836.956	14197.28
837.282	14265.3
837.607	14160.22
837.932	14071.18
838.258	14089.26
838.583	14100.79
838.908	14014.91
839.233	14037.06
839.558	14019.21
839.883	14027.34
840.208	13989.15
840.533	13974.69
840.858	13944.86
841.182	13967.46
841.507	14031.41
841.832	13827.35
842.156	13730.18
842.481	13715.94
842.805	13763.62
843.13	13771.98
843.454	13698.99
843.778	13612.21
844.103	13661.7
844.427	13567.24
844.751	13623.29
845.075	13501.03
845.399	13505.32
845.723	13388.72
846.047	13413.12
846.371	13284.31
846.695	13278.89
847.019	13133.36
847.343	13124.54
847.666	13082.74
847.99	13025.34
848.313	12989.4
848.637	12914.15
848.96	12965.45
849.284	12807.26
849.607	12807.71
849.931	12763.42
850.254	12680.03
850.577	12616.76
850.9	12549.19
851.223	12521.17
851.546	12448.18
851.869	12415.18
852.192	12422.41
852.515	12271.68
852.838	12305.13
853.161	12334.28
853.483	12131.57
853.806	12087.73
854.129	12079.15
854.451	12139.48
854.774	12035.31
855.096	11992.37
855.419	12002.76
855.741	11997.34
856.063	11844.35
856.385	11864.46
856.708	11808.19
857.03	11727.97
857.352	11691.59
857.674	11772.04
857.996	11647.97
858.318	11571.36
858.64	11597.35
858.961	11578.14
859.283	11499.5
859.605	11470.57
859.926	11428.09
860.248	11529.1
860.57	11365.94
860.891	11484.81
861.212	11293.86
861.534	11274.87
861.855	11258.38
862.176	11259.73
862.498	11304.7
862.819	11390.35
863.14	11234.2
863.461	11276
863.782	11166.4
864.103	11121.66
864.424	11090.02
864.745	11148.1
865.065	11018.38
865.386	11042.79
865.707	11027.2
866.027	10984.71
866.348	10998.95
866.668	11008.67
866.989	10968.21
867.309	10859.97
867.63	10885.28
867.95	10914.2
868.27	10824.26
868.59	10827.88
868.91	10868.78
869.23	10784.49
869.55	10690.71
869.87	10826.75
870.19	10758.73
870.51	10806.64
870.83	10752.4
871.15	10751.72
871.469	10746.53
871.789	10739.75
872.109	10621.78
872.428	10667.88
872.748	10595.57
873.067	10586.08
873.386	10617.04
873.706	10607.09
874.025	10512.41
874.344	10514.67
874.663	10556.93
874.982	10499.75
875.301	10468.34
875.62	10413.2
875.939	10497.04
876.258	10414.1
876.577	10447.32
876.896	10444.39
877.214	10397.83
877.533	10340.21
877.852	10350.15
878.17	10336.14
878.489	10288.46
878.807	10334.11
879.125	10309.02
879.444	10225.64
879.762	10167.33
880.08	10223.38
880.398	10210.04
880.716	10158.07
881.034	10158.29
881.352	10223.15
881.67	10131.63
881.988	10090.05
882.306	10111.97
882.624	10080.55
882.941	10015.92
883.259	9981.12
883.577	9975.47
883.894	9929.37
884.212	9896.6
884.529	9855.93
884.846	9932.08
885.164	9860.67
885.481	9852.99
885.798	9809.15
886.115	9743.84
886.432	9793.56
886.75	9760.56
887.067	9787.45
887.383	9675.37
887.7	9692.09
888.017	9672.43
888.334	9695.48
888.651	9633.79
888.967	9613.67
889.284	9598.31
889.6	9586.56
889.917	9488.93
890.233	9529.83
890.55	9457.52
890.866	9489.16
891.182	9379.1
891.498	9369.39
891.815	9349.73
892.131	9330.97
892.447	9311.99
892.763	9290.07
893.079	9227.47
893.395	9232.44
893.71	9197.19
894.026	9220.69
894.342	9133.46
894.657	9132.56
894.973	9109.96
895.289	9014.14
895.604	8956.06
895.92	8982.28
896.235	8934.37
896.55	8936.4
896.865	8906.35
897.181	8846.91
897.496	8821.15
897.811	8796.29
898.126	8761.94
898.441	8806.01
898.756	8794.94
899.071	8708.16
899.386	8644.21
899.7	8600.37
900.015	8571.89
900.33	8541.16
900.644	8576.19
900.959	8530.76
901.273	8527.15
901.588	8423.65
901.902	8454.83
902.216	8311.56
902.531	8382.75
902.845	8370.99
903.159	8248.96
903.473	8278.79
903.787	8334.61
904.101	8215.97
904.415	8207.61
904.729	8156.76
905.042	8128.97
905.356	8088.97
905.67	8122.64
905.984	8025.01
906.297	8065.24
906.611	7985.47
906.924	7988.18
907.237	7921.06
907.551	7908.18
907.864	7908.41
908.177	7835.64
908.491	7823.21
908.804	7755.64
909.117	7728.53
909.43	7662.31
909.743	7597.23
910.056	7580.05
910.368	7609.21
910.681	7549.77
910.994	7503.9
911.307	7497.35
911.619	7443.11
911.932	7479.72
912.244	7457.57
912.557	7412.83
912.869	7349.33
913.181	7315.2
913.494	7281.76
913.806	7244.24
914.118	7280.63
914.43	7210.12
914.742	7144.81
915.054	7088.54
915.366	7142.33
915.678	7051.03
915.99	7032.5
916.302	7045.15
916.613	7031.82
916.925	6996.57
917.236	6956.79
917.548	6924.03
917.859	6898.94
918.171	6827.53
918.482	6778.95
918.794	6780.98
919.105	6765.39
919.416	6677.25
919.727	6715.44
920.038	6725.61
920.349	6608.56
920.66	6656.24
920.971	6614.66
921.282	6625.05
921.593	6522.23
921.903	6501.89
922.214	6454.89
922.525	6445.62
922.835	6426.86
923.146	6390.26
923.456	6364.27
923.767	6387.32
924.077	6333.53
924.387	6298.73
924.697	6263.71
925.008	6250.15
925.318	6185.97
925.628	6182.8
925.938	6192.07
926.248	6121.34
926.558	6130.38
926.867	6081.11
927.177	6091.51
927.487	6029.14
927.796	5996.82
928.106	6001.34
928.416	5968.8
928.725	5897.84
929.034	5894.22
929.344	5901.91
929.653	5874.11
929.962	5793.66
930.271	5799.99
930.581	5721.57
930.89	5769.03
931.199	5735.36
931.508	5724.74
931.817	5731.06
932.125	5677.28
932.434	5602.93
932.743	5566.55
933.051	5579.43
933.36	5534.23
933.669	5482.48
933.977	5497.62
934.286	5484.97
934.594	5446.78
934.902	5450.85
935.21	5464.4
935.519	5407.68
935.827	5385.99
936.135	5351.19
936.443	5344.63
936.751	5296.73
937.059	5291.75
937.367	5224.86
937.674	5249.72
937.982	5230.06
938.29	5230.51
938.597	5197.97
938.905	5130.85
939.213	5082.49
939.52	5075.94
939.827	5146.22
940.135	5053.79
940.442	5061.03
940.749	5028.94
941.056	5028.94
941.363	4949.84
941.67	4960.91
941.977	4893.57
942.284	4917.98
942.591	4921.59
942.898	4852.89
943.205	4862.39
943.511	4877.3
943.818	4785.55
944.125	4788.94
944.431	4779
944.738	4757.98
945.044	4710.98
945.35	4701.49
945.657	4683.86
945.963	4640.47
946.269	4635.73
946.575	4602.73
946.881	4606.57
947.187	4581.49
947.493	4553.24
947.799	4548.95
948.105	4563.41
948.41	4469.63
948.716	4480.02
949.022	4493.13
949.327	4440.93
949.633	4419.69
949.938	4424.66
950.244	4412
950.549	4336.98
950.854	4367.48
951.16	4317.32
951.465	4315.28
951.77	4276.19
952.075	4282.97
952.38	4276.86
952.685	4235.74
952.99	4180.37
953.294	4235.06
953.599	4210.43
953.904	4188.28
954.209	4199.35
954.513	4141.95
954.818	4162.97
955.122	4141.28
955.426	4151.44
955.731	4062.41
956.035	4058.34
956.339	4058.34
956.643	3988.74
956.948	4005.69
957.252	3981.28
957.556	3962.07
957.86	3967.95
958.163	3918.46
958.467	3940.15
958.771	3936.99
959.075	3926.59
959.378	3849.98
959.682	3817.67
959.985	3827.39
960.289	3795.97
960.592	3821.96
960.896	3775.18
961.199	3756.43
961.502	3728.18
961.805	3733.83
962.108	3715.07
962.411	3694.51
962.714	3678.69
963.017	3668.07
963.32	3649.99
963.623	3637.11
963.926	3631.23
964.228	3605.7
964.531	3575.64
964.833	3560.05
965.136	3567.51
965.438	3516.88
965.741	3494.96
966.043	3530.44
966.345	3525.25
966.648	3497.45
966.95	3451.35
967.252	3431.92
967.554	3451.8
967.856	3451.8
968.158	3366.38
968.46	3404.8
968.761	3374.06
969.063	3384.91
969.365	3320.51
969.666	3345.82
969.968	3291.81
970.269	3308.75
970.571	3323.9
970.872	3264.91
971.174	3267.17
971.475	3296.78
971.776	3257
972.077	3241.41
972.378	3202.09
972.679	3180.4
972.98	3200.06
973.281	3134.07
973.582	3127.97
973.883	3151.7
974.183	3097.69
974.484	3137.01
974.785	3109.89
975.085	3118.93
975.386	3105.37
975.686	3064.24
975.986	3014.75
976.287	3031.93
976.587	3021.76
976.887	3016.33
977.187	2969.55
977.487	2955.09
977.787	2960.74
978.087	2953.96
978.387	2923.45
978.687	2871.7
978.987	2924.36
979.286	2898.14
979.586	2899.5
979.885	2857.92
980.185	2844.59
980.484	2829.22
980.784	2843.91
981.083	2818.37
981.382	2789.22
981.682	2774.08
981.981	2788.54
982.28	2779.96
982.579	2744.48
982.878	2747.19
983.177	2731.59
983.475	2683.46
983.774	2678.26
984.073	2683.91
984.372	2699.96
984.67	2654.99
984.969	2668.77
985.267	2643.46
985.566	2648.66
985.864	2629.9
986.162	2601.2
986.461	2600.07
986.759	2575.44
987.057	2561.88
987.355	2526.4
987.653	2544.03
987.951	2537.02
988.249	2537.93
988.547	2535.44
988.844	2502.67
989.142	2501.77
989.44	2470.58
989.737	2478.49
990.035	2443.69
990.332	2443.01
990.63	2440.3
990.927	2448.44
991.224	2413.19
991.521	2397.82
991.819	2407.54
992.116	2410.7
992.413	2369.12
992.71	2374.77
993.006	2334.09
993.303	2343.58
993.6	2343.81
993.897	2328.44
994.193	2331.83
994.49	2319.4
994.787	2274.88
995.083	2270.59
995.379	2235.79
995.676	2281.44
995.972	2273.98
996.268	2218.84
996.565	2236.47
996.861	2210.48
997.157	2182.68
997.453	2143.81
997.749	2170.71
998.044	2157.6
998.34	2152.85
998.636	2164.6
998.932	2119.86
999.227	2127.54
999.523	2096.81
999.818	2108.56
1000.114	2083.25
1000.409	2086.41
1000.704	2068.11
1001	2046.87
1001.295	2044.83
1001.59	2073.31
1001.885	2036.02
1002.18	2019.98
1002.475	2029.01
1002.77	2005.06
1003.065	1950.37
1003.359	1945.85
1003.654	1990.82
1003.949	1958.28
1004.243	1933.42
1004.538	1933.2
1004.832	1931.62
1005.127	1900.2
1005.421	1879.41
1005.715	1882.8
1006.009	1855.69
1006.304	1905.85
1006.598	1823.14
1006.892	1858.85
1007.186	1810.72
1007.48	1831.51
1007.773	1790.15
1008.067	1796.25
1008.361	1827.21
1008.655	1793.31
1008.948	1810.49
1009.242	1797.61
1009.535	1780.21
1009.829	1742.69
1010.122	1723.03
1010.415	1735.24
1010.708	1713.09
1011.001	1673.77
1011.295	1709.7
1011.588	1740.66
1011.881	1685.75
1012.173	1641.45
1012.466	1695.01
1012.759	1627.67
1013.052	1625.18
1013.344	1657.27
1013.637	1621.34
1013.93	1631.74
1014.222	1636.03
1014.514	1594
1014.807	1559.42
1015.099	1572.3
1015.391	1560.33
1015.683	1558.52
1015.976	1537.95
1016.268	1563.26
1016.56	1521.68
1016.851	1524.62
1017.143	1525.07
1017.435	1504.51
1017.727	1494.79
1018.018	1478.75
1018.31	1488.01
1018.602	1468.35
1018.893	1504.96
1019.185	1453.66
1019.476	1452.08
1019.767	1442.36
1020.058	1417.28
1020.35	1411.63
1020.641	1397.84
1020.932	1398.07
1021.223	1400.56
1021.514	1366.21
1021.804	1355.59
1022.095	1358.52
1022.386	1326.43
1022.677	1332.99
1022.967	1326.21
1023.258	1359.65
1023.548	1343.83
1023.839	1282.59
1024.129	1332.31
1024.419	1286.89
1024.709	1267
1025	1283.27
1025.29	1262.71
1025.58	1257.28
1025.87	1238.3
1026.16	1253.44
1026.449	1243.05
1026.739	1218.64
1027.029	1234.91
1027.319	1188.36
1027.608	1207.34
1027.898	1191.75
1028.187	1192.2
1028.477	1171.86
1028.766	1185.87
1029.055	1180.9
1029.344	1154.46
1029.634	1179.32
1029.923	1123.05
1030.212	1122.37
1030.501	1130.96
1030.79	1130.28
1031.078	1118.3
1031.367	1093.45
1031.656	1078.08
1031.945	1106.1
1032.233	1083.95
1032.522	1065.88
1032.81	1090.28
1033.099	1078.98
1033.387	1065.2
1033.675	1046.22
1033.963	1037.18
1034.251	1051.86
1034.54	1016.61
1034.828	1042.83
1035.116	1037.63
1035.403	1018.19
1035.691	1011.19
1035.979	1007.57
1036.267	998.31
1036.554	1005.54
1036.842	1010.06
1037.129	985.2
1037.417	966.67
1037.704	965.77
1037.992	955.14
1038.279	959.89
1038.566	991.08
1038.853	991.08
1039.14	991.08
