Data from hue_26_FLMS001491_00094.txt Node
Date: Tue Feb 07 17:14:50 GMT 2017
User: dcchb
Spectrometer: FLMS00149
Trigger mode: 0
Integration Time (sec): 2.000000E-2
Scans to average: 10
Electric dark correction enabled: true
Nonlinearity correction enabled: false
Boxcar width: 0
XAxis mode: Wavelengths
Number of Pixels in Spectrum: 2048
>>>>>Begin Spectral Data<<<<<
341.393	-0.97
341.776	-0.97
342.16	-0.97
342.543	-59.05
342.927	-66.96
343.31	-65.61
343.693	-55.44
344.077	-62.67
344.46	-75.77
344.843	-43.69
345.226	-45.95
345.61	-31.71
345.993	-17.47
346.376	-8.43
346.759	27.05
347.142	21.62
347.525	28.4
347.908	60.04
348.291	65.24
348.674	83.99
349.057	120.38
349.44	135.07
349.823	155.18
350.206	166.7
350.588	192.24
350.971	226.59
351.354	222.97
351.737	260.49
352.119	247.15
352.502	276.76
352.884	283.09
353.267	300.03
353.65	282.86
354.032	311.56
354.414	322.18
354.797	312.24
355.179	329.86
355.562	331.9
355.944	334.16
356.326	321.73
356.709	327.83
357.091	347.49
357.473	341.84
357.855	357.66
358.238	335.97
358.62	387.94
359.002	353.14
359.384	370.54
359.766	343.65
360.148	338.45
360.53	350.43
360.912	347.49
361.294	332.58
361.676	322.63
362.057	329.19
362.439	347.04
362.821	344.33
363.203	326.7
363.584	352.24
363.966	321.95
364.348	326.47
364.729	333.03
365.111	334.84
365.493	343.2
365.874	338.23
366.256	333.48
366.637	321.95
367.019	333.03
367.4	320.37
367.781	360.37
368.163	315.85
368.544	331.45
368.925	352.69
369.306	331.45
369.688	324.89
370.069	349.52
370.45	327.83
370.831	337.55
371.212	327.6
371.593	337.77
371.974	353.59
372.355	332.35
372.736	318.79
373.117	349.98
373.498	333.71
373.879	320.37
374.26	348.17
374.641	327.6
375.021	342.07
375.402	341.84
375.783	351.56
376.163	343.88
376.544	355.63
376.925	343.65
377.305	341.62
377.686	342.75
378.066	359.02
378.447	345.68
378.827	353.82
379.208	362.86
379.588	345.01
379.968	376.42
380.349	341.84
380.729	344.55
381.109	361.5
381.489	361.95
381.87	357.89
382.25	375.74
382.63	357.89
383.01	358.11
383.39	374.61
383.77	376.42
384.15	366.02
384.53	424.33
384.91	396.53
385.29	374.83
385.67	361.95
386.049	401.95
386.429	396.76
386.809	375.96
387.189	378
387.568	410.54
387.948	395.17
388.328	394.04
388.707	403.76
389.087	384.55
389.466	410.77
389.846	410.99
390.225	414.61
390.605	414.61
390.984	395.4
391.363	439.01
391.743	413.25
392.122	413.93
392.501	390.2
392.881	416.19
393.26	413.25
393.639	436.3
394.018	412.57
394.397	416.19
394.776	443.08
395.155	418
395.534	414.83
395.913	419.58
396.292	426.36
396.671	444.44
397.05	442.86
397.429	436.75
397.808	441.5
398.186	455.06
398.565	458.45
398.944	467.04
399.323	454.83
399.701	450.54
400.08	447.38
400.458	465.45
400.837	479.01
401.215	446.25
401.594	477.88
401.972	474.04
402.351	476.3
402.729	459.35
403.107	486.24
403.486	476.3
403.864	486.7
404.242	463.65
404.62	505
404.999	495.06
405.377	485.57
405.755	521.05
406.133	519.46
406.511	522.85
406.889	516.07
407.267	512.23
407.645	520.37
408.023	520.82
408.401	530.31
408.779	510.42
409.156	529.63
409.534	546.13
409.912	557.88
410.29	542.74
410.667	561.04
411.045	555.85
411.422	566.69
411.8	560.82
412.178	559.24
412.555	561.72
412.933	577.32
413.31	571.44
413.687	594.49
414.065	590.42
414.442	593.81
414.819	608.05
415.197	606.92
415.574	628.61
415.951	622.51
416.328	632
416.705	596.52
417.082	615.05
417.46	614.38
417.837	627.71
418.214	635.39
418.591	637.65
418.967	656.18
419.344	642.4
419.721	631.33
420.098	653.25
420.475	656.41
420.852	669.29
421.228	683.53
421.605	674.71
421.982	708.84
422.358	680.14
422.735	693.92
423.111	700.02
423.488	687.14
423.864	712.23
424.241	708.16
424.617	692.57
424.994	699.12
425.37	743.19
425.746	725.79
426.123	749.74
426.499	731.66
426.875	746.8
427.251	763.75
427.627	775.73
428.003	768.27
428.379	794.71
428.756	773.69
429.132	785.9
429.507	799.91
429.883	815.05
430.259	817.76
430.635	840.81
431.011	820.92
431.387	835.39
431.763	859.34
432.138	843.97
432.514	888.95
432.89	885.78
433.265	879
433.641	876.52
434.016	900.02
434.392	917.42
434.767	912.67
435.143	927.59
435.518	928.72
435.894	925.78
436.269	966.46
436.644	957.42
437.02	937.98
437.395	969.4
437.77	972.79
438.145	976.85
438.52	1003.07
438.895	1011.2
439.271	1031.31
439.646	1034.03
440.021	1052.11
440.395	1047.13
440.77	1028.38
441.145	1049.62
441.52	1055.49
441.895	1044.65
442.27	1098.88
442.645	1098.21
443.019	1100.47
443.394	1115.38
443.769	1073.35
444.143	1074.25
444.518	1076.96
444.892	1109.28
445.267	1113.12
445.641	1134.14
446.016	1147.47
446.39	1137.53
446.764	1135.04
447.139	1122.61
447.513	1165.32
447.887	1187.92
448.262	1187.47
448.636	1189.05
449.01	1176.17
449.384	1217.3
449.758	1215.04
450.132	1227.47
450.506	1240.12
450.88	1262.04
451.254	1247.13
451.628	1257.52
452.002	1253.68
452.376	1287.58
452.75	1301.59
453.123	1323.06
453.497	1336.84
453.871	1329.39
454.244	1333.91
454.618	1359.89
454.992	1381.14
455.365	1373.9
455.739	1409.38
456.112	1405.09
456.486	1407.58
456.859	1449.61
457.232	1462.49
457.606	1467.01
457.979	1454.58
458.352	1502.04
458.725	1521.02
459.099	1539.32
459.472	1568.48
459.845	1584.29
460.218	1573.9
460.591	1602.37
460.964	1607.34
461.337	1655.25
461.71	1662.26
462.083	1663.39
462.456	1692.54
462.829	1742.26
463.201	1721.69
463.574	1718.98
463.947	1781.8
464.32	1801.46
464.692	1834.23
465.065	1838.07
465.438	1869.26
465.81	1876.72
466.183	1886.89
466.555	1930.5
466.928	1941.8
467.3	1954
467.672	1999.88
468.045	2034.23
468.417	2046.2
468.789	2076.26
469.161	2073.1
469.534	2134.11
469.906	2175.01
470.278	2184.73
470.65	2239.19
471.022	2255.69
471.394	2330.26
471.766	2327.78
472.138	2384.27
472.51	2403.71
472.882	2438.74
473.253	2463.37
473.625	2544.04
473.997	2606.87
474.369	2598.28
474.74	2645.96
475.112	2665.62
475.484	2692.51
475.855	2823.13
476.227	2814.54
476.598	2924.15
476.97	2906.97
477.341	3005.05
477.713	3053.63
478.084	3094.76
478.455	3166.4
478.827	3203.23
479.198	3293.18
479.569	3310.58
479.94	3368.43
480.311	3396.22
480.682	3559.84
481.053	3604.13
481.424	3676.22
481.795	3715.31
482.166	3803.67
482.537	3842.77
482.908	3912.82
483.279	3982.65
483.65	4082.76
484.021	4148.97
484.391	4212.93
484.762	4269.42
485.133	4292.02
485.503	4357.1
485.874	4502.18
486.244	4542.86
486.615	4642.97
486.985	4708.96
487.356	4802.97
487.726	4869.41
488.097	4950.99
488.467	5037.54
488.837	5102.85
489.207	5213.58
489.578	5252.45
489.948	5359.34
490.318	5415.61
490.688	5438.66
491.058	5549.61
491.428	5662.15
491.798	5705.09
492.168	5830.51
492.538	5845.88
492.908	5925.65
493.278	6013.56
493.648	6076.61
494.017	6087
494.387	6201.35
494.757	6304.62
495.126	6354.34
495.496	6425.75
495.866	6453.09
496.235	6566.31
496.605	6543.49
496.974	6607.89
497.344	6689.47
497.713	6768.34
498.082	6824.38
498.452	6813.31
498.821	6893.31
499.19	6919.97
499.559	7045.39
499.928	7067.54
500.298	7103.25
500.667	7196.8
501.036	7190.7
501.405	7327.19
501.774	7303.47
502.143	7337.14
502.512	7366.74
502.88	7496.46
503.249	7499.17
503.618	7567.87
503.987	7627.98
504.356	7618.71
504.724	7711.14
505.093	7714.75
505.462	7844.02
505.83	7879.72
506.199	7865.49
506.567	8020.96
506.936	8000.85
507.304	8092.15
507.672	8114.29
508.041	8167.17
508.409	8146.38
508.777	8272.71
509.145	8315.87
509.514	8322.2
509.882	8362.65
510.25	8352.7
510.618	8385.02
510.986	8447.62
511.354	8521.06
511.722	8548.41
512.09	8616.65
512.458	8650.32
512.826	8714.73
513.193	8777.55
513.561	8745.24
513.929	8852.13
514.297	8938.23
514.664	8873.59
515.032	8909.07
515.4	8998.34
515.767	9126.24
516.135	9129.63
516.502	9071.78
516.869	9201.72
517.237	9236.3
517.604	9236.75
517.972	9364.65
518.339	9372.11
518.706	9410.3
519.073	9445.56
519.44	9492.34
519.808	9547.93
520.175	9582.5
520.542	9669.28
520.909	9702.27
521.276	9676.06
521.643	9834.25
522.009	9863.62
522.376	9908.14
522.743	9944.98
523.11	9990.63
523.477	10106.33
523.843	10147.91
524.21	10212.99
524.577	10322.14
524.943	10302.48
525.31	10323.73
525.676	10521.23
526.043	10467.22
526.409	10620.44
526.776	10656.82
527.142	10751.74
527.508	10708.35
527.874	10789.48
528.241	10928.91
528.607	10853.2
528.973	11013.2
529.339	11066.76
529.705	11195.57
530.071	11196.47
530.437	11204.38
530.803	11296.36
531.169	11361.89
531.535	11369.8
531.901	11440.08
532.267	11542.68
532.632	11560.98
532.998	11562.11
533.364	11680.98
533.73	11622
534.095	11848.88
534.461	11782.44
534.826	11933.63
535.192	11948.32
535.557	12010.69
535.923	11984.92
536.288	12088.2
536.653	12106.96
537.019	12038.48
537.384	12192.15
537.749	12245.71
538.114	12353.73
538.479	12308.53
538.845	12428.08
539.21	12446.16
539.575	12476.44
539.94	12541.97
540.305	12624.68
540.67	12598.47
541.034	12656.32
541.399	12752.59
541.764	12778.8
542.129	12775.41
542.494	12855.41
542.858	12898.35
543.223	12843.43
543.587	12988.06
543.952	13001.4
544.316	13096.31
544.681	13156.65
545.045	13230.54
545.41	13283.65
545.774	13341.5
546.138	13310.54
546.503	13392.35
546.867	13446.58
547.231	13654.03
547.595	13541.49
547.959	13616.75
548.324	13659.68
548.688	13746.91
549.052	13722.05
549.416	13827.36
549.779	13839.57
550.143	13866.01
550.507	14014.25
550.871	14016.51
551.235	14008.83
551.599	14086.56
551.962	14112.55
552.326	14171.99
552.689	14262.61
553.053	14137.41
553.417	14278.65
553.78	14411.75
554.143	14367.01
554.507	14539.89
554.87	14532.2
555.234	14700.56
555.597	14569.94
555.96	14603.16
556.323	14770.39
556.686	14730.16
557.05	14799.99
557.413	14886.77
557.776	14854.23
558.139	14976.94
558.502	14997.73
558.865	15058.74
559.228	15203.6
559.59	15176.03
559.953	15235.01
560.316	15314.33
560.679	15373.31
561.041	15423.25
561.404	15507.32
561.767	15609.91
562.129	15563.36
562.492	15621.21
562.854	15652.63
563.217	15775.79
563.579	15828.44
563.941	15819.63
564.304	15957.7
564.666	16015.55
565.028	16109.11
565.39	16091.03
565.753	16138.94
566.115	16222.55
566.477	16319.73
566.839	16350.01
567.201	16448.54
567.563	16435.43
567.925	16563.56
568.287	16592.04
568.648	16701.19
569.01	16820.5
569.372	16815.76
569.734	16803.78
570.095	16934.17
570.457	16979.82
570.819	17051.46
571.18	17149.76
571.542	17173.49
571.903	17284.22
572.265	17394.5
572.626	17373.94
572.987	17427.95
573.349	17566.47
573.71	17631.56
574.071	17741.84
574.432	17839.46
574.794	18045.56
575.155	18060.47
575.516	18038.78
575.877	18159.23
576.238	18330.07
576.599	18436.05
576.96	18580.91
577.32	18565.32
577.681	18759.21
578.042	18841.69
578.403	18942.26
578.763	19010.05
579.124	19212.98
579.485	19424.73
579.845	19507.67
580.206	19693.65
580.566	19891.16
580.927	20088.89
581.287	20211.6
581.648	20312.62
582.008	20700.18
582.368	20742.43
582.728	21019.49
583.089	21029.88
583.449	21345.81
583.809	21621.73
584.169	21939.92
584.529	22083.42
584.889	22536.29
585.249	22588.49
585.609	22796.62
585.969	23103.95
586.329	23390.5
586.688	23670.72
587.048	23915.91
587.408	24119.3
587.768	24364.03
588.127	24598.83
588.487	25026.16
588.846	25494.4
589.206	25598.8
589.565	25792.47
589.925	26464.09
590.284	26675.16
590.643	27033.34
591.003	27390.62
591.362	27878.97
591.721	28133.65
592.08	28611.83
592.44	28890.92
592.799	29299.27
593.158	29632.6
593.517	29965.24
593.876	30361.62
594.235	30687.26
594.593	30944.2
594.952	31465.99
595.311	31750.73
595.67	32226.43
596.029	32860.08
596.387	33176.23
596.746	33406.06
597.104	33741.19
597.463	34081.52
597.822	34641.96
598.18	34878.79
598.538	35226.35
598.897	35645.55
599.255	35930.51
599.613	36722.81
599.972	36714.9
600.33	37286.18
600.688	37578.15
601.046	37930.01
601.404	38432.37
601.762	38562.31
602.12	39142.63
602.478	39417.65
602.836	39746
603.194	39993.91
603.552	40322.94
603.91	40490.84
604.268	41004.5
604.625	41262.12
604.983	41776.68
605.341	41831.15
605.698	42435.65
606.056	42675.42
606.413	42953.83
606.771	43347.26
607.128	43541.38
607.485	43639.91
607.843	43946.8
608.2	44454.13
608.557	44803.95
608.914	45008.69
609.272	45332.97
609.629	45598.96
609.986	45917.37
610.343	46006.86
610.7	46338.6
611.057	46571.13
611.414	46735.42
611.771	47052.25
612.127	47329.31
612.484	47477.1
612.841	47699.01
613.198	47816.53
613.554	48057.2
613.911	48438.66
614.267	48483.63
614.624	48636.84
614.98	48800
615.337	49114.57
615.693	49193.44
616.05	49242.7
616.406	49657.61
616.762	49609.7
617.118	49784.16
617.475	49886.98
617.831	50139.85
618.187	50328.55
618.543	50390.69
618.899	50545.72
619.255	50601.99
619.611	50614.64
619.967	50833.62
620.323	51058.93
620.678	50954.97
621.034	50987.06
621.39	51060.06
621.746	51185.25
622.101	51656.88
622.457	51453.72
622.812	51602.87
623.168	51686.71
623.523	51806.7
623.879	51883.08
624.234	51841.05
624.589	51962.86
624.945	52015.74
625.3	52196.75
625.655	52107.49
626.01	52299.35
626.365	52297.09
626.72	52403.07
627.075	52340.7
627.43	52537.08
627.785	52495.72
628.14	52515.61
628.495	52623.18
628.85	52670.41
629.205	52544.31
629.559	52791.08
629.914	52601.94
630.269	52728.94
630.623	52716.74
630.978	52692.78
631.332	52809.39
631.687	52880.8
632.041	52807.81
632.396	52869.27
632.75	52775.26
633.104	52832.89
633.459	52750.63
633.813	52682.16
634.167	52780.91
634.521	52722.16
634.875	52847.58
635.229	52872.21
635.583	52689.17
635.937	52831.53
636.291	52714.7
636.645	52861.59
636.999	52745.44
637.352	52879.67
637.706	52649.62
638.06	52832.21
638.413	52733.68
638.767	52710.41
639.121	52764.19
639.474	52621.37
639.828	52665.44
640.181	52749.5
640.534	52702.95
640.888	52646.91
641.241	52558.77
641.594	52611.88
641.947	52688.26
642.301	52657.53
642.654	52634.03
643.007	52655.27
643.36	52530.98
643.713	52636.96
644.066	52751.76
644.419	52496.85
644.771	52368.04
645.124	52006.25
645.477	51979.13
645.83	51775.74
646.182	51769.87
646.535	51651.23
646.888	51717.67
647.24	51558.57
647.593	51750.66
647.945	51679.7
648.298	51487.16
648.65	51413.27
649.002	51465.69
649.355	51648.97
649.707	51568.06
650.059	51695.07
650.411	52038.34
650.763	52068.62
651.115	52378.21
651.467	52321.94
651.819	52245.56
652.171	52096.41
652.523	52113.81
652.875	52114.94
653.227	51996.98
653.578	52259.12
653.93	52068.16
654.282	52030.88
654.633	51961.27
654.985	52069.29
655.337	52034.27
655.688	52101.61
656.039	52231.32
656.391	51959.92
656.742	51949.52
657.094	51975.06
657.445	52140.25
657.796	52010.99
658.147	52003.76
658.498	51912.46
658.849	52018.22
659.2	51959.02
659.551	51802.18
659.902	51913.82
660.253	51880.83
660.604	52025.68
660.955	51835.85
661.306	51973.03
661.656	51896.64
662.007	51980.03
662.358	51970.09
662.708	51908.85
663.059	51946.81
663.409	51693.71
663.76	51989.75
664.11	51981.16
664.461	52000.6
664.811	51974.61
665.161	51944.33
665.511	51803.31
665.862	51826.14
666.212	51844.44
666.562	51862.07
666.912	51829.53
667.262	51793.37
667.612	51806.02
667.962	51828.62
668.312	51785.01
668.662	51926.93
669.011	51706.14
669.361	51710.43
669.711	51733.26
670.06	51643.09
670.41	51619.82
670.76	51549.53
671.109	51693.71
671.459	51638.8
671.808	51524.9
672.157	51675.86
672.507	51413.49
672.856	51474.96
673.205	51589.31
673.554	51565.35
673.904	51393.83
674.253	51714.28
674.602	51584.34
674.951	51028.19
675.3	50974.86
675.649	51504.11
675.998	51469.08
676.346	51413.49
676.695	51456.66
677.044	51290.33
677.393	51504.79
677.741	51425.24
678.09	51401.74
678.438	51250.79
678.787	51348.64
679.135	51322.42
679.484	51092.6
679.832	51201.97
680.181	51050.56
680.529	51153.61
680.877	51046.5
681.225	50987.97
681.573	51189.77
681.922	50912.26
682.27	50920.17
682.618	50800.4
682.966	50762.44
683.314	50849.44
683.661	50759.05
684.009	50538.04
684.357	50441.54
684.705	50424.59
685.053	50517.02
685.4	50413.29
685.748	50322.9
686.095	50395.89
686.443	50107.76
686.79	50153.41
687.138	50172.17
687.485	50034.55
687.832	50031.38
688.18	50090.82
688.527	49845.4
688.874	49885.85
689.221	49663.26
689.568	49735.57
689.915	49656.48
690.262	49680.66
690.609	49465.07
690.956	49284.74
691.303	49301.91
691.65	49234.57
691.997	49163.61
692.344	48993.44
692.69	48968.81
693.037	48937.17
693.383	48504.42
693.73	48685.65
694.077	48568.14
694.423	48462.38
694.769	48378.77
695.116	48329.51
695.462	48113.92
695.808	48199.79
696.155	48224.42
696.501	47955.73
696.847	47863.53
697.193	47565.23
697.539	47842.06
697.885	47462.41
698.231	47429.87
698.577	47406.82
698.923	47356.42
699.269	47293.6
699.614	47083.44
699.96	46961.63
700.306	47094.74
700.651	46868.75
700.997	46747.17
701.342	46743.33
701.688	46511.93
702.033	46490.01
702.379	46466.5
702.724	46306.06
703.069	46242.78
703.415	45965.73
703.76	45992.17
704.105	45977.03
704.45	45859.06
704.795	45551.5
705.14	45498.62
705.485	45592.63
705.83	45318.74
706.175	45368.68
706.52	45372.97
706.865	45125.3
707.209	45090.95
707.554	44877.17
707.899	44960.1
708.243	44659.55
708.588	44578.87
708.932	44400.8
709.277	44307.24
709.621	44387.91
709.966	44122.84
710.31	44246.22
710.654	43929.17
710.998	43968.94
711.342	43928.49
711.687	43832.9
712.031	43783.18
712.375	43562.17
712.719	43753.58
713.063	43520.82
713.407	43581.61
713.75	43457.54
714.094	43382.29
714.438	43244.44
714.782	43321.95
715.125	42979.14
715.469	43017.33
715.812	43028.18
716.156	42754.96
716.499	42763.32
716.843	42816.66
717.186	42611.46
717.53	42669.99
717.873	42743.66
718.216	42553.39
718.559	42358.36
718.902	42078.37
719.246	42227.07
719.589	42115.88
719.932	41939.84
720.275	42079.5
720.617	41962.44
720.96	41894.42
721.303	41937.81
721.646	41941.65
721.989	41583.92
722.331	41733.07
722.674	41540.53
723.016	41496.47
723.359	41549.57
723.701	41587.54
724.044	41427.54
724.386	41092.63
724.729	41302.12
725.071	41109.13
725.413	40969.93
725.755	40925.18
726.097	40818.97
726.439	40779.42
726.782	40592.31
727.124	40773.32
727.465	40442.93
727.807	40623.27
728.149	40494.91
728.491	40489.03
728.833	40503.95
729.175	40333.33
729.516	40301.24
729.858	40242.94
730.199	40247.23
730.541	40141.02
730.882	40037.75
731.224	40237.06
731.565	39928.6
731.906	39924.76
732.248	39973.34
732.589	39680.47
732.93	39705.78
733.271	39702.84
733.612	39762.95
733.953	39684.08
734.294	39458.55
734.635	39420.81
734.976	39546.69
735.317	39443.19
735.658	39388.72
735.999	39328.16
736.339	39328.16
736.68	39366.35
737.021	39110.54
737.361	39029.64
737.702	39048.62
738.042	39035.06
738.383	38902.41
738.723	38926.59
739.063	38762.3
739.404	38774.96
739.744	38823.54
740.084	38614.51
740.424	38661.74
740.764	38634.62
741.104	38573.15
741.444	38387.17
741.784	38380.62
742.124	38307.17
742.464	38271.01
742.804	38195.99
743.143	38222.65
743.483	38088.65
743.823	37944.92
744.162	38019.95
744.502	38032.15
744.841	37968.87
745.181	37990.79
745.52	37683.46
745.86	37850.91
746.199	37765.26
746.538	37658.83
746.877	37770.24
747.216	37664.02
747.556	37576.34
747.895	37629
748.234	37598.94
748.573	37440.07
748.911	37403.47
749.25	37349
749.589	37202.34
749.928	37382.45
750.267	37210.48
750.605	36993.31
750.944	37030.14
751.283	36914.89
751.621	36959.64
751.96	36711.28
752.298	36755.12
752.636	36835.35
752.975	36662.24
753.313	36413.89
753.651	36599.65
753.989	36354.45
754.327	36265.42
754.666	36121.01
755.004	36253.21
755.342	36329.6
755.679	36187.45
756.017	35907.01
756.355	36057.29
756.693	35862.04
757.031	35941.13
757.368	35636.28
757.706	35625.43
758.044	35488.04
758.381	35598.77
758.719	35389.28
759.056	35432.44
759.394	35303.63
759.731	35046.47
760.068	35020.03
760.405	34975.96
760.743	34933.25
761.08	35033.81
761.417	34526.03
761.754	34702.97
762.091	34650.32
762.428	34413.49
762.765	34293.26
763.102	34380.04
763.438	34174.4
763.775	34061.18
764.112	34145.47
764.449	34027.74
764.785	33902.09
765.122	33734.41
765.458	33586.16
765.795	33558.82
766.131	33558.14
766.467	33401.54
766.804	33131.71
767.14	32942.57
767.476	32896.47
767.812	32845.17
768.148	32953.41
768.485	32765.4
768.821	32570.6
769.157	32420.09
769.492	32472.52
769.828	32351.62
770.164	31987.11
770.5	31937.62
770.836	31955.25
771.171	31800
771.507	31712.99
771.842	31547.35
772.178	31522.72
772.513	31447.92
772.849	31418.31
773.184	31173.57
773.519	31161.14
773.855	31028.04
774.19	30828.5
774.525	30809.97
774.86	30758.22
775.195	30633.25
775.53	30595.28
775.865	30387.38
776.2	30229.42
776.535	30032.59
776.87	30025.35
777.205	29905.36
777.539	29820.61
777.874	29887.28
778.209	29690.9
778.543	29605.93
778.878	29486.16
779.212	29306.05
779.547	29146.51
779.881	29216.56
780.215	29008.66
780.55	29010.47
780.884	28859.06
781.218	28772.28
781.552	28769.57
781.886	28469.24
782.22	28348.11
782.554	28363.48
782.888	27998.74
783.222	28017.95
783.556	27912.64
783.889	27850.04
784.223	27733.89
784.557	27717.17
784.89	27632.2
785.224	27523.95
785.557	27255.03
785.891	27269.72
786.224	27159.67
786.558	27052.1
786.891	26847.36
787.224	26756.06
787.557	26817.3
787.891	26707.93
788.224	26598.55
788.557	26663.18
788.89	26496.41
789.223	26535.5
789.556	26267.04
789.888	26234.04
790.221	26047.15
790.554	25760.38
790.887	25826.82
791.219	25822.53
791.552	25749.53
791.884	25702.53
792.217	25499.82
792.549	25533.95
792.882	25243.33
793.214	25289.21
793.546	25328.98
793.879	25076.78
794.211	24940.06
794.543	25042.89
794.875	24850.12
795.207	24921.99
795.539	24671.6
795.871	24785.27
796.203	24528.55
796.535	24417.59
796.867	24398.16
797.198	24310.48
797.53	24286.07
797.862	24128.11
798.193	24143.48
798.525	23949.13
798.856	24038.17
799.188	23795.01
799.519	23693.32
799.85	23616.03
800.182	23678.85
800.513	23606.09
800.844	23381.24
801.175	23466.21
801.506	23374
801.837	23284.74
802.168	23189.6
802.499	23177.63
802.83	22946.44
803.161	22877.29
803.491	22926.56
803.822	22940.8
804.153	22708.71
804.483	22557.3
804.814	22552.56
805.145	22510.75
805.475	22428.04
805.805	22404.09
806.136	22384.88
806.466	22347.82
806.796	22205.9
807.126	22140.82
807.457	22128.61
807.787	22050.42
808.117	21956.19
808.447	21857.21
808.777	21958
809.107	21799.81
809.436	21804.55
809.766	21718.45
810.096	21574.73
810.426	21560.94
810.755	21506.48
811.085	21535.86
811.414	21423.55
811.744	21293.83
812.073	21324.57
812.403	21281.63
812.732	21125.25
813.061	21119.15
813.39	21057.23
813.719	20978.59
814.049	21167.06
814.378	20831.92
814.707	20873.5
815.036	20759.16
815.365	20664.02
815.693	20502.67
816.022	20715.99
816.351	20542.67
816.68	20448.88
817.008	20425.61
817.337	20326.17
817.665	20195.1
817.994	20204.6
818.322	20258.38
818.651	20120.08
818.979	20049.35
819.307	20065.62
819.636	20097.03
819.964	20003.02
820.292	20019.06
820.62	20002.34
820.948	19868.56
821.276	19939.74
821.604	19885.73
821.932	19993.75
822.259	19898.39
822.587	19832.4
822.915	19845.96
823.243	19857.71
823.57	19743.37
823.898	19845.28
824.225	19864.94
824.553	19755.79
824.88	19717.15
825.207	19793.76
825.535	19767.09
825.862	19807.77
826.189	19745.17
826.516	19774.55
826.843	19844.38
827.17	19840.09
827.497	19766.64
827.824	19811.16
828.151	19861.33
828.478	19834.66
828.805	19786.53
829.131	19819.52
829.458	19711.73
829.785	19727.32
830.111	19708.34
830.438	19837.15
830.764	19853.42
831.09	19801.22
831.417	19679.86
831.743	19805.28
832.069	19644.38
832.395	19679.19
832.722	19749.92
833.048	19531.85
833.374	19582.47
833.7	19563.03
834.026	19561.45
834.351	19545.63
834.677	19552.64
835.003	19501.11
835.329	19523.03
835.654	19491.17
835.98	19440.55
836.306	19478.06
836.631	19369.82
836.956	19359.87
837.282	19318.74
837.607	19316.26
837.932	19196.26
838.258	19217.73
838.583	19344.05
838.908	19093.89
839.233	19150.16
839.558	19092.99
839.883	18929.83
840.208	18939.54
840.533	18956.72
840.858	19039.65
841.182	18948.81
841.507	18930.28
841.832	18832.88
842.156	18836.72
842.481	18817.51
842.805	18757.4
843.13	18738.87
843.454	18725.09
843.778	18631.08
844.103	18613
844.427	18532.55
844.751	18442.61
845.075	18401.25
845.399	18468.37
845.723	18307.47
846.047	18352.67
846.371	18273.12
846.695	18218.43
847.019	17922.62
847.343	17935.28
847.666	17849.18
847.99	17727.82
848.313	17780.03
848.637	17631.33
848.96	17703.19
849.284	17536.19
849.607	17437.89
849.931	17341.39
850.254	17221.85
850.577	17110.67
850.9	17014.4
851.223	16952.93
851.546	16973.95
851.869	16916.55
852.192	16908.64
852.515	16790.9
852.838	16695.54
853.161	16660.06
853.483	16578.48
853.806	16564.01
854.129	16465.71
854.451	16408.31
854.774	16454.19
855.096	16267.98
855.419	16259.61
855.741	16314.98
856.063	16185.49
856.385	16097.81
856.708	16091.26
857.03	16066.17
857.352	16083.8
857.674	16044.71
857.996	15931.94
858.318	15729.69
858.64	15849.68
858.961	15792.28
859.283	15714.32
859.605	15604.04
859.926	15665.05
860.248	15643.36
860.57	15555.23
860.891	15548
861.212	15488.34
861.534	15441.11
861.855	15345.51
862.176	15408.11
862.498	15285.4
862.819	15329.7
863.14	15282.47
863.461	15246.53
863.782	15169.7
864.103	15238.85
864.424	15155.24
864.745	15128.12
865.065	14987.56
865.386	15020.78
865.707	15026.2
866.027	15017.84
866.348	15010.61
866.668	14966.09
866.989	14918.63
867.309	14875.02
867.63	14843.38
867.95	14876.37
868.27	14694.68
868.59	14792.53
868.91	14663.5
869.23	14691.29
869.55	14612.2
869.87	14652.65
870.19	14674.35
870.51	14669.83
870.83	14650.84
871.15	14568.81
871.469	14555.93
871.789	14607.45
872.109	14522.03
872.428	14437.74
872.748	14433.22
873.067	14494.46
873.386	14465.31
873.706	14389.61
874.025	14374.47
874.344	14268.93
874.663	14341.02
874.982	14296.73
875.301	14276.62
875.62	14218.99
875.939	14113
876.258	14209.5
876.577	14162.27
876.896	14124.76
877.214	14080.24
877.533	14167.01
877.852	13968.83
878.17	14061.71
878.489	14060.58
878.807	14020.35
879.125	13975.83
879.444	13957.3
879.762	13939.22
880.08	13915.5
880.398	13919.56
880.716	13870.53
881.034	13866.01
881.352	13860.13
881.67	13727.7
881.988	13769.96
882.306	13723.41
882.624	13689.51
882.941	13611.1
883.259	13564.54
883.577	13586.24
883.894	13532.68
884.212	13534.49
884.529	13473.7
884.846	13532.68
885.164	13480.25
885.481	13412.68
885.798	13355.96
886.115	13324.32
886.432	13327.71
886.75	13300.14
887.067	13194.84
887.383	13179.47
887.7	13199.58
888.017	13087.72
888.334	13196.19
888.651	13146.25
888.967	13108.06
889.284	13011.34
889.6	12942.64
889.917	12992.36
890.233	12995.52
890.55	12853.6
890.866	12887.95
891.182	12809.31
891.498	12754.85
891.815	12659.94
892.131	12679.37
892.447	12615.19
892.763	12532.03
893.079	12563.21
893.395	12447.06
893.71	12625.81
894.026	12459.94
894.342	12417.68
894.657	12337.46
894.973	12242.32
895.289	12357.57
895.604	12250
895.92	12249.55
896.235	12117.12
896.55	12167.07
896.865	12154.19
897.181	12039.84
897.496	12059.27
897.811	11931.37
898.126	11973.85
898.441	11874.65
898.756	11825.83
899.071	11751.26
899.386	11692.73
899.7	11662.9
900.015	11598.72
900.33	11547.65
900.644	11543.35
900.959	11559.17
901.273	11487.99
901.588	11406.18
901.902	11346.3
902.216	11355.11
902.531	11360.31
902.845	11355.56
903.159	11229.92
903.473	11187.21
903.787	11177.94
904.101	11071.28
904.415	11033.54
904.729	11050.03
905.042	10945.18
905.356	10995.12
905.67	10973.88
905.984	10922.35
906.297	10835.58
906.611	10775.47
906.924	10733.43
907.237	10735.01
907.551	10697.28
907.864	10673.32
908.177	10608.46
908.491	10552.65
908.804	10539.31
909.117	10458.86
909.43	10412.08
909.743	10338.41
910.056	10382.03
910.368	10274.91
910.681	10204.41
910.994	10252.77
911.307	10147.46
911.619	10081.47
911.932	10104.07
912.244	10018.2
912.557	10020.68
912.869	10014.36
913.181	9967.12
913.494	9879.9
913.806	9839.67
914.118	9785.66
914.43	9753.35
914.742	9732.55
915.054	9704.98
915.366	9667.02
915.678	9588.15
915.99	9619.11
916.302	9468.61
916.613	9445.78
916.925	9450.08
917.236	9442.62
917.548	9366.69
917.859	9350.64
918.171	9248.95
918.482	9178.45
918.794	9237.2
919.105	9173.02
919.416	9071.1
919.727	9083.76
920.038	9067.26
920.349	8959.47
920.66	8917.44
920.971	8905.68
921.282	8892.8
921.593	8824.1
921.903	8757.89
922.214	8683.99
922.525	8723.99
922.835	8685.8
923.146	8663.66
923.456	8703.43
923.767	8570.55
924.077	8620.04
924.387	8513.15
924.697	8427.28
925.008	8488.07
925.318	8368.3
925.628	8443.55
925.938	8340.5
926.248	8266.6
926.558	8261.63
926.867	8259.15
927.177	8123.56
927.487	8173.27
927.796	8068.19
928.106	8086.72
928.416	8038.36
928.725	7974.41
929.034	8001.07
929.344	7969.66
929.653	7956.56
929.962	7849.67
930.271	7827.29
930.581	7721.76
930.89	7757.69
931.199	7714.08
931.508	7742.1
931.817	7677.47
932.125	7621.65
932.434	7654.87
932.743	7505.95
933.051	7471.37
933.36	7459.85
933.669	7369.23
933.977	7393.41
934.286	7378.94
934.594	7306.18
934.902	7340.98
935.21	7253.3
935.519	7282.68
935.827	7215.78
936.135	7207.42
936.443	7178.72
936.751	7140.08
937.059	7164.03
937.367	7050.82
937.674	7083.36
937.982	7020.99
938.29	6975.57
938.597	7032.74
938.905	6889.01
939.213	6877.04
939.52	6882.69
939.827	6887.66
940.135	6815.34
940.442	6751.62
940.749	6727.66
941.056	6679.98
941.363	6647.66
941.67	6698.06
941.977	6582.36
942.284	6549.81
942.591	6572.41
942.898	6540.55
943.205	6541.68
943.511	6531.51
943.818	6529.93
944.125	6380.78
944.431	6376.48
944.738	6356.6
945.044	6322.25
945.35	6259.65
945.657	6251.52
945.963	6250.16
946.269	6183.72
946.575	6154.34
946.881	6159.54
947.187	6102.82
947.493	6139.43
947.799	6127.9
948.105	6050.39
948.41	6022.14
948.716	6073.89
949.022	6012.2
949.327	5971.75
949.633	5868.02
949.938	5910.73
950.244	5909.15
950.549	5895.14
950.854	5839.32
951.16	5850.17
951.465	5775.37
951.77	5706.67
952.075	5710.74
952.38	5705.77
952.685	5715.71
952.99	5634.13
953.294	5649.05
953.599	5604.53
953.904	5552.78
954.209	5526.11
954.513	5537.41
954.818	5477.75
955.122	5409.28
955.426	5455.83
955.731	5383.06
956.035	5361.37
956.339	5407.92
956.643	5355.49
956.948	5336.96
957.252	5243.18
957.556	5312.78
957.86	5266.46
958.163	5243.18
958.467	5203.63
958.771	5187.82
959.075	5209.28
959.378	5151.88
959.682	5143.97
959.985	5064.88
960.289	5079.12
960.592	5021.27
960.896	5028.5
961.199	5056.75
961.502	4998.67
961.805	4986.24
962.108	4924.77
962.411	4922.06
962.714	4898.78
963.017	4868.05
963.32	4863.53
963.623	4830.54
963.926	4848.39
964.228	4812.23
964.531	4797.09
964.833	4736.08
965.136	4672.12
965.438	4686.36
965.741	4687.26
966.043	4618.79
966.345	4646.13
966.648	4582.63
966.95	4624.44
967.252	4609.3
967.554	4583.99
967.856	4542.41
968.158	4452.69
968.46	4474.61
968.761	4474.39
969.063	4460.6
969.365	4463.31
969.666	4434.39
969.968	4373.37
970.269	4365.92
970.571	4357.1
970.872	4345.35
971.174	4368.63
971.475	4318.69
971.776	4320.27
972.077	4261.06
972.378	4220.84
972.679	4242.53
972.98	4208.63
973.281	4187.16
973.582	4143.32
973.883	4127.96
974.183	4095.64
974.484	4122.98
974.785	4062.87
975.085	4064.46
975.386	4072.82
975.686	4056.09
975.986	3974.06
976.287	3974.29
976.587	3946.49
976.887	3961.63
977.187	3954.18
977.487	3966.83
977.787	3879.6
978.087	3896.32
978.387	3872.14
978.687	3865.59
978.987	3864.01
979.286	3821.3
979.586	3791.02
979.885	3761.41
980.185	3726.61
980.484	3728.42
980.784	3698.59
981.083	3699.27
981.382	3733.16
981.682	3701.98
981.981	3669.89
982.28	3661.75
982.579	3659.04
982.878	3645.03
983.177	3621.3
983.475	3570.23
983.774	3543.57
984.073	3514.41
984.372	3510.57
984.67	3511.7
984.969	3499.27
985.267	3514.87
985.566	3469.89
985.864	3458.14
986.162	3439.84
986.461	3424.47
986.759	3419.27
987.057	3345.15
987.355	3371.59
987.653	3347.86
987.951	3356.9
988.249	3307.19
988.547	3283.46
988.844	3298.37
989.142	3309.22
989.44	3268.09
989.737	3236.23
990.035	3181.54
990.332	3242.56
990.63	3204.59
990.927	3220.18
991.224	3164.82
991.521	3183.8
991.819	3145.38
992.116	3114.2
992.413	3094.54
992.71	3064.26
993.006	3069
993.303	3088.66
993.6	3062.22
993.897	3075.1
994.193	3033.07
994.49	2999.62
994.787	2996.69
995.083	2988.1
995.379	2970.92
995.676	2942.45
995.972	2926.41
996.268	2927.54
996.565	2867.42
996.861	2860.65
997.157	2886.18
997.453	2839.4
997.749	2824.26
998.044	2849.57
998.34	2828.1
998.636	2809.8
998.932	2768.9
999.227	2762.57
999.523	2701.33
999.818	2717.15
1000.114	2750.37
1000.409	2687.99
1000.704	2696.36
1001	2683.93
1001.295	2674.89
1001.59	2650.03
1001.885	2668.11
1002.18	2593.76
1002.475	2624.27
1002.77	2599.18
1003.065	2573.42
1003.359	2535.68
1003.654	2552.4
1003.949	2519.19
1004.243	2529.35
1004.538	2504.27
1004.832	2510.15
1005.127	2472.63
1005.421	2481.45
1005.715	2434.67
1006.009	2445.97
1006.304	2432.63
1006.598	2389.47
1006.892	2386.53
1007.186	2373.65
1007.48	2353.77
1007.773	2341.56
1008.067	2357.16
1008.361	2337.5
1008.655	2310.6
1008.948	2332.07
1009.242	2245.07
1009.535	2278.29
1009.829	2263.37
1010.122	2241
1010.415	2240.77
1010.708	2202.81
1011.001	2210.72
1011.295	2184.73
1011.588	2175.47
1011.881	2163.26
1012.173	2155.35
1012.466	2142.7
1012.759	2124.62
1013.052	2094.79
1013.344	2119.87
1013.637	2083.72
1013.93	2073.55
1014.222	2048.92
1014.514	2046.2
1014.807	2045.07
1015.099	2010.5
1015.391	2020.44
1015.683	2009.14
1015.976	1982.48
1016.268	1968.24
1016.56	1958.75
1016.851	1940.67
1017.143	1914.91
1017.435	1913.55
1017.727	1871.07
1018.018	1877.62
1018.31	1888.24
1018.602	1862.03
1018.893	1845.08
1019.185	1827.9
1019.476	1830.39
1019.767	1821.58
1020.058	1812.09
1020.35	1804.18
1020.641	1774.8
1020.932	1777.96
1021.223	1770.73
1021.514	1730.96
1021.804	1777.96
1022.095	1725.31
1022.386	1690.28
1022.677	1686.44
1022.967	1698.19
1023.258	1679.66
1023.548	1688.47
1023.839	1671.3
1024.129	1647.34
1024.419	1610.96
1024.709	1621.13
1025	1609.83
1025.29	1608.02
1025.58	1600.11
1025.87	1575.03
1026.16	1555.59
1026.449	1560.57
1026.739	1545.2
1027.029	1530.06
1027.319	1527.35
1027.608	1534.35
1027.898	1513.56
1028.187	1504.52
1028.477	1488.48
1028.766	1492.32
1029.055	1447.35
1029.344	1454.81
1029.634	1445.09
1029.923	1427.46
1030.212	1408.03
1030.501	1409.84
1030.79	1403.96
1031.078	1401.47
1031.367	1367.13
1031.656	1389.95
1031.945	1362.38
1032.233	1343.62
1032.522	1357.63
1032.81	1344.3
1033.099	1336.39
1033.387	1341.59
1033.675	1329.39
1033.963	1293.91
1034.251	1295.49
1034.54	1289.61
1034.828	1269.73
1035.116	1267.69
1035.403	1280.12
1035.691	1233.57
1035.979	1246.22
1036.267	1234.7
1036.554	1223.63
1036.842	1226.11
1037.129	1193.12
1037.417	1190.18
1037.704	1187.02
1037.992	1177.75
1038.279	1189.73
1038.566	1175.04
1038.853	1175.04
1039.14	1175.04
