Data from hue_90_FLMS001491_24.txt Node
Date: Mon Feb 06 15:24:54 GMT 2017
User: dcchb
Spectrometer: FLMS00149
Trigger mode: 0
Integration Time (sec): 2.000000E-2
Scans to average: 10
Electric dark correction enabled: true
Nonlinearity correction enabled: false
Boxcar width: 0
XAxis mode: Wavelengths
Number of Pixels in Spectrum: 2048
>>>>>Begin Spectral Data<<<<<
341.393	-9.05
341.776	-9.05
342.16	-9.05
342.543	-69.16
342.927	-66.23
343.31	-74.81
343.693	-85.89
344.077	-60.58
344.46	-61.03
344.843	-41.82
345.226	-38.66
345.61	-17.87
345.993	-22.16
346.376	-12.44
346.759	17.61
347.142	33.88
347.525	51.74
347.908	39.98
348.291	69.14
348.674	94.67
349.057	108.23
349.44	136.25
349.823	150.72
350.206	159.76
350.588	202.92
350.971	187.33
351.354	211.05
351.737	224.16
352.119	240.21
352.502	235.91
352.884	271.17
353.267	272.52
353.65	278.4
354.032	288.34
354.414	291.5
354.797	307.55
355.179	317.27
355.562	305.29
355.944	335.57
356.326	338.06
356.709	347.32
357.091	335.57
357.473	329.69
357.855	352.07
358.238	339.19
358.62	347.32
359.002	317.72
359.384	322.92
359.766	334.89
360.148	351.84
360.53	325.63
360.912	307.55
361.294	314.33
361.676	322.24
362.057	343.71
362.439	320.2
362.821	322.46
363.203	330.82
363.584	320.66
363.966	319.98
364.348	311.62
364.729	318.4
365.111	303.93
365.493	320.2
365.874	320.43
366.256	294.22
366.637	303.93
367.019	316.59
367.4	312.52
367.781	316.14
368.163	328.56
368.544	313.2
368.925	303.03
369.306	326.76
369.688	321.11
370.069	308.23
370.45	295.8
370.831	319.3
371.212	310.94
371.593	294.67
371.974	313.42
372.355	312.75
372.736	318.62
373.117	306.19
373.498	319.07
373.879	302.58
374.26	304.61
374.641	315.46
375.021	313.42
375.402	323.14
375.783	319.07
376.163	332.41
376.544	330.82
376.925	319.98
377.305	320.2
377.686	318.4
378.066	327.66
378.447	331.28
378.827	350.71
379.208	320.66
379.588	332.41
379.968	347.55
380.349	342.8
380.729	327.43
381.109	331.05
381.489	320.66
381.87	352.29
382.25	348
382.63	338.51
383.01	346.42
383.39	345.97
383.77	353.65
384.15	358.17
384.53	320.2
384.91	331.5
385.29	351.84
385.67	345.97
386.049	354.33
386.429	342.35
386.809	368.34
387.189	367.89
387.568	346.19
387.948	362.91
388.328	349.58
388.707	342.35
389.087	359.98
389.466	364.72
389.846	352.29
390.225	352.74
390.605	372.86
390.984	363.82
391.363	376.25
391.743	378.28
392.122	379.18
392.501	379.41
392.881	358.62
393.26	379.86
393.639	372.18
394.018	360.43
394.397	386.42
394.776	384.83
395.155	376.02
395.534	382.57
395.913	400.43
396.292	393.42
396.671	388.68
397.05	399.52
397.429	408.11
397.808	406.75
398.186	400.65
398.565	399.75
398.944	394.33
399.323	398.17
399.701	390.26
400.08	407.43
400.458	430.03
400.837	414.66
401.215	423.48
401.594	387.32
401.972	407.88
402.351	408.34
402.729	408.11
403.107	412.4
403.486	410.82
403.864	431.16
404.242	423.03
404.62	418.51
404.999	419.86
405.377	428.68
405.755	424.38
406.133	449.47
406.511	436.58
406.889	446.08
407.267	443.82
407.645	444.27
408.023	464.83
408.401	469.8
408.779	442.46
409.156	475.23
409.534	456.47
409.912	440.65
410.29	476.58
410.667	483.14
411.045	478.84
411.422	477.04
411.8	463.7
412.178	479.75
412.555	479.97
412.933	479.75
413.31	465.28
413.687	495.34
414.065	477.94
414.442	498.5
414.819	519.75
415.197	520.42
415.574	508.9
415.951	536.69
416.328	530.14
416.705	536.92
417.082	515
417.46	531.72
417.837	508
418.214	522.68
418.591	532.18
418.967	528.56
419.344	522.46
419.721	543.93
420.098	535.34
420.475	536.69
420.852	542.8
421.228	564.49
421.605	565.17
421.982	562.91
422.358	576.47
422.735	588.44
423.111	574.21
423.488	596.81
423.864	575.11
424.241	579.86
424.617	602.46
424.994	593.64
425.37	608.56
425.746	615.11
426.123	613.98
426.499	628.44
426.875	617.6
427.251	613.76
427.627	643.13
428.003	631.16
428.379	638.84
428.756	637.26
429.132	639.52
429.507	657.14
429.883	641.1
430.259	670.25
430.635	637.71
431.011	670.7
431.387	686.3
431.763	660.53
432.138	702.79
432.514	687.88
432.89	704.6
433.265	706.63
433.641	737.59
434.016	715.22
434.392	731.04
434.767	730.59
435.143	730.36
435.518	757.48
435.894	763.36
436.269	769.91
436.644	775.56
437.02	789.34
437.395	763.36
437.77	799.96
438.145	788.67
438.52	790.25
438.895	789.8
439.271	772.39
439.646	805.84
440.021	809
440.395	827.31
440.77	822.11
441.145	818.95
441.52	839.29
441.895	859.4
442.27	864.6
442.645	863.47
443.019	859.62
443.394	853.75
443.769	865.5
444.143	879.96
444.518	884.48
444.892	876.12
445.267	917.02
445.641	897.14
446.016	906.4
446.39	918.83
446.764	921.09
447.139	923.8
447.513	953.86
447.887	919.74
448.262	917.02
448.636	913.41
449.01	975.1
449.384	959.28
449.758	972.16
450.132	977.59
450.506	972.39
450.88	973.52
451.254	985.72
451.628	993.18
452.002	980.75
452.376	1034.76
452.75	1031.15
453.123	1046.29
453.497	1032.5
453.871	1077.25
454.244	1082.22
454.618	1103.91
454.992	1101.65
455.365	1077.02
455.739	1128.09
456.112	1127.87
456.486	1142.78
456.859	1169.22
457.232	1183.68
457.606	1196.79
457.979	1212.84
458.352	1206.28
458.725	1226.85
459.099	1209.67
459.472	1272.95
459.845	1263.46
460.218	1277.47
460.591	1265.94
460.964	1299.61
461.337	1305.94
461.71	1356.11
462.083	1376.9
462.456	1415.54
462.829	1386.39
463.201	1400.4
463.574	1405.6
463.947	1407.86
464.32	1457.35
464.692	1448.99
465.065	1501.19
465.438	1516.78
465.81	1529.44
466.183	1549.32
466.555	1599.72
466.928	1580.06
467.3	1590.68
467.672	1613.5
468.045	1697.34
468.417	1706.38
468.789	1714.74
469.161	1716.32
469.534	1754.74
469.906	1818.24
470.278	1832.03
470.65	1864.8
471.022	1892.14
471.394	1929.2
471.766	1973.95
472.138	1992.25
472.51	2039.03
472.882	2072.93
473.253	2125.13
473.625	2141.85
473.997	2184.56
474.369	2247.61
474.74	2251.68
475.112	2343.2
475.484	2395.86
475.855	2395.4
476.227	2449.19
476.598	2548.85
476.97	2634.27
477.341	2686.69
477.713	2721.5
478.084	2780.7
478.455	2851.66
478.827	2953.58
479.198	3011.43
479.569	3104.76
479.94	3175.04
480.311	3194.48
480.682	3320.35
481.053	3431.08
481.424	3546.79
481.795	3567.8
482.166	3668.36
482.537	3717.18
482.908	3854.57
483.279	3951.75
483.65	4042.59
484.021	4171.4
484.391	4253.89
484.762	4332.53
485.133	4469.92
485.503	4545.4
485.874	4687.55
486.244	4768.9
486.615	4978.61
486.985	5041.21
487.356	5140.19
487.726	5267.87
488.097	5410.24
488.467	5492.95
488.837	5662.89
489.207	5795.09
489.578	5929.32
489.948	6026.04
490.318	6176.32
490.688	6220.61
491.058	6396.65
491.428	6566.82
491.798	6673.03
492.168	6848.85
492.538	6949.86
492.908	7049.74
493.278	7184.88
493.648	7326.12
494.017	7498.09
494.387	7564.98
494.757	7646.34
495.126	7824.86
495.496	7915.26
495.866	8039.77
496.235	8166.1
496.605	8305.76
496.974	8391.86
497.344	8531.74
497.713	8626.65
498.082	8737.38
498.452	8895.57
498.821	8988.68
499.19	8939.19
499.559	9162.46
499.928	9204.04
500.298	9325.39
500.667	9508.89
501.036	9492.62
501.405	9677.02
501.774	9692.39
502.143	9834.08
502.512	9891.93
502.88	10034.52
503.249	10063.68
503.618	10166.72
503.987	10212.15
504.356	10298.7
504.724	10433.84
505.093	10448.75
505.462	10553.15
505.83	10552.7
506.199	10688.07
506.567	10855.97
506.936	10887.16
507.304	11034.27
507.672	11028.4
508.041	11138.22
508.409	11163.99
508.777	11278.33
509.145	11345.22
509.514	11333.7
509.882	11488.27
510.25	11492.57
510.618	11555.84
510.986	11632
511.354	11721.94
511.722	11792.9
512.09	11891.88
512.458	11936.17
512.826	11970.97
513.193	11963.51
513.561	12105.66
513.929	12144.07
514.297	12205.31
514.664	12175.26
515.032	12307.68
515.4	12321.7
515.767	12402.82
516.135	12529.37
516.502	12351.53
516.869	12639.43
517.237	12558.07
517.604	12532.09
517.972	12716.49
518.339	12728.92
518.706	12712.87
519.073	12835.13
519.44	12840.33
519.808	12925.3
520.175	12870.83
520.542	13054.78
520.909	13055.69
521.276	13012.53
521.643	13106.31
522.009	13180.43
522.376	13222.46
522.743	13232.41
523.11	13284.83
523.477	13393.53
523.843	13380.88
524.21	13487.09
524.577	13499.52
524.943	13605.96
525.31	13552.62
525.676	13631.27
526.043	13667.42
526.409	13690.7
526.776	13736.35
527.142	13690.47
527.508	13826.06
527.874	13919.85
528.241	13888.66
528.607	13871.71
528.973	13932.27
529.339	13914.65
529.705	14033.74
530.071	13998.94
530.437	14001.43
530.803	14045.04
531.169	14053.63
531.535	14010.01
531.901	14024.02
532.267	13970.69
532.632	14096.79
532.998	14002.56
533.364	14047.3
533.73	14111.71
534.095	14058.6
534.461	14088.2
534.826	14072.38
535.192	14071.71
535.557	14203.91
535.923	14149.44
536.288	14083.68
536.653	14134.08
537.019	14010.01
537.384	14036.68
537.749	14031.71
538.114	14058.83
538.479	13969.56
538.845	13984.93
539.21	13946.96
539.575	13975.44
539.94	13957.13
540.305	13946.74
540.67	13900.86
541.034	13901.99
541.399	13953.07
541.764	13846.18
542.129	13829.9
542.494	13911.03
542.858	13923.91
543.223	13873.29
543.587	13916.68
543.952	13739.74
544.316	13818.38
544.681	13716.69
545.045	13712.62
545.41	13812.73
545.774	13672.39
546.138	13663.13
546.503	13657.93
546.867	13596.46
547.231	13676.91
547.595	13673.52
547.959	13625.84
548.324	13572.51
548.688	13515.79
549.052	13563.25
549.416	13504.94
549.779	13560.53
550.143	13497.48
550.507	13481.44
550.871	13466.07
551.235	13370.71
551.599	13520.99
551.962	13430.59
552.326	13473.08
552.689	13441.89
553.053	13340.43
553.417	13321.67
553.78	13454.77
554.143	13333.87
554.507	13400.76
554.87	13326.42
555.234	13344.27
555.597	13322.12
555.96	13270.37
556.323	13307.43
556.686	13269.92
557.05	13346.08
557.413	13287.77
557.776	13352.63
558.139	13309.01
558.502	13236.47
558.865	13323.7
559.228	13407.54
559.59	13344.72
559.953	13386.75
560.316	13412.06
560.679	13394.21
561.041	13439.63
561.404	13434.89
561.767	13448.67
562.129	13396.24
562.492	13500.87
562.854	13492.74
563.217	13398.73
563.579	13419.52
563.941	13477.82
564.304	13513.75
564.666	13621.77
565.028	13648.89
565.39	13511.95
565.753	13624.71
566.115	13646.41
566.477	13624.03
566.839	13667.2
567.201	13662.68
567.563	13671.49
567.925	13693.19
568.287	13702.9
568.648	13768.21
569.01	13753.52
569.372	13828.77
569.734	13755.1
570.095	13810.47
570.457	13884.14
570.819	13816.57
571.18	13889.79
571.542	13917.59
571.903	13890.47
572.265	13917.81
572.626	13977.47
572.987	13934.53
573.349	13960.07
573.71	14094.98
574.071	14008.66
574.432	14042.78
574.794	14052.27
575.155	14120.97
575.516	14003.91
575.877	14072.84
576.238	14082.1
576.599	14087.98
576.96	14132.04
577.32	14104.47
577.681	14163
578.042	14144.02
578.403	14245.94
578.763	14160.29
579.124	14155.09
579.485	14240.74
579.845	14237.8
580.206	14214.98
580.566	14203
580.927	14134.3
581.287	14159.16
581.648	14175.66
582.008	14178.37
582.368	14266.5
582.728	14193.96
583.089	14205.26
583.449	14116
583.809	14112.61
584.169	14130.46
584.529	14032.84
584.889	14276.45
585.249	14127.07
585.609	14130.46
585.969	14155.55
586.329	14096.56
586.688	14112.38
587.048	14123
587.408	14113.51
587.768	14150.12
588.127	14054.76
588.487	14043.01
588.846	14161.65
589.206	14034.87
589.565	14049.79
589.925	14122.1
590.284	14104.93
590.643	14106.28
591.003	13995.55
591.362	14068.54
591.721	14087.98
592.08	14042.1
592.44	14078.03
592.799	14008.21
593.158	14016.79
593.517	13986.28
593.876	14013.63
594.235	14085.49
594.593	13921.2
594.952	13992.61
595.311	14009.56
595.67	13948.09
596.029	14029.67
596.387	14050.46
596.746	14019.5
597.104	13980.86
597.463	13932.95
597.822	13984.25
598.18	13968.21
598.538	13891.82
598.897	13997.13
599.255	13917.36
599.613	14121.2
599.972	14007.53
600.33	14062.67
600.688	13949
601.046	13933.86
601.404	14003.01
601.762	13990.35
602.12	14101.54
602.478	14012.5
602.836	14068.77
603.194	13976.79
603.552	13967.53
603.91	13963.23
604.268	14056.11
604.625	13957.36
604.983	14025.61
605.341	13982.22
605.698	14073.51
606.056	14064.47
606.413	13985.38
606.771	14024.02
607.128	14057.02
607.485	14013.63
607.843	14045.49
608.2	13995.55
608.557	14083.46
608.914	14030.13
609.272	14098.82
609.629	14189.44
609.986	14074.42
610.343	14030.13
610.7	14234.19
611.057	14163.46
611.414	14198.48
611.771	14236.45
612.127	14218.37
612.484	14172.72
612.841	14274.64
613.198	14184.02
613.554	14203.23
613.911	14291.81
614.267	14227.63
614.624	14324.13
614.98	14234.64
615.337	14297.01
615.693	14282.1
616.05	14270.57
616.406	14396.44
616.762	14353.28
617.118	14297.46
617.475	14282.1
617.831	14292.27
618.187	14372.26
618.543	14338.82
618.899	14447.74
619.255	14457.01
619.611	14446.84
619.967	14451.58
620.323	14442.77
620.678	14485.03
621.034	14417.91
621.39	14408.19
621.746	14399.38
622.101	14510.79
622.457	14433.05
622.812	14335.43
623.168	14469.66
623.523	14456.78
623.879	14526.16
624.234	14443.67
624.589	14449.32
624.945	14492.26
625.3	14459.94
625.655	14425.14
626.01	14520.28
626.365	14420.4
626.72	14518.7
627.075	14457.91
627.43	14478.02
627.785	14395.99
628.14	14453.84
628.495	14433.05
628.85	14440.28
629.205	14406.84
629.559	14462.88
629.914	14388.76
630.269	14422.88
630.623	14385.6
630.978	14278.71
631.332	14434.86
631.687	14417.91
632.041	14293.4
632.396	14332.26
632.75	14263.34
633.104	14287.29
633.459	14230.57
633.813	14193.74
634.167	14232.38
634.521	14175.21
634.875	14207.3
635.229	14184.02
635.583	14151.03
635.937	14160.74
636.291	14173.17
636.645	14095.66
636.999	14060.41
637.352	14097.02
637.706	14035.1
638.06	14141.08
638.413	14104.25
638.767	13988.32
639.121	13969.79
639.474	14016.79
639.828	13917.36
640.181	13983.57
640.534	13912.61
640.888	13908.77
641.241	13849.34
641.594	13799.17
641.947	13925.95
642.301	13800.3
642.654	13890.47
643.007	13905.83
643.36	13840.07
643.713	13804.14
644.066	13887.76
644.419	13845.95
644.771	13699.74
645.124	13629.91
645.477	13547.43
645.83	13503.81
646.182	13449.8
646.535	13415.23
646.888	13496.35
647.24	13338.84
647.593	13410.48
647.945	13332.52
648.298	13259.75
648.65	13301.56
649.002	13245.97
649.355	13290.26
649.707	13294.33
650.059	13385.4
650.411	13497.26
650.763	13520.08
651.115	13672.17
651.467	13651.38
651.819	13514.88
652.171	13660.42
652.523	13529.35
652.875	13643.47
653.227	13541.32
653.578	13653.86
653.93	13570.25
654.282	13489.35
654.633	13597.82
654.985	13573.41
655.337	13553.53
655.688	13555.34
656.039	13643.69
656.391	13553.75
656.742	13562.12
657.094	13625.39
657.445	13583.13
657.796	13599.18
658.147	13546.07
658.498	13533.64
658.849	13594.2
659.2	13583.13
659.551	13500.65
659.902	13626.07
660.253	13484.6
660.604	13639.4
660.955	13532.29
661.306	13605.05
661.656	13606.63
662.007	13588.1
662.358	13525.28
662.708	13542
663.059	13544.71
663.409	13419.52
663.76	13626.29
664.11	13580.19
664.461	13591.27
664.811	13685.95
665.161	13578.61
665.511	13597.14
665.862	13555.34
666.212	13647.08
666.562	13655.9
666.912	13641.89
667.262	13650.93
667.612	13608.67
667.962	13575.45
668.312	13600.76
668.662	13658.38
669.011	13563.02
669.361	13569.8
669.711	13600.98
670.06	13610.02
670.41	13468.78
670.76	13557.37
671.109	13575.9
671.459	13544.49
671.808	13538.61
672.157	13535.22
672.507	13471.95
672.856	13484.83
673.205	13428.56
673.554	13517.6
673.904	13382.68
674.253	13526.64
674.602	13420.2
674.951	13274.67
675.3	13249.81
675.649	13413.19
675.998	13365.28
676.346	13377.94
676.695	13435.56
677.044	13319.86
677.393	13370.26
677.741	13420.88
678.09	13292.29
678.438	13265.63
678.787	13312.18
679.135	13301.78
679.484	13275.57
679.832	13243.25
680.181	13136.82
680.529	13263.59
680.877	13203.48
681.225	13225.63
681.573	13195.8
681.922	13139.75
682.27	13123.71
682.618	13015.91
682.966	13038.74
683.314	13076.25
683.661	13046.42
684.009	12893.21
684.357	12924.84
684.705	12840.33
685.053	12898.4
685.4	12885.97
685.748	12796.71
686.095	12768.46
686.443	12702.02
686.79	12755.58
687.138	12767.33
687.485	12729.59
687.832	12630.39
688.18	12666.32
688.527	12661.57
688.874	12645.08
689.221	12574.34
689.568	12523.72
689.915	12537.96
690.262	12565.76
690.609	12475.59
690.956	12361.92
691.303	12387.91
691.65	12238.53
691.997	12274.69
692.344	12215.94
692.69	12189.95
693.037	12227.69
693.383	12115.37
693.73	12096.84
694.077	12039.22
694.423	11987.24
694.769	11976.62
695.116	11898.2
695.462	11915.38
695.808	11842.39
696.155	11935.04
696.501	11722.16
696.847	11808.04
697.193	11642.39
697.539	11702.5
697.885	11690.3
698.231	11588.83
698.577	11535.05
698.923	11485.79
699.269	11484.43
699.614	11416.41
699.96	11316.3
700.306	11341.16
700.651	11279.46
700.997	11231.78
701.342	11201.27
701.688	11213.93
702.033	11201.05
702.379	11197.66
702.724	11105.46
703.069	11111.33
703.415	10996.53
703.76	11070.43
704.105	10957.44
704.45	10963.09
704.795	10891.9
705.14	10852.58
705.485	10889.19
705.83	10781.62
706.175	10761.28
706.52	10754.51
706.865	10748.4
707.209	10680.38
707.554	10709.08
707.899	10726.71
708.243	10566.26
708.588	10593.83
708.932	10509.09
709.277	10512.93
709.621	10466.83
709.966	10366.94
710.31	10429.77
710.654	10342.76
710.998	10413.05
711.342	10336.44
711.687	10283.56
712.031	10203.33
712.375	10210.11
712.719	10216.89
713.063	10257.8
713.407	10195.65
713.75	10166.72
714.094	10156.78
714.438	10104.13
714.782	10154.07
715.125	10066.61
715.469	10065.94
715.812	9987.52
716.156	9953.4
716.499	9948.2
716.843	10021.19
717.186	9999.5
717.53	10048.99
717.873	9955.66
718.216	9930.57
718.559	9828.65
718.902	9822.55
719.246	9850.8
719.589	9875.21
719.932	9837.02
720.275	9796.79
720.617	9812.16
720.96	9773.06
721.303	9806.51
721.646	9820.74
721.989	9654.42
722.331	9696.23
722.674	9707.75
723.016	9698.26
723.359	9663.46
723.701	9741.2
724.044	9689.22
724.386	9644.48
724.729	9649.68
725.071	9623.46
725.413	9644.25
725.755	9608.32
726.097	9533.29
726.439	9592.95
726.782	9578.49
727.124	9590.02
727.465	9530.81
727.807	9510.24
728.149	9603.35
728.491	9510.24
728.833	9600.64
729.175	9561.09
729.516	9548.66
729.858	9488.78
730.199	9546.18
730.541	9529.45
730.882	9549.11
731.224	9503.24
731.565	9496.91
731.906	9510.92
732.248	9437.48
732.589	9451.49
732.93	9460.98
733.271	9434.77
733.612	9413.98
733.953	9466.86
734.294	9426.4
734.635	9411.26
734.976	9455.1
735.317	9387.08
735.658	9414.88
735.999	9433.86
736.339	9490.58
736.68	9462.79
737.021	9420.53
737.361	9309.57
737.702	9430.47
738.042	9435.67
738.383	9406.74
738.723	9492.84
739.063	9427.31
739.404	9450.58
739.744	9470.02
740.084	9464.6
740.424	9458.72
740.764	9514.09
741.104	9523.58
741.444	9475.22
741.784	9482.22
742.124	9491.04
742.464	9524.93
742.804	9521.32
743.143	9515.89
743.483	9635.66
743.823	9605.83
744.162	9556.57
744.502	9641.31
744.841	9577.59
745.181	9707.3
745.52	9653.07
745.86	9792.04
746.199	9703.91
746.538	9717.24
746.877	9804.25
747.216	9856.9
747.556	9927.86
747.895	9941.19
748.234	9926.96
748.573	10017.35
748.911	10023.68
749.25	10044.47
749.589	10104.8
749.928	10158.14
750.267	10269.09
750.605	10263.9
750.944	10341.18
751.283	10391.8
751.621	10496.21
751.96	10548.86
752.298	10559.26
752.636	10654.62
752.975	10716.77
753.313	10814.16
753.651	11013.48
753.989	11014.16
754.327	11081.95
754.666	11085.8
755.004	11360.37
755.342	11376.64
755.679	11457.09
756.017	11580.92
756.355	11719
756.693	11782.95
757.031	11911.54
757.368	12040.35
757.706	12173.9
758.044	12222.72
758.381	12391.3
758.719	12518.53
759.056	12694.57
759.394	12804.17
759.731	12847.11
760.068	12955.13
760.405	13049.59
760.743	13233.31
761.08	13413.19
761.417	13509.91
761.754	13692.73
762.091	13839.4
762.428	13802.33
762.765	13952.84
763.102	14183.57
763.438	14346.5
763.775	14315.09
764.112	14524.58
764.449	14703.33
764.785	14824.23
765.122	14938.58
765.458	14952.36
765.795	15157.55
766.131	15276.42
766.467	15467.38
766.804	15438.22
767.14	15619.24
767.476	15684.09
767.812	15847.03
768.148	15987.36
768.485	16004.99
768.821	16111.65
769.157	16188.94
769.492	16378.99
769.828	16428.71
770.164	16372.89
770.5	16492.66
770.836	16559.78
771.171	16556.39
771.507	16786.89
771.842	16827.57
772.178	16889.94
772.513	16849.03
772.849	17102.59
773.184	17120.89
773.519	17181.46
773.855	17137.16
774.19	17174
774.525	17235.69
774.86	17326.08
775.195	17327.89
775.53	17406.08
775.865	17381.45
776.2	17285.41
776.535	17329.47
776.87	17445.4
777.205	17435.01
777.539	17451.5
777.874	17586.42
778.209	17412.64
778.543	17543.71
778.878	17552.74
779.212	17611.73
779.547	17466.42
779.881	17646.53
780.215	17502.35
780.55	17629.58
780.884	17534.44
781.218	17580.54
781.552	17562.91
781.886	17482.24
782.22	17497.15
782.554	17525.4
782.888	17375.57
783.222	17398.85
783.556	17283.37
783.889	17383.94
784.223	17274.11
784.557	17313.65
784.89	17464.61
785.224	17272.98
785.557	17353.65
785.891	17268.91
786.224	17251.51
786.558	17324.28
786.891	17173.09
787.224	17119.99
787.557	17135.13
787.891	17184.39
788.224	17210.15
788.557	17125.19
788.89	17068.92
789.223	17051.29
789.556	16971.74
789.888	16977.39
790.221	16940.33
790.554	16887.68
790.887	16954.57
791.219	16874.57
791.552	16917.73
791.884	16774.46
792.217	16796.38
792.549	16701.47
792.882	16623.28
793.214	16554.8
793.546	16626.89
793.879	16543.51
794.211	16466.22
794.543	16443.62
794.875	16413.11
795.207	16515.48
795.539	16485.88
795.871	16419.67
796.203	16277.52
796.535	16224.19
796.867	16293.79
797.198	16163.18
797.53	16199.79
797.862	16088.38
798.193	16077.3
798.525	16003.18
798.856	16010.86
799.188	15862.62
799.519	15876.4
799.85	15771.77
800.182	15861.72
800.513	15861.72
800.844	15742.62
801.175	15800.7
801.506	15730.42
801.837	15691.78
802.168	15593.7
802.499	15569.97
802.83	15550.76
803.161	15495.62
803.491	15548.5
803.822	15478.67
804.153	15308.06
804.483	15351.22
804.814	15327.72
805.145	15260.6
805.475	15155.07
805.805	15199.81
806.136	15221.73
806.466	15233.26
806.796	15204.11
807.126	15099.48
807.457	15019.93
807.787	15147.16
808.117	14940.61
808.447	14974.28
808.777	15017.44
809.107	14848.41
809.436	14877.56
809.766	14878.01
810.096	14722.99
810.426	14780.39
810.755	14759.82
811.085	14742.2
811.414	14646.15
811.744	14616.1
812.073	14626.72
812.403	14518.7
812.732	14481.64
813.061	14517.8
813.39	14415.65
813.719	14399.83
814.049	14405.03
814.378	14381.08
814.707	14409.78
815.036	14340.17
815.365	14286.16
815.693	14194.19
816.022	14221.31
816.351	14067.19
816.68	14065.83
817.008	14094.53
817.337	14043.91
817.665	13991.71
817.994	14038.94
818.322	14052.95
818.651	13879.17
818.979	13843.92
819.307	13973.4
819.636	13906.74
819.964	13819.74
820.292	13892.28
820.62	13821.77
820.948	13722.34
821.276	13779.06
821.604	13835.55
821.932	13781.54
822.259	13804.82
822.587	13801.88
822.915	13811.37
823.243	13790.58
823.57	13779.51
823.898	13725.95
824.225	13722.56
824.553	13786.29
824.88	13766.18
825.207	13741.77
825.535	13739.06
825.862	13695.67
826.189	13756.01
826.516	13768.44
826.843	13871.49
827.17	13803.46
827.497	13812.05
827.824	13873.75
828.151	13824.71
828.478	13747.87
828.805	13836.01
829.131	13794.2
829.458	13791.04
829.785	13754.2
830.111	13830.81
830.438	13751.49
830.764	13851.37
831.09	13759.85
831.417	13712.17
831.743	13712.39
832.069	13745.84
832.395	13723.47
832.722	13763.69
833.048	13680.76
833.374	13746.97
833.7	13664.49
834.026	13746.74
834.351	13702
834.677	13718.5
835.003	13692.51
835.329	13653.64
835.654	13665.39
835.98	13588.78
836.306	13617.71
836.631	13632.17
836.956	13658.16
837.282	13570.93
837.607	13520.53
837.932	13507.2
838.258	13481.44
838.583	13509.46
838.908	13314.89
839.233	13401.89
839.558	13417.26
839.883	13307.21
840.208	13368
840.533	13320.54
840.858	13316.7
841.182	13255.91
841.507	13292.29
841.832	13253.87
842.156	13231.05
842.481	13114.44
842.805	13211.39
843.13	13109.7
843.454	13139.08
843.778	13064.05
844.103	13033.77
844.427	12961.9
844.751	12996.48
845.075	12958.97
845.399	12901.57
845.723	12864.28
846.047	12881.46
846.371	12744.74
846.695	12705.87
847.019	12659.31
847.343	12651.63
847.666	12549.49
847.99	12542.25
848.313	12503.84
848.637	12381.13
848.96	12364.18
849.284	12369.6
849.607	12262.26
849.931	12191.08
850.254	12168.25
850.577	12106.79
850.9	12023.4
851.223	11986.79
851.546	11951.99
851.869	11878.54
852.192	12001.48
852.515	11805.78
852.838	11745.67
853.161	11778.66
853.483	11750.41
853.806	11701.37
854.129	11681.94
854.451	11573.24
854.774	11516.29
855.096	11522.17
855.419	11503.19
855.741	11460.93
856.063	11318.78
856.385	11391.55
856.708	11351.33
857.03	11277.66
857.352	11311.78
857.674	11239.69
857.996	11155.17
858.318	11206.02
858.64	11168.51
858.961	11112.46
859.283	11159.92
859.605	11057.32
859.926	11007.83
860.248	11040.83
860.57	10977.32
860.891	11008.28
861.212	10909.3
861.534	10886.71
861.855	10855.75
862.176	10864.78
862.498	10844.22
862.819	10835.86
863.14	10740.72
863.461	10763.32
863.782	10709.76
864.103	10774.62
864.424	10743.66
864.745	10675.64
865.065	10607.39
865.386	10636.77
865.707	10614.85
866.027	10661.85
866.348	10634.96
866.668	10590.22
866.989	10573.27
867.309	10479.71
867.63	10531.91
867.95	10511.57
868.27	10375.08
868.59	10451.24
868.91	10443.1
869.23	10416.89
869.55	10461.41
869.87	10420.28
870.19	10356.32
870.51	10467.73
870.83	10418.47
871.15	10255.31
871.469	10288.53
871.789	10355.42
872.109	10274.74
872.428	10193.16
872.748	10304.8
873.067	10261.86
873.386	10246.72
873.706	10221.19
874.025	10128.76
874.344	10150.23
874.663	10148.65
874.982	10121.3
875.301	10108.65
875.62	10058.03
875.939	10064.81
876.258	10019.16
876.577	10052.6
876.896	10053.05
877.214	9943.91
877.533	10005.82
877.852	10015.32
878.17	9975.77
878.489	10006.05
878.807	10001.08
879.125	9853.51
879.444	9919.05
879.762	9858.03
880.08	9906.17
880.398	9856
880.716	9867.52
881.034	9761.54
881.352	9788.66
881.67	9764.7
881.988	9749.79
882.306	9742.33
882.624	9685.15
882.941	9733.29
883.259	9613.52
883.577	9576.01
883.894	9589.56
884.212	9570.81
884.529	9546.4
884.846	9534.65
885.164	9509.34
885.481	9455.56
885.798	9460.98
886.115	9431.6
886.432	9426.63
886.75	9400.87
887.067	9440.64
887.383	9298.72
887.7	9419.63
888.017	9297.59
888.334	9234.32
888.651	9244.49
888.967	9221.21
889.284	9230.03
889.6	9176.47
889.917	9103.93
890.233	9119.52
890.55	9069.58
890.866	9064.83
891.182	9112.51
891.498	8994.1
891.815	9007.66
892.131	8940.54
892.447	9001.11
892.763	8919.75
893.079	8908
893.395	8894.44
893.71	8825.29
894.026	8823.93
894.342	8781.9
894.657	8780.32
894.973	8782.13
895.289	8796.59
895.604	8660.55
895.92	8618.74
896.235	8611.74
896.55	8638.4
896.865	8579.65
897.181	8517.28
897.496	8534
897.811	8520.89
898.126	8481.12
898.441	8465.53
898.756	8430.5
899.071	8349.6
899.386	8383.95
899.7	8342.82
900.015	8239.54
900.33	8222.82
900.644	8225.53
900.959	8188.47
901.273	8174.46
901.588	8103.28
901.902	8048.14
902.216	8077.97
902.531	8094.46
902.845	8027.8
903.159	7990.96
903.473	7896.05
903.787	7906.67
904.101	7873
904.415	7910.06
904.729	7829.61
905.042	7777.63
905.356	7710.97
905.67	7776.73
905.984	7713.91
906.297	7691.08
906.611	7615.83
906.924	7590.75
907.237	7575.38
907.551	7513.46
907.864	7503.29
908.177	7492.9
908.491	7435.27
908.804	7439.34
909.117	7351.21
909.43	7396.85
909.743	7282.73
910.056	7339
910.368	7266.91
910.681	7265.11
910.994	7196.41
911.307	7154.83
911.619	7106.24
911.932	7142.17
912.244	7069.63
912.557	7059.01
912.869	7014.72
913.181	7054.04
913.494	6986.69
913.806	6952.12
914.118	6932.91
914.43	6939.01
914.742	6890.2
915.054	6852.69
915.366	6809.52
915.678	6818.34
915.99	6756.87
916.302	6723.2
916.613	6672.8
916.925	6742.63
917.236	6663.77
917.548	6578.12
917.859	6620.83
918.171	6576.76
918.482	6563.88
918.794	6501.74
919.105	6560.27
919.416	6479.36
919.727	6451.12
920.038	6407.05
920.349	6370.21
920.66	6365.02
920.971	6320.5
921.282	6267.84
921.593	6321.85
921.903	6253.83
922.214	6158.47
922.525	6224.68
922.835	6195.76
923.146	6128.86
923.456	6147.39
923.767	6159.82
924.077	6107.85
924.387	6097.45
924.697	6041.86
925.008	5995.31
925.318	6017.45
925.628	5974.97
925.938	5975.87
926.248	5937.23
926.558	5854.97
926.867	5905.14
927.177	5850.68
927.487	5811.81
927.796	5740.4
928.106	5769.78
928.416	5802.32
928.725	5753.05
929.034	5712.15
929.344	5703.11
929.653	5680.74
929.962	5643.23
930.271	5623.11
930.581	5572.27
930.89	5551.03
931.199	5523
931.508	5504.25
931.817	5488.43
932.125	5464.47
932.434	5474.42
932.743	5425.15
933.051	5421.31
933.36	5337.7
933.669	5334.99
933.977	5325.5
934.286	5349.45
934.594	5299.28
934.902	5207.31
935.21	5254.76
935.519	5280.98
935.827	5223.35
936.135	5174.54
936.443	5146.29
936.751	5078.72
937.059	5133.64
937.367	5099.29
937.674	5087.08
937.982	5087.76
938.29	5062.45
938.597	5076.01
938.905	4987.43
939.213	4937.94
939.52	4935.68
939.827	4948.1
940.135	4878.95
940.442	4919.63
940.749	4887.77
941.056	4911.72
941.363	4803.7
941.67	4845.06
941.977	4778.62
942.284	4752.86
942.591	4781.33
942.898	4694.55
943.205	4748.11
943.511	4638.28
943.818	4678.73
944.125	4623.82
944.431	4671.5
944.738	4596.48
945.044	4578.4
945.35	4549.02
945.657	4546.53
945.963	4504.27
946.269	4461.79
946.575	4500.43
946.881	4471.28
947.187	4469.02
947.493	4455.01
947.799	4412.07
948.105	4380.89
948.41	4332.98
948.716	4336.14
949.022	4342.47
949.327	4290.27
949.633	4270.38
949.938	4296.82
950.244	4250.72
950.549	4236.94
950.854	4228.8
951.16	4201.46
951.465	4169.59
951.77	4202.36
952.075	4171.4
952.38	4139.99
952.685	4140.67
952.99	4095.92
953.294	4103.61
953.599	4041.69
953.904	4095.02
954.209	4037.85
954.513	4057.96
954.818	4005.98
955.122	4000.56
955.426	3991.52
955.731	3968.92
956.035	3936.15
956.339	3901.35
956.643	3936.83
956.948	3893.22
957.252	3852.31
957.556	3851.18
957.86	3886.66
958.163	3858.64
958.467	3804.18
958.771	3796.5
959.075	3794.69
959.378	3748.14
959.682	3768.25
959.985	3725.99
960.289	3734.8
960.592	3678.31
960.896	3653.68
961.199	3682.37
961.502	3686.44
961.805	3622.94
962.108	3636.27
962.411	3603.28
962.714	3575.03
963.017	3604.86
963.32	3544.53
963.623	3513.79
963.926	3550.63
964.228	3546.11
964.531	3492.32
964.833	3502.04
965.136	3436.51
965.438	3413.23
965.741	3404.19
966.043	3398.99
966.345	3436.28
966.648	3398.09
966.95	3377.52
967.252	3395.83
967.554	3368.71
967.856	3287.81
968.158	3301.82
968.46	3347.02
968.761	3295.49
969.063	3276.06
969.365	3272.44
969.666	3213.01
969.968	3281.48
970.269	3229.28
970.571	3190.18
970.872	3169.62
971.174	3215.27
971.475	3137.53
971.776	3147.93
972.077	3149.96
972.378	3117.19
972.679	3123.75
972.98	3100.7
973.281	3080.13
973.582	3074.26
973.883	3024.54
974.183	3044.2
974.484	3047.59
974.785	3035.61
975.085	3023.86
975.386	3035.61
975.686	2974.6
975.986	2944.32
976.287	2948.16
976.587	2930.76
976.887	2903.41
977.187	2917.88
977.487	2884.88
977.787	2908.16
978.087	2842.4
978.387	2812.34
978.687	2838.78
978.987	2820.02
979.286	2811.21
979.586	2821.38
979.885	2791.55
980.185	2764.21
980.484	2725.79
980.784	2791.78
981.083	2752.23
981.382	2721.27
981.682	2702.97
981.981	2704.1
982.28	2710.2
982.579	2673.59
982.878	2680.14
983.177	2673.14
983.475	2653.48
983.774	2662.74
984.073	2608.73
984.372	2617.32
984.67	2601.73
984.969	2586.58
985.267	2610.54
985.566	2595.17
985.864	2577.09
986.162	2551.78
986.461	2525.8
986.759	2506.36
987.057	2521.5
987.355	2484.89
987.653	2458.23
987.951	2502.74
988.249	2431.11
988.547	2499.36
988.844	2424.33
989.142	2457.1
989.44	2427.72
989.737	2430.43
990.035	2437.44
990.332	2376.87
990.63	2384.1
990.927	2362.18
991.224	2351.79
991.521	2334.16
991.819	2335.97
992.116	2319.92
992.413	2288.51
992.71	2297.55
993.006	2309.98
993.303	2285.12
993.6	2296.2
993.897	2278.34
994.193	2273.37
994.49	2243.99
994.787	2223.88
995.083	2228.85
995.379	2188.85
995.676	2198.8
995.972	2197.44
996.268	2175.3
996.565	2133.26
996.861	2158.57
997.157	2126.94
997.453	2126.94
997.749	2132.36
998.044	2130.55
998.34	2122.64
998.636	2082.19
998.932	2078.35
999.227	2088.29
999.523	2068.41
999.818	2060.5
1000.114	2054.85
1000.409	2034.96
1000.704	2037.22
1001	2037.45
1001.295	1995.41
1001.59	1973.27
1001.885	2000.61
1002.18	1958.8
1002.475	1969.2
1002.77	1987.96
1003.065	1920.16
1003.359	1923.78
1003.654	1912.93
1003.949	1905.7
1004.243	1897.56
1004.538	1871.35
1004.832	1891.46
1005.127	1881.74
1005.421	1872.48
1005.715	1864.12
1006.009	1850.78
1006.304	1834.51
1006.598	1822.08
1006.892	1822.54
1007.186	1759.04
1007.48	1791.58
1007.773	1754.52
1008.067	1759.49
1008.361	1744.57
1008.655	1752.93
1008.948	1723.1
1009.242	1699.15
1009.535	1710.22
1009.829	1679.94
1010.122	1680.17
1010.415	1655.76
1010.708	1675.2
1011.001	1651.69
1011.295	1652.82
1011.588	1639.04
1011.881	1637.91
1012.173	1624.8
1012.466	1627.51
1012.759	1611.92
1013.052	1593.39
1013.344	1590.45
1013.637	1592.49
1013.93	1566.05
1014.222	1536.22
1014.514	1556.78
1014.807	1554.52
1015.099	1551.58
1015.391	1538.48
1015.683	1514.52
1015.976	1510.45
1016.268	1509.55
1016.56	1463.22
1016.851	1493.28
1017.143	1500.06
1017.435	1462.77
1017.727	1463.45
1018.018	1445.15
1018.31	1425.94
1018.602	1427.52
1018.893	1421.87
1019.185	1425.03
1019.476	1392.49
1019.767	1364.7
1020.058	1392.72
1020.35	1356.33
1020.641	1396.79
1020.932	1356.56
1021.223	1329.22
1021.514	1345.26
1021.804	1358.14
1022.095	1342.32
1022.386	1314.53
1022.677	1281.08
1022.967	1294.87
1023.258	1286.05
1023.548	1282.89
1023.839	1286.05
1024.129	1262.1
1024.419	1272.72
1024.709	1250.57
1025	1263.23
1025.29	1243.34
1025.58	1258.94
1025.87	1209.9
1026.16	1204.47
1026.449	1194.53
1026.739	1216.9
1027.029	1195.21
1027.319	1175.32
1027.608	1165.83
1027.898	1200.63
1028.187	1175.55
1028.477	1144.59
1028.766	1131.93
1029.055	1167.41
1029.344	1132.39
1029.634	1134.65
1029.923	1119.73
1030.212	1100.52
1030.501	1096.23
1030.79	1097.36
1031.078	1104.14
1031.367	1072.05
1031.656	1086.74
1031.945	1057.13
1032.233	1079.51
1032.522	1060.52
1032.81	1024.14
1033.099	1036.34
1033.387	1021.88
1033.675	1019.17
1033.963	1032.95
1034.251	1010.81
1034.54	1017.81
1034.828	1003.12
1035.116	992.73
1035.403	983.24
1035.691	979.62
1035.979	955.21
1036.267	962.22
1036.554	969
1036.842	953.86
1037.129	963.12
1037.417	961.09
1037.704	943.69
1037.992	937.81
1038.279	935.33
1038.566	901.21
1038.853	901.21
1039.14	901.21
