Data from hue_22_FLMS001491_00075.txt Node
Date: Tue Feb 07 17:10:38 GMT 2017
User: dcchb
Spectrometer: FLMS00149
Trigger mode: 0
Integration Time (sec): 2.000000E-2
Scans to average: 10
Electric dark correction enabled: true
Nonlinearity correction enabled: false
Boxcar width: 0
XAxis mode: Wavelengths
Number of Pixels in Spectrum: 2048
>>>>>Begin Spectral Data<<<<<
341.393	2.44
341.776	2.44
342.16	2.44
342.543	-54.96
342.927	-70.55
343.31	-74.39
343.693	-80.27
344.077	-62.64
344.46	-57.67
344.843	-64.45
345.226	-30.55
345.61	-26.71
345.993	-23.32
346.376	3.12
346.759	-0.95
347.142	27.3
347.525	45.61
347.908	72.05
348.291	78.6
348.674	91.25
349.057	103.01
349.44	121.54
349.823	127.64
350.206	177.35
350.588	213.74
350.971	219.84
351.354	235.66
351.737	250.12
352.119	245.6
352.502	253.51
352.884	304.36
353.267	282.21
353.65	289.44
354.032	304.13
354.414	303.9
354.797	329.89
355.179	322.89
355.562	307.97
355.944	339.16
356.326	327.63
356.709	326.73
357.091	347.29
357.473	345.71
357.855	356.33
358.238	336.22
358.62	342.55
359.002	339.16
359.384	334.64
359.766	334.64
360.148	315.43
360.53	336.9
360.912	348.42
361.294	338.25
361.676	346.39
362.057	320.85
362.439	343.45
362.821	332.38
363.203	316.79
363.584	332.6
363.966	335.54
364.348	326.28
364.729	328.99
365.111	338.03
365.493	329.67
365.874	322.44
366.256	305.03
366.637	327.18
367.019	302.55
367.4	312.94
367.781	313.62
368.163	330.34
368.544	310.91
368.925	315.2
369.306	314.98
369.688	319.95
370.069	298.48
370.45	313.85
370.831	310.91
371.212	331.47
371.593	328.31
371.974	312.94
372.355	323.34
372.736	312.04
373.117	319.72
373.498	309.55
373.879	319.95
374.26	307.29
374.641	306.16
375.021	320.85
375.402	333.73
375.783	323.11
376.163	319.27
376.544	331.25
376.925	322.21
377.305	331.25
377.686	341.87
378.066	303.9
378.447	341.42
378.827	341.19
379.208	336.45
379.588	335.99
379.968	326.05
380.349	343.9
380.729	335.09
381.109	325.15
381.489	324.24
381.87	331.25
382.25	329.89
382.63	318.14
383.01	344.36
383.39	326.95
383.77	344.81
384.15	342.1
384.53	341.64
384.91	359.27
385.29	360.85
385.67	365.6
386.049	343.9
386.429	347.97
386.809	351.59
387.189	364.69
387.568	356.78
387.948	344.58
388.328	359.27
388.707	358.37
389.087	350.46
389.466	356.78
389.846	354.3
390.225	355.2
390.605	367.41
390.984	363.79
391.363	381.64
391.743	369.21
392.122	389.78
392.501	373.96
392.881	391.36
393.26	375.77
393.639	374.64
394.018	392.49
394.397	370.34
394.776	374.19
395.155	373.51
395.534	382.09
395.913	392.72
396.292	375.99
396.671	385.26
397.05	371.47
397.429	382.09
397.808	387.29
398.186	403.34
398.565	384.13
398.944	390.91
399.323	393.85
399.701	410.34
400.08	394.3
400.458	401.3
400.837	401.08
401.215	400.63
401.594	400.63
401.972	409.44
402.351	409.44
402.729	406.05
403.107	420.51
403.486	403.79
403.864	411.02
404.242	408.31
404.62	413.96
404.999	406.05
405.377	424.58
405.755	424.35
406.133	421.19
406.511	420.74
406.889	426.16
407.267	404.69
407.645	411.92
408.023	424.58
408.401	444.24
408.779	422.09
409.156	427.52
409.534	459.38
409.912	439.72
410.29	444.24
410.667	448.31
411.045	448.08
411.422	450.12
411.8	448.76
412.178	449.89
412.555	466.61
412.933	470
413.31	449.44
413.687	481.98
414.065	462.09
414.442	471.36
414.819	469.1
415.197	481.07
415.574	483.11
415.951	494.41
416.328	492.15
416.705	483.56
417.082	507.06
417.46	504.8
417.837	493.05
418.214	506.84
418.591	505.03
418.967	479.95
419.344	507.51
419.721	533.95
420.098	510.45
420.475	504.58
420.852	528.76
421.228	526.72
421.605	514.07
421.982	523.56
422.358	516.55
422.735	550.45
423.111	537.8
423.488	538.47
423.864	524.46
424.241	537.57
424.617	556.78
424.994	561.07
425.37	554.75
425.746	568.3
426.123	554.75
426.499	556.78
426.875	558.14
427.251	566.5
427.627	568.08
428.003	585.48
428.379	577.57
428.756	615.08
429.132	596.55
429.507	581.41
429.883	571.92
430.259	615.53
430.635	610.11
431.011	599.72
431.387	613.27
431.763	629.55
432.138	610.11
432.514	608.3
432.89	629.09
433.265	622.54
433.641	649.21
434.016	648.08
434.392	645.14
434.767	677.91
435.143	665.7
435.518	673.16
435.894	684.01
436.269	667.06
436.644	672.03
437.02	708.87
437.395	679.26
437.77	704.12
438.145	717.23
438.52	710.22
438.895	702.31
439.271	715.42
439.646	733.72
440.021	714.74
440.395	737.79
440.77	735.98
441.145	740.05
441.52	725.81
441.895	747.51
442.27	742.76
442.645	734.63
443.019	758.81
443.394	742.76
443.769	758.13
444.143	783.21
444.518	773.04
444.892	762.88
445.267	798.81
445.641	796.09
446.016	785.25
446.39	804.91
446.764	808.07
447.139	840.39
447.513	806.49
447.887	793.38
448.262	804.46
448.636	830.22
449.01	820.5
449.384	835.87
449.758	860.5
450.132	841.97
450.506	853.49
450.88	864.12
451.254	856.66
451.628	856.21
452.002	838.13
452.376	862.53
452.75	873.38
453.123	887.17
453.497	903.44
453.871	887.39
454.244	927.39
454.618	929.65
454.992	930.1
455.365	923.55
455.739	923.78
456.112	953.6
456.486	950.44
456.859	961.74
457.232	969.65
457.606	993.83
457.979	1001.29
458.352	1026.37
458.725	1021.17
459.099	1016.65
459.472	1032.7
459.845	1050.1
460.218	1070.66
460.591	1066.37
460.964	1069.53
461.337	1081.06
461.71	1109.98
462.083	1091.23
462.456	1112.47
462.829	1134.17
463.201	1134.84
463.574	1167.38
463.947	1154.05
464.32	1172.13
464.692	1191.34
465.065	1195.18
465.438	1235.18
465.81	1239.93
466.183	1235.18
466.555	1275.86
466.928	1241.05
467.3	1284.67
467.672	1292.35
468.045	1295.52
468.417	1320.15
468.789	1342.3
469.161	1355.63
469.534	1376.87
469.906	1388.85
470.278	1379.13
470.65	1410.54
471.022	1461.61
471.394	1485.12
471.766	1501.84
472.138	1482.63
472.51	1528.51
472.882	1553.59
473.253	1559.01
473.625	1593.14
473.997	1622.51
474.369	1653.25
474.74	1665.68
475.112	1684.43
475.484	1733.7
475.855	1747.71
476.227	1749.52
476.598	1797.88
476.97	1809.18
477.341	1868.61
477.713	1901.83
478.084	1912
478.455	1970.3
478.827	1967.82
479.198	2054.37
479.569	2052.33
479.94	2105.44
480.311	2130.52
480.682	2195.38
481.053	2232.67
481.424	2261.37
481.795	2328.71
482.166	2364.64
482.537	2381.82
482.908	2446
483.279	2444.87
483.65	2498.2
484.021	2576.16
484.391	2592.66
484.762	2655.03
485.133	2706.1
485.503	2682.37
485.874	2726.89
486.244	2784.97
486.615	2870.62
486.985	2868.81
487.356	2954.68
487.726	2965.76
488.097	3047.56
488.467	3078.29
488.837	3136.15
489.207	3175.47
489.578	3216.14
489.948	3229.03
490.318	3301.34
490.688	3323.26
491.058	3377.04
491.428	3405.52
491.798	3424.5
492.168	3519.19
492.538	3526.87
492.908	3610.48
493.278	3600.31
493.648	3645.06
494.017	3679.18
494.387	3782.91
494.757	3807.77
495.126	3841.44
495.496	3905.39
495.866	3852.06
496.235	3926.18
496.605	3934.32
496.974	3983.81
497.344	4057.03
497.713	4069.23
498.082	4038.72
498.452	4136.8
498.821	4144.71
499.19	4152.62
499.559	4241.2
499.928	4212.95
500.298	4263.35
500.667	4280.52
501.036	4334.31
501.405	4406.62
501.774	4354.65
502.143	4407.75
502.512	4413.17
502.88	4467.41
503.249	4413.63
503.618	4483.23
503.987	4525.71
504.356	4561.19
504.724	4596.67
505.093	4623.56
505.462	4625.37
505.83	4644.81
506.199	4657.01
506.567	4735.2
506.936	4722.77
507.304	4788.76
507.672	4822.2
508.041	4781.53
508.409	4855.2
508.777	4871.92
509.145	4898.81
509.514	4908.53
509.882	4892.71
510.25	4955.31
510.618	4995.53
510.986	4966.15
511.354	5044.12
511.722	5100.61
512.09	5059.03
512.458	5115.3
512.826	5118.69
513.193	5166.38
513.561	5171.57
513.929	5233.72
514.297	5213.61
514.664	5221.29
515.032	5273.94
515.4	5302.42
515.767	5352.59
516.135	5303.1
516.502	5379.03
516.869	5415.63
517.237	5399.59
517.604	5362.3
517.972	5418.35
518.339	5459.48
518.706	5450.66
519.073	5499.93
519.44	5504.45
519.808	5587.16
520.175	5547.83
520.542	5648.17
520.909	5604.1
521.276	5616.99
521.643	5719.13
522.009	5738.11
522.376	5708.28
522.743	5752.35
523.11	5779.01
523.477	5862.85
523.843	5877.32
524.21	5971.78
524.577	5951.44
524.943	5933.36
525.31	5970.42
525.676	6040.7
526.043	6087.26
526.409	6081.61
526.776	6136.75
527.142	6181.49
527.508	6206.35
527.874	6235.05
528.241	6243.18
528.607	6263.97
528.973	6352.33
529.339	6340.81
529.705	6418.09
530.071	6456.29
530.437	6443.86
530.803	6489.73
531.169	6506.45
531.535	6505.32
531.901	6584.19
532.267	6548.03
532.632	6593
532.998	6620.57
533.364	6665.77
533.73	6704.41
534.095	6708.93
534.461	6801.36
534.826	6771.31
535.192	6875.71
535.557	6904.86
535.923	6901.92
536.288	6905.09
536.653	6897.4
537.019	6921.81
537.384	7015.14
537.749	6997.51
538.114	6995.71
538.479	7060.34
538.845	7085.87
539.21	7076.61
539.575	7138.08
539.94	7151.18
540.305	7182.82
540.67	7209.03
541.034	7209.26
541.399	7298.3
541.764	7292.42
542.129	7315.92
542.494	7313.44
542.858	7341.91
543.223	7384.85
543.587	7418.75
543.952	7494.68
544.316	7521.79
544.681	7508.91
545.045	7534.9
545.41	7539.19
545.774	7563.15
546.138	7629.14
546.503	7608.57
546.867	7658.97
547.231	7745.52
547.595	7721.56
547.959	7792.75
548.324	7783.48
548.688	7736.48
549.052	7805.4
549.416	7845.63
549.779	7849.69
550.143	7839.98
550.507	7954.1
550.871	7936.47
551.235	8007.88
551.599	8066.41
551.962	8103.47
552.326	8080.42
552.689	8044.94
553.053	8091.27
553.417	8100.99
553.78	8241.32
554.143	8198.16
554.507	8233.41
554.87	8229.12
555.234	8381.66
555.597	8313.64
555.96	8295.56
556.323	8418.95
556.686	8404.48
557.05	8361.09
557.413	8439.06
557.776	8451.26
558.139	8509.56
558.502	8515.21
558.865	8532.39
559.228	8610.8
559.59	8608.54
559.953	8654.19
560.316	8791.14
560.679	8702.55
561.041	8757.92
561.404	8834.08
561.767	8897.8
562.129	8786.62
562.492	8914.3
562.854	8898.03
563.217	8888.54
563.579	8981.42
563.941	8981.19
564.304	9003.11
564.666	9053.96
565.028	9056.67
565.39	9099.38
565.753	9126.05
566.115	9201.52
566.477	9240.39
566.839	9241.3
567.201	9256.89
567.563	9340.28
567.925	9369.2
568.287	9391.12
568.648	9409.2
569.01	9436.55
569.372	9468.41
569.734	9521.74
570.095	9589.76
570.457	9546.37
570.819	9617.33
571.18	9647.61
571.542	9695.52
571.903	9755.86
572.265	9805.8
572.626	9825.69
572.987	9892.35
573.349	9957.89
573.71	9968.51
574.071	10013.71
574.432	10080.82
574.794	10161.27
575.155	10198.56
575.516	10221.84
575.877	10288.27
576.238	10378.67
576.599	10416.41
576.96	10482.62
577.32	10574.37
577.681	10631.77
578.042	10713.57
578.403	10789.28
578.763	10875.15
579.124	11003.28
579.485	11118.08
579.845	11187.46
580.206	11250.51
580.566	11346.78
580.927	11478.3
581.287	11668.8
581.648	11662.25
582.008	11826.54
582.368	12024.27
582.728	12048.91
583.089	12248.9
583.449	12404.38
583.809	12541.32
584.169	12676.23
584.529	12824.48
584.889	13076
585.249	13224.69
585.609	13369.55
585.969	13604.8
586.329	13834.62
586.688	14030.32
587.048	14259.24
587.408	14443.42
587.768	14628.5
588.127	14810.64
588.487	15027.59
588.846	15364.98
589.206	15502.37
589.565	15751.18
589.925	16079.99
590.284	16250.83
590.643	16606.53
591.003	16904.37
591.362	17161.31
591.721	17430.46
592.08	17629.32
592.44	18056.88
592.799	18310.21
593.158	18613.71
593.517	18857.99
593.876	19175.72
594.235	19411.42
594.593	19874.46
594.952	20018.19
595.311	20268.58
595.67	20684.16
596.029	21041.89
596.387	21334.54
596.746	21676.68
597.104	21987.63
597.463	22188.07
597.822	22573.6
598.18	22894.5
598.538	23178.11
598.897	23633.46
599.255	23650.41
599.613	24272.99
599.972	24483.61
600.33	24907.33
600.688	24977.83
601.046	25307.54
601.404	25848.32
601.762	26054.64
602.12	26416.21
602.478	26693.27
602.836	27027.72
603.194	27150.43
603.552	27506.13
603.91	27826.8
604.268	28190.85
604.625	28389.04
604.983	28864.28
605.341	28855.24
605.698	29306.31
606.056	29542.68
606.413	29752.85
606.771	30166.17
607.128	30500.4
607.485	30541.53
607.843	30879.37
608.2	31216.99
608.557	31613.14
608.914	31645.45
609.272	32114.14
609.629	32318.2
609.986	32643.85
610.343	32710.51
610.7	33181.68
611.057	33294.45
611.414	33291.29
611.771	33686.98
612.127	33953.64
612.484	34098.5
612.841	34571.7
613.198	34521.76
613.554	34872.71
613.911	35034.74
614.267	35247.17
614.624	35381.17
614.98	35547.27
615.337	35949.97
615.693	35991.55
616.05	36149.52
616.406	36687.13
616.762	36557.87
617.118	36653.23
617.475	36863.85
617.831	37163.95
618.187	37326.89
618.543	37392.42
618.899	37822.24
619.255	37802.58
619.611	37906.53
619.967	38290.93
620.323	38309.68
620.678	38336.58
621.034	38403.69
621.39	38504.48
621.746	38616.34
622.101	39045.48
622.457	38990.34
622.812	39138.59
623.168	39326.61
623.523	39422.65
623.879	39561.86
624.234	39372.26
624.589	39746.94
624.945	39786.93
625.3	39858.57
625.655	39896.08
626.01	39939.7
626.365	40063.09
626.72	39993.48
627.075	40169.75
627.43	40197.77
627.785	40213.82
628.14	40438.44
628.495	40492.45
628.85	40606.35
629.205	40477.31
629.559	40654.03
629.914	40515.28
630.269	40801.82
630.623	40713.46
630.978	40628.72
631.332	40882.5
631.687	40965.66
632.041	40795.5
632.396	41010.86
632.75	40896.28
633.104	41095.15
633.459	40976.73
633.813	40869.62
634.167	40959.33
634.521	41036.17
634.875	41000.24
635.229	40969.5
635.583	40969.28
635.937	41018.99
636.291	41016.96
636.645	41056.51
636.999	40884.08
637.352	41194.81
637.706	41034.36
638.06	41166.56
638.413	41144.19
638.767	40860.58
639.121	41119.33
639.474	40791.43
639.828	40934.7
640.181	40936.51
640.534	41139.67
640.888	41101.93
641.241	40808.38
641.594	41001.14
641.947	41042.04
642.301	40981.03
642.654	41101.93
643.007	41019.44
643.36	40841.6
643.713	40872.1
644.066	40975.83
644.419	40803.63
644.771	40577.87
645.124	40352.34
645.477	40143.31
645.83	40019.02
646.182	39786.26
646.535	39870.1
646.888	39870.1
647.24	39626.03
647.593	39875.29
647.945	39894.05
648.298	39720.04
648.65	39605.92
649.002	39509.43
649.355	39762.53
649.707	39679.37
650.059	39792.13
650.411	40166.36
650.763	40291.55
651.115	40671.43
651.467	40646.12
651.819	40613.58
652.171	40414.04
652.523	40558.21
652.875	40435.05
653.227	40360.7
653.578	40583.75
653.93	40506.46
654.282	40379.01
654.633	40196.87
654.985	40397.54
655.337	40292.68
655.688	40417.2
656.039	40547.37
656.391	40301.5
656.742	40286.58
657.094	40346.24
657.445	40365
657.796	40356.86
658.147	40277.32
658.498	40263.76
658.849	40369.97
659.2	40187.38
659.551	40170.65
659.902	40407.03
660.253	40242.06
660.604	40279.35
660.955	40124.33
661.306	40330.2
661.656	40171.78
662.007	40154.38
662.358	40155.51
662.708	40220.14
663.059	40199.8
663.409	40002.52
663.76	40341.95
664.11	40228.5
664.461	40308.73
664.811	40114.84
665.161	40134.04
665.511	40043.65
665.862	40135.4
666.212	40104.44
666.562	40181.27
666.912	40178.56
667.262	39990.09
667.612	40062.86
667.962	40172.23
668.312	40083.88
668.662	40245.23
669.011	40043.42
669.361	40035.74
669.711	40184.21
670.06	40043.2
670.41	40018.11
670.76	39838.46
671.109	40056.76
671.459	40066.7
671.808	39889.53
672.157	39972.69
672.507	39727.73
672.856	39753.71
673.205	39980.38
673.554	40027.83
673.904	39842.53
674.253	39960.94
674.602	39944.67
674.951	39424.68
675.3	39187.4
675.649	39782.64
675.998	39669.42
676.346	39763.43
676.695	39946.7
677.044	39512.59
677.393	39593.72
677.741	39719.14
678.09	39718.46
678.438	39540.39
678.787	39637.56
679.135	39593.94
679.484	39246.16
679.832	39469.43
680.181	39159.83
680.529	39391.01
680.877	39219.49
681.225	39172.94
681.573	39522.99
681.922	39136.78
682.27	39125.93
682.618	39137.01
682.966	38968.42
683.314	39074.64
683.661	38903.79
684.009	38732.05
684.357	38635.1
684.705	38671.26
685.053	38759.62
685.4	38675.1
685.748	38540.41
686.095	38488.21
686.443	38323.02
686.79	38223.13
687.138	38494.54
687.485	38368.44
687.832	38182.46
688.18	38218.16
688.527	38088.67
688.874	38016.36
689.221	37987.89
689.568	37767.33
689.915	37799.87
690.262	37717.61
690.609	37643.26
690.956	37443.04
691.303	37521.91
691.65	37269.71
691.997	37361.69
692.344	37147.46
692.69	37121.92
693.037	37065.65
693.383	36790.4
693.73	36793.11
694.077	36831.31
694.423	36891.87
694.769	36614.36
695.116	36488.49
695.462	36581.82
695.808	36441.49
696.155	36476.51
696.501	36192.45
696.847	36254.37
697.193	35999.24
697.539	35956.3
697.885	35777.32
698.231	35774.38
698.577	35739.58
698.923	35733.48
699.269	35531.23
699.614	35340.72
699.96	35331.01
700.306	35267.96
700.651	35097.57
700.997	35082.2
701.342	35048.53
701.688	34926.5
702.033	34811.25
702.379	34928.76
702.724	34719.5
703.069	34867.52
703.415	34398.15
703.76	34537.35
704.105	34559.5
704.45	34491.03
704.795	34145.27
705.14	33984.15
705.485	34059.18
705.83	34067.76
706.175	33957.48
706.52	33864.15
706.865	33789.13
707.209	33874.77
707.554	33625.29
707.899	33602.24
708.243	33369.7
708.588	33418.74
708.932	33198.18
709.277	33078.86
709.621	33212.19
709.966	32978.75
710.31	33065.53
710.654	32775.14
710.998	32921.8
711.342	32834.57
711.687	32696.05
712.031	32555.03
712.375	32515.26
712.719	32538.09
713.063	32395.04
713.407	32624.64
713.75	32236.17
714.094	32233.69
714.438	32126.57
714.782	32195.5
715.125	32099.45
715.469	32125.21
715.812	32083.18
716.156	31821.27
716.499	31877.31
716.843	31896.52
717.186	31692.01
717.53	31790.31
717.873	31789.4
718.216	31785.56
718.559	31597.09
718.902	31294.73
719.246	31577.21
719.589	31294.05
719.932	31253.37
720.275	31220.38
720.617	31287.5
720.96	31259.93
721.303	31064.23
721.646	30997.79
721.989	30935.87
722.331	31076.43
722.674	30812.03
723.016	30836.89
723.359	30880.95
723.701	30821.29
724.044	30725.93
724.386	30515.09
724.729	30559.38
725.071	30495.88
725.413	30472.6
725.755	30412.49
726.097	30306.96
726.439	30237.35
726.782	30125.04
727.124	30408.65
727.465	30102.22
727.807	30252.72
728.149	30136.57
728.491	30021.32
728.833	30122.1
729.175	29948.32
729.516	29998.94
729.858	30026.06
730.199	29889.57
730.541	29917.59
730.882	29869.91
731.224	29903.35
731.565	29606.86
731.906	29642.12
732.248	29662
732.589	29506.3
732.93	29465.17
733.271	29544.72
733.612	29472.85
733.953	29456.81
734.294	29279.87
734.635	29264.5
734.976	29382.46
735.317	29190.6
735.658	29180.89
735.999	29160.55
736.339	29157.38
736.68	29094.79
737.021	29012.53
737.361	28919.88
737.702	29142.47
738.042	28984.73
738.383	29008.01
738.723	28961
739.063	28845.75
739.404	28950.83
739.744	28781.8
740.084	28710.16
740.424	28656.38
740.764	28683.05
741.104	28573.9
741.444	28532.54
741.784	28586.55
742.124	28611.86
742.464	28448.48
742.804	28486.44
743.143	28460.45
743.483	28302.26
743.823	28264.07
744.162	28227.46
744.502	28354.01
744.841	28084.64
745.181	28358.99
745.52	28149.73
745.86	28130.97
746.199	28038.54
746.538	27980.24
746.877	28013.68
747.216	28150.18
747.556	27999.45
747.895	27969.39
748.234	27816.63
748.573	27787.7
748.911	27831.32
749.25	27722.62
749.589	27603.53
749.928	27857.08
750.267	27702.73
750.605	27644.2
750.944	27456.41
751.283	27475.17
751.621	27455.51
751.96	27303.19
752.298	27458.9
752.636	27410.08
752.975	27277.21
753.313	27031.56
753.651	27180.94
753.989	27136.65
754.327	27117.44
754.666	26852.36
755.004	27042.41
755.342	26932.81
755.679	26903.88
756.017	26757.22
756.355	26826.82
756.693	26755.64
757.031	26747.73
757.368	26575.3
757.706	26474.97
758.044	26451.01
758.381	26507.74
758.719	26404.69
759.056	26478.81
759.394	26316.78
759.731	26180.74
760.068	26110.01
760.405	26017.35
760.743	25974.42
761.08	26041.53
761.417	25907.75
761.754	25906.85
762.091	25858.03
762.428	25706.85
762.765	25721.32
763.102	25708.43
763.438	25437.71
763.775	25361.1
764.112	25379.4
764.449	25385.73
764.785	25177.6
765.122	25024.16
765.458	24954.33
765.795	24933.09
766.131	24998.62
766.467	24908.68
766.804	24761.34
767.14	24550.72
767.476	24631.85
767.812	24533.1
768.148	24441.35
768.485	24341.01
768.821	24283.16
769.157	24236.61
769.492	24191.19
769.828	24058.99
770.164	23875.04
770.5	23906
770.836	23893.57
771.171	23620.81
771.507	23710.29
771.842	23497.42
772.178	23502.84
772.513	23479.34
772.849	23433.47
773.184	23195.05
773.519	23226.92
773.855	23039.13
774.19	23052.23
774.525	22932.01
774.86	22853.59
775.195	22860.6
775.53	22846.14
775.865	22643.43
776.2	22534.73
776.535	22329.54
776.87	22304.46
777.205	22304.68
777.539	22301.97
777.874	22344.91
778.209	22047.06
778.543	22078.47
778.878	21949.44
779.212	21820.4
779.547	21715.77
779.881	21854.52
780.215	21692.49
780.55	21593.29
780.884	21492.73
781.218	21431.26
781.552	21459.96
781.886	21333.18
782.22	21259.96
782.554	21087.54
782.888	20959.18
783.222	20881.44
783.556	20723.25
783.889	20722.35
784.223	20686.65
784.557	20649.58
784.89	20630.15
785.224	20387.67
785.557	20289.82
785.891	20312.19
786.224	20221.57
786.558	20252.98
786.891	20139.99
787.224	20058.41
787.557	19935.48
787.891	19936.83
788.224	19810.51
788.557	19853.22
788.89	19765.54
789.223	19698.65
789.556	19642.6
789.888	19600.12
790.221	19471.54
790.554	19287.13
790.887	19242.16
791.219	19194.71
791.552	19128.27
791.884	18990.42
792.217	19086.24
792.549	18909.29
792.882	18910.87
793.214	18765.57
793.546	18788.16
793.879	18658
794.211	18621.16
794.543	18570.09
794.875	18547.27
795.207	18591.11
795.539	18410.77
795.871	18533.93
796.203	18269.53
796.535	18227.73
796.867	18243.32
797.198	18132.59
797.53	18034.29
797.862	17959.26
798.193	17962.2
798.525	17812.37
798.856	17820.05
799.188	17745.71
799.519	17616.44
799.85	17510.91
800.182	17516.56
800.513	17625.71
800.844	17458.71
801.175	17488.76
801.506	17481.08
801.837	17307.98
802.168	17249.9
802.499	17207.19
802.83	17148.89
803.161	17089.23
803.491	17124.03
803.822	17107.53
804.153	16999.96
804.483	16816.01
804.814	16814.66
805.145	16790.02
805.475	16772.62
805.805	16728.33
806.136	16653.31
806.466	16697.15
806.796	16619.63
807.126	16511.39
807.457	16416.48
807.787	16492.63
808.117	16389.13
808.447	16381.45
808.777	16392.97
809.107	16271.17
809.436	16152.3
809.766	16168.35
810.096	16096.48
810.426	16021.23
810.755	16088.8
811.085	15976.94
811.414	15881.57
811.744	15848.58
812.073	15785.53
812.403	15936.71
812.732	15770.16
813.061	15679.77
813.39	15618.53
813.719	15612.43
814.049	15640.22
814.378	15516.16
814.707	15543.73
815.036	15519.78
815.365	15548.02
815.693	15343.28
816.022	15368.59
816.351	15275.26
816.68	15151.88
817.008	15256.28
817.337	15098.32
817.665	15056.51
817.994	15213.34
818.322	15067.58
818.651	14981.48
818.979	14995.27
819.307	15091.99
819.636	14929.51
819.964	14880.92
820.292	14975.16
820.62	14886.12
820.948	14808.83
821.276	14945.1
821.604	14838.89
821.932	14852.22
822.259	14938.32
822.587	14889.51
822.915	14704.66
823.243	14849.74
823.57	14800.02
823.898	14772.9
824.225	14710.98
824.553	14765.67
824.88	14764.09
825.207	14853.58
825.535	14757.31
825.862	14770.42
826.189	14704.66
826.516	14785.33
826.843	14750.08
827.17	14789.4
827.497	14748.04
827.824	14721.6
828.151	14731.77
828.478	14764.77
828.805	14837.08
829.131	14722.96
829.458	14758.21
829.785	14678.67
830.111	14651.78
830.438	14768.61
830.764	14777.65
831.09	14736.97
831.417	14648.39
831.743	14714.37
832.069	14701.49
832.395	14597.54
832.722	14642.28
833.048	14563.42
833.374	14645
833.7	14435.06
834.026	14532.23
834.351	14584.88
834.677	14589.86
835.003	14549.41
835.329	14508.95
835.654	14492.01
835.98	14422.63
836.306	14460.59
836.631	14455.62
836.956	14478.22
837.282	14499.46
837.607	14444.1
837.932	14356.42
838.258	14412.23
838.583	14383.08
838.908	14292.24
839.233	14277.55
839.558	14256.31
839.883	14189.42
840.208	14073.71
840.533	14157.55
840.858	14128.85
841.182	14172.01
841.507	14109.19
841.832	14012.7
842.156	13986.26
842.481	13960.04
842.805	13984.22
843.13	13911
843.454	13884.56
843.778	13851.34
844.103	13827.62
844.427	13757.56
844.751	13766.83
845.075	13709.43
845.399	13646.83
845.723	13621.52
846.047	13595.31
846.371	13486.38
846.695	13595.08
847.019	13404.35
847.343	13363
847.666	13346.05
847.99	13228.31
848.313	13252.94
848.637	13140.63
848.96	13068.77
849.284	13083.68
849.607	12972.05
849.931	13042.1
850.254	12953.74
850.577	12819.73
850.9	12741.54
851.223	12702.45
851.546	12610.47
851.869	12529.57
852.192	12567.76
852.515	12484.38
852.838	12367.99
853.161	12534.77
853.483	12384.49
853.806	12355.34
854.129	12262.69
854.451	12244.38
854.774	12208.68
855.096	12151.5
855.419	12140.2
855.741	12101.79
856.063	12018.4
856.385	12013.2
856.708	12004.39
857.03	11866.54
857.352	11939.98
857.674	11887.78
857.996	11812.3
858.318	11763.04
858.64	11814.11
858.961	11776.6
859.283	11748.12
859.605	11676.71
859.926	11632.19
860.248	11613.89
860.57	11579.99
860.891	11580.44
861.212	11530.28
861.534	11450.73
861.855	11421.13
862.176	11411.86
862.498	11442.82
862.819	11469.49
863.14	11395.36
863.461	11327.8
863.782	11368.7
864.103	11344.07
864.424	11318.76
864.745	11379.77
865.065	11269.94
865.386	11201.02
865.707	11204.86
866.027	11132.09
866.348	11094.58
866.668	11120.8
866.989	11158.53
867.309	11095.49
867.63	11152.88
867.95	11102.94
868.27	10945.43
868.59	11001.93
868.91	10998.99
869.23	11020.91
869.55	10926.22
869.87	10987.92
870.19	10910.86
870.51	10963.29
870.83	10949.95
871.15	10802.39
871.469	10804.42
871.789	10876.06
872.109	10923.29
872.428	10832.67
872.748	10850.07
873.067	10779.11
873.386	10704.31
873.706	10725.78
874.025	10690.75
874.344	10638.1
874.663	10679.22
874.982	10682.84
875.301	10603.29
875.62	10572.11
875.939	10531.88
876.258	10592.45
876.577	10529.4
876.896	10568.72
877.214	10505.44
877.533	10491.66
877.852	10501.15
878.17	10463.19
878.489	10548.83
878.807	10449.4
879.125	10494.6
879.444	10419.57
879.762	10371.21
880.08	10417.54
880.398	10333.92
880.716	10381.83
881.034	10335.05
881.352	10374.83
881.67	10284.66
881.988	10259.57
882.306	10232.23
882.624	10194.72
882.941	10138.22
883.259	10133.7
883.577	10153.36
883.894	10122.63
884.212	10100.48
884.529	10085.12
884.846	10046.7
885.164	10034.5
885.481	10002.41
885.798	10041.28
886.115	9964.89
886.432	9846.25
886.75	9882.41
887.067	9946.36
887.383	9836.99
887.7	9845.12
888.017	9775.07
888.334	9765.12
888.651	9768.06
888.967	9732.36
889.284	9703.66
889.6	9758.57
889.917	9622.3
890.233	9655.52
890.55	9553.15
890.866	9537.33
891.182	9547.73
891.498	9466.15
891.815	9464.34
892.131	9491.01
892.447	9396.55
892.763	9385.25
893.079	9394.74
893.395	9287.85
893.71	9313.16
894.026	9368.98
894.342	9281.97
894.657	9294.18
894.973	9218.47
895.289	9185.93
895.604	9146.84
895.92	9076.78
896.235	9045.82
896.55	9100.96
896.865	9076.33
897.181	8983.22
897.496	9052.37
897.811	8967.18
898.126	8987.29
898.441	8890.57
898.756	8838.6
899.071	8777.13
899.386	8813.06
899.7	8720.86
900.015	8733.51
900.33	8656
900.644	8651.93
900.959	8623.23
901.273	8657.58
901.588	8562.22
901.902	8522.9
902.216	8429.57
902.531	8513.41
902.845	8434.09
903.159	8431.6
903.473	8340.98
903.787	8318.16
904.101	8345.95
904.415	8289.01
904.729	8270.93
905.042	8233.64
905.356	8218.27
905.67	8159.29
905.984	8228.67
906.297	8194.54
906.611	8090.59
906.924	8102.34
907.237	8055.34
907.551	7973.53
907.864	7976.92
908.177	7917.49
908.491	7940.54
908.804	7902.8
909.117	7800.88
909.43	7813.31
909.743	7762.01
910.056	7787.78
910.368	7710.94
910.681	7651.73
910.994	7716.82
911.307	7646.54
911.619	7586.65
911.932	7589.36
912.244	7519.76
912.557	7488.8
912.869	7482.92
913.181	7379.2
913.494	7418.29
913.806	7337.62
914.118	7290.84
914.43	7242.93
914.742	7258.52
915.054	7204.06
915.366	7181.46
915.678	7193.21
915.99	7106.89
916.302	7105.76
916.613	7095.82
916.925	7112.31
917.236	7022.15
917.548	7012.43
917.859	7037.74
918.171	6971.07
918.482	6997.51
918.794	6884.52
919.105	6868.93
919.416	6856.27
919.727	6816.5
920.038	6760.23
920.349	6771.08
920.66	6710.74
920.971	6764.98
921.282	6684.3
921.593	6632.33
921.903	6619.67
922.214	6634.59
922.525	6606.79
922.835	6555.49
923.146	6535.83
923.456	6473.01
923.767	6472.78
924.077	6467.81
924.387	6394.82
924.697	6333.58
925.008	6400.02
925.318	6355.72
925.628	6273.92
925.938	6252.22
926.248	6209.51
926.558	6206.8
926.867	6159.8
927.177	6151.66
927.487	6097.65
927.796	6088.84
928.106	6090.87
928.416	5997.99
928.725	6044.09
929.034	6024.43
929.344	5940.59
929.653	5953.93
929.962	5928.39
930.271	5902.4
930.581	5849.07
930.89	5782.4
931.199	5800.26
931.508	5808.39
931.817	5753.7
932.125	5783.31
932.434	5746.47
932.743	5637.1
933.051	5675.74
933.36	5678.9
933.669	5599.81
933.977	5539.47
934.286	5605.23
934.594	5572.47
934.902	5520.26
935.21	5489.53
935.519	5515.97
935.827	5477.55
936.135	5410.21
936.443	5364.34
936.751	5418.12
937.059	5372.92
937.367	5337.44
937.674	5364.56
937.982	5325.24
938.29	5268.29
938.597	5253.15
938.905	5197.56
939.213	5139.03
939.52	5175.64
939.827	5215.41
940.135	5158.69
940.442	5151.46
940.749	5112.59
941.056	5082.99
941.363	5053.38
941.67	5064.23
941.977	4968.19
942.284	4997.11
942.591	4984.23
942.898	4960.73
943.205	4936.33
943.511	4926.83
943.818	4919.6
944.125	4861.75
944.431	4877.12
944.738	4818.81
945.044	4816.78
945.35	4748.31
945.657	4729.78
945.963	4708.31
946.269	4713.51
946.575	4717.12
946.881	4688.2
947.187	4648.42
947.493	4602.77
947.799	4637.12
948.105	4613.85
948.41	4598.93
948.716	4591.25
949.022	4554.41
949.327	4548.31
949.633	4458.6
949.938	4501.53
950.244	4476.45
950.549	4451.14
950.854	4458.37
951.16	4430.8
951.465	4396
951.77	4393.06
952.075	4283.91
952.38	4338.6
952.685	4338.6
952.99	4284.36
953.294	4240.98
953.599	4238.04
953.904	4245.5
954.209	4198.94
954.513	4202.56
954.818	4195.55
955.122	4138.15
955.426	4151.71
955.731	4149
956.035	4116.69
956.339	4145.39
956.643	4136.57
956.948	4018.61
957.252	3992.17
957.556	4002.11
957.86	4008.21
958.163	3965.73
958.467	3931.61
958.771	3948.55
959.075	3980.19
959.378	3941.55
959.682	3909.69
959.985	3861.33
960.289	3862.45
960.592	3824.72
960.896	3869.46
961.199	3832.17
961.502	3776.13
961.805	3773.42
962.108	3768.45
962.411	3792.63
962.714	3715.11
963.017	3738.84
963.32	3714.66
963.623	3663.36
963.926	3635.79
964.228	3646.87
964.531	3610.94
964.833	3619.75
965.136	3614.55
965.438	3584.27
965.741	3549.47
966.043	3535.91
966.345	3492.52
966.648	3581.11
966.95	3517.83
967.252	3486.19
967.554	3479.87
967.856	3486.65
968.158	3443.03
968.46	3464.27
968.761	3442.35
969.063	3398.29
969.365	3390.38
969.666	3425.4
969.968	3355.35
970.269	3360.77
970.571	3334.79
970.872	3321.23
971.174	3272.87
971.475	3279.87
971.776	3310.15
972.077	3278.74
972.378	3272.19
972.679	3226.77
972.98	3245.75
973.281	3204.17
973.582	3207.78
973.883	3157.16
974.183	3135.47
974.484	3151.74
974.785	3161.91
975.085	3095.02
975.386	3111.97
975.686	3095.24
975.986	3101.35
976.287	3077.39
976.587	3043.27
976.887	3040.33
977.187	3033.1
977.487	3005.08
977.787	2994.68
978.087	2977.05
978.387	2970.73
978.687	2999.43
978.987	2931.18
979.286	2902.48
979.586	2914.91
979.885	2901.12
980.185	2913.55
980.484	2881.92
980.784	2871.52
981.083	2868.36
981.382	2805.76
981.682	2821.58
981.981	2821.35
982.28	2802.14
982.579	2801.47
982.878	2812.09
983.177	2749.04
983.475	2794.69
983.774	2766.66
984.073	2725.76
984.372	2696.61
984.67	2673.11
984.969	2677.18
985.267	2699.1
985.566	2662.49
985.864	2702.49
986.162	2643.28
986.461	2631.3
986.759	2617.74
987.057	2554.24
987.355	2603.73
987.653	2596.27
987.951	2581.13
988.249	2581.13
988.547	2561.02
988.844	2547.46
989.142	2527.35
989.44	2547.24
989.737	2516.5
990.035	2509.5
990.332	2483.51
990.63	2497.97
990.927	2464.3
991.224	2449.84
991.521	2454.58
991.819	2451.87
992.116	2453.68
992.413	2409.16
992.71	2403.51
993.006	2393.34
993.303	2356.96
993.6	2379.33
993.897	2388.37
994.193	2350.18
994.49	2353.34
994.787	2339.56
995.083	2327.35
995.379	2315.38
995.676	2303.4
995.972	2283.74
996.268	2267.02
996.565	2257.53
996.861	2230.18
997.157	2208.49
997.453	2210.75
997.749	2202.39
998.044	2196.74
998.34	2175.27
998.636	2163.52
998.932	2159
999.227	2144.76
999.523	2159
999.818	2135.95
1000.114	2118.32
1000.409	2088.72
1000.704	2124.42
1001	2098.43
1001.295	2061.15
1001.59	2074.93
1001.885	2062.05
1002.18	2051.2
1002.475	2017.98
1002.77	2024.09
1003.065	1974.14
1003.359	2010.75
1003.654	1999.45
1003.949	1973.24
1004.243	1982.73
1004.538	1982.5
1004.832	1973.69
1005.127	1950.87
1005.421	1908.61
1005.715	1916.74
1006.009	1910.64
1006.304	1891.66
1006.598	1884.65
1006.892	1876.52
1007.186	1873.35
1007.48	1856.41
1007.773	1842.4
1008.067	1774.83
1008.361	1802.85
1008.655	1809.85
1008.948	1794.94
1009.242	1795.84
1009.535	1784.32
1009.829	1770.08
1010.122	1788.39
1010.415	1751.55
1010.708	1737.99
1011.001	1730.08
1011.295	1718.1
1011.588	1705.68
1011.881	1692.12
1012.173	1682.85
1012.466	1688.73
1012.759	1695.28
1013.052	1705
1013.344	1642.85
1013.637	1661.38
1013.93	1648.73
1014.222	1624.77
1014.514	1630.88
1014.807	1622.97
1015.099	1585.68
1015.391	1610.76
1015.683	1592.23
1015.976	1582.29
1016.268	1553.59
1016.56	1550.2
1016.851	1560.14
1017.143	1547.71
1017.435	1517.88
1017.727	1509.3
1018.018	1470.2
1018.31	1532.8
1018.602	1503.87
1018.893	1495.06
1019.185	1450.54
1019.476	1462.74
1019.767	1424.55
1020.058	1434.72
1020.35	1454.83
1020.641	1421.62
1020.932	1438.56
1021.223	1414.38
1021.514	1391.56
1021.804	1386.14
1022.095	1371.9
1022.386	1346.36
1022.677	1358.11
1022.967	1363.76
1023.258	1328.51
1023.548	1328.06
1023.839	1316.08
1024.129	1318.79
1024.419	1334.61
1024.709	1278.79
1025	1301.84
1025.29	1284.22
1025.58	1263.88
1025.87	1259.81
1026.16	1227.27
1026.449	1258
1026.739	1247.38
1027.029	1264.11
1027.319	1257.33
1027.608	1234.73
1027.898	1222.07
1028.187	1174.39
1028.477	1186.14
1028.766	1202.41
1029.055	1172.13
1029.344	1155.86
1029.634	1157.44
1029.923	1133.94
1030.212	1133.04
1030.501	1145.24
1030.79	1106.37
1031.078	1139.36
1031.367	1125.8
1031.656	1105.47
1031.945	1107.05
1032.233	1099.82
1032.522	1077.67
1032.81	1079.93
1033.099	1086.03
1033.387	1073.83
1033.675	1067.5
1033.963	1063.66
1034.251	1071.79
1034.54	1046.26
1034.828	1049.42
1035.116	1048.52
1035.403	1032.02
1035.691	1033.83
1035.979	1014.17
1036.267	1018.69
1036.554	1017.33
1036.842	1012.13
1037.129	999.48
1037.417	979.59
1037.704	992.7
1037.992	977.79
1038.279	961.29
1038.566	964.9
1038.853	964.9
1039.14	964.9
