Data from hue_50_FLMS001491_45.txt Node
Date: Mon Feb 06 15:10:11 GMT 2017
User: dcchb
Spectrometer: FLMS00149
Trigger mode: 0
Integration Time (sec): 2.000000E-2
Scans to average: 10
Electric dark correction enabled: true
Nonlinearity correction enabled: false
Boxcar width: 0
XAxis mode: Wavelengths
Number of Pixels in Spectrum: 2048
>>>>>Begin Spectral Data<<<<<
341.393	2.77
341.776	2.77
342.16	2.77
342.543	-46.27
342.927	-54.86
343.31	-64.8
343.693	-66.38
344.077	-45.37
344.46	-55.31
344.843	-53.05
345.226	-46.04
345.61	-32.71
345.993	-20.51
346.376	-7.85
346.759	0.28
347.142	23.56
347.525	33.28
347.908	67.17
348.291	86.16
348.674	83.44
349.057	98.13
349.44	113.27
349.823	137.91
350.206	160.05
350.588	210.22
350.971	222.42
351.354	222.2
351.737	231.69
352.119	259.03
352.502	285.02
352.884	273.27
353.267	295.19
353.65	291.12
354.032	308.07
354.414	295.42
354.797	323.21
355.179	314.85
355.562	320.05
355.944	318.01
356.326	323.89
356.709	340.39
357.091	345.58
357.473	346.26
357.855	347.39
358.238	363.89
358.62	351.01
359.002	363.89
359.384	343.78
359.766	334.06
360.148	351.69
360.53	334.74
360.912	341.52
361.294	346.94
361.676	317.56
362.057	320.05
362.439	340.61
362.821	329.54
363.203	323.44
363.584	331.57
363.966	325.47
364.348	316.43
364.729	325.25
365.111	331.12
365.493	306.26
365.874	315.08
366.256	313.27
366.637	329.99
367.019	305.59
367.4	331.35
367.781	329.09
368.163	332.25
368.544	300.84
368.925	330.22
369.306	318.24
369.688	319.14
370.069	304.46
370.45	324.57
370.831	295.42
371.212	331.35
371.593	323.66
371.974	328.86
372.355	326.6
372.736	301.97
373.117	319.82
373.498	318.69
373.879	307.85
374.26	315.98
374.641	302.42
375.021	285.25
375.402	322.08
375.783	331.57
376.163	327.51
376.544	322.99
376.925	332.25
377.305	332.7
377.686	322.08
378.066	341.74
378.447	347.39
378.827	347.39
379.208	340.39
379.588	319.14
379.968	334.28
380.349	339.26
380.729	358.92
381.109	318.47
381.489	352.36
381.87	330.44
382.25	338.8
382.63	359.37
383.01	345.58
383.39	342.42
383.77	334.51
384.15	365.24
384.53	334.51
384.91	369.09
385.29	338.13
385.67	357.11
386.049	357.34
386.429	345.13
386.809	344.45
387.189	343.32
387.568	373.61
387.948	373.83
388.328	349.65
388.707	364.79
389.087	371.35
389.466	352.36
389.846	366.37
390.225	376.32
390.605	369.09
390.984	349.43
391.363	358.92
391.743	342.87
392.122	378.58
392.501	388.29
392.881	358.01
393.26	372.93
393.639	365.47
394.018	358.69
394.397	390.33
394.776	369.76
395.155	382.19
395.534	369.09
395.913	352.36
396.292	379.03
396.671	370.44
397.05	381.06
397.429	369.31
397.808	388.97
398.186	389.65
398.565	358.24
398.944	393.94
399.323	389.2
399.701	406.37
400.08	382.19
400.458	384.68
400.837	407.05
401.215	387.39
401.594	387.84
401.972	405.02
402.351	390.55
402.729	381.06
403.107	386.49
403.486	421.51
403.864	426.94
404.242	399.59
404.62	390.33
404.999	422.42
405.377	413.6
405.755	382.87
406.133	393.04
406.511	405.7
406.889	409.09
407.267	405.7
407.645	444.11
408.023	409.54
408.401	427.39
408.779	409.76
409.156	445.69
409.534	412.25
409.912	424.23
410.29	438.46
410.667	407.5
411.045	410.67
411.422	431.46
411.8	442.98
412.178	453.83
412.555	445.92
412.933	466.26
413.31	442.3
413.687	466.26
414.065	456.54
414.442	466.26
414.819	433.49
415.197	450.89
415.574	469.42
415.951	468.97
416.328	463.55
416.705	487.95
417.082	469.42
417.46	490.67
417.837	468.74
418.214	481.63
418.591	480.72
418.967	453.38
419.344	480.72
419.721	493.6
420.098	489.99
420.475	492.7
420.852	482.98
421.228	499.93
421.605	498.57
421.982	512.81
422.358	511.23
422.735	510.55
423.111	497.22
423.488	492.25
423.864	524.56
424.241	527.95
424.617	506.48
424.994	530.44
425.37	502.42
425.746	546.71
426.123	527.05
426.499	533.15
426.875	543.09
427.251	531.34
427.627	568.4
428.003	546.03
428.379	578.8
428.756	551.91
429.132	553.71
429.507	559.82
429.883	562.08
430.259	573.37
430.635	564.34
431.011	565.92
431.387	563.66
431.763	582.87
432.138	602.3
432.514	592.81
432.89	601.17
433.265	601.4
433.641	606.14
434.016	588.29
434.392	616.09
434.767	610.44
435.143	623.09
435.518	615.63
435.894	614.96
436.269	628.74
436.644	657.44
437.02	649.53
437.395	660.6
437.77	658.8
438.145	645.01
438.52	685.69
438.895	663.77
439.271	651.79
439.646	679.36
440.021	687.72
440.395	668.51
440.77	679.81
441.145	673.49
441.52	682.3
441.895	679.81
442.27	698.8
442.645	694.73
443.019	712.81
443.394	688.17
443.769	708.06
444.143	695.41
444.518	722.75
444.892	687.95
445.267	729.53
445.641	744.44
446.016	743.77
446.39	736.08
446.764	734.95
447.139	716.65
447.513	746.93
447.887	741.05
448.262	728.4
448.636	754.61
449.01	773.6
449.384	764.33
449.758	758.45
450.132	766.36
450.506	805.69
450.88	785.57
451.254	788.06
451.628	768.85
452.002	812.69
452.376	804.1
452.75	798.23
453.123	820.83
453.497	788.74
453.871	820.6
454.244	833.93
454.618	852.92
454.992	833.71
455.365	847.27
455.739	889.75
456.112	877.32
456.486	882.07
456.859	885.68
457.232	883.88
457.606	905.8
457.979	911.22
458.352	953.93
458.725	920.26
459.099	943.99
459.472	969.75
459.845	936.98
460.218	976.98
460.591	964.1
460.964	987.38
461.337	996.41
461.71	1029.41
462.083	1029.63
462.456	1028.96
462.829	1039.8
463.201	1094.49
463.574	1061.27
463.947	1066.7
464.32	1093.36
464.692	1088.16
465.065	1103.53
465.438	1121.38
465.81	1140.37
466.183	1155.73
466.555	1144.66
466.928	1174.49
467.3	1200.02
467.672	1223.75
468.045	1242.28
468.417	1245
468.789	1256.52
469.161	1265.11
469.534	1327.25
469.906	1331.09
470.278	1341.49
470.65	1348.04
471.022	1403.64
471.394	1411.09
471.766	1453.13
472.138	1476.18
472.51	1482.05
472.882	1557.98
473.253	1562.5
473.625	1634.59
473.997	1631.65
474.369	1651.99
474.74	1694.02
475.112	1729.28
475.484	1783.29
475.855	1813.57
476.227	1835.71
476.598	1917.29
476.97	1931.76
477.341	1996.84
477.713	2034.13
478.084	2053.56
478.455	2158.42
478.827	2203.16
479.198	2282.93
479.569	2325.65
479.94	2383.72
480.311	2468.24
480.682	2490.61
481.053	2595.02
481.424	2700.78
481.795	2759.76
482.166	2819.19
482.537	2913.2
482.908	2990.26
483.279	3049.24
483.65	3162.01
484.021	3247.43
484.391	3325.17
484.762	3386.63
485.133	3518.16
485.503	3627.98
485.874	3737.36
486.244	3839.96
486.615	3921.31
486.985	4034.98
487.356	4136.9
487.726	4221.19
488.097	4380.51
488.467	4420.51
488.837	4577.34
489.207	4668.86
489.578	4846.03
489.948	4924.67
490.318	5092.13
490.688	5179.81
491.058	5223.2
491.428	5391.33
491.798	5515.39
492.168	5730.75
492.538	5821.37
492.908	5930.52
493.278	6067.47
493.648	6123.51
494.017	6284.41
494.387	6443.95
494.757	6529.83
495.126	6686.43
495.496	6801.46
495.866	6863.6
496.235	7019.08
496.605	7147.44
496.974	7245.74
497.344	7413.87
497.713	7607.99
498.082	7673.53
498.452	7797.82
498.821	7904.03
499.19	8021.54
499.559	8108.54
499.928	8191.93
500.298	8357.12
500.667	8483.45
501.036	8501.98
501.405	8730.45
501.774	8784.46
502.143	8895.87
502.512	9062.64
502.88	9122.3
503.249	9163.66
503.618	9403.43
503.987	9437.1
504.356	9596.41
504.724	9719.57
505.093	9734.49
505.462	9880.93
505.83	10000.92
506.199	10050.87
506.567	10256.06
506.936	10277.98
507.304	10412.21
507.672	10532.66
508.041	10550.97
508.409	10684.52
508.777	10867.12
509.145	11014.68
509.514	11075.25
509.882	11182.81
510.25	11209.71
510.618	11332.87
510.986	11382.36
511.354	11568.57
511.722	11716.13
512.09	11718.62
512.458	11806.3
512.826	11926.52
513.193	12002.68
513.561	12112.73
513.929	12225.27
514.297	12324.48
514.664	12419.84
515.032	12524.25
515.4	12661.42
515.767	12701.42
516.135	12798.14
516.502	12735.54
516.869	13072.93
517.237	13069.32
517.604	13117.9
517.972	13253.04
518.339	13465.47
518.706	13392.02
519.073	13527.84
519.44	13596.76
519.808	13757.21
520.175	13837.66
520.542	13998.11
520.909	14044.88
521.276	14078.33
521.643	14220.02
522.009	14342.96
522.376	14456.85
522.743	14587.24
523.11	14687.58
523.477	14859.33
523.843	14921.47
524.21	15082.82
524.577	15149.71
524.943	15184.06
525.31	15304.29
525.676	15403.27
526.043	15469.03
526.409	15708.12
526.776	15883.03
527.142	15840.77
527.508	15949.02
527.874	16041.89
528.241	16274.43
528.607	16228.56
528.973	16405.5
529.339	16330.47
529.705	16624.48
530.071	16784.25
530.437	16799.61
530.803	16942.44
531.169	17023.34
531.535	17070.79
531.901	17144.92
532.267	17184.24
532.632	17280.96
532.998	17339.49
533.364	17409.54
533.73	17585.36
534.095	17661.96
534.461	17699.48
534.826	17845.01
535.192	17903.31
535.557	18003.88
535.923	18042.52
536.288	18114.38
536.653	18170.88
537.019	18174.95
537.384	18286.36
537.749	18323.87
538.114	18363.64
538.479	18440.48
538.845	18609.74
539.21	18545.33
539.575	18677.76
539.94	18675.5
540.305	18826.91
540.67	18879.79
541.034	18939.22
541.399	19025.54
541.764	19009.27
542.129	19093.79
542.494	19181.02
542.858	19232.55
543.223	19298.76
543.587	19469.38
543.952	19385.54
544.316	19532.88
544.681	19559.77
545.045	19691.06
545.41	19830.95
545.774	19781.23
546.138	19824.62
546.503	19854.68
546.867	19994.56
547.231	20160.2
547.595	20040.43
547.959	20203.37
548.324	20064.39
548.688	20323.82
549.052	20324.49
549.416	20442.46
549.779	20541.44
550.143	20511.83
550.507	20737.82
550.871	20673.19
551.235	20694.65
551.599	20990.47
551.962	20943.69
552.326	20971.93
552.689	21106.17
553.053	21041.99
553.417	21084.7
553.78	21443.79
554.143	21291.7
554.507	21511.81
554.87	21503.9
555.234	21720.16
555.597	21595.65
555.96	21688.3
556.323	21781.86
556.686	21855.08
557.05	21937.33
557.413	22004.9
557.776	22191.56
558.139	22354.27
558.502	22224.56
558.865	22364.21
559.228	22557.2
559.59	22578.22
559.953	22573.02
560.316	22848.27
560.679	22881.49
561.041	23029.06
561.404	23153.35
561.767	23187.92
562.129	23243.29
562.492	23437.41
562.854	23511.98
563.217	23552.21
563.579	23504.07
563.941	23618.64
564.304	23793.33
564.666	23825.64
565.028	23986.54
565.39	24097.5
565.753	24161.23
566.115	24312.64
566.477	24316.93
566.839	24411.84
567.201	24705.17
567.563	24535.46
567.925	24724.6
568.287	24839.4
568.648	24740.42
569.01	25021.55
569.372	25069.45
569.734	25102.45
570.095	25273.74
570.457	25429.44
570.819	25398.48
571.18	25514.87
571.542	25660.85
571.903	25758.25
572.265	25847.06
572.626	26010.67
572.987	26090.44
573.349	26111.23
573.71	26306.26
574.071	26241.63
574.432	26494.28
574.794	26606.81
575.155	26531.34
575.516	26522.75
575.877	26694.72
576.238	26795.51
576.599	26886.58
576.96	27028.27
577.32	27070.76
577.681	27137.2
578.042	27152.56
578.403	27340.35
578.763	27392.56
579.124	27553.23
579.485	27689.5
579.845	27751.87
580.206	27753.23
580.566	27713.9
580.927	28025.31
581.287	27978.98
581.648	28148.69
582.008	28261.46
582.368	28242.93
582.728	28400.89
583.089	28530.15
583.449	28530.61
583.809	28615.35
584.169	28733.76
584.529	28804.5
584.889	28957.71
585.249	29016.92
585.609	28978.73
585.969	29207.65
586.329	29273.86
586.688	29454.88
587.048	29394.99
587.408	29450.13
587.768	29470.24
588.127	29691.03
588.487	29604.02
588.846	30007.63
589.206	29858.25
589.565	30025.71
589.925	30223.44
590.284	30135.99
590.643	30292.82
591.003	30556.54
591.362	30607.16
591.721	30628.4
592.08	30659.59
592.44	30808.06
592.799	31141.38
593.158	30966.93
593.517	31027.94
593.876	31225.68
594.235	31224.09
594.593	31258.44
594.952	31547.7
595.311	31316.52
595.67	31539.79
596.029	31879.67
596.387	32005.54
596.746	31990.4
597.104	31910.4
597.463	31883.74
597.822	32176.39
598.18	32148.36
598.538	32218.64
598.897	32548.58
599.255	32253.67
599.613	32789.7
599.972	32630.38
600.33	32814.11
600.688	32749.7
601.046	32877.61
601.404	32998.06
601.762	33075.8
602.12	33345.85
602.478	33263.59
602.836	33301.78
603.194	33274.21
603.552	33318.95
603.91	33304.94
604.268	33555.78
604.625	33552.39
604.983	33806.4
605.341	33661.54
605.698	33877.58
606.056	33960.29
606.413	33935.66
606.771	34098.14
607.128	34121.42
607.485	34051.14
607.843	34137.24
608.2	34332.04
608.557	34452.03
608.914	34297.69
609.272	34671.91
609.629	34694.29
609.986	34743.78
610.343	34748.07
610.7	35025.8
611.057	34922.08
611.414	35040.04
611.771	35032.13
612.127	35238.68
612.484	35243.42
612.841	35366.81
613.198	35324.55
613.554	35417.43
613.911	35572
614.267	35499.24
614.624	35615.62
614.98	35761.83
615.337	35873.01
615.693	35809.74
616.05	35958.21
616.406	36122.72
616.762	35790.53
617.118	35982.16
617.475	36005.66
617.831	36153.91
618.187	36200.69
618.543	36292.44
618.899	36434.8
619.255	36466.67
619.611	36416.95
619.967	36559.55
620.323	36668.7
620.678	36578.53
621.034	36411.53
621.39	36712.54
621.746	36680.9
622.101	37150.27
622.457	36702.82
622.812	36798.86
623.168	36884.74
623.523	36886.32
623.879	37129.93
624.234	36939.65
624.589	37110.95
624.945	37049.7
625.3	37168.12
625.655	37079.08
626.01	37211.73
626.365	37154.33
626.72	37230.72
627.075	37232.07
627.43	37263.71
627.785	37160.89
628.14	37274.78
628.495	37309.81
628.85	37282.69
629.205	37178.97
629.559	37312.52
629.914	37128.57
630.269	37322.92
630.623	37113.43
630.978	36974.45
631.332	37317.27
631.687	37336.02
632.041	37157.5
632.396	37259.87
632.75	37169.25
633.104	37261
633.459	37023.72
633.813	37181.45
634.167	37113.2
634.521	36965.86
634.875	37121.11
635.229	37136.03
635.583	36991.63
635.937	36978.97
636.291	37006.77
636.645	37005.19
636.999	37024.85
637.352	37065.97
637.706	36746.89
638.06	36932.42
638.413	36865.53
638.767	36845.87
639.121	36923.83
639.474	36559.55
639.828	36772.65
640.181	36771.29
640.534	36774.46
640.888	36703.05
641.241	36635.03
641.594	36715.7
641.947	36708.92
642.301	36643.39
642.654	36586.21
643.007	36614.24
643.36	36621.24
643.713	36499.44
644.066	36715.25
644.419	36438.65
644.771	36250.85
645.124	35904.42
645.477	35851.32
645.83	35703.98
646.182	35516.41
646.535	35415.85
646.888	35501.27
647.24	35290.65
647.593	35527.94
647.945	35440.93
648.298	35328.85
648.65	35243.2
649.002	35249.3
649.355	35258.11
649.707	35277.1
650.059	35308.05
650.411	35767.7
650.763	35783.07
651.115	36091.54
651.467	36044.08
651.819	35937.19
652.171	35962.73
652.523	35831.2
652.875	35836.63
653.227	35666.01
653.578	36008.38
653.93	35877.08
654.282	35644.32
654.633	35647.48
654.985	35815.61
655.337	35801.83
655.688	35752.79
656.039	35866.23
656.391	35616.52
656.742	35672.11
657.094	35706.24
657.445	35808.61
657.796	35753.01
658.147	35592.79
658.498	35562.06
658.849	35681.83
659.2	35527.26
659.551	35433.02
659.902	35602.06
660.253	35528.39
660.604	35724.31
660.955	35390.76
661.306	35558.67
661.656	35568.39
662.007	35616.52
662.358	35487.94
662.708	35442.97
663.059	35429.18
663.409	35170.43
663.76	35483.19
664.11	35437.09
664.461	35499.69
664.811	35488.16
665.161	35425.34
665.511	35179.47
665.862	35390.09
666.212	35408.84
666.562	35582.4
666.912	35415.85
667.262	35260.6
667.612	35407.49
667.962	35330.2
668.312	35247.49
668.662	35490.2
669.011	35296.08
669.361	35229.64
669.711	35424.66
670.06	35272.35
670.41	35183.76
670.76	35074.39
671.109	35435.06
671.459	35361.61
671.808	35253.82
672.157	35302.63
672.507	35004.11
672.856	35061.06
673.205	35210.43
673.554	35235.51
673.904	35056.76
674.253	35161.17
674.602	35159.13
674.951	34637.56
675.3	34346.95
675.649	34928.4
675.998	34945.8
676.346	34892.02
676.695	35070.77
677.044	34728.18
677.393	34964.33
677.741	34920.27
678.09	34895.41
678.438	34716.21
678.787	34863.55
679.135	34810.44
679.484	34600.95
679.832	34658.35
680.181	34480.28
680.529	34639.6
680.877	34580.16
681.225	34539.49
681.573	34794.62
681.922	34513.73
682.27	34403.45
682.618	34360.28
682.966	34297.46
683.314	34250
683.661	34149.44
684.009	33980.41
684.357	33984.02
684.705	34019.05
685.053	34007.52
685.4	33957.81
685.748	33702
686.095	33886.4
686.443	33605.95
686.79	33626.52
687.138	33790.58
687.485	33805.5
687.832	33453.64
688.18	33661.09
688.527	33430.82
688.874	33287.54
689.221	33328.67
689.568	33162.35
689.915	33145.63
690.262	33209.35
690.609	33119.64
690.956	32890.49
691.303	32932.98
691.65	32872.41
691.997	32754
692.344	32603.94
692.69	32449.15
693.037	32544.06
693.383	32371.18
693.73	32412.99
694.077	32192.2
694.423	32304.97
694.769	32128.7
695.116	32122.6
695.462	32049.38
695.808	31937.75
696.155	31964.19
696.501	31761.93
696.847	31839.22
697.193	31486.91
697.539	31694.82
697.885	31478.32
698.231	31260.25
698.577	31370.08
698.923	31362.4
699.269	31132.57
699.614	30928.28
699.96	30974.38
700.306	30997.66
700.651	30802.86
700.997	30587.5
701.342	30601.51
701.688	30656.43
702.033	30546.6
702.379	30471.8
702.724	30390.44
703.069	30414.17
703.415	30112.26
703.76	30124.01
704.105	30180.73
704.45	30088.08
704.795	29933.05
705.14	29804.92
705.485	29882.21
705.83	29822.55
706.175	29764.25
706.52	29625.04
706.865	29527.87
707.209	29583.01
707.554	29464.14
707.899	29517.47
708.243	29315.44
708.588	29265.05
708.932	29070.93
709.277	29032.74
709.621	29095.34
709.966	28870.03
710.31	28979.18
710.654	28642.69
710.998	28830.94
711.342	28697.16
711.687	28537.61
712.031	28608.12
712.375	28538.06
712.719	28480.66
713.063	28392.53
713.407	28484.73
713.75	28361.57
714.094	28351.63
714.438	28224.63
714.782	28255.36
715.125	28131.52
715.469	28111.18
715.812	27882.04
716.156	27848.36
716.499	27933.11
716.843	27811.75
717.186	27714.13
717.53	27866.89
717.873	27803.17
718.216	27662.61
718.559	27562.72
718.902	27353.69
719.246	27509.39
719.589	27404.31
719.932	27331.99
720.275	27298.1
720.617	27235.72
720.96	27228.95
721.303	27261.26
721.646	27214.71
721.989	27014.94
722.331	27203.63
722.674	26901.72
723.016	27096.07
723.359	26983.08
723.701	26898.78
724.044	26761.16
724.386	26752.35
724.729	26795.06
725.071	26708.05
725.413	26699.24
725.755	26614.72
726.097	26571.34
726.439	26426.48
726.782	26331.79
727.124	26576.08
727.465	26534.73
727.807	26309.42
728.149	26405.01
728.491	26216.09
728.833	26366.82
729.175	26101.97
729.516	26255.19
729.858	26165.24
730.199	26161.63
730.541	26116.43
730.882	26094.96
731.224	26159.82
731.565	25962.54
731.906	25989.43
732.248	25937
732.589	25841.18
732.93	25692.94
733.271	25828.76
733.612	25734.07
733.953	25826.72
734.294	25608.2
734.635	25566.84
734.976	25550.12
735.317	25467.41
735.658	25547.41
735.999	25603.23
736.339	25431.48
736.68	25499.5
737.021	25466.96
737.361	25284.59
737.702	25520.52
738.042	25313.52
738.383	25269.9
738.723	25305.38
739.063	25152.39
739.404	25168.66
739.744	25077.59
740.084	24923.24
740.424	24936.58
740.764	24968.44
741.104	25032.84
741.444	24836.24
741.784	24850.25
742.124	24881.44
742.464	24823.13
742.804	24769.57
743.143	24869.23
743.483	24783.59
743.823	24709.92
744.162	24663.14
744.502	24696.81
744.841	24582.69
745.181	24712.63
745.52	24455.01
745.86	24485.74
746.199	24436.25
746.538	24369.13
746.877	24417.27
747.216	24424.95
747.556	24334.11
747.895	24341.11
748.234	24166.2
748.573	24235.8
748.911	24201.23
749.25	24117.84
749.589	24072.42
749.928	24054.34
750.267	24108.35
750.605	23957.62
750.944	23934.34
751.283	23832.42
751.621	23923.72
751.96	23758.3
752.298	23845.31
752.636	23749.94
752.975	23610.96
753.313	23608.02
753.651	23668.59
753.989	23516.95
754.327	23488.25
754.666	23400.35
755.004	23473.79
755.342	23349.05
755.679	23329.16
756.017	23237.41
756.355	23242.84
756.693	23219.11
757.031	23227.92
757.368	23017.08
757.706	23037.87
758.044	22879.23
758.381	22935.95
758.719	22908.83
759.056	22915.84
759.394	22713.13
759.731	22620.03
760.068	22580.25
760.405	22537.09
760.743	22502.29
761.08	22485.57
761.417	22333.25
761.754	22254.61
762.091	22260.26
762.428	22178.46
762.765	22038.12
763.102	22037.9
763.438	21940.04
763.775	21845.58
764.112	22000.83
764.449	21972.59
764.785	21707.51
765.122	21620.5
765.458	21568.3
765.795	21515.87
766.131	21508.64
766.467	21465.93
766.804	21386.39
767.14	21215.54
767.476	21213.51
767.812	21119.05
768.148	21146.17
768.485	21054.42
768.821	20896.91
769.157	20912.73
769.492	20820.3
769.828	20753.86
770.164	20656.91
770.5	20524.94
770.836	20563.13
771.171	20411.05
771.507	20418.73
771.842	20269.58
772.178	20365.62
772.513	20187.55
772.849	20143.71
773.184	20011.06
773.519	20000.89
773.855	19928.57
774.19	19761.34
774.525	19824.17
774.86	19779.88
775.195	19697.62
775.53	19545.76
775.865	19485.42
776.2	19273.22
776.535	19280.45
776.87	19289.27
777.205	19228.93
777.539	19037.97
777.874	19242.49
778.209	18907.36
778.543	18923.63
778.878	18807.47
779.212	18818.09
779.547	18656.29
779.881	18732.22
780.215	18556.86
780.55	18588.95
780.884	18568.38
781.218	18425.56
781.552	18428.5
781.886	18335.62
782.22	18225.79
782.554	18127.26
782.888	18030.99
783.222	17986.48
783.556	17861.51
783.889	17788.29
784.223	17683.43
784.557	17762.08
784.89	17726.14
785.224	17572.93
785.557	17480.27
785.891	17451.58
786.224	17409.32
786.558	17372.71
786.891	17313.05
787.224	17160.74
787.557	17129.78
787.891	17122.54
788.224	17187.85
788.557	17122.77
788.89	16983.34
789.223	17014.52
789.556	16839.16
789.888	16757.58
790.221	16676.45
790.554	16629.22
790.887	16624.93
791.219	16526.4
791.552	16522.11
791.884	16350.14
792.217	16344.49
792.549	16339.51
792.882	16178.16
793.214	16120.31
793.546	16139.52
793.879	16059.07
794.211	16040.31
794.543	16034.21
794.875	15937.72
795.207	15874.44
795.539	15876.02
795.871	15823.37
796.203	15744.05
796.535	15692.3
796.867	15613.66
797.198	15548.12
797.53	15511.29
797.862	15374.12
798.193	15402.14
798.525	15348.58
798.856	15314.23
799.188	15267.23
799.519	15132.77
799.85	15081.02
800.182	14999.89
800.513	15048.93
800.844	15010.28
801.175	15016.16
801.506	15009.61
801.837	14778.2
802.168	14837.18
802.499	14851.42
802.83	14677.86
803.161	14688.71
803.491	14656.85
803.822	14686.68
804.153	14589.73
804.483	14419.56
804.814	14462.95
805.145	14443.74
805.475	14317.65
805.805	14361.49
806.136	14345.89
806.466	14349.96
806.796	14361.26
807.126	14159.01
807.457	14109.52
807.787	14206.24
808.117	14052.12
808.447	14021.16
808.777	14050.99
809.107	13963.98
809.436	13827.26
809.766	14035.17
810.096	13857.55
810.426	13752.46
810.755	13824.33
811.085	13751.56
811.414	13737.77
811.744	13629.75
812.073	13568.29
812.403	13659.13
812.732	13526.93
813.061	13583.43
813.39	13422.98
813.719	13479.02
814.049	13541.4
814.378	13374.17
814.707	13317.9
815.036	13392.47
815.365	13242.19
815.693	13140.05
816.022	13164
816.351	13191.35
816.68	13033.61
817.008	13126.72
817.337	13070
817.665	12893.73
817.994	13059.15
818.322	12997.23
818.651	12895.08
818.979	12816.44
819.307	12870.68
819.636	12839.27
819.964	12787.06
820.292	12818.7
820.62	12878.36
820.948	12746.16
821.276	12744.81
821.604	12771.92
821.932	12801.08
822.259	12746.84
822.587	12759.27
822.915	12725.15
823.243	12730.57
823.57	12771.25
823.898	12712.49
824.225	12608.09
824.553	12584.13
824.88	12692.6
825.207	12698.93
825.535	12601.99
825.862	12675.2
826.189	12564.92
826.516	12658.03
826.843	12679.95
827.17	12646.28
827.497	12651.25
827.824	12632.49
828.151	12716.56
828.478	12690.8
828.805	12663.23
829.131	12620.74
829.458	12585.04
829.785	12594.3
830.111	12648.99
830.438	12618.26
830.764	12646.96
831.09	12601.53
831.417	12461.88
831.743	12559.5
832.069	12550.46
832.395	12557.24
832.722	12552.95
833.048	12613.96
833.374	12588.2
833.7	12509.33
834.026	12526.28
834.351	12484.47
834.677	12417.13
835.003	12466.4
835.329	12477.47
835.654	12549.78
835.98	12399.5
836.306	12399.05
836.631	12379.17
836.956	12380.75
837.282	12421.88
837.607	12337.36
837.932	12321.54
838.258	12302.78
838.583	12197.48
838.908	12272.28
839.233	12262.56
839.558	12156.8
839.883	12264.14
840.208	12022.34
840.533	12143.47
840.858	12201.32
841.182	12143.69
841.507	12033.64
841.832	11964.26
842.156	11997.93
842.481	12067.54
842.805	12056.69
843.13	11950.7
843.454	11905.73
843.778	11911.16
844.103	11895.34
844.427	11850.14
844.751	11838.39
845.075	11817.37
845.399	11762.01
845.723	11658.06
846.047	11691.73
846.371	11654.21
846.695	11596.36
847.019	11488.34
847.343	11461.45
847.666	11424.84
847.99	11362.24
848.313	11363.83
848.637	11347.78
848.96	11258.07
849.284	11218.29
849.607	11177.84
849.931	11111.18
850.254	11089.93
850.577	11023.72
850.9	10892.2
851.223	10927.23
851.546	10930.62
851.869	10819.43
852.192	10802.03
852.515	10764.29
852.838	10756.61
853.161	10733.11
853.483	10664.18
853.806	10576.5
854.129	10561.81
854.451	10580.57
854.774	10514.58
855.096	10442.95
855.419	10390.07
855.741	10434.58
856.063	10346
856.385	10319.11
856.708	10255.83
857.03	10299.22
857.352	10290.18
857.674	10244.98
857.996	10242.95
858.318	10105.33
858.64	10162.28
858.961	10118.89
859.283	10058.78
859.605	9995.95
859.926	10033.01
860.248	9997.99
860.57	9976.29
860.891	9982.62
861.212	9972
861.534	9919.12
861.855	9938.55
862.176	9872.57
862.498	9833.02
862.819	9802.96
863.14	9770.65
863.461	9742.85
863.782	9788.73
864.103	9831.21
864.424	9766.81
864.745	9659.24
865.065	9699.69
865.386	9666.02
865.707	9623.53
866.027	9672.57
866.348	9588.28
866.668	9585.12
866.989	9551.22
867.309	9465.57
867.63	9555.06
867.95	9475.97
868.27	9491.33
868.59	9479.13
868.91	9397.32
869.23	9468.06
869.55	9391.45
869.87	9416.98
870.19	9422.18
870.51	9449.3
870.83	9425.35
871.15	9396.65
871.469	9311.22
871.789	9400.49
872.109	9384.44
872.428	9254.28
872.748	9269.64
873.067	9278.68
873.386	9268.29
873.706	9184.22
874.025	9271.23
874.344	9198.01
874.663	9163.21
874.982	9174.05
875.301	9165.69
875.62	9121.85
875.939	9067.61
876.258	9094.51
876.577	9059.48
876.896	9072.36
877.214	9024.9
877.533	9044.56
877.852	9035.3
878.17	9023.55
878.489	9040.72
878.807	8947.84
879.125	9029.65
879.444	8997.56
879.762	8969.76
880.08	8937.9
880.398	8949.2
880.716	8936.09
881.034	8930.44
881.352	8883.44
881.67	8836.89
881.988	8817.23
882.306	8842.31
882.624	8826.94
882.941	8735.65
883.259	8793.95
883.577	8682.54
883.894	8674.18
884.212	8697.45
884.529	8644.57
884.846	8621.07
885.164	8599.38
885.481	8593.73
885.798	8601.41
886.115	8500.62
886.432	8506.5
886.75	8537.23
887.067	8494.07
887.383	8466.05
887.7	8504.69
888.017	8471.7
888.334	8487.52
888.651	8406.62
888.967	8407.07
889.284	8318.71
889.6	8291.14
889.917	8255.66
890.233	8283.45
890.55	8231.25
890.866	8282.1
891.182	8146.28
891.498	8205.26
891.815	8186.51
892.131	8133.4
892.447	8134.98
892.763	8069.45
893.079	8105.61
893.395	8044.36
893.71	8062.44
894.026	8022.44
894.342	7969.56
894.657	7995.55
894.973	7945.61
895.289	7952.84
895.604	7939.51
895.92	7841.43
896.235	7814.54
896.55	7822.68
896.865	7812.05
897.181	7716.69
897.496	7759.85
897.811	7721.44
898.126	7729.12
898.441	7668.1
898.756	7663.13
899.071	7583.13
899.386	7590.37
899.7	7599.63
900.015	7516.24
900.33	7451.16
900.644	7400.09
900.959	7470.37
901.273	7425.85
901.588	7361.44
901.902	7321.67
902.216	7332.07
902.531	7293.2
902.845	7255.46
903.159	7231.28
903.473	7153.77
903.787	7163.94
904.101	7104.95
904.415	7124.61
904.729	7125.29
905.042	7073.32
905.356	7096.14
905.67	7053.66
905.984	7024.28
906.297	6958.29
906.611	6939.08
906.924	6930.72
907.237	6878.29
907.551	6893.89
907.864	6821.57
908.177	6885.53
908.491	6844.62
908.804	6774.34
909.117	6715.81
909.43	6686.21
909.743	6683.27
910.056	6715.59
910.368	6635.81
910.681	6588.36
910.994	6586.55
911.307	6537.29
911.619	6551.75
911.932	6561.92
912.244	6490.96
912.557	6513.33
912.869	6434.69
913.181	6404.18
913.494	6491.64
913.806	6346.33
914.118	6339.55
914.43	6273.56
914.742	6328.03
915.054	6229.72
915.366	6224.75
915.678	6206.45
915.99	6158.09
916.302	6163.96
916.613	6147.24
916.925	6123.29
917.236	6073.57
917.548	5981.14
917.859	6024.3
918.171	5960.35
918.482	5978.43
918.794	5938.43
919.105	5948.83
919.416	5902.95
919.727	5928.04
920.038	5864.99
920.349	5830.64
920.66	5794.25
920.971	5774.14
921.282	5763.52
921.593	5700.7
921.903	5666.57
922.214	5678.78
922.525	5668.83
922.835	5583.64
923.146	5595.39
923.456	5592
923.767	5574.37
924.077	5610.08
924.387	5541.15
924.697	5481.27
925.008	5486.01
925.318	5487.6
925.628	5433.81
925.938	5431.33
926.248	5399.01
926.558	5366.92
926.867	5365.79
927.177	5327.6
927.487	5298.22
927.796	5269.3
928.106	5291.67
928.416	5226.36
928.725	5237.66
929.034	5169.19
929.344	5189.98
929.653	5105.01
929.962	5101.84
930.271	5123.31
930.581	5064.78
930.89	5084.67
931.199	5033.14
931.508	5005.35
931.817	4995.18
932.125	4993.37
932.434	4957.89
932.743	4891.91
933.051	4893.71
933.36	4863.43
933.669	4848.06
933.977	4864.79
934.286	4851.23
934.594	4851.45
934.902	4772.81
935.21	4762.19
935.519	4727.84
935.827	4782.98
936.135	4719.03
936.443	4640.39
936.751	4607.62
937.059	4645.36
937.367	4593.61
937.674	4612.59
937.982	4613.27
938.29	4570.78
938.597	4562.87
938.905	4516.32
939.213	4478.36
939.52	4446.04
939.827	4482.2
940.135	4464.35
940.442	4433.61
940.749	4415.99
941.056	4379.83
941.363	4361.98
941.67	4346.61
941.977	4355.42
942.284	4305.48
942.591	4315.88
942.898	4280.17
943.205	4286.05
943.511	4248.31
943.818	4245.14
944.125	4178.93
944.431	4176.9
944.738	4164.69
945.044	4154.07
945.35	4121.3
945.657	4108.88
945.963	4086.28
946.269	4084.02
946.575	4052.38
946.881	4055.32
947.187	4036.11
947.493	4002.66
947.799	4012.83
948.105	3976.45
948.41	3976.45
948.716	3990.23
949.022	3932.83
949.327	3916.11
949.633	3895.55
949.938	3865.94
950.244	3854.42
950.549	3849.45
950.854	3817.13
951.16	3831.59
951.465	3773.74
951.77	3800.41
952.075	3784.59
952.38	3754.53
952.685	3795.89
952.99	3726.06
953.294	3747.98
953.599	3681.32
953.904	3674.31
954.209	3609.68
954.513	3633.18
954.818	3611.94
955.122	3595.67
955.426	3616.46
955.731	3577.82
956.035	3591.83
956.339	3558.83
956.643	3529.68
956.948	3533.07
957.252	3517.93
957.556	3514.77
957.86	3450.81
958.163	3488.33
958.467	3449.68
958.771	3406.29
959.075	3439.06
959.378	3403.13
959.682	3406.52
959.985	3412.4
960.289	3353.64
960.592	3333.75
960.896	3356.58
961.199	3295.34
961.502	3283.81
961.805	3280.65
962.108	3283.81
962.411	3254.66
962.714	3258.73
963.017	3255.56
963.32	3226.64
963.623	3204.72
963.926	3180.99
964.228	3159.97
964.531	3177.6
964.833	3170.14
965.136	3141.44
965.438	3117.71
965.741	3075.91
966.043	3102.57
966.345	3069.81
966.648	3071.39
966.95	3058.06
967.252	3023.93
967.554	3035
967.856	3032.97
968.158	2984.38
968.46	2950.26
968.761	2953.2
969.063	2954.56
969.365	2949.13
969.666	2933.76
969.968	2928.57
970.269	2910.71
970.571	2898.29
970.872	2898.06
971.174	2896.48
971.475	2854.9
971.776	2838.17
972.077	2823.49
972.378	2826.65
972.679	2804.28
972.98	2818.29
973.281	2801.56
973.582	2785.97
973.883	2779.19
974.183	2802.69
974.484	2750.27
974.785	2731.74
975.085	2729.48
975.386	2725.86
975.686	2744.62
975.986	2677.5
976.287	2686.77
976.587	2638.18
976.887	2675.01
977.187	2641.34
977.487	2650.38
977.787	2629.14
978.087	2611.29
978.387	2613.32
978.687	2597.05
978.987	2571.29
979.286	2572.87
979.586	2578.97
979.885	2542.36
980.185	2529.71
980.484	2521.57
980.784	2495.81
981.083	2501.01
981.382	2506.88
981.682	2468.47
981.981	2474.79
982.28	2459.2
982.579	2416.04
982.878	2432.08
983.177	2408.13
983.475	2395.47
983.774	2409.94
984.073	2393.44
984.372	2392.76
984.67	2384.17
984.969	2367.23
985.267	2361.35
985.566	2355.25
985.864	2339.88
986.162	2306.66
986.461	2308.47
986.759	2272.54
987.057	2290.84
987.355	2273.67
987.653	2293.33
987.951	2257.62
988.249	2231.41
988.547	2258.3
988.844	2198.87
989.142	2207.23
989.44	2222.82
989.737	2186.89
990.035	2180.34
990.332	2184.18
990.63	2170.39
990.927	2171.07
991.224	2120.45
991.521	2160.68
991.819	2144.18
992.116	2106.44
992.413	2105.76
992.71	2118.19
993.006	2104.86
993.303	2062.6
993.6	2083.39
993.897	2081.58
994.193	2060.34
994.49	2056.95
994.787	2052.43
995.083	2028.48
995.379	2010.63
995.676	2002.72
995.972	2019.89
996.268	2001.36
996.565	1972.43
996.861	1946.67
997.157	1940.8
997.453	1997.74
997.749	1968.14
998.044	1922.72
998.34	1943.96
998.636	1910.74
998.932	1916.84
999.227	1875.26
999.523	1896.5
999.818	1875.71
1000.114	1897.18
1000.409	1843.17
1000.704	1848.37
1001	1821.48
1001.295	1830.52
1001.59	1823.74
1001.885	1824.64
1002.18	1815.83
1002.475	1776.51
1002.77	1780.8
1003.065	1763.4
1003.359	1756.17
1003.654	1748.94
1003.949	1758.88
1004.243	1720.69
1004.538	1729.05
1004.832	1735.83
1005.127	1714.14
1005.421	1709.16
1005.715	1681.14
1006.009	1708.03
1006.304	1675.72
1006.598	1670.97
1006.892	1656.28
1007.186	1640.24
1007.48	1614.93
1007.773	1636.4
1008.067	1629.39
1008.361	1631.43
1008.655	1588.72
1008.948	1581.94
1009.242	1591.65
1009.535	1570.41
1009.829	1547.36
1010.122	1565.67
1010.415	1557.3
1010.708	1537.19
1011.001	1565.44
1011.295	1514.37
1011.588	1506.46
1011.881	1479.57
1012.173	1495.84
1012.466	1495.16
1012.759	1493.58
1013.052	1463.52
1013.344	1487.93
1013.637	1469.4
1013.93	1428.04
1014.222	1460.13
1014.514	1447.02
1014.807	1438.21
1015.099	1430.08
1015.391	1426.69
1015.683	1424.43
1015.976	1389.85
1016.268	1378.1
1016.56	1390.75
1016.851	1380.59
1017.143	1359.57
1017.435	1365.44
1017.727	1341.72
1018.018	1334.03
1018.31	1324.09
1018.602	1346.24
1018.893	1323.64
1019.185	1318.67
1019.476	1316.18
1019.767	1291.1
1020.058	1270.98
1020.35	1283.19
1020.641	1296.29
1020.932	1257.42
1021.223	1268.27
1021.514	1246.58
1021.804	1228.27
1022.095	1242.51
1022.386	1224.66
1022.677	1209.97
1022.967	1213.58
1023.258	1223.08
1023.548	1212
1023.839	1193.02
1024.129	1196.64
1024.419	1156.18
1024.709	1176.07
1025	1127.03
1025.29	1150.99
1025.58	1132
1025.87	1122.29
1026.16	1107.15
1026.449	1124.55
1026.739	1112.57
1027.029	1117.77
1027.319	1099.91
1027.608	1104.43
1027.898	1101.27
1028.187	1065.79
1028.477	1080.48
1028.766	1082.51
1029.055	1045.9
1029.344	1072.8
1029.634	1048.16
1029.923	1026.92
1030.212	1035.06
1030.501	1035.96
1030.79	1023.76
1031.078	1005.23
1031.367	1030.76
1031.656	992.57
1031.945	1020.59
1032.233	998.9
1032.522	1003.65
1032.81	979.92
1033.099	964.1
1033.387	991.67
1033.675	947.83
1033.963	959.81
1034.251	950.09
1034.54	957.77
1034.828	917.77
1035.116	936.53
1035.403	946.7
1035.691	917.32
1035.979	910.99
1036.267	935.4
1036.554	891.78
1036.842	876.19
1037.129	907.38
1037.417	892.46
1037.704	909.41
1037.992	875.29
1038.279	872.12
1038.566	848.85
1038.853	848.85
1039.14	848.85
