Data from hue_230_FLMS001491_00084.txt Node
Date: Tue Feb 07 16:37:51 GMT 2017
User: dcchb
Spectrometer: FLMS00149
Trigger mode: 0
Integration Time (sec): 2.000000E-2
Scans to average: 10
Electric dark correction enabled: true
Nonlinearity correction enabled: false
Boxcar width: 0
XAxis mode: Wavelengths
Number of Pixels in Spectrum: 2048
>>>>>Begin Spectral Data<<<<<
341.393	-15.44
341.776	-15.44
342.16	-15.44
342.543	-65.61
342.927	-83.68
343.31	-68.54
343.693	-84.81
344.077	-72.39
344.46	-57.92
344.843	-53.4
345.226	-43.23
345.61	-47.08
345.993	-8.66
346.376	6.93
346.759	0.38
347.142	19.59
347.525	64.79
347.908	54.62
348.291	83.32
348.674	94.39
349.057	112.02
349.44	118.34
349.823	152.24
350.206	179.13
350.588	187.04
350.971	186.59
351.354	194.73
351.737	216.19
352.119	248.28
352.502	227.72
352.884	248.74
353.267	283.54
353.65	279.02
354.032	283.76
354.414	281.96
354.797	281.5
355.179	300.03
355.562	321.95
355.944	350.65
356.326	318.57
356.709	346.13
357.091	326.02
357.473	316.31
357.855	338.23
358.238	319.92
358.62	334.16
359.002	322.63
359.384	315.4
359.766	340.49
360.148	312.46
360.53	317.44
360.912	333.93
361.294	321.73
361.676	321.73
362.057	310.66
362.439	329.64
362.821	334.16
363.203	309.3
363.584	301.39
363.966	326.93
364.348	320.82
364.729	321.73
365.111	316.98
365.493	284.44
365.874	316.76
366.256	287.15
366.637	307.49
367.019	286.25
367.4	323.31
367.781	320.82
368.163	306.36
368.544	298.45
368.925	303.88
369.306	322.86
369.688	288.51
370.069	273.59
370.45	283.09
370.831	308.85
371.212	306.14
371.593	297.32
371.974	307.49
372.355	304.1
372.736	304.33
373.117	311.33
373.498	310.88
373.879	307.04
374.26	308.17
374.641	313.14
375.021	322.18
375.402	313.37
375.783	317.21
376.163	312.01
376.544	340.03
376.925	309.53
377.305	304.78
377.686	309.3
378.066	338.9
378.447	329.41
378.827	304.1
379.208	311.79
379.588	333.03
379.968	310.2
380.349	328.51
380.729	311.56
381.109	307.49
381.489	333.71
381.87	323.99
382.25	329.86
382.63	339.36
383.01	324.44
383.39	326.02
383.77	316.53
384.15	347.94
384.53	335.97
384.91	328.96
385.29	334.84
385.67	324.89
386.049	335.29
386.429	340.71
386.809	328.73
387.189	332.35
387.568	338.9
387.948	329.41
388.328	367.15
388.707	341.62
389.087	360.82
389.466	354.72
389.846	370.32
390.225	353.59
390.605	346.36
390.984	349.98
391.363	348.39
391.743	361.28
392.122	331.9
392.501	373.25
392.881	376.87
393.26	359.02
393.639	364.21
394.018	341.39
394.397	366.93
394.776	380.94
395.155	366.7
395.534	356.3
395.913	371.45
396.292	368.51
396.671	369.19
397.05	398.56
397.429	357.66
397.808	395.63
398.186	389.75
398.565	377.32
398.944	373.93
399.323	384.55
399.701	374.83
400.08	407.6
400.458	408.05
400.837	396.76
401.215	409.64
401.594	415.74
401.972	407.15
402.351	437.21
402.729	418.22
403.107	385.91
403.486	428.39
403.864	430.88
404.242	404.44
404.62	403.53
404.999	410.99
405.377	435.62
405.755	420.26
406.133	427.26
406.511	447.15
406.889	448.96
407.267	435.17
407.645	459.8
408.023	460.26
408.401	449.86
408.779	457.77
409.156	471.56
409.534	448.96
409.912	471.78
410.29	482.18
410.667	464.55
411.045	513.59
411.422	496.64
411.8	517.2
412.178	501.16
412.555	521.5
412.933	518.79
413.31	529.18
413.687	531.44
414.065	539.12
414.442	540.93
414.819	560.59
415.197	559.24
415.574	585.9
415.951	573.02
416.328	598.78
416.705	580.48
417.082	596.75
417.46	606.02
417.837	604.21
418.214	622.74
418.591	591.33
418.967	635.62
419.344	630.2
419.721	641.27
420.098	658.67
420.475	644.21
420.852	647.14
421.228	684.43
421.605	692.34
421.982	660.25
422.358	689.63
422.735	686.01
423.111	710.19
423.488	733.24
423.864	721.94
424.241	755.39
424.617	739.12
424.994	759.23
425.37	761.27
425.746	778.21
426.123	790.19
426.499	804.65
426.875	807.82
427.251	838.55
427.627	830.87
428.003	845.78
428.379	868.61
428.756	871.32
429.132	855.95
429.507	846.46
429.883	891.88
430.259	912.45
430.635	892.79
431.011	886.69
431.387	919
431.763	952.45
432.138	956.06
432.514	968.04
432.89	991.99
433.265	975.5
433.641	1007.81
434.016	1005.78
434.392	1041.48
434.767	1066.57
435.143	1045.55
435.518	1095.49
435.894	1115.38
436.269	1135.72
436.644	1137.75
437.02	1185.66
437.395	1149.5
437.77	1150.18
438.145	1215.49
438.52	1223.85
438.895	1221.82
439.271	1239.9
439.646	1284.19
440.021	1278.54
440.395	1286
440.77	1294.13
441.145	1303.62
441.52	1310.18
441.895	1367.58
442.27	1350.63
442.645	1369.84
443.019	1387.01
443.394	1364.87
443.769	1379.1
444.143	1388.37
444.518	1408.93
444.892	1439.21
445.267	1418.42
445.641	1449.16
446.016	1440.57
446.39	1469.72
446.764	1484.86
447.139	1477.63
447.513	1504.07
447.887	1507.01
448.262	1528.25
448.636	1518.08
449.01	1567.8
449.384	1556.72
449.758	1562.6
450.132	1582.03
450.506	1586.78
450.88	1594.46
451.254	1597.18
451.628	1641.69
452.002	1617.29
452.376	1637.4
452.75	1665.65
453.123	1668.13
453.497	1701.81
453.871	1702.03
454.244	1729.15
454.618	1766.44
454.992	1766.21
455.365	1750.84
455.739	1854.34
456.112	1841.69
456.486	1831.29
456.859	1829.03
457.232	1903.83
457.606	1904.96
457.979	1892.08
458.352	1979.76
458.725	1959.43
459.099	1948.58
459.472	1997.39
459.845	2020.44
460.218	2023.6
460.591	2095.24
460.964	2050.5
461.337	2078.29
461.71	2147.44
462.083	2156.93
462.456	2140.89
462.829	2153.09
463.201	2209.59
463.574	2188.8
463.947	2235.58
464.32	2271.51
464.692	2323.03
465.065	2281
465.438	2340.88
465.81	2380.88
466.183	2386.99
466.555	2431.05
466.928	2431.73
467.3	2449.58
467.672	2497.49
468.045	2565.74
468.417	2529.13
468.789	2569.13
469.161	2601.67
469.534	2629.01
469.906	2682.12
470.278	2675.34
470.65	2732.29
471.022	2758.5
471.394	2829.01
471.766	2838.72
472.138	2847.99
472.51	2911.94
472.882	2988.78
473.253	2983.58
473.625	3008.89
473.997	3042.56
474.369	3052.73
474.74	3103.8
475.112	3159.85
475.484	3245.72
475.855	3255.44
476.227	3275.55
476.598	3381.99
476.97	3362.33
477.341	3406.62
477.713	3506.73
478.084	3504.47
478.455	3604.81
478.827	3605.48
479.198	3706.95
479.569	3647.29
479.94	3766.84
480.311	3807.74
480.682	3885.7
481.053	3925.7
481.424	3949.66
481.795	4052.93
482.166	4078.47
482.537	4096.09
482.908	4146.71
483.279	4241.85
483.65	4347.39
484.021	4368.85
484.391	4404.33
484.762	4407.72
485.133	4424.9
485.503	4478
485.874	4624.44
486.244	4679.35
486.615	4720.03
486.985	4757.09
487.356	4813.36
487.726	4833.25
488.097	4992.79
488.467	4970.65
488.837	5066.24
489.207	5092
489.578	5169.51
489.948	5246.35
490.318	5240.92
490.688	5290.19
491.058	5277.76
491.428	5326.12
491.798	5468.71
492.168	5524.08
492.538	5561.14
492.908	5558.88
493.278	5636.39
493.648	5644.98
494.017	5673.68
494.387	5757.52
494.757	5743.73
495.126	5824.18
495.496	5858.98
495.866	5864.41
496.235	5904.18
496.605	5957.29
496.974	5995.48
497.344	6027.57
497.713	6079.32
498.082	6100.33
498.452	6111.18
498.821	6188.24
499.19	6158.64
499.559	6228.69
499.928	6216.26
500.298	6230.73
500.667	6269.14
501.036	6241.35
501.405	6338.52
501.774	6316.37
502.143	6334.23
502.512	6338.29
502.88	6445.18
503.249	6418.74
503.618	6500.78
503.987	6448.57
504.356	6530.38
504.724	6513.88
505.093	6550.72
505.462	6551.62
505.83	6604.05
506.199	6618.06
506.567	6647.89
506.936	6613.09
507.304	6736.48
507.672	6748.68
508.041	6735.57
508.409	6741.22
508.777	6773.31
509.145	6835.23
509.514	6827.55
509.882	6806.76
510.25	6809.47
510.618	6851.95
510.986	6906.41
511.354	6941.67
511.722	6926.98
512.09	6965.85
512.458	6954.32
512.826	6972.4
513.193	7042.46
513.561	7037.03
513.929	7054.89
514.297	7098.95
514.664	7100.31
515.032	7109.35
515.4	7065.96
515.767	7143.24
516.135	7161.77
516.502	7040.42
516.869	7187.31
517.237	7192.28
517.604	7131.49
517.972	7180.31
518.339	7207.88
518.706	7165.39
519.073	7190.47
519.44	7236.58
519.808	7273.41
520.175	7208.1
520.542	7283.81
520.909	7275.44
521.276	7293.07
521.643	7254.43
522.009	7317.48
522.376	7383.24
522.743	7377.36
523.11	7394.31
523.477	7435.67
523.843	7377.81
524.21	7506.17
524.577	7461.2
524.943	7499.62
525.31	7458.04
525.676	7499.62
526.043	7521.77
526.409	7551.6
526.776	7513.86
527.142	7547.98
527.508	7559.28
527.874	7648.99
528.241	7543.69
528.607	7614.87
528.973	7597.7
529.339	7596.11
529.705	7668.88
530.071	7711.37
530.437	7617.13
530.803	7666.62
531.169	7700.52
531.535	7694.64
531.901	7625.94
532.267	7643.8
532.632	7646.96
532.998	7624.36
533.364	7673.63
533.73	7691.03
534.095	7683.34
534.461	7650.35
534.826	7703.91
535.192	7671.14
535.557	7611.93
535.923	7637.24
536.288	7621.65
536.653	7643.12
537.019	7557.02
537.384	7541.43
537.749	7624.81
538.114	7590.46
538.479	7519.05
538.845	7592.95
539.21	7541.43
539.575	7506.85
539.94	7480.41
540.305	7550.24
540.67	7434.08
541.034	7516.34
541.399	7480.86
541.764	7417.36
542.129	7484.7
542.494	7505.49
542.858	7423.24
543.223	7348.89
543.587	7398.15
543.952	7444.03
544.316	7452.61
544.681	7372.39
545.045	7401.09
545.41	7308.89
545.774	7395.67
546.138	7340.3
546.503	7299.4
546.867	7268.21
547.231	7341.88
547.595	7315.44
547.959	7320.87
548.324	7258.27
548.688	7226.86
549.052	7222.11
549.416	7247.87
549.779	7162.23
550.143	7140.53
550.507	7272.73
550.871	7204.71
551.235	7202.68
551.599	7253.3
551.962	7197.48
552.326	7167.42
552.689	7229.12
553.053	7155.9
553.417	7092.62
553.78	7179.63
554.143	7097.37
554.507	7176.69
554.87	7103.47
555.234	7112.28
555.597	7114.09
555.96	7144.37
556.323	7091.72
556.686	7071.83
557.05	7134.43
557.413	7109.35
557.776	7139.18
558.139	7083.36
558.502	7135.56
558.865	7108.44
559.228	7189.57
559.59	7153.64
559.953	7121.55
560.316	7164.94
560.679	7187.76
561.041	7200.64
561.404	7173.75
561.767	7176.46
562.129	7185.96
562.492	7128.33
562.854	7171.49
563.217	7193.41
563.579	7221.21
563.941	7244.26
564.304	7210.81
564.666	7187.76
565.028	7306.86
565.39	7236.8
565.753	7286.97
566.115	7322.22
566.477	7297.82
566.839	7316.8
567.201	7354.76
567.563	7385.05
567.925	7341.21
568.287	7366.74
568.648	7380.75
569.01	7413.52
569.372	7420.98
569.734	7394.99
570.095	7481.54
570.457	7437.25
570.819	7434.76
571.18	7438.6
571.542	7528.54
571.903	7457.36
572.265	7525.38
572.626	7543.23
572.987	7562.44
573.349	7554.31
573.71	7544.36
574.071	7545.04
574.432	7588.88
574.794	7715.88
575.155	7621.88
575.516	7637.69
575.877	7644.02
576.238	7702.1
576.599	7700.29
576.96	7660.74
577.32	7722.21
577.681	7790.23
578.042	7735.09
578.403	7806.73
578.763	7788.2
579.124	7813.51
579.485	7879.5
579.845	7794.53
580.206	7812.15
580.566	7888.31
580.927	7896.9
581.287	7886.28
581.648	7946.61
582.008	7936.22
582.368	7938.93
582.728	7968.31
583.089	7995.65
583.449	7919.72
583.809	7949.1
584.169	7998.59
584.529	7975.99
584.889	8035.42
585.249	7969.21
585.609	7912.94
585.969	8024.35
586.329	8015.54
586.688	8005.82
587.048	7987.74
587.408	7988.87
587.768	8004.24
588.127	8031.81
588.487	8023
588.846	8079.49
589.206	8039.49
589.565	8073.39
589.925	8180.96
590.284	8102.99
590.643	8110.9
591.003	8173.95
591.362	8181.64
591.721	8136.44
592.08	8157.68
592.44	8137.34
592.799	8181.41
593.158	8212.59
593.517	8134.18
593.876	8199.26
594.235	8151.81
594.593	8158.58
594.952	8183.22
595.311	8204.46
595.67	8251.24
596.029	8291.01
596.387	8250.79
596.746	8286.49
597.104	8302.54
597.463	8234.97
597.822	8245.36
598.18	8317.68
598.538	8254.63
598.897	8364.23
599.255	8271.35
599.613	8366.49
599.972	8269.09
600.33	8331.46
600.688	8295.08
601.046	8302.31
601.404	8332.37
601.762	8304.12
602.12	8352.03
602.478	8340.5
602.836	8347.96
603.194	8312.71
603.552	8334.63
603.91	8295.53
604.268	8406.26
604.625	8340.95
604.983	8395.87
605.341	8307.06
605.698	8393.38
606.056	8362.87
606.413	8422.53
606.771	8420.5
607.128	8408.07
607.485	8281.97
607.843	8395.87
608.2	8391.57
608.557	8393.83
608.914	8413.49
609.272	8481.97
609.629	8466.15
609.986	8518.12
610.343	8472.47
610.7	8484.68
611.057	8499.14
611.414	8442.65
611.771	8462.53
612.127	8520.84
612.484	8452.59
612.841	8584.11
613.198	8477.22
613.554	8466.15
613.911	8564.68
614.267	8540.04
614.624	8594.05
614.98	8569.65
615.337	8626.6
615.693	8577.1
616.05	8570.78
616.406	8668.4
616.762	8573.26
617.118	8585.47
617.475	8638.8
617.831	8677.44
618.187	8625.69
618.543	8603.54
618.899	8700.27
619.255	8684.9
619.611	8674.5
619.967	8731.9
620.323	8711.56
620.678	8616.2
621.034	8664.33
621.39	8700.27
621.746	8653.71
622.101	8739.13
622.457	8692.58
622.812	8727.38
623.168	8700.94
623.523	8705.46
623.879	8699.14
624.234	8632.7
624.589	8721.73
624.945	8676.54
625.3	8761.05
625.655	8669.76
626.01	8676.31
626.365	8678.57
626.72	8652.58
627.075	8640.61
627.43	8681.74
627.785	8634.28
628.14	8665.92
628.495	8667.72
628.85	8697.33
629.205	8618.46
629.559	8663.2
629.914	8621.4
630.269	8595.86
630.623	8643.32
630.978	8587.95
631.332	8611
631.687	8623.21
632.041	8573.26
632.396	8553.83
632.75	8610.78
633.104	8498.69
633.459	8505.92
633.813	8491.68
634.167	8556.31
634.521	8478.35
634.875	8449.88
635.229	8504.56
635.583	8511.57
635.937	8463.44
636.291	8434.06
636.645	8489.42
636.999	8412.36
637.352	8481.51
637.706	8403.78
638.06	8417.34
638.413	8409.65
638.767	8396.54
639.121	8417.56
639.474	8377.79
639.828	8345.7
640.181	8400.39
640.534	8383.21
640.888	8338.24
641.241	8355.87
641.594	8356.09
641.947	8357.45
642.301	8312.48
642.654	8316.77
643.007	8319.48
643.36	8397.22
643.713	8322.87
644.066	8371.23
644.419	8295.3
644.771	8202.65
645.124	8121.3
645.477	8143.22
645.83	8048.98
646.182	8060.73
646.535	8084.69
646.888	8054.63
647.24	8026.61
647.593	8055.99
647.945	8028.19
648.298	8039.49
648.65	7985.93
649.002	7985.93
649.355	8030.45
649.707	7986.84
650.059	7992.49
650.411	8101.86
650.763	8147.06
651.115	8154.52
651.467	8154.07
651.819	8180.73
652.171	8212.37
652.523	8185.93
652.875	8203.1
653.227	8117.91
653.578	8143.9
653.93	8163.33
654.282	8134.18
654.633	8102.54
654.985	8091.69
655.337	8099.38
655.688	8112.03
656.039	8190.22
656.391	8090.11
656.742	8101.64
657.094	8161.52
657.445	8122.2
657.796	8214.63
658.147	8135.76
658.498	8126.95
658.849	8148.64
659.2	8176.21
659.551	8138.25
659.902	8164.69
660.253	8164.91
660.604	8121.98
660.955	8155.2
661.306	8215.76
661.656	8135.76
662.007	8172.82
662.358	8156.78
662.708	8082.65
663.059	8133.05
663.409	8129.89
663.76	8126.27
664.11	8115.65
664.461	8155.2
664.811	8116.55
665.161	8150.68
665.511	8180.05
665.862	8152.94
666.212	8118.36
666.562	8185.93
666.912	8186.15
667.262	8181.41
667.612	8171.24
667.962	8208.98
668.312	8146.16
668.662	8232.48
669.011	8137.79
669.361	8171.69
669.711	8146.61
670.06	8159.94
670.41	8154.97
670.76	8119.49
671.109	8182.99
671.459	8074.52
671.808	8103.9
672.157	8109.09
672.507	8055.08
672.856	8055.99
673.205	8093.28
673.554	8065.03
673.904	8037.01
674.253	8121.3
674.602	8106.16
674.951	7982.32
675.3	7940.29
675.649	8021.19
675.998	8049.44
676.346	8065.03
676.695	8078.59
677.044	8003.56
677.393	7959.49
677.741	8013.73
678.09	8005.14
678.438	7959.04
678.787	7997.01
679.135	7947.74
679.484	7944.81
679.832	7980.51
680.181	7910.68
680.529	7929.21
680.877	7907.97
681.225	7893.06
681.573	7936.9
681.922	7871.81
682.27	7816.22
682.618	7833.4
682.966	7855.77
683.314	7766.05
683.661	7778.48
684.009	7717.24
684.357	7693.74
684.705	7740.52
685.053	7758.14
685.4	7698.48
685.748	7707.52
686.095	7603.8
686.443	7671.59
686.79	7591.59
687.138	7632.95
687.485	7600.41
687.832	7591.14
688.18	7583.68
688.527	7637.92
688.874	7490.81
689.221	7520.18
689.568	7512.5
689.915	7466.85
690.262	7477.7
690.609	7467.08
690.956	7427.53
691.303	7391.6
691.65	7347.31
691.997	7353.41
692.344	7343.92
692.69	7319.28
693.037	7319.28
693.383	7298.72
693.73	7281.77
694.077	7191.38
694.423	7261.43
694.769	7148.89
695.116	7173.3
695.462	7183.92
695.808	7068.22
696.155	7091.27
696.501	7028.9
696.847	7109.12
697.193	7047.65
697.539	7032.96
697.885	6996.81
698.231	6964.04
698.577	6933.53
698.923	6936.92
699.269	6899.63
699.614	6872.07
699.96	6877.26
700.306	6840.88
700.651	6763.37
700.997	6800.2
701.342	6745.97
701.688	6761.79
702.033	6710.94
702.379	6747.77
702.724	6657.38
703.069	6715.91
703.415	6598.85
703.76	6597.95
704.105	6584.16
704.45	6572.19
704.795	6503.94
705.14	6507.33
705.485	6498.06
705.83	6485.18
706.175	6470.27
706.52	6475.47
706.865	6500.32
707.209	6399.31
707.554	6402.92
707.899	6404.73
708.243	6364.73
708.588	6390.5
708.932	6299.88
709.277	6327.67
709.621	6297.39
709.966	6332.42
710.31	6242.93
710.654	6219.43
710.998	6268.01
711.342	6258.52
711.687	6185.76
712.031	6193.21
712.375	6204.96
712.719	6217.62
713.063	6151.18
713.407	6230.05
713.75	6167.9
714.094	6162.48
714.438	6154.12
714.782	6090.62
715.125	6068.24
715.469	6112.09
715.812	6049.26
716.156	5973.78
716.499	6025.53
716.843	6049.04
717.186	6018.3
717.53	6006.1
717.873	6041.13
718.216	5992.77
718.559	5961.13
718.902	5926.33
719.246	5976.04
719.589	5937.17
719.932	5963.84
720.275	5970.17
720.617	5927.46
720.96	5910.51
721.303	5901.7
721.646	5908.02
721.989	5898.98
722.331	5881.81
722.674	5885.2
723.016	5914.35
723.359	5892.43
723.701	5944.63
724.044	5873
724.386	5902.37
724.729	5857.63
725.071	5854.69
725.413	5826.89
725.755	5830.96
726.097	5827.8
726.439	5834.8
726.782	5778.31
727.124	5885.42
727.465	5803.17
727.807	5776.95
728.149	5783.05
728.491	5815.82
728.833	5835.93
729.175	5816.73
729.516	5731.98
729.858	5814.92
730.199	5731.98
730.541	5751.64
730.882	5753.68
731.224	5763.62
731.565	5759.1
731.906	5816.27
732.248	5826.44
732.589	5763.62
732.93	5781.02
733.271	5757.52
733.612	5764.07
733.953	5820.12
734.294	5779.89
734.635	5755.48
734.976	5781.92
735.317	5754.35
735.658	5698.99
735.999	5756.61
736.339	5759.1
736.68	5776.27
737.021	5764.98
737.361	5743.73
737.702	5803.39
738.042	5778.08
738.383	5743.73
738.723	5803.62
739.063	5827.35
739.404	5765.88
739.744	5784.18
740.084	5778.76
740.424	5838.42
740.764	5789.38
741.104	5854.69
741.444	5829.61
741.784	5910.06
742.124	5854.24
742.464	5883.39
742.804	5843.62
743.143	5887.68
743.483	5929.72
743.823	5924.97
744.162	5919.77
744.502	5948.02
744.841	5936.95
745.181	5990.28
745.52	5994.8
745.86	6087.45
746.199	6095.36
746.538	6092.42
746.877	6148.47
747.216	6192.76
747.556	6174.46
747.895	6185.76
748.234	6237.28
748.573	6241.12
748.911	6236.38
749.25	6326.09
749.589	6315.24
749.928	6365.86
750.267	6460.78
750.605	6491.51
750.944	6510.27
751.283	6583.71
751.621	6658.29
751.96	6697.38
752.298	6721.79
752.636	6837.26
752.975	6879.97
753.313	6875.23
753.651	7052.17
753.989	7126.07
754.327	7154.54
754.666	7209.91
755.004	7352.73
755.342	7452.16
755.679	7504.14
756.017	7550.69
756.355	7745.71
756.693	7783.91
757.031	7882.21
757.368	7889.21
757.706	8010.11
758.044	8129.89
758.381	8227.28
758.719	8384.79
759.056	8482.42
759.394	8589.08
759.731	8659.36
760.068	8780.72
760.405	8910.43
760.743	8940.94
761.08	9123.98
761.417	9218.9
761.754	9333.02
762.091	9481.26
762.428	9547.02
762.765	9644.2
763.102	9782.72
763.438	9878.54
763.775	9925.32
764.112	10144.75
764.449	10307.23
764.785	10322.14
765.122	10497.51
765.458	10497.28
765.795	10622.93
766.131	10819.98
766.467	10861.56
766.804	10941.34
767.14	11020.43
767.476	11113.76
767.812	11146.3
768.148	11358.27
768.485	11398.73
768.821	11440.31
769.157	11574.99
769.492	11611.15
769.828	11724.82
770.164	11654.09
770.5	11819.28
770.836	11948.77
771.171	11919.62
771.507	12053.85
771.842	12066.28
772.178	12090.01
772.513	12218.14
772.849	12247.52
773.184	12283.22
773.519	12435.53
773.855	12414.97
774.19	12426.04
774.525	12445.03
774.86	12540.16
775.195	12633.5
775.53	12622.2
775.865	12584.23
776.2	12588.3
776.535	12574.74
776.87	12718.69
777.205	12638.92
777.539	12709.65
777.874	12739.71
778.209	12669.65
778.543	12703.55
778.878	12698.8
779.212	12773.83
779.547	12821.74
779.881	12866.26
780.215	12790.55
780.55	12909.65
780.884	12874.17
781.218	12862.19
781.552	12880.95
781.886	12835.75
782.22	12829.42
782.554	12777.9
782.888	12748.97
783.222	12772.7
783.556	12745.36
783.889	12691.57
784.223	12695.41
784.557	12690.67
784.89	12769.54
785.224	12640.27
785.557	12693.83
785.891	12685.92
786.224	12643.89
786.558	12647.05
786.891	12546.27
787.224	12545.81
787.557	12535.64
787.891	12540.39
788.224	12585.59
788.557	12606.83
788.89	12552.14
789.223	12564.57
789.556	12491.58
789.888	12457.45
790.221	12451.58
790.554	12418.36
790.887	12428.08
791.219	12379.26
791.552	12334.97
791.884	12320.06
792.217	12357.8
792.549	12301.07
792.882	12159.61
793.214	12278.02
793.546	12198.93
793.879	12180.63
794.211	12146.95
794.543	12106.73
794.875	12064.02
795.207	12108.99
795.539	12060.63
795.871	12124.58
796.203	12042.55
796.535	11943.34
796.867	11891.59
797.198	11915.32
797.53	11933.63
797.862	11777.7
798.193	11874.87
798.525	11740.64
798.856	11850.24
799.188	11681.88
799.519	11655.44
799.85	11622.67
800.182	11680.53
800.513	11637.36
800.844	11606.86
801.175	11613.41
801.506	11629.91
801.837	11475.33
802.168	11572.51
802.499	11417.03
802.83	11496.58
803.161	11411.15
803.491	11432.85
803.822	11481.89
804.153	11353.98
804.483	11305.17
804.814	11263.14
805.145	11285.96
805.475	11275.79
805.805	11231.27
806.136	11191.27
806.466	11223.14
806.796	11196.7
807.126	11149.69
807.457	11042.8
807.787	11095.23
808.117	11073.99
808.447	10957.61
808.777	11031.73
809.107	11000.32
809.436	10972.52
809.766	10966.42
810.096	10891.85
810.426	10808.23
810.755	10832.19
811.085	10800.32
811.414	10808.91
811.744	10740.21
812.073	10743.6
812.403	10792.64
812.732	10618.41
813.061	10676.03
813.39	10670.16
813.719	10627.22
814.049	10700.89
814.378	10650.95
814.707	10537.96
815.036	10561.69
815.365	10503.83
815.693	10456.38
816.022	10566.21
816.351	10436.72
816.68	10387
817.008	10452.76
817.337	10358.08
817.665	10345.19
817.994	10366.66
818.322	10377.74
818.651	10359.66
818.979	10327.57
819.307	10351.07
819.636	10245.08
819.964	10198.76
820.292	10333.44
820.62	10281.24
820.948	10155.82
821.276	10227.01
821.604	10238.08
821.932	10225.88
822.259	10254.58
822.587	10212.32
822.915	10213.22
823.243	10209.83
823.57	10160.34
823.898	10209.6
824.225	10127.12
824.553	10198.08
824.88	10205.99
825.207	10285.53
825.535	10176.16
825.862	10247.8
826.189	10158.08
826.516	10229.72
826.843	10239.43
827.17	10270.85
827.497	10278.53
827.824	10241.02
828.151	10214.35
828.478	10201.47
828.805	10269.72
829.131	10217.06
829.458	10196.72
829.785	10132.09
830.111	10173.22
830.438	10217.97
830.764	10240.56
831.09	10258.64
831.417	10184.97
831.743	10242.15
832.069	10192.66
832.395	10210.96
832.722	10237.17
833.048	10171.64
833.374	10221.58
833.7	10238.53
834.026	10124.63
834.351	10201.47
834.677	10161.92
835.003	10183.84
835.329	10110.4
835.654	10116.05
835.98	10121.02
836.306	10114.92
836.631	10062.72
836.956	10089.38
837.282	10067.46
837.607	10065.65
837.932	10012.32
838.258	10070.17
838.583	10041.25
838.908	9919.89
839.233	9958.99
839.558	9913.12
839.883	9935.94
840.208	9897.75
840.533	9836.73
840.858	9904.3
841.182	9875.38
841.507	9868.82
841.832	9791.08
842.156	9780.01
842.481	9848.94
842.805	9798.32
843.13	9740.69
843.454	9732.1
843.778	9690.07
844.103	9684.65
844.427	9676.06
844.751	9674.03
845.075	9631.99
845.399	9618.21
845.723	9561.26
846.047	9607.13
846.371	9473.58
846.695	9522.16
847.019	9440.81
847.343	9387.48
847.666	9379.12
847.99	9294.6
848.313	9299.35
848.637	9276.07
848.96	9250.99
849.284	9189.29
849.607	9054.61
849.931	9150.88
850.254	9045.12
850.577	9003.76
850.9	8978.9
851.223	8996.3
851.546	8953.37
851.869	8862.75
852.192	8933.25
852.515	8849.87
852.838	8849.64
853.161	8820.49
853.483	8702.98
853.806	8677.89
854.129	8724.22
854.451	8678.8
854.774	8633.15
855.096	8622.75
855.419	8598.57
855.741	8604.45
856.063	8516.09
856.385	8540.04
856.708	8402.42
857.03	8395.87
857.352	8453.94
857.674	8376.43
857.996	8361.52
858.318	8271.35
858.64	8377.79
858.961	8283.55
859.283	8250.33
859.605	8273.16
859.926	8237.45
860.248	8246.72
860.57	8200.84
860.891	8193.61
861.212	8195.42
861.534	8126.5
861.855	8137.57
862.176	8149.09
862.498	8116.55
862.819	8104.8
863.14	8032.26
863.461	8054.63
863.782	8020.06
864.103	8104.12
864.424	7981.87
864.745	8024.8
865.065	7934.64
865.386	7940.96
865.707	7941.87
866.027	7955.2
866.348	7895.09
866.668	7891.93
866.989	7921.53
867.309	7846.5
867.63	7872.72
867.95	7865.03
868.27	7845.37
868.59	7890.57
868.91	7823.9
869.23	7871.13
869.55	7782.32
869.87	7807.41
870.19	7806.96
870.51	7817.12
870.83	7764.47
871.15	7764.25
871.469	7759.73
871.789	7777.13
872.109	7763.34
872.428	7634.76
872.748	7749.1
873.067	7674.08
873.386	7726.05
873.706	7649.22
874.025	7570.58
874.344	7609.9
874.663	7591.82
874.982	7587.53
875.301	7594.98
875.62	7554.76
875.939	7557.7
876.258	7551.37
876.577	7472.5
876.896	7569.67
877.214	7467.3
877.533	7525.61
877.852	7462.33
878.17	7458.49
878.489	7467.76
878.807	7418.04
879.125	7427.08
879.444	7433.18
879.762	7399.96
880.08	7416.91
880.398	7356.12
880.716	7361.09
881.034	7324.93
881.352	7342.56
881.67	7332.62
881.988	7346.85
882.306	7330.36
882.624	7297.36
882.941	7255.33
883.259	7239.29
883.577	7205.16
883.894	7223.02
884.212	7220.98
884.529	7161.55
884.846	7097.82
885.164	7144.37
885.481	7105.28
885.798	7100.31
886.115	7115.45
886.432	7109.12
886.75	7032.06
887.067	7034.09
887.383	7006.52
887.7	7027.09
888.017	7014.66
888.334	7003.14
888.651	6977.37
888.967	6990.71
889.284	6987.77
889.6	6893.76
889.917	6892.18
890.233	6837.49
890.55	6851.73
890.866	6817.6
891.182	6837.04
891.498	6802.69
891.815	6760.43
892.131	6738.96
892.447	6745.74
892.763	6752.52
893.079	6754.55
893.395	6714.1
893.71	6666.42
894.026	6633.88
894.342	6645.18
894.657	6616.25
894.973	6587.78
895.289	6595.24
895.604	6491.51
895.92	6446.77
896.235	6407.9
896.55	6464.39
896.865	6492.41
897.181	6444.28
897.496	6400.21
897.811	6440.89
898.126	6402.02
898.441	6304.62
898.756	6324.96
899.071	6325.64
899.386	6323.38
899.7	6260.78
900.015	6270.72
900.33	6182.37
900.644	6136.04
900.959	6159.77
901.273	6163.61
901.588	6141.69
901.902	6108.24
902.216	6095.36
902.531	6016.04
902.845	6059.88
903.159	6024.86
903.473	5959.09
903.787	5974.91
904.101	5984.63
904.415	5939.66
904.729	5895.82
905.042	5947.57
905.356	5844.97
905.67	5837.74
905.984	5869.61
906.297	5817.4
906.611	5759.33
906.924	5725.2
907.237	5734.92
907.551	5757.97
907.864	5705.77
908.177	5712.1
908.491	5691.76
908.804	5627.35
909.117	5641.36
909.43	5572.21
909.743	5549.16
910.056	5567.24
910.368	5502.16
910.681	5518.43
910.994	5484.98
911.307	5450.18
911.619	5415.38
911.932	5461.03
912.244	5412.89
912.557	5383.06
912.869	5308.94
913.181	5294.25
913.494	5305.33
913.806	5258.32
914.118	5273.69
914.43	5220.58
914.742	5225.55
915.054	5232.56
915.366	5191.88
915.678	5136.74
915.99	5136.29
916.302	5114.15
916.613	5095.84
916.925	5099
917.236	5078.67
917.548	5032.57
917.859	5019.01
918.171	5012.23
918.482	4978.33
918.794	4952.12
919.105	4962.74
919.416	4908.5
919.727	4876.41
920.038	4917.54
920.349	4827.83
920.66	4848.16
920.971	4857.88
921.282	4861.04
921.593	4774.27
921.903	4802.97
922.214	4798.22
922.525	4731.33
922.835	4709.41
923.146	4664.21
923.456	4690.2
923.767	4645
924.077	4662.18
924.387	4623.54
924.697	4597.32
925.008	4609.07
925.318	4582.86
925.628	4518.68
925.938	4528.4
926.248	4458.34
926.558	4504.9
926.867	4490.66
927.177	4459.25
927.487	4500.38
927.796	4399.36
928.106	4405.92
928.416	4398.23
928.725	4379.25
929.034	4387.61
929.344	4324.79
929.653	4320.27
929.962	4306.48
930.271	4256.09
930.581	4307.84
930.89	4247.73
931.199	4219.71
931.508	4225.58
931.817	4229.65
932.125	4195.53
932.434	4170.22
932.743	4150.55
933.051	4144.68
933.36	4150.55
933.669	4102.65
933.977	4084.34
934.286	4083.89
934.594	4069.43
934.902	4041.41
935.21	4051.8
935.519	4018.58
935.827	3994.63
936.135	3953.05
936.443	3970.22
936.751	3939.03
937.059	3929.32
937.367	3924.12
937.674	3928.87
937.982	3900.62
938.29	3875.53
938.597	3856.1
938.905	3821.52
939.213	3820.17
939.52	3794.63
939.827	3784.91
940.135	3787.17
940.442	3770.68
940.749	3774.97
941.056	3715.76
941.363	3692.71
941.67	3701.08
941.977	3641.87
942.284	3638.93
942.591	3643
942.898	3583.34
943.205	3635.54
943.511	3571.36
943.818	3597.35
944.125	3541.98
944.431	3544.47
944.738	3529.55
945.044	3560.29
945.35	3483.68
945.657	3482.78
945.963	3503.34
946.269	3441.65
946.575	3453.4
946.881	3424.92
947.187	3434.87
947.493	3420.4
947.799	3372.95
948.105	3401.2
948.41	3356
948.716	3320.29
949.022	3331.82
949.327	3304.48
949.633	3302.67
949.938	3303.12
950.244	3298.6
950.549	3285.27
950.854	3247.75
951.16	3247.98
951.465	3217.92
951.77	3247.08
952.075	3184.7
952.38	3167.98
952.685	3182.67
952.99	3158.72
953.294	3160.52
953.599	3131.37
953.904	3103.58
954.209	3091.37
954.513	3127.08
954.818	3127.76
955.122	3087.08
955.426	3047.31
955.731	3061.32
956.035	3051.6
956.339	3016.35
956.643	3042.79
956.948	2992.39
957.252	3016.57
957.556	2987.65
957.86	2963.92
958.163	2934.99
958.467	2932.51
958.771	2957.59
959.075	2918.04
959.378	2918.5
959.682	2904.49
959.985	2896.35
960.289	2886.41
960.592	2832.4
960.896	2874.88
961.199	2838.05
961.502	2845.28
961.805	2828.56
962.108	2784.71
962.411	2790.82
962.714	2716.92
963.017	2745.85
963.32	2745.62
963.623	2794.43
963.926	2737.26
964.228	2724.83
964.531	2720.76
964.833	2712.4
965.136	2715.79
965.438	2679.63
965.741	2630.14
966.043	2643.48
966.345	2642.8
966.648	2639.41
966.95	2610.93
967.252	2605.74
967.554	2617.94
967.856	2591.05
968.158	2534.78
968.46	2553.76
968.761	2563.93
969.063	2521.22
969.365	2519.19
969.666	2493.42
969.968	2516.02
970.269	2470.15
970.571	2494.78
970.872	2472.63
971.174	2478.51
971.475	2459.53
971.776	2426.53
972.077	2449.13
972.378	2430.6
972.679	2440.09
972.98	2407.32
973.281	2400.54
973.582	2386.76
973.883	2401.22
974.183	2379.75
974.484	2373.2
974.785	2328.91
975.085	2342.47
975.386	2319.87
975.686	2308.57
975.986	2333.2
976.287	2295.91
976.587	2297.04
976.887	2283.94
977.187	2266.99
977.487	2283.71
977.787	2271.28
978.087	2248.91
978.387	2276.93
978.687	2209.14
978.987	2204.17
979.286	2194.22
979.586	2199.87
979.885	2182.7
980.185	2182.92
980.484	2167.33
980.784	2152.64
981.083	2152.19
981.382	2160.78
981.682	2140.66
981.981	2110.61
982.28	2136.37
982.579	2117.61
982.878	2113.32
983.177	2066.99
983.475	2072.64
983.774	2070.84
984.073	2081.91
984.372	2058.63
984.67	2026.99
984.969	2072.64
985.267	2046.66
985.566	2040.1
985.864	2018.41
986.162	1994.68
986.461	1991.97
986.759	2017.05
987.057	1959.65
987.355	1961.23
987.653	1990.39
987.951	1943.61
988.249	1946.32
988.547	1920.78
988.844	1930.73
989.142	1923.95
989.44	1880.56
989.737	1916.49
990.035	1879.88
990.332	1876.49
990.63	1852.08
990.927	1879.2
991.224	1857.06
991.521	1878.07
991.819	1831.52
992.116	1844.85
992.413	1849.82
992.71	1821.8
993.006	1814.34
993.303	1824.51
993.6	1788.58
993.897	1792.42
994.193	1782.93
994.49	1797.17
994.787	1801.01
995.083	1777.06
995.379	1755.59
995.676	1742.48
995.972	1722.82
996.268	1699.55
996.565	1709.49
996.861	1709.71
997.157	1702.26
997.453	1675.59
997.749	1699.32
998.044	1672.88
998.34	1669.26
998.636	1650.51
998.932	1653.9
999.227	1647.12
999.523	1643.95
999.818	1646.44
1000.114	1634.46
1000.409	1600.57
1000.704	1588.59
1001	1606.67
1001.295	1576.84
1001.59	1570.06
1001.885	1625.65
1002.18	1576.16
1002.475	1584.52
1002.77	1542.49
1003.065	1538.42
1003.359	1504.97
1003.654	1519.89
1003.949	1518.08
1004.243	1502.71
1004.538	1504.07
1004.832	1492.32
1005.127	1495.94
1005.421	1490.51
1005.715	1461.13
1006.009	1445.09
1006.304	1468.59
1006.598	1453.9
1006.892	1431.3
1007.186	1454.81
1007.48	1429.27
1007.773	1422.49
1008.067	1414.13
1008.361	1385.66
1008.655	1411.19
1008.948	1376.62
1009.242	1358.54
1009.535	1378.65
1009.829	1391.08
1010.122	1376.16
1010.415	1376.16
1010.708	1368.48
1011.001	1329.16
1011.295	1340.01
1011.588	1328.26
1011.881	1311.08
1012.173	1298.43
1012.466	1277.41
1012.759	1297.75
1013.052	1284.42
1013.344	1295.49
1013.637	1274.25
1013.93	1250.29
1014.222	1258.43
1014.514	1252.33
1014.807	1252.1
1015.099	1223.4
1015.391	1260.46
1015.683	1241.03
1015.976	1209.39
1016.268	1206.68
1016.56	1191.76
1016.851	1190.18
1017.143	1196.73
1017.435	1192.67
1017.727	1186.34
1018.018	1171.88
1018.31	1170.52
1018.602	1169.62
1018.893	1170.29
1019.185	1143.18
1019.476	1107.24
1019.767	1137.53
1020.058	1130.3
1020.35	1111.54
1020.641	1106.79
1020.932	1124.19
1021.223	1101.37
1021.514	1089.39
1021.804	1094.59
1022.095	1073.12
1022.386	1087.81
1022.677	1069.28
1022.967	1069.73
1023.258	1051.88
1023.548	1008.26
1023.839	1030.41
1024.129	1052.78
1024.419	1025.89
1024.709	1040.81
1025	1020.47
1025.29	1006.68
1025.58	1002.16
1025.87	1006.46
1026.16	1012.11
1026.449	999.9
1026.739	973.24
1027.029	1001.03
1027.319	967.81
1027.608	946.57
1027.898	962.39
1028.187	959.23
1028.477	948.38
1028.766	930.3
1029.055	935.95
1029.344	929.4
1029.634	919
1029.923	930.53
1030.212	954.48
1030.501	949.51
1030.79	900.24
1031.078	890.3
1031.367	898.66
1031.656	876.97
1031.945	890.08
1032.233	897.53
1032.522	851.43
1032.81	873.13
1033.099	878.78
1033.387	872
1033.675	872.22
1033.963	850.08
1034.251	840.36
1034.54	839.23
1034.828	850.53
1035.116	814.82
1035.403	824.09
1035.691	818.89
1035.979	815.28
1036.267	817.54
1036.554	803.3
1036.842	817.31
1037.129	817.99
1037.417	809.4
1037.704	767.59
1037.992	796.97
1038.279	765.78
1038.566	765.33
1038.853	765.33
1039.14	765.33
