Data from hue_250_FLMS001491_00059.txt Node
Date: Tue Feb 07 16:01:11 GMT 2017
User: dcchb
Spectrometer: FLMS00149
Trigger mode: 0
Integration Time (sec): 2.000000E-2
Scans to average: 10
Electric dark correction enabled: true
Nonlinearity correction enabled: false
Boxcar width: 0
XAxis mode: Wavelengths
Number of Pixels in Spectrum: 2048
>>>>>Begin Spectral Data<<<<<
341.393	0.13
341.776	0.13
342.16	0.13
342.543	-52.53
342.927	-53.66
343.31	-66.99
343.693	-75.8
344.077	-101.79
344.46	-78.97
344.843	-52.98
345.226	-41.91
345.61	-32.64
345.993	-9.59
346.376	-8.01
346.759	24.31
347.142	35.83
347.525	40.8
347.908	59.11
348.291	76.96
348.674	107.24
349.057	124.42
349.44	128.49
349.823	163.06
350.206	162.61
350.588	193.34
350.971	188.82
351.354	224.75
351.737	239.22
352.119	271.08
352.502	268.37
352.884	265.2
353.267	283.74
353.65	291.42
354.032	304.07
354.414	294.36
354.797	303.85
355.179	314.7
355.562	337.97
355.944	324.64
356.326	336.84
356.709	322.83
357.091	325.54
357.473	315.83
357.855	330.06
358.238	340.23
358.62	336.16
359.002	330.74
359.384	324.64
359.766	330.74
360.148	331.19
360.53	339.1
360.912	327.12
361.294	323.51
361.676	325.54
362.057	332.77
362.439	332.77
362.821	332.1
363.203	318.08
363.584	318.08
363.966	330.29
364.348	336.39
364.729	308.82
365.111	332.1
365.493	316.5
365.874	325.32
366.256	305.2
366.637	327.12
367.019	312.89
367.4	311.31
367.781	299.55
368.163	330.51
368.544	298.42
368.925	312.89
369.306	311.53
369.688	316.5
370.069	330.51
370.45	328.03
370.831	317.18
371.212	303.17
371.593	316.73
371.974	326.67
372.355	311.53
372.736	300.91
373.117	337.97
373.498	301.59
373.879	342.27
374.26	306.79
374.641	334.36
375.021	316.73
375.402	309.95
375.783	323.96
376.163	324.64
376.544	326.9
376.925	328.48
377.305	323.51
377.686	317.41
378.066	307.46
378.447	311.53
378.827	332.55
379.208	348.37
379.588	337.97
379.968	315.15
380.349	329.16
380.729	327.58
381.109	341.81
381.489	327.35
381.87	317.41
382.25	340.23
382.63	357.18
383.01	370.51
383.39	345.65
383.77	336.39
384.15	335.94
384.53	340.23
384.91	338.88
385.29	335.49
385.67	363.28
386.049	347.69
386.429	332.1
386.809	351.08
387.189	355.6
387.568	368.25
387.948	373.22
388.328	349.72
388.707	360.57
389.087	353.56
389.466	373
389.846	345.88
390.225	372.32
390.605	351.53
390.984	376.61
391.363	366.9
391.743	345.88
392.122	377.52
392.501	386.33
392.881	374.81
393.26	396.73
393.639	401.02
394.018	379.78
394.397	389.95
394.776	412.55
395.155	395.6
395.534	389.95
395.913	409.16
396.292	391.53
396.671	401.92
397.05	394.69
397.429	390.4
397.808	400.34
398.186	410.74
398.565	406.67
398.944	422.94
399.323	396.95
399.701	401.92
400.08	402.6
400.458	399.21
400.837	420.46
401.215	432.21
401.594	417.07
401.972	436.95
402.351	435.82
402.729	415.03
403.107	430.62
403.486	431.3
403.864	449.83
404.242	427.91
404.62	425.88
404.999	459.1
405.377	433.11
405.755	466.78
406.133	450.06
406.511	472.21
406.889	469.72
407.267	468.82
407.645	474.01
408.023	503.39
408.401	490.96
408.779	495.03
409.156	486.44
409.534	497.52
409.912	510.17
410.29	501.58
410.667	528.93
411.045	521.47
411.422	533.45
411.8	540.23
412.178	562.37
412.555	545.65
412.933	560.56
413.31	568.02
413.687	572.99
414.065	590.62
414.442	589.94
414.819	597.85
415.197	620.45
415.574	590.62
415.951	604.86
416.328	617.29
416.705	631.07
417.082	627.23
417.46	624.07
417.837	620.45
418.214	636.72
418.591	663.84
418.967	670.17
419.344	663.61
419.721	654.35
420.098	677.17
420.475	664.74
420.852	698.87
421.228	720.56
421.605	723.95
421.982	753.78
422.358	730.28
422.735	744.74
423.111	747.23
423.488	768.02
423.864	742.03
424.241	765.53
424.617	793.78
424.994	802.14
425.37	815.7
425.746	806.89
426.123	829.26
426.499	816.38
426.875	846.21
427.251	877.39
427.627	873.1
428.003	892.31
428.379	906.54
428.756	922.81
429.132	905.64
429.507	946.54
429.883	906.77
430.259	929.14
430.635	936.83
431.011	965.07
431.387	965.75
431.763	1002.36
432.138	1014.79
432.514	1015.02
432.89	1005.75
433.265	1023.83
433.641	1033.32
434.016	1073.09
434.392	1079.87
434.767	1128.91
435.143	1104.73
435.518	1115.8
435.894	1164.16
436.269	1142.7
436.644	1201.68
437.02	1207.78
437.395	1194.9
437.77	1218.4
438.145	1236.03
438.52	1250.72
438.895	1268.57
439.271	1270.6
439.646	1320.77
440.021	1309.02
440.395	1337.04
440.77	1338.85
441.145	1318.28
441.52	1375.46
441.895	1371.16
442.27	1379.98
442.645	1397.6
443.019	1415.91
443.394	1409.81
443.769	1438.96
444.143	1430.6
444.518	1451.39
444.892	1465.85
445.267	1453.87
445.641	1484.61
446.016	1497.94
446.39	1498.62
446.764	1520.77
447.139	1507.43
447.513	1518.05
447.887	1545.4
448.262	1535.23
448.636	1540.43
449.01	1557.6
449.384	1589.46
449.758	1607.77
450.132	1599.86
450.506	1622.91
450.88	1658.84
451.254	1639.41
451.628	1684.6
452.002	1667.65
452.376	1694.32
452.75	1710.36
453.123	1747.65
453.497	1733.64
453.871	1746.75
454.244	1798.95
454.618	1795.79
454.992	1805.73
455.365	1831.04
455.739	1866.29
456.112	1866.07
456.486	1882.79
456.859	1922.56
457.232	1938.16
457.606	1939.06
457.979	1930.47
458.352	1960.53
458.725	2017.25
459.099	2040.75
459.472	2064.48
459.845	2051.37
460.218	2091.6
460.591	2077.59
460.964	2092.28
461.337	2177.7
461.71	2181.76
462.083	2198.71
462.456	2222.67
462.829	2200.52
463.201	2257.02
463.574	2265.83
463.947	2274.87
464.32	2340.18
464.692	2363.68
465.065	2377.69
465.438	2416.11
465.81	2431.02
466.183	2472.6
466.555	2523.68
466.928	2496.33
467.3	2543.79
467.672	2551.02
468.045	2596.89
468.417	2639.83
468.789	2649.55
469.161	2683.67
469.534	2719.38
469.906	2776.78
470.278	2765.03
470.65	2777.23
471.022	2852.26
471.394	2857.91
471.766	2926.83
472.138	2941.74
472.51	3003.44
472.882	3071.91
473.253	3088.63
473.625	3108.29
473.997	3155.75
474.369	3182.42
474.74	3191
475.112	3278.01
475.484	3328.18
475.855	3345.35
476.227	3381.06
476.598	3455.18
476.97	3476.65
477.341	3558.45
477.713	3600.94
478.084	3607.49
478.455	3731.55
478.827	3789.41
479.198	3869.86
479.569	3883.19
479.94	3904.66
480.311	3954.37
480.682	4010.42
481.053	4122.05
481.424	4153.69
481.795	4183.97
482.166	4244.76
482.537	4300.35
482.908	4359.79
483.279	4383.97
483.65	4484.3
484.021	4538.99
484.391	4611.08
484.762	4674.35
485.133	4605.88
485.503	4721.13
485.874	4832.77
486.244	4862.6
486.615	4912.54
486.985	4951.41
487.356	5032.09
487.726	5114.79
488.097	5210.84
488.467	5195.02
488.837	5247.67
489.207	5352.75
489.578	5385.3
489.948	5430.94
490.318	5492.19
490.688	5507.1
491.058	5590.94
491.428	5680.88
491.798	5677.72
492.168	5762.91
492.538	5819.41
492.908	5893.53
493.278	5928.11
493.648	5922.91
494.017	5992.51
494.387	6059.63
494.757	6102.79
495.126	6166.52
495.496	6153.19
495.866	6194.99
496.235	6253.97
496.605	6283.58
496.974	6354.76
497.344	6453.29
497.713	6408.55
498.082	6420.98
498.452	6518.6
498.821	6535.32
499.19	6507.53
499.559	6592.27
499.928	6633.85
500.298	6625.26
500.667	6670.91
501.036	6661.87
501.405	6747.75
501.774	6750.68
502.143	6790.01
502.512	6743.45
502.88	6810.8
503.249	6832.94
503.618	6892.15
503.987	6890.34
504.356	6938.48
504.724	6998.59
505.093	6986.38
505.462	7025.48
505.83	7021.64
506.199	7093.95
506.567	7243.1
506.936	7170.33
507.304	7247.62
507.672	7234.29
508.041	7233.38
508.409	7260.28
508.777	7317.45
509.145	7347.28
509.514	7325.13
509.882	7368.29
510.25	7366.94
510.618	7478.12
510.986	7428.63
511.354	7492.81
511.722	7505.47
512.09	7534.39
512.458	7555.41
512.826	7583.43
513.193	7586.14
513.561	7657.55
513.929	7693.48
514.297	7706.59
514.664	7819.36
515.032	7710.66
515.4	7812.35
515.767	7821.62
516.135	7792.24
516.502	7766.25
516.869	7840.37
517.237	7889.64
517.604	7821.16
517.972	7905.68
518.339	7898
518.706	7907.94
519.073	7948.17
519.44	7946.81
519.808	8003.31
520.175	7918.11
520.542	8110.87
520.909	8066.58
521.276	8065.68
521.643	8130.99
522.009	8100.48
522.376	8149.29
522.743	8164.43
523.11	8185.22
523.477	8254.37
523.843	8260.7
524.21	8241.94
524.577	8301.83
524.943	8349.96
525.31	8364.88
525.676	8439.45
526.043	8504.08
526.409	8450.3
526.776	8562.16
527.142	8523.74
527.508	8507.02
527.874	8581.14
528.241	8565.1
528.607	8560.35
528.973	8654.36
529.339	8566.46
529.705	8631.99
530.071	8660.69
530.437	8690.97
530.803	8699.11
531.169	8769.84
531.535	8689.84
531.901	8736.62
532.267	8741.37
532.632	8713.12
532.998	8782.04
533.364	8792.21
533.73	8769.39
534.095	8806.22
534.461	8832.89
534.826	8830.86
535.192	8837.63
535.557	8804.64
535.923	8840.12
536.288	8836.28
536.653	8793.57
537.019	8754.25
537.384	8836.05
537.749	8806
538.114	8784.53
538.479	8807.35
538.845	8790.63
539.21	8802.83
539.575	8786.11
539.94	8827.47
540.305	8800.8
540.67	8768.94
541.034	8753.12
541.399	8810.52
541.764	8825.43
542.129	8764.42
542.494	8756.51
542.858	8819.78
543.223	8847.13
543.587	8787.92
543.952	8819.1
544.316	8824.3
544.681	8744.08
545.045	8772.78
545.41	8902.72
545.774	8782.04
546.138	8733.46
546.503	8804.19
546.867	8713.57
547.231	8787.92
547.595	8755.6
547.959	8790.63
548.324	8746.79
548.688	8756.51
549.052	8734.59
549.416	8721.93
549.779	8708.6
550.143	8765.09
550.507	8744.98
550.871	8790.18
551.235	8692.33
551.599	8778.88
551.962	8786.56
552.326	8863.4
552.689	8773.23
553.053	8696.62
553.417	8715.15
553.78	8759.67
554.143	8760.12
554.507	8816.17
554.87	8772.1
555.234	8867.01
555.597	8768.48
555.96	8806.9
556.323	8790.4
556.686	8868.59
557.05	8841.02
557.413	8833.34
557.776	8810.74
558.139	8889.61
558.502	8910.63
558.865	8809.16
559.228	8951.76
559.59	8934.13
559.953	8925.54
560.316	8948.37
560.679	8980
561.041	9046.22
561.404	8978.87
561.767	9046.67
562.129	8987.69
562.492	9135.93
562.854	9076.72
563.217	9043.73
563.579	9097.52
563.941	9151.98
564.304	9192.88
564.666	9203.27
565.028	9198.76
565.39	9263.16
565.753	9244.18
566.115	9251.64
566.477	9323.27
566.839	9318.07
567.201	9399.88
567.563	9389.26
567.925	9438.75
568.287	9392.2
568.648	9451.86
569.01	9486.88
569.372	9459.09
569.734	9436.94
570.095	9512.42
570.457	9549.48
570.819	9555.81
571.18	9546.54
571.542	9653.21
571.903	9586.09
572.265	9644.17
572.626	9651.4
572.987	9681.91
573.349	9672.42
573.71	9714
574.071	9801.9
574.432	9780.21
574.794	9821.11
575.155	9826.76
575.516	9834.44
575.877	9917.15
576.238	9898.62
576.599	9921.9
576.96	9926.42
577.32	9959.64
577.681	9986.76
578.042	9984.27
578.403	10040.09
578.763	10079.41
579.124	10069.24
579.485	10106.75
579.845	10108.79
580.206	10104.72
580.566	10114.66
580.927	10132.74
581.287	10177.71
581.648	10193.53
582.008	10238.73
582.368	10191.27
582.728	10266.07
583.089	10249.35
583.449	10210.48
583.809	10343.58
584.169	10292.29
584.529	10363.92
584.889	10347.65
585.249	10261.55
585.609	10319.18
585.969	10359.63
586.329	10405.28
586.688	10383.58
587.048	10377.26
587.408	10362.57
587.768	10401.66
588.127	10398.27
588.487	10426.75
588.846	10508.33
589.206	10396.92
589.565	10461.09
589.925	10542.45
590.284	10468.55
590.643	10528.89
591.003	10475.56
591.362	10560.98
591.721	10573.63
592.08	10543.13
592.44	10617.93
592.799	10580.64
593.158	10590.58
593.517	10628.55
593.876	10593.97
594.235	10611.83
594.593	10532.96
594.952	10634.88
595.311	10535.22
595.67	10638.49
596.029	10705.16
596.387	10671.94
596.746	10698.6
597.104	10701.31
597.463	10633.52
597.822	10696.12
598.18	10702.44
598.538	10650.24
598.897	10706.29
599.255	10645.5
599.613	10792.61
599.972	10661.77
600.33	10698.15
600.688	10676.23
601.046	10738.38
601.404	10812.27
601.762	10748.09
602.12	10860.86
602.478	10777.47
602.836	10850.24
603.194	10731.82
603.552	10758.49
603.91	10741.31
604.268	10789.67
604.625	10787.19
604.983	10799.62
605.341	10769.56
605.698	10898.6
606.056	10818.15
606.413	10871.25
606.771	10948.31
607.128	10915.09
607.485	10904.25
607.843	10880.97
608.2	10919.84
608.557	10997.58
608.914	10888.2
609.272	10911.7
609.629	11019.5
609.986	11047.97
610.343	10933.17
610.7	11056.56
611.057	11025.15
611.414	10906.96
611.771	10997.8
612.127	11073.28
612.484	11038.25
612.841	11085.49
613.198	11046.84
613.554	11022.44
613.911	11139.72
614.267	11074.19
614.624	11069.21
614.98	11173.39
615.337	11150.12
615.693	11122.09
616.05	11110.57
616.406	11149.89
616.762	11119.38
617.118	11176.78
617.475	11159.38
617.831	11203.22
618.187	11097.91
618.543	11266.27
618.899	11271.92
619.255	11222.43
619.611	11194.41
619.967	11250.68
620.323	11291.36
620.678	11184.47
621.034	11223.11
621.39	11189.89
621.746	11203.9
622.101	11300.39
622.457	11205.03
622.812	11275.54
623.168	11322.32
623.523	11334.97
623.879	11295.2
624.234	11193.73
624.589	11281.19
624.945	11276.89
625.3	11244.13
625.655	11226.27
626.01	11251.58
626.365	11263.79
626.72	11251.81
627.075	11245.71
627.43	11209.78
627.785	11166.39
628.14	11223.56
628.495	11189.89
628.85	11179.95
629.205	11107.41
629.559	11282.09
629.914	11134.75
630.269	11179.27
630.623	11111.02
630.978	11054.07
631.332	11182.88
631.687	11161.64
632.041	11092.94
632.396	11111.25
632.75	11137.69
633.104	11092.94
633.459	11050.01
633.813	11072.38
634.167	11026.96
634.521	11021.08
634.875	11074.64
635.229	11083
635.583	10976.11
635.937	10995.54
636.291	11026.73
636.645	10991.48
636.999	10935.88
637.352	10997.35
637.706	10849.56
638.06	10910.57
638.413	10923
638.767	10924.81
639.121	10917.81
639.474	10815.66
639.828	10819.73
640.181	10840.29
640.534	10861.31
640.888	10823.8
641.241	10754.42
641.594	10722.33
641.947	10796.68
642.301	10792.16
642.654	10763.69
643.007	10788.54
643.36	10758.94
643.713	10670.13
644.066	10718.72
644.419	10636.68
644.771	10643.01
645.124	10538.61
645.477	10544.48
645.83	10525.5
646.182	10474.65
646.535	10362.11
646.888	10302.68
647.24	10317.37
647.593	10356.69
647.945	10409.57
648.298	10320.76
648.65	10278.73
649.002	10258.84
649.355	10359.4
649.707	10380.42
650.059	10391.49
650.411	10499.06
650.763	10520.08
651.115	10609.34
651.467	10481.21
651.819	10518.49
652.171	10503.13
652.523	10535.44
652.875	10559.17
653.227	10490.25
653.578	10572.96
653.93	10497.7
654.282	10480.98
654.633	10496.12
654.985	10532.28
655.337	10529.57
655.688	10492.73
656.039	10566.85
656.391	10466.97
656.742	10528.89
657.094	10492.73
657.445	10585.16
657.796	10512.62
658.147	10527.76
658.498	10504.71
658.849	10523.24
659.2	10545.16
659.551	10369.35
659.902	10493.41
660.253	10509.23
660.604	10487.99
660.955	10398.27
661.306	10555.33
661.656	10416.58
662.007	10540.64
662.358	10499.74
662.708	10493.18
663.059	10422.23
663.409	10426.29
663.76	10508.1
664.11	10522.11
664.461	10513.75
664.811	10567.53
665.161	10492.28
665.511	10454.54
665.862	10497.25
666.212	10508.78
666.562	10499.06
666.912	10493.64
667.262	10516.69
667.612	10481.21
667.962	10562.34
668.312	10528.44
668.662	10548.78
669.011	10511.04
669.361	10490.25
669.711	10393.53
670.06	10453.64
670.41	10395.11
670.76	10360.08
671.109	10513.97
671.459	10451.83
671.808	10444.6
672.157	10487.31
672.507	10427.65
672.856	10377.26
673.205	10417.03
673.554	10446.63
673.904	10400.53
674.253	10387.88
674.602	10376.35
674.951	10172.74
675.3	10151.95
675.649	10326.18
675.998	10342.45
676.346	10271.27
676.695	10362.11
677.044	10253.19
677.393	10325.51
677.741	10341.1
678.09	10301.55
678.438	10240.76
678.787	10254.55
679.135	10219.75
679.484	10264.72
679.832	10261.55
680.181	10189.46
680.529	10192.4
680.877	10192.18
681.225	10132.29
681.573	10253.64
681.922	10065.17
682.27	10071.05
682.618	10083.03
682.966	10117.38
683.314	10042.35
683.661	9973.88
684.009	9981.33
684.357	9964.38
684.705	9957.61
685.053	9992.18
685.4	9946.31
685.748	9888.23
686.095	9876.7
686.443	9830.6
686.79	9832.18
687.138	9889.58
687.485	9878.06
687.832	9727.33
688.18	9780.66
688.527	9728.01
688.874	9748.8
689.221	9687.33
689.568	9677.61
689.915	9663.38
690.262	9665.18
690.609	9604.62
690.956	9541.8
691.303	9532.76
691.65	9489.6
691.997	9444.17
692.344	9453.44
692.69	9401.46
693.037	9363.5
693.383	9295.02
693.73	9363.27
694.077	9296.61
694.423	9309.26
694.769	9192.43
695.116	9221.58
695.462	9244.63
695.808	9131.64
696.155	9179.55
696.501	9078.08
696.847	9102.49
697.193	8969.16
697.539	9120.34
697.885	8987.46
698.231	8975.48
698.577	8954.02
698.923	8887.13
699.269	8887.8
699.614	8800.8
699.96	8808.26
700.306	8804.87
700.651	8747.24
700.997	8787.92
701.342	8721.03
701.688	8663.4
702.033	8680.35
702.379	8661.14
702.724	8677.87
703.069	8579.79
703.415	8468.38
703.76	8619.56
704.105	8527.13
704.45	8443.07
704.795	8420.92
705.14	8426.8
705.485	8359.91
705.83	8356.52
706.175	8375.95
706.52	8349.29
706.865	8295.5
707.209	8311.32
707.554	8227.48
707.899	8341.38
708.243	8192.23
708.588	8217.31
708.932	8075.17
709.277	8168.27
709.621	8168.95
709.966	8113.59
710.31	8088.05
710.654	7967.15
710.998	8071.55
711.342	8028.39
711.687	8031.33
712.031	7979.13
712.375	7972.57
712.719	7961.05
713.063	7922.18
713.407	7897.09
713.75	7868.17
714.094	7891.67
714.438	7879.69
714.782	7850.77
715.125	7865.91
715.469	7791.33
715.812	7814.84
716.156	7756.53
716.499	7855.29
716.843	7804.22
717.186	7740.94
717.53	7792.01
717.873	7754.73
718.216	7709.53
718.559	7725.12
718.902	7700.72
719.246	7716.08
719.589	7622.3
719.932	7581.62
720.275	7641.73
720.617	7603.54
720.96	7650.55
721.303	7552.7
721.646	7639.02
721.989	7576.2
722.331	7581.62
722.674	7569.65
723.016	7587.05
723.359	7544.11
723.701	7580.94
724.044	7538.69
724.386	7449.2
724.729	7523.77
725.071	7473.38
725.413	7471.34
725.755	7482.64
726.097	7521.74
726.439	7457.78
726.782	7463.66
727.124	7518.8
727.465	7451
727.807	7425.24
728.149	7389.54
728.491	7416.2
728.833	7441.74
729.175	7390.44
729.516	7413.49
729.858	7369.88
730.199	7372.81
730.541	7344.57
730.882	7384.34
731.224	7411.46
731.565	7359.93
731.906	7377.11
732.248	7384.11
732.589	7331.23
732.93	7325.13
733.271	7346.37
733.612	7344.57
733.953	7399.71
734.294	7313.83
734.635	7310.9
734.976	7380.72
735.317	7313.38
735.658	7317.9
735.999	7331.91
736.339	7266.15
736.68	7319.26
737.021	7310.22
737.361	7332.36
737.702	7352.25
738.042	7352.02
738.383	7326.04
738.723	7331.23
739.063	7327.39
739.404	7351.35
739.744	7318.13
740.084	7332.59
740.424	7312.03
740.764	7293.72
741.104	7386.83
741.444	7279.48
741.784	7340.5
742.124	7383.21
742.464	7352.25
742.804	7406.49
743.143	7365.58
743.483	7366.71
743.823	7376.88
744.162	7401.97
744.502	7419.59
744.841	7414.4
745.181	7477.9
745.52	7450.1
745.86	7539.36
746.199	7498.91
746.538	7552.24
746.877	7608.06
747.216	7585.01
747.556	7606.93
747.895	7631.56
748.234	7614.84
748.573	7691.68
748.911	7742.75
749.25	7762.41
749.589	7812.8
749.928	7880.15
750.267	7909.98
750.605	7960.6
750.944	7958.34
751.283	8015.06
751.621	8043.98
751.96	8071.33
752.298	8128.27
752.636	8230.42
752.975	8241.04
753.313	8362.17
753.651	8403.3
753.989	8358.33
754.327	8574.36
754.666	8547.47
755.004	8636.74
755.342	8726.68
755.679	8852.32
756.017	8929.38
756.355	9020.45
756.693	9048.7
757.031	9184.52
757.368	9249.15
757.706	9343.38
758.044	9386.1
758.381	9549.25
758.719	9696.37
759.056	9796.25
759.394	9889.58
759.731	9967.55
760.068	10001.9
760.405	10072.86
760.743	10189.01
761.08	10375.67
761.417	10459.74
761.754	10526.18
762.091	10638.94
762.428	10611.37
762.765	10778.6
763.102	10895.89
763.438	10977.69
763.775	11057.92
764.112	11216.33
764.449	11369.09
764.785	11399.15
765.122	11478.24
765.458	11551.91
765.795	11641.85
766.131	11762.53
766.467	11895.18
766.804	11925.69
767.14	11961.85
767.476	12077.1
767.812	12142.86
768.148	12265.57
768.485	12254.72
768.821	12310.31
769.157	12417.88
769.492	12492.68
769.828	12641.38
770.164	12649.06
770.5	12600.25
770.836	12781.94
771.171	12814.71
771.507	12810.19
771.842	12833.24
772.178	12946.68
772.513	12953.68
772.849	12983.97
773.184	13008.6
773.519	13124.3
773.855	13087.47
774.19	13147.8
774.525	13111.65
774.86	13197.29
775.195	13223.06
775.53	13198.42
775.865	13245.88
776.2	13214.92
776.535	13110.74
776.87	13289.95
777.205	13265.54
777.539	13350.51
777.874	13314.58
778.209	13227.35
778.543	13311.19
778.878	13185.54
779.212	13257.86
779.547	13306.9
779.881	13308.03
780.215	13356.84
780.55	13384.18
780.884	13242.04
781.218	13351.19
781.552	13372.88
781.886	13274.35
782.22	13244.07
782.554	13338.31
782.888	13166.79
783.222	13206.33
783.556	13146.45
783.889	13161.36
784.223	13111.87
784.557	13136.05
784.89	13143.51
785.224	13109.16
785.557	13067.13
785.891	13111.19
786.224	13086.56
786.558	13138.99
786.891	12918.43
787.224	12949.84
787.557	12873.91
787.891	12901.03
788.224	12988.71
788.557	12935.15
788.89	12954.81
789.223	12883.63
789.556	12864.42
789.888	12865.1
790.221	12843.18
790.554	12703.75
790.887	12798.66
791.219	12764.99
791.552	12699
791.884	12709.4
792.217	12701.04
792.549	12655.61
792.882	12582.17
793.214	12493.58
793.546	12488.84
793.879	12470.76
794.211	12375.17
794.543	12451.55
794.875	12408.61
795.207	12497.65
795.539	12462.62
795.871	12366.13
796.203	12278.67
796.535	12284.78
796.867	12283.42
797.198	12239.58
797.53	12253.59
797.862	12177.21
798.193	12199.58
798.525	12086.14
798.856	12041.62
799.188	12019.02
799.519	11961.62
799.85	11890.89
800.182	11979.25
800.513	11934.73
800.844	11830.32
801.175	11940.83
801.506	11851.11
801.837	11812.02
802.168	11895.63
802.499	11804.11
802.83	11636.21
803.161	11676.2
803.491	11730.67
803.822	11694.06
804.153	11664
804.483	11601.4
804.814	11490.9
805.145	11519.37
805.475	11575.19
805.805	11501.97
806.136	11471.01
806.466	11392.14
806.796	11433.72
807.126	11341.52
807.457	11383.33
807.787	11348.3
808.117	11266.72
808.447	11278.93
808.777	11315.99
809.107	11274.63
809.436	11178.14
809.766	11229.21
810.096	11144.24
810.426	11071.25
810.755	11176.56
811.085	11213.39
811.414	11128.42
811.744	10956.68
812.073	11019.72
812.403	10978.82
812.732	10915.55
813.061	10957.35
813.39	10877.13
813.719	10881.2
814.049	10902.89
814.378	10816.34
814.707	10819.96
815.036	10811.59
815.365	10784.7
815.693	10737.47
816.022	10795.55
816.351	10674.42
816.68	10656.12
817.008	10694.99
817.337	10674.42
817.665	10612.96
817.994	10597.59
818.322	10626.29
818.651	10438.5
818.979	10558.72
819.307	10568.66
819.636	10525.95
819.964	10435.11
820.292	10436.91
820.62	10460.87
820.948	10422.9
821.276	10444.37
821.604	10410.02
821.932	10476.01
822.259	10464.48
822.587	10403.47
822.915	10380.65
823.243	10404.15
823.57	10435.11
823.898	10436.01
824.225	10374.77
824.553	10382.23
824.88	10415.9
825.207	10464.26
825.535	10412.28
825.862	10456.35
826.189	10342.91
826.516	10427.65
826.843	10443.47
827.17	10450.7
827.497	10464.26
827.824	10469.91
828.151	10476.24
828.478	10423.13
828.805	10479.17
829.131	10465.61
829.458	10431.72
829.785	10403.7
830.111	10443.69
830.438	10518.95
830.764	10387.65
831.09	10429.91
831.417	10386.75
831.743	10442.34
832.069	10452.06
832.395	10365.5
832.722	10445.73
833.048	10355.34
833.374	10400.53
833.7	10349.69
834.026	10350.82
834.351	10320.99
834.677	10403.02
835.003	10417.25
835.329	10364.37
835.654	10335.67
835.98	10269.01
836.306	10330.48
836.631	10276.92
836.956	10296.81
837.282	10314.21
837.607	10344.71
837.932	10187.2
838.258	10232.4
838.583	10213.87
838.908	10146.75
839.233	10158.5
839.558	10121.89
839.883	10143.36
840.208	10041.45
840.533	10040.32
840.858	10068.34
841.182	10066.76
841.507	10058.62
841.832	10073.08
842.156	9981.79
842.481	10008.45
842.805	10011.62
843.13	9942.92
843.454	9900.88
843.778	9894.56
844.103	9846.87
844.427	9874.22
844.751	9901.79
845.075	9798.06
845.399	9723.26
845.723	9731.62
846.047	9787.67
846.371	9679.65
846.695	9666.09
847.019	9585.64
847.343	9562.36
847.666	9509.71
847.99	9466.09
848.313	9439.43
848.637	9373.21
848.96	9420.22
849.284	9335.47
849.607	9363.04
849.931	9225.2
850.254	9294.35
850.577	9199.43
850.9	9120.34
851.223	9029.27
851.546	9009.16
851.869	8949.5
852.192	9074.24
852.515	8968.93
852.838	8899.55
853.161	8988.82
853.483	8863.4
853.806	8824.75
854.129	8838.76
854.451	8842.61
854.774	8771.42
855.096	8768.03
855.419	8735.26
855.741	8676.96
856.063	8684.87
856.385	8675.61
856.708	8667.7
857.03	8676.28
857.352	8635.38
857.674	8571.65
857.996	8530.52
858.318	8539.34
858.64	8437.42
858.961	8440.58
859.283	8443.97
859.605	8408.49
859.926	8383.86
860.248	8398.1
860.57	8306.12
860.891	8352.68
861.212	8294.15
861.534	8361.04
861.855	8228.61
862.176	8254.6
862.498	8257.76
862.819	8270.19
863.14	8200.59
863.461	8216.41
863.782	8165.11
864.103	8178.9
864.424	8136.41
864.745	8170.99
865.065	8119.46
865.386	8102.29
865.707	8074.94
866.027	8110.65
866.348	8064.1
866.668	8092.57
866.989	8077.43
867.309	7924.21
867.63	8038.11
867.95	8074.04
868.27	7984.55
868.59	7983.42
868.91	8017.32
869.23	7983.42
869.55	7937.77
869.87	7972.35
870.19	7957.66
870.51	7966.7
870.83	8012.8
871.15	7919.92
871.469	7902.74
871.789	7956.08
872.109	7928.28
872.428	7821.16
872.748	7869.07
873.067	7779.58
873.386	7844.67
873.706	7826.81
874.025	7749.3
874.344	7761.96
874.663	7776.42
874.982	7707.72
875.301	7775.97
875.62	7654.16
875.939	7667.04
876.258	7728.96
876.577	7702.98
876.896	7682.41
877.214	7587.72
877.533	7719.25
877.852	7592.47
878.17	7616.88
878.489	7634.95
878.807	7606.93
879.125	7595.63
879.444	7601.51
879.762	7541.85
880.08	7599.48
880.398	7511.34
880.716	7516.99
881.034	7488.29
881.352	7482.42
881.67	7499.36
881.988	7459.82
882.306	7396.99
882.624	7352.02
882.941	7347.73
883.259	7318.35
883.577	7370.33
883.894	7338.69
884.212	7347.05
884.529	7330.1
884.846	7358.13
885.164	7303.66
885.481	7274.74
885.798	7304.79
886.115	7232.48
886.432	7229.32
886.75	7189.09
887.067	7190.67
887.383	7159.94
887.7	7115.42
888.017	7083.78
888.334	7137.11
888.651	7152.03
888.967	7072.03
889.284	7027.74
889.6	7052.6
889.917	6963.56
890.233	7022.32
890.55	6972.37
890.866	6957.68
891.182	6965.59
891.498	6879.04
891.815	6909.78
892.131	6879.04
892.447	6858.48
892.763	6879.04
893.079	6860.29
893.395	6825.03
893.71	6792.26
894.026	6792.94
894.342	6733.74
894.657	6705.94
894.973	6673.62
895.289	6670.91
895.604	6682.44
895.92	6610.12
896.235	6587.07
896.55	6592.5
896.865	6553.18
897.181	6563.12
897.496	6507.75
897.811	6501.65
898.126	6545.72
898.441	6493.74
898.756	6449.68
899.071	6424.14
899.386	6434.08
899.7	6363.35
900.015	6434.08
900.33	6278.38
900.644	6312.28
900.959	6295.55
901.273	6239.51
901.588	6277.02
901.902	6248.1
902.216	6208.78
902.531	6209.23
902.845	6201.32
903.159	6181.89
903.473	6113.41
903.787	6080.42
904.101	6051.95
904.415	6053.98
904.729	6004.94
905.042	6004.26
905.356	5955.22
905.67	5959.29
905.984	5905.51
906.297	5896.92
906.611	5901.89
906.924	5897.37
907.237	5864.61
907.551	5799.75
907.864	5774.66
908.177	5747.32
908.491	5802.01
908.804	5714.33
909.117	5691.73
909.43	5733.76
909.743	5674.33
910.056	5642.69
910.368	5662.8
910.681	5600.66
910.994	5574.9
911.307	5514.78
911.619	5531.28
911.932	5575.35
912.244	5476.37
912.557	5489.7
912.869	5442.02
913.181	5411.51
913.494	5457.61
913.806	5384.84
914.118	5331.29
914.43	5337.84
914.742	5373.77
915.054	5314.11
915.366	5297.16
915.678	5315.02
915.99	5316.6
916.302	5233.89
916.613	5235.47
916.925	5211.97
917.236	5191.4
917.548	5166.54
917.859	5183.72
918.171	5103.95
918.482	5059.2
918.794	5038.64
919.105	5036.38
919.416	4984.85
919.727	4995.25
920.038	4948.92
920.349	4964.06
920.66	4933.56
920.971	4919.55
921.282	4868.7
921.593	4862.6
921.903	4857.85
922.214	4843.84
922.525	4830.28
922.835	4798.42
923.146	4771.53
923.456	4764.3
923.767	4746.89
924.077	4752.09
924.387	4697.18
924.697	4715.71
925.008	4667.8
925.318	4634.36
925.628	4644.52
925.938	4671.87
926.248	4614.47
926.558	4573.11
926.867	4565.2
927.177	4567.24
927.487	4499.67
927.796	4481.37
928.106	4513
928.416	4467.81
928.725	4440.46
929.034	4449.28
929.344	4458.09
929.653	4416.96
929.962	4389.62
930.271	4394.14
930.581	4297.42
930.89	4321.82
931.199	4293.57
931.508	4302.39
931.817	4297.64
932.125	4230.98
932.434	4234.82
932.743	4190.75
933.051	4206.12
933.36	4192.11
933.669	4205.67
933.977	4125.89
934.286	4124.54
934.594	4144.88
934.902	4104.88
935.21	4107.82
935.519	4071.66
935.827	4038.44
936.135	4051.32
936.443	4017.2
936.751	3971.1
937.059	3997.99
937.367	3990.3
937.674	3967.48
937.982	4009.29
938.29	3928.61
938.597	3955.5
938.905	3880.03
939.213	3886.35
939.52	3848.84
939.827	3863.98
940.135	3839.35
940.442	3846.35
940.749	3825.34
941.056	3790.08
941.363	3782.4
941.67	3758.45
941.977	3770.88
942.284	3714.38
942.591	3681.84
942.898	3685.91
943.205	3666.25
943.511	3643.42
943.818	3658.34
944.125	3602.97
944.431	3594.16
944.738	3567.94
945.044	3567.72
945.35	3571.33
945.657	3505.57
945.963	3529.75
946.269	3536.31
946.575	3529.75
946.881	3501.5
947.187	3480.04
947.493	3485.91
947.799	3437.78
948.105	3420.83
948.41	3415.18
948.716	3385.12
949.022	3386.48
949.327	3440.26
949.633	3391.22
949.938	3377.89
950.244	3347.38
950.549	3337.44
950.854	3341.51
951.16	3344.22
951.465	3257.44
951.77	3292.24
952.075	3275.3
952.38	3251.12
952.685	3248.86
952.99	3207.05
953.294	3215.18
953.599	3219.25
953.904	3170.44
954.209	3170.21
954.513	3166.15
954.818	3156.2
955.122	3134.73
955.426	3105.36
955.731	3073.49
956.035	3079.14
956.339	3092.7
956.643	3068.52
956.948	3082.76
957.252	3029.2
957.556	3006.83
957.86	2999.37
958.163	3007.05
958.467	3002.08
958.771	2967.51
959.075	2942.42
959.378	2961.41
959.682	2925.25
959.985	2967.05
960.289	2929.54
960.592	2882.76
960.896	2882.54
961.199	2886.15
961.502	2847.74
961.805	2871.24
962.108	2844.57
962.411	2842.54
962.714	2806.83
963.017	2832.14
963.32	2827.62
963.623	2795.08
963.926	2819.26
964.228	2778.59
964.531	2727.06
964.833	2747.17
965.136	2688.19
965.438	2703.56
965.741	2721.86
966.043	2664.92
966.345	2707.63
966.648	2660.17
966.95	2690.9
967.252	2659.94
967.554	2660.4
967.856	2622.88
968.158	2619.95
968.46	2625.14
968.761	2586.27
969.063	2562.55
969.365	2586.05
969.666	2558.93
969.968	2551.92
970.269	2515.32
970.571	2564.35
970.872	2556.67
971.174	2501.98
971.475	2506.05
971.776	2505.82
972.077	2470.57
972.378	2468.76
972.679	2489.33
972.98	2465.15
973.281	2456.79
973.582	2386.28
973.883	2431.93
974.183	2386.73
974.484	2425.6
974.785	2422.89
975.085	2378.82
975.386	2369.33
975.686	2347.64
975.986	2398.03
976.287	2309.44
976.587	2341.08
976.887	2310.8
977.187	2335.43
977.487	2285.04
977.787	2318.94
978.087	2274.42
978.387	2274.19
978.687	2290.91
978.987	2274.64
979.286	2253.4
979.586	2231.48
979.885	2210.92
980.185	2207.98
980.484	2206.85
980.784	2198.04
981.083	2198.04
981.382	2171.82
981.682	2159.84
981.981	2149.45
982.28	2168.43
982.579	2136.34
982.878	2123.69
983.177	2139.96
983.475	2140.64
983.774	2090.69
984.073	2095.89
984.372	2121.2
984.67	2117.59
984.969	2085.04
985.267	2078.72
985.566	2072.16
985.864	2056.12
986.162	2070.36
986.461	2014.99
986.759	2025.61
987.057	2000.3
987.355	2010.24
987.653	2011.37
987.951	1985.84
988.249	1965.95
988.547	1999.4
988.844	1947.42
989.142	1961.66
989.44	1934.09
989.737	1924.14
990.035	1945.16
990.332	1906.97
990.63	1890.47
990.927	1921.43
991.224	1885.5
991.521	1879.4
991.819	1854.99
992.116	1847.54
992.413	1840.98
992.71	1843.92
993.006	1858.38
993.303	1830.36
993.6	1803.47
993.897	1787.88
994.193	1800.53
994.49	1817.93
994.787	1801.66
995.083	1800.53
995.379	1785.84
995.676	1775.67
995.972	1743.13
996.268	1764.37
996.565	1753.08
996.861	1733.41
997.157	1714.66
997.453	1720.53
997.749	1715.56
998.044	1725.96
998.34	1681.89
998.636	1697.26
998.932	1678.73
999.227	1653.19
999.523	1636.69
999.818	1627.43
1000.114	1655.9
1000.409	1620.42
1000.704	1625.85
1001	1636.24
1001.295	1613.42
1001.59	1596.02
1001.885	1635.79
1002.18	1582.23
1002.475	1555.79
1002.77	1577.26
1003.065	1572.06
1003.359	1573.19
1003.654	1559.41
1003.949	1532.29
1004.243	1551.95
1004.538	1526.41
1004.832	1504.04
1005.127	1511.27
1005.421	1512.18
1005.715	1477.38
1006.009	1486.19
1006.304	1483.7
1006.598	1475.34
1006.892	1473.53
1007.186	1457.94
1007.48	1429.92
1007.773	1447.09
1008.067	1424.27
1008.361	1425.17
1008.655	1423.82
1008.948	1398.51
1009.242	1370.26
1009.535	1377.04
1009.829	1381.56
1010.122	1390.15
1010.415	1397.15
1010.708	1371.39
1011.001	1339.75
1011.295	1326.42
1011.588	1336.14
1011.881	1328.68
1012.173	1340.66
1012.466	1317.83
1012.759	1308.12
1013.052	1309.7
1013.344	1295.01
1013.637	1291.39
1013.93	1297.95
1014.222	1273.99
1014.514	1263.14
1014.807	1262.24
1015.099	1268.57
1015.391	1271.51
1015.683	1285.29
1015.976	1232.41
1016.268	1212.07
1016.56	1213.65
1016.851	1240.09
1017.143	1215.24
1017.435	1189.47
1017.727	1174.56
1018.018	1182.92
1018.31	1189.47
1018.602	1183.6
1018.893	1162.81
1019.185	1163.26
1019.476	1148.8
1019.767	1123.04
1020.058	1148.57
1020.35	1147.67
1020.641	1117.16
1020.932	1124.84
1021.223	1124.17
1021.514	1123.26
1021.804	1108.12
1022.095	1085.75
1022.386	1073.09
1022.677	1078.29
1022.967	1091.4
1023.258	1079.87
1023.548	1049.59
1023.839	1048.91
1024.129	1038.74
1024.419	1052.53
1024.709	1041.91
1025	1044.17
1025.29	1038.97
1025.58	1010.72
1025.87	1026.09
1026.16	1001.68
1026.449	1031.29
1026.739	977.5
1027.029	973.66
1027.319	1005.07
1027.608	982.25
1027.898	988.8
1028.187	984.06
1028.477	976.37
1028.766	993.1
1029.055	951.51
1029.344	946.32
1029.634	938.41
1029.923	945.41
1030.212	932.98
1030.501	929.37
1030.79	925.98
1031.078	901.12
1031.367	896.37
1031.656	909.93
1031.945	886.43
1032.233	884.62
1032.522	886.21
1032.81	878.07
1033.099	877.62
1033.387	856.6
1033.675	889.14
1033.963	845.08
1034.251	855.47
1034.54	852.31
1034.828	833.1
1035.116	831.52
1035.403	843.49
1035.691	839.2
1035.979	817.73
1036.267	806.21
1036.554	808.02
1036.842	833.1
1037.129	814.12
1037.417	823.38
1037.704	799.65
1037.992	777.73
1038.279	816.6
1038.566	782.03
1038.853	782.03
1039.14	782.03
