Data from hue_350_FLMS001491_33.txt Node
Date: Mon Feb 06 15:37:56 GMT 2017
User: dcchb
Spectrometer: FLMS00149
Trigger mode: 0
Integration Time (sec): 2.000000E-2
Scans to average: 10
Electric dark correction enabled: true
Nonlinearity correction enabled: false
Boxcar width: 0
XAxis mode: Wavelengths
Number of Pixels in Spectrum: 2048
>>>>>Begin Spectral Data<<<<<
341.393	-11.34
341.776	-11.34
342.16	-11.34
342.543	-48.4
342.927	-70.1
343.31	-70.55
343.693	-63.32
344.077	-47.27
344.46	-55.63
344.843	-44.56
345.226	-50.21
345.61	-36.43
345.993	-31.23
346.376	-2.3
346.759	25.49
347.142	25.27
347.525	23.91
347.908	47.19
348.291	70.46
348.674	83.35
349.057	125.83
349.44	103.91
349.823	147.07
350.206	144.13
350.588	190.01
350.971	214.42
351.354	230.69
351.737	236.56
352.119	235.66
352.502	263.91
352.884	273.17
353.267	279.72
353.65	285.15
354.032	293.74
354.414	310.91
354.797	302.55
355.179	305.71
355.562	321.98
355.944	328.31
356.326	308.42
356.709	327.41
357.091	316.33
357.473	320.63
357.855	333.73
358.238	350
358.62	337.58
359.002	333.96
359.384	358.14
359.766	330.34
360.148	326.95
360.53	324.24
360.912	335.77
361.294	342.77
361.676	337.58
362.057	331.02
362.439	339.84
362.821	335.09
363.203	327.18
363.584	305.49
363.966	321.31
364.348	348.2
364.729	321.98
365.111	318.37
365.493	325.37
365.874	300.74
366.256	301.64
366.637	328.08
367.019	305.03
367.4	281.53
367.781	301.19
368.163	306.16
368.544	299.61
368.925	311.59
369.306	328.76
369.688	298.93
370.069	305.49
370.45	313.62
370.831	324.92
371.212	318.14
371.593	306.39
371.974	316.11
372.355	300.51
372.736	317.24
373.117	315.43
373.498	300.97
373.879	314.98
374.26	296.67
374.641	289.89
375.021	323.79
375.402	309.55
375.783	307.75
376.163	327.18
376.544	319.05
376.925	345.03
377.305	318.82
377.686	304.36
378.066	326.28
378.447	319.05
378.827	338.93
379.208	321.76
379.588	317.92
379.968	307.52
380.349	328.99
380.729	329.67
381.109	330.57
381.489	322.66
381.87	326.05
382.25	349.1
382.63	320.4
383.01	338.03
383.39	336.22
383.77	293.74
384.15	348.88
384.53	332.15
384.91	333.28
385.29	332.15
385.67	330.8
386.049	347.07
386.429	331.7
386.809	340.29
387.189	351.59
387.568	345.94
387.948	347.07
388.328	327.18
388.707	328.76
389.087	332.38
389.466	334.64
389.846	348.2
390.225	354.07
390.605	335.54
390.984	344.13
391.363	341.19
391.743	351.59
392.122	365.37
392.501	350.46
392.881	367.63
393.26	361.08
393.639	369.44
394.018	362.21
394.397	353.85
394.776	348.2
395.155	359.04
395.534	376.67
395.913	365.15
396.292	354.52
396.671	362.21
397.05	370.8
397.429	355.2
397.808	372.38
398.186	387.07
398.565	361.3
398.944	376.22
399.323	364.47
399.701	369.21
400.08	375.54
400.458	384.35
400.837	396.78
401.215	392.72
401.594	376.44
401.972	376.22
402.351	384.81
402.729	379.83
403.107	392.94
403.486	363.11
403.864	377.35
404.242	393.62
404.62	401.98
404.999	390.23
405.377	391.36
405.755	380.96
406.133	399.04
406.511	412.38
406.889	411.7
407.267	402.21
407.645	400.63
408.023	400.4
408.401	402.66
408.779	404.69
409.156	413.28
409.534	428.19
409.912	419.83
410.29	415.77
410.667	432.49
411.045	441.08
411.422	428.19
411.8	425.03
412.178	437.91
412.555	460.51
412.933	451.7
413.31	438.36
413.687	453.96
414.065	448.31
414.442	442.88
414.819	451.02
415.197	456.67
415.574	459.38
415.951	463
416.328	453.05
416.705	469.78
417.082	472.49
417.46	474.52
417.837	496.67
418.214	484.46
418.591	502.54
418.967	511.58
419.344	504.58
419.721	466.84
420.098	517.01
420.475	511.36
420.852	507.06
421.228	514.52
421.605	496.89
421.982	501.64
422.358	505.71
422.735	521.3
423.111	525.59
423.488	543.22
423.864	533.28
424.241	509.32
424.617	542.99
424.994	537.57
425.37	540.73
425.746	553.16
426.123	535.08
426.499	545.48
426.875	541.19
427.251	569.21
427.627	564.91
428.003	557.46
428.379	597.68
428.756	560.62
429.132	586.38
429.507	589.32
429.883	578.7
430.259	583.22
430.635	577.57
431.011	604.91
431.387	605.82
431.763	625.7
432.138	611.92
432.514	632.03
432.89	634.07
433.265	636.78
433.641	618.7
434.016	650.79
434.392	636.33
434.767	626.38
435.143	638.13
435.518	652.6
435.894	669.54
436.269	670.45
436.644	662.31
437.02	660.73
437.395	670.9
437.77	684.23
438.145	681.75
438.52	688.98
438.895	684.46
439.271	709.77
439.646	709.32
440.021	687.85
440.395	707.28
440.77	712.93
441.145	719.03
441.52	723.33
441.895	725.81
442.27	737.34
442.645	733.72
443.019	740.05
443.394	756.32
443.769	744.12
444.143	733.5
444.518	766.49
444.892	771.01
445.267	749.77
445.641	757.68
446.016	756.1
446.39	794.96
446.764	766.72
447.139	778.69
447.513	786.6
447.887	802.87
448.262	786.83
448.636	777.34
449.01	778.02
449.384	802.42
449.758	788.19
450.132	816.66
450.506	783.67
450.88	786.6
451.254	827.05
451.628	811.91
452.002	829.54
452.376	837.9
452.75	819.82
453.123	798.58
453.497	844.91
453.871	863.66
454.244	857.11
454.618	871.57
454.992	877.9
455.365	867.05
455.739	876.77
456.112	901.4
456.486	907.28
456.859	890.33
457.232	938.92
457.606	912.48
457.979	919.03
458.352	949.54
458.725	933.72
459.099	942.31
459.472	962.42
459.845	952.7
460.218	963.32
460.591	999.93
460.964	984.34
461.337	987.5
461.71	1013.72
462.083	1023.43
462.456	1007.84
462.829	999.93
463.201	1050.33
463.574	1031.57
463.947	1072.92
464.32	1075.41
464.692	1077.67
465.065	1081.29
465.438	1096.65
465.81	1103.21
466.183	1112.7
466.555	1154.73
466.928	1124.22
467.3	1145.69
467.672	1152.92
468.045	1179.81
468.417	1201.73
468.789	1191.56
469.161	1208.74
469.534	1226.14
469.906	1242.86
470.278	1282.64
470.65	1242.18
471.022	1267.72
471.394	1301.17
471.766	1313.37
472.138	1329.19
472.51	1359.92
472.882	1392.24
473.253	1370.32
473.625	1402.18
473.997	1425
474.369	1430.43
474.74	1485.12
475.112	1469.3
475.484	1504.78
475.855	1539.58
476.227	1527.83
476.598	1585.23
476.97	1606.7
477.341	1598.79
477.713	1661.16
478.084	1643.3
478.455	1708.84
478.827	1706.13
479.198	1733.47
479.569	1794.94
479.94	1824.54
480.311	1842.85
480.682	1858.67
481.053	1930.3
481.424	1940.02
481.795	1937.08
482.166	2026.57
482.537	2029.96
482.908	2068.6
483.279	2091.88
483.65	2099.34
484.021	2170.3
484.391	2186.11
484.762	2237.86
485.133	2219.56
485.503	2304.3
485.874	2323.74
486.244	2341.36
486.615	2398.99
486.985	2451.87
487.356	2439.67
487.726	2482.15
488.097	2533.45
488.467	2573.68
488.837	2589.04
489.207	2604.86
489.578	2647.8
489.948	2697.74
490.318	2728.25
490.688	2734.12
491.058	2781.58
491.428	2849.6
491.798	2887.57
492.168	2886.44
492.538	2949.03
492.908	2964.4
493.278	3012.08
493.648	3016.83
494.017	3079.42
494.387	3071.52
494.757	3104.96
495.126	3190.83
495.496	3121.23
495.866	3168.46
496.235	3181.34
496.605	3246.43
496.974	3274.9
497.344	3293.2
497.713	3337.5
498.082	3357.61
498.452	3413.43
498.821	3386.76
499.19	3377.5
499.559	3415.91
499.928	3449.36
500.298	3491.17
500.667	3498.4
501.036	3544.95
501.405	3525.06
501.774	3537.72
502.143	3598.96
502.512	3603.93
502.88	3620.88
503.249	3631.5
503.618	3688.67
503.987	3677.15
504.356	3718.96
504.724	3706.75
505.093	3750.82
505.462	3773.42
505.83	3747.66
506.199	3780.42
506.567	3826.98
506.936	3824.26
507.304	3864.94
507.672	3836.24
508.041	3886.86
508.409	3906.75
508.777	3913.08
509.145	4007.54
509.514	3946.75
509.882	3966.63
510.25	3960.53
510.618	4003.92
510.986	4019.96
511.354	4053.86
511.722	4087.08
512.09	4076.23
512.458	4083.92
512.826	4087.76
513.193	4145.61
513.561	4164.37
513.929	4140.41
514.297	4156.68
514.664	4200.07
515.032	4172.05
515.4	4246.4
515.767	4223.12
516.135	4274.2
516.502	4210.92
516.869	4279.85
517.237	4320.97
517.604	4268.77
517.972	4329.79
518.339	4365.72
518.706	4332.95
519.073	4345.83
519.44	4391.25
519.808	4373.4
520.175	4402.1
520.542	4462.21
520.909	4459.95
521.276	4436.9
521.643	4482.33
522.009	4517.8
522.376	4504.25
522.743	4531.59
523.11	4580.85
523.477	4591.93
523.843	4627.86
524.21	4716.44
524.577	4622.66
524.943	4679.61
525.31	4679.16
525.676	4759.83
526.043	4793.5
526.409	4762.09
526.776	4799.61
527.142	4798.93
527.508	4828.76
527.874	4920.96
528.241	4926.38
528.607	4903.11
528.973	4941.3
529.339	4914.86
529.705	5007.74
530.071	4976.32
530.437	5053.61
530.803	5057.68
531.169	5091.8
531.535	5033.27
531.901	5136.77
532.267	5128.64
532.632	5076.21
532.998	5151.01
533.364	5181.29
533.73	5226.03
534.095	5238.01
534.461	5259.03
534.826	5285.92
535.192	5289.08
535.557	5356.65
535.923	5349.87
536.288	5388.97
536.653	5426.71
537.019	5364.56
537.384	5452.92
537.749	5456.99
538.114	5455.18
538.479	5472.13
538.845	5466.48
539.21	5479.14
539.575	5541.73
539.94	5517.78
540.305	5643.2
540.67	5618.57
541.034	5651.79
541.399	5630.09
541.764	5694.27
542.129	5674.84
542.494	5681.39
542.858	5710.09
543.223	5767.72
543.587	5814.72
543.952	5833.48
544.316	5826.02
544.681	5854.49
545.045	5878.22
545.41	5964.55
545.774	5986.47
546.138	5915.73
546.503	5937.88
546.867	5978.33
547.231	6028.95
547.595	6062.4
547.959	6073.47
548.324	6059.69
548.688	6093.58
549.052	6115.96
549.416	6141.49
549.779	6129.97
550.143	6134.26
550.507	6175.61
550.871	6217.42
551.235	6217.65
551.599	6301.49
551.962	6242.73
552.326	6235.5
552.689	6313.24
553.053	6334.03
553.417	6338.32
553.78	6436.17
554.143	6398.21
554.507	6409.96
554.87	6422.61
555.234	6470.3
555.597	6463.52
555.96	6451.31
556.323	6496.74
556.686	6513.91
557.05	6511.2
557.413	6583.97
557.776	6669.61
558.139	6606.79
558.502	6675.04
558.865	6641.59
559.228	6760.46
559.59	6679.56
559.953	6672.1
560.316	6809.72
560.679	6792.32
561.041	6875.03
561.404	6873.9
561.767	6850.17
562.129	6809.5
562.492	6865.77
562.854	6861.92
563.217	6942.6
563.579	6988.25
563.941	7004.97
564.304	7004.52
564.666	7020.79
565.028	7014.46
565.39	7037.29
565.753	7082.26
566.115	7145.53
566.477	7122.93
566.839	7157.96
567.201	7232.54
567.563	7227.11
567.925	7330.84
568.287	7266.43
568.648	7260.33
569.01	7339.2
569.372	7420.1
569.734	7361.35
570.095	7423.27
570.457	7419.65
570.819	7515.47
571.18	7551.4
571.542	7527.22
571.903	7630.94
572.265	7613.99
572.626	7676.37
572.987	7664.16
573.349	7756.59
573.71	7824.16
574.071	7858.96
574.432	7900.31
574.794	7939.64
575.155	8014.21
575.516	8036.36
575.877	8179.63
576.238	8134.66
576.599	8200.42
576.96	8274.54
577.32	8366.07
577.681	8363.13
578.042	8475.89
578.403	8513.86
578.763	8615.1
579.124	8682.67
579.485	8826.17
579.845	8866.62
580.206	9044.69
580.566	9081.98
580.927	9170.79
581.287	9310.45
581.648	9387.51
582.008	9615.3
582.368	9679.03
582.728	9774.16
583.089	9901.62
583.449	10083.08
583.809	10189.75
584.169	10371.66
584.529	10517.42
584.889	10733.91
585.249	10863.63
585.609	11036.73
585.969	11214.13
586.329	11436.72
586.688	11629.48
587.048	11810.27
587.408	12016.14
587.768	12203.03
588.127	12445.51
588.487	12661.55
588.846	12929.56
589.206	13165.04
589.565	13352.15
589.925	13510.56
590.284	13847.28
590.643	14076.88
591.003	14355.29
591.362	14615.39
591.721	14894.48
592.08	15143.29
592.44	15431.19
592.799	15690.17
593.158	15895.13
593.517	16123.15
593.876	16534.66
594.235	16731.5
594.593	17049
594.952	17381.42
595.311	17613.73
595.67	17900.73
596.029	18232.25
596.387	18610.77
596.746	18814.83
597.104	19073.58
597.463	19282.84
597.822	19678.99
598.18	19844.41
598.538	20105.64
598.897	20535.69
599.255	20720.32
599.613	21162.57
599.972	21479.62
600.33	21609.11
600.688	21866.5
601.046	22274.63
601.404	22559.59
601.762	22845.01
602.12	23171.78
602.478	23406.8
602.836	23743.51
603.194	23850.86
603.552	24219.43
603.91	24214.91
604.268	24717.27
604.625	24833.65
604.983	25242.23
605.341	25285.39
605.698	25763.12
606.056	26034.98
606.413	26224.8
606.771	26537.11
607.128	26724.9
607.485	26904.11
607.843	27085.8
608.2	27411.67
608.557	27644.88
608.914	27842.62
609.272	28184.75
609.629	28427.91
609.986	28607.79
610.343	28678.53
610.7	29051.17
611.057	29318.96
611.414	29358.51
611.771	29666.3
612.127	29902.67
612.484	30085.27
612.841	30316.22
613.198	30410.23
613.554	30575.88
613.911	30972.48
614.267	30993.49
614.624	31226.71
614.98	31381.28
615.337	31486.81
615.693	31650.88
616.05	31776.3
616.406	32256.96
616.762	32072.79
617.118	32304.64
617.475	32395.94
617.831	32624.41
618.187	32678.42
618.543	32867.12
618.899	33163.83
619.255	33272.3
619.611	33383.26
619.967	33710.26
620.323	33824.83
620.678	33687.89
621.034	33741.22
621.39	33851.27
621.746	33890.82
622.101	34374.2
622.457	34272.73
622.812	34410.8
623.168	34593.85
623.523	34612.83
623.879	34708.88
624.234	34674.53
624.589	34999.26
624.945	34933.95
625.3	35146.15
625.655	35162.87
626.01	35331.23
626.365	35416.88
626.72	35340.5
627.075	35432.02
627.43	35513.37
627.785	35493.04
628.14	35662.75
628.495	35617.78
628.85	35812.8
629.205	35615.74
629.559	35957.2
629.914	35878.34
630.269	35886.92
630.623	35850.77
630.978	35839.69
631.332	36049.63
631.687	36297.31
632.041	36114.26
632.396	36164.2
632.75	35990.65
633.104	36159.01
633.459	36124.43
633.813	36183.19
634.167	36126.24
634.521	36128.95
634.875	36132.57
635.229	36071.78
635.583	35947.04
635.937	35942.52
636.291	36079.69
636.645	36121.49
636.999	36104.09
637.352	36321.94
637.706	36029.97
638.06	36153.81
638.413	36183.86
638.767	36106.58
639.121	36189.97
639.474	36013.25
639.828	36047.37
640.181	36099.35
640.534	36084.43
640.888	36100.48
641.241	35950.88
641.594	35949.97
641.947	36152.68
642.301	35974.83
642.654	36048.95
643.007	36043.3
643.36	36097.54
643.713	35957.43
644.066	36191.1
644.419	35906.13
644.771	35655.52
645.124	35381.85
645.477	35366.71
645.83	35057.79
646.182	34992.94
646.535	34991.58
646.888	34914.07
647.24	34776.9
647.593	35054.18
647.945	35081.07
648.298	34918.81
648.65	34901.64
649.002	34808.08
649.355	34838.82
649.707	34849.21
650.059	34950.23
650.411	35298.24
650.763	35400.83
651.115	35789.3
651.467	35660.49
651.819	35481.74
652.171	35630.66
652.523	35576.65
652.875	35651
653.227	35373.49
653.578	35726.48
653.93	35547.5
654.282	35500.72
654.633	35438.35
654.985	35382.76
655.337	35462.98
655.688	35430.44
656.039	35604.67
656.391	35367.62
656.742	35218.69
657.094	35304.57
657.445	35559.47
657.796	35383.89
658.147	35283.55
658.498	35240.16
658.849	35395.19
659.2	35415.52
659.551	35272.02
659.902	35408.52
660.253	35392.47
660.604	35418.69
660.955	35273.38
661.306	35320.16
661.656	35222.76
662.007	35206.26
662.358	35231.12
662.708	35166.04
663.059	35269.99
663.409	35001.07
663.76	35265.25
664.11	35316.32
664.461	35254.17
664.811	35204.23
665.161	35229.77
665.511	35124.91
665.862	35168.3
666.212	35174.17
666.562	35250.33
666.912	35193.83
667.262	35110.9
667.612	35222.08
667.962	35161.74
668.312	35127.17
668.662	35147.73
669.011	35193.83
669.361	35020.51
669.711	35040.84
670.06	34927.17
670.41	34907.97
670.76	34998.13
671.109	35130.11
671.459	35111.35
671.808	35026.83
672.157	35075.42
672.507	34816.44
672.856	34951.81
673.205	34867.06
673.554	34951.36
673.904	34813.73
674.253	35038.58
674.602	34986.61
674.951	34443.12
675.3	34214.2
675.649	34860.28
675.998	34892.83
676.346	34831.13
676.695	34984.12
677.044	34653.28
677.393	34846.95
677.741	34799.72
678.09	34694.41
678.438	34620.97
678.787	34698.93
679.135	34853.96
679.484	34411.71
679.832	34611.25
680.181	34421.65
680.529	34502.78
680.877	34350.92
681.225	34437.02
681.573	34574.42
681.922	34443.8
682.27	34211.26
682.618	34298.04
682.966	34138.04
683.314	34285.16
683.661	34158.83
684.009	33881.33
684.357	33983.02
684.705	33916.13
685.053	33871.38
685.4	33770.14
685.748	33617.83
686.095	33693.31
686.443	33627.77
686.79	33506.65
687.138	33612.86
687.485	33735.34
687.832	33538.51
688.18	33552.07
688.527	33273.43
688.874	33275.69
689.221	33187.33
689.568	33087.45
689.915	32980.33
690.262	32892.2
690.609	32953.22
690.956	32860.56
691.303	32793.45
691.65	32548.93
691.997	32656.27
692.344	32435.94
692.69	32411.53
693.037	32501.02
693.383	32132.22
693.73	32399.78
694.077	32103.29
694.423	32184.65
694.769	32126.8
695.116	32030.08
695.462	32007.7
695.808	31765
696.155	31964.99
696.501	31639.35
696.847	31732.68
697.193	31536.76
697.539	31553.03
697.885	31183.09
698.231	31276.2
698.577	31218.35
698.923	31184.22
699.269	30922.99
699.614	30970.22
699.96	30827.4
700.306	30872.59
700.651	30747.17
700.997	30621.75
701.342	30569.78
701.688	30602.32
702.033	30447.29
702.379	30400.74
702.724	30297.69
703.069	30325.04
703.415	30016.8
703.76	29990.36
704.105	30174.31
704.45	30012.73
704.795	29928.66
705.14	29745.84
705.485	29796.01
705.83	29813.86
706.175	29622.68
706.52	29638.5
706.865	29452.74
707.209	29467.88
707.554	29234.44
707.899	29479.86
708.243	29217.72
708.588	29216.59
708.932	28949.48
709.277	28983.15
709.621	29024.96
709.966	28784.06
710.31	28947.22
710.654	28612.09
710.998	28673.55
711.342	28712.2
711.687	28513.56
712.031	28498.87
712.375	28325.99
712.719	28393.56
713.063	28270.4
713.407	28359.66
713.75	28245.99
714.094	28212.55
714.438	28046.45
714.782	28235.15
715.125	28006.23
715.469	27959.22
715.812	27850.52
716.156	27689.63
716.499	27669.74
716.843	27883.29
717.186	27561.04
717.53	27743.63
717.873	27718.55
718.216	27581.61
718.559	27557.65
718.902	27393.36
719.246	27480.14
719.589	27274.72
719.932	27338.45
720.275	27244.89
720.617	27277.88
720.96	27106.59
721.303	27186.14
721.646	27200.82
721.989	26866.37
722.331	26996.54
722.674	26934.39
723.016	26923.77
723.359	26954.96
723.701	26940.72
724.044	26661.86
724.386	26571.91
724.729	26722.42
725.071	26619.82
725.413	26666.83
725.755	26489.66
726.097	26491.01
726.439	26277.68
726.782	26470.67
727.124	26494.85
727.465	26397
727.807	26318.36
728.149	26332.15
728.491	26232.71
728.833	26286.05
729.175	26174.64
729.516	26082.89
729.858	26074.75
730.199	26113.17
730.541	26069.1
730.882	25944.36
731.224	26128.31
731.565	25737.13
731.906	25840.63
732.248	25845.83
732.589	25714.31
732.93	25651.03
733.271	25699.39
733.612	25704.37
733.953	25764.93
734.294	25547.08
734.635	25595.22
734.976	25551.15
735.317	25332.85
735.658	25388.89
735.999	25395.45
736.339	25388.22
736.68	25273.87
737.021	25296.02
737.361	25171.27
737.702	25248.79
738.042	25220.99
738.383	25159.07
738.723	25179.41
739.063	25054.67
739.404	25163.14
739.744	24974.89
740.084	24979.19
740.424	24877.95
740.764	24864.61
741.104	24909.36
741.444	24831.62
741.784	24758.85
742.124	24856.25
742.464	24814.45
742.804	24670.27
743.143	24723.38
743.483	24609.93
743.823	24501.01
744.162	24534.45
744.502	24489.03
744.841	24548.24
745.181	24540.33
745.52	24349.37
745.86	24501.23
746.199	24383.5
746.538	24353.44
746.877	24422.14
747.216	24376.72
747.556	24258.08
747.895	24265.76
748.234	24183.05
748.573	24073.45
748.911	24140.34
749.25	24219.66
749.589	24051.3
749.928	24123.39
750.267	24043.39
750.605	23902.83
750.944	23924.75
751.283	23955.49
751.621	23950.29
751.96	23680.24
752.298	23795.04
752.636	23687.7
752.975	23623.97
753.313	23539
753.651	23727.02
753.989	23448.15
754.327	23466.69
754.666	23354.15
755.004	23347.37
755.342	23323.41
755.679	23351.66
756.017	23153.25
756.355	23127.03
756.693	23173.81
757.031	23189.63
757.368	23092.68
757.706	22961.39
758.044	22907.83
758.381	22958.45
758.719	22799.36
759.056	22782.41
759.394	22766.59
759.731	22597.56
760.068	22548.29
760.405	22485.24
760.743	22369.99
761.08	22438.46
761.417	22375.19
761.754	22307.39
762.091	22216.55
762.428	22189.43
762.765	22112.14
763.102	22190.56
763.438	21968.19
763.775	21918.93
764.112	21850.23
764.449	21868.31
764.785	21742.44
765.122	21656.11
765.458	21546.51
765.795	21567.98
766.131	21486.85
766.467	21375.67
766.804	21355.78
767.14	21262.68
767.476	21274.2
767.812	21038.95
768.148	21129.8
768.485	20966.86
768.821	20948.11
769.157	20867.66
769.492	20842.57
769.828	20892.74
770.164	20620.21
770.5	20653.43
770.836	20536.37
771.171	20456.82
771.507	20346.77
771.842	20316.49
772.178	20305.41
772.513	20326.65
772.849	20100.45
773.184	20028.58
773.519	19965.08
773.855	19937.29
774.19	19830.4
774.525	19794.01
774.86	19801.92
775.195	19684.64
775.53	19663.85
775.865	19455.94
776.2	19313.57
776.535	19228.15
776.87	19326.23
777.205	19256.85
777.539	19043.98
777.874	19183.63
778.209	18967.14
778.543	18851.44
778.878	18865
779.212	18748.84
779.547	18770.31
779.881	18735.74
780.215	18535.29
780.55	18677.88
780.884	18553.37
781.218	18426.82
781.552	18470.88
781.886	18266.6
782.22	18274.73
782.554	18276.54
782.888	18064.34
783.222	17994.51
783.556	17927.85
783.889	17914.74
784.223	17611.02
784.557	17718.81
784.89	17749.1
785.224	17588.2
785.557	17451.02
785.891	17486.28
786.224	17355.21
786.558	17349.33
786.891	17177.81
787.224	17104.82
787.557	17133.07
787.891	17137.59
788.224	17125.38
788.557	17032.05
788.89	16991.83
789.223	16912.06
789.556	16706.86
789.888	16742.34
790.221	16726.75
790.554	16613.53
790.887	16614.66
791.219	16512.74
791.552	16430.26
791.884	16417.15
792.217	16348.45
792.549	16290.15
792.882	16134.22
793.214	16224.62
793.546	16045.64
793.879	15993.44
794.211	15957.05
794.543	16044.96
794.875	15934.91
795.207	16004.73
795.539	15803.38
795.871	15817.39
796.203	15676.83
796.535	15606.1
796.867	15620.79
797.198	15588.02
797.53	15527.46
797.862	15406.11
798.193	15457.63
798.525	15448.14
798.856	15378.54
799.188	15184.87
799.519	15172.89
799.85	15191.65
800.182	15052.44
800.513	15091.31
800.844	14968.38
801.175	15053.12
801.506	14936.74
801.837	14832.56
802.168	14876.85
802.499	14913.46
802.83	14696.07
803.161	14666.92
803.491	14785.56
803.822	14664.43
804.153	14595.51
804.483	14426.24
804.814	14461.72
805.145	14482.97
805.475	14415.85
805.805	14306.02
806.136	14336.98
806.466	14325.46
806.796	14227.61
807.126	14130.21
807.457	14066.25
807.787	14244.1
808.117	14090.21
808.447	13995.97
808.777	14118.68
809.107	13922.76
809.436	14002.98
809.766	14028.97
810.096	13875.98
810.426	13755.53
810.755	13832.14
811.085	13737.68
811.414	13754.4
811.744	13607.96
812.073	13654.74
812.403	13649.99
812.732	13548.75
813.061	13527.29
813.39	13483.67
813.719	13484.57
814.049	13490.22
814.378	13477.57
814.707	13323.45
815.036	13392.15
815.365	13317.12
815.693	13175.66
816.022	13154.87
816.351	13141.31
816.68	13073.96
817.008	13111.48
817.337	12973.63
817.665	12910.8
817.994	12990.35
818.322	12857.25
818.651	12964.59
818.979	12859.96
819.307	12932.5
819.636	12867.64
819.964	12775.89
820.292	12759.62
820.62	12810.24
820.948	12769.57
821.276	12830.13
821.604	12728.21
821.932	12736.35
822.259	12745.61
822.587	12693.64
822.915	12701.32
823.243	12775.44
823.57	12670.58
823.898	12681.88
824.225	12642.11
824.553	12637.59
824.88	12646.18
825.207	12686.4
825.535	12692.51
825.862	12690.02
826.189	12629.68
826.516	12735.44
826.843	12734.09
827.17	12685.05
827.497	12710.13
827.824	12632.17
828.151	12759.17
828.478	12671.49
828.805	12703.35
829.131	12698.38
829.458	12608.21
829.785	12646.4
830.111	12654.99
830.438	12694.99
830.764	12618.61
831.09	12636.24
831.417	12569.8
831.743	12638.04
832.069	12635.33
832.395	12607.31
832.722	12618.38
833.048	12574.77
833.374	12532.06
833.7	12502.45
834.026	12516.69
834.351	12514.88
834.677	12544.03
835.003	12519.4
835.329	12515.56
835.654	12487.76
835.98	12400.99
836.306	12445.73
836.631	12353.31
836.956	12427.43
837.282	12423.36
837.607	12328.9
837.932	12316.92
838.258	12285.74
838.583	12313.08
838.908	12240.31
839.233	12227.66
839.558	12197.83
839.883	12122.58
840.208	12146.3
840.533	12172.74
840.858	12137.49
841.182	12126.19
841.507	12163.03
841.832	12031.05
842.156	12060.43
842.481	12034.9
842.805	12038.96
843.13	11922.13
843.454	11986.08
843.778	11858.18
844.103	11924.16
844.427	11828.35
844.751	11793.77
845.075	11721.68
845.399	11791.74
845.723	11647.79
846.047	11723.49
846.371	11618.64
846.695	11632.87
847.019	11588.35
847.343	11499.54
847.666	11395.82
847.99	11379.32
848.313	11372.77
848.637	11269.72
848.96	11309.49
849.284	11279.66
849.607	11195.6
849.931	11146.78
850.254	11006.9
850.577	11050.74
850.9	10968.48
851.223	10947.01
851.546	10956.73
851.869	10824.08
852.192	10882.61
852.515	10780.01
852.838	10743.4
853.161	10720.81
853.483	10691.43
853.806	10605.1
854.129	10668.38
854.451	10577.31
854.774	10532.11
855.096	10531.21
855.419	10448.5
855.741	10539.12
856.063	10369.85
856.385	10360.59
856.708	10276.52
857.03	10344.77
857.352	10242.85
857.674	10265.45
857.996	10247.82
858.318	10130.76
858.64	10150.43
858.961	10083.76
859.283	10071.56
859.605	10023.87
859.926	10052.12
860.248	9975.06
860.57	9968.74
860.891	9959.24
861.212	9874.27
861.534	9820.26
861.855	9834.73
862.176	9869.08
862.498	9857.55
862.819	9776.88
863.14	9815.07
863.461	9752.47
863.782	9731
864.103	9739.81
864.424	9735.29
864.745	9703.66
865.065	9627.73
865.386	9635.18
865.707	9660.72
866.027	9646.48
866.348	9608.07
866.668	9571.91
866.989	9526.26
867.309	9512.48
867.63	9533.49
867.95	9566.71
868.27	9494.62
868.59	9416.66
868.91	9520.61
869.23	9450.56
869.55	9419.37
869.87	9460.27
870.19	9422.99
870.51	9464.57
870.83	9433.83
871.15	9390.9
871.469	9337.79
871.789	9403.55
872.109	9302.99
872.428	9252.14
872.748	9292.14
873.067	9238.58
873.386	9287.17
873.706	9254.4
874.025	9189.55
874.344	9189.32
874.663	9298.92
874.982	9264.35
875.301	9178.93
875.62	9135.08
875.939	9103.22
876.258	9140.06
876.577	9076.56
876.896	9080.4
877.214	9027.74
877.533	9053.96
877.852	9017.12
878.17	9036.33
878.489	8994.07
878.807	9015.54
879.125	8998.14
879.444	8993.17
879.762	8924.92
880.08	8975.54
880.398	8897.35
880.716	8943.9
881.034	8888.76
881.352	8933.96
881.67	8839.95
881.988	8870.68
882.306	8865.04
882.624	8866.62
882.941	8751.37
883.259	8751.14
883.577	8686.73
883.894	8714.3
884.212	8675.44
884.529	8683.8
884.846	8674.76
885.164	8623.69
885.481	8574.2
885.798	8639.28
886.115	8562.44
886.432	8531.94
886.75	8539.39
887.067	8534.65
887.383	8526.51
887.7	8450.13
888.017	8437.93
888.334	8496.23
888.651	8443.8
888.967	8448.32
889.284	8368.55
889.6	8343.02
889.917	8238.61
890.233	8345.73
890.55	8250.81
890.866	8276.58
891.182	8291.27
891.498	8248.78
891.815	8172.85
892.131	8096.02
892.447	8098.28
892.763	8108.22
893.079	8119.52
893.395	8095.56
893.71	8024.83
894.026	8017.37
894.342	8014.44
894.657	7940.09
894.973	7945.74
895.289	7971.05
895.604	7943.03
895.92	7845.85
896.235	7809.02
896.55	7825.51
896.865	7835.01
897.181	7819.87
897.496	7805.63
897.811	7755.91
898.126	7708.68
898.441	7667.1
898.756	7651.73
899.071	7571.51
899.386	7641.56
899.7	7579.65
900.015	7497.84
900.33	7404.28
900.644	7479.99
900.959	7434.56
901.273	7424.85
901.588	7350.27
901.902	7326.77
902.216	7292.2
902.531	7229.15
902.845	7265.53
903.159	7277.05
903.473	7221.69
903.787	7196.38
904.101	7200.45
904.415	7157.96
904.729	7116.83
905.042	7110.05
905.356	7039.32
905.67	7045.2
905.984	7004.97
906.297	7003.16
906.611	6915.03
906.924	6976.27
907.237	6950.96
907.551	6885.65
907.864	6870.96
908.177	6878.87
908.491	6775.6
908.804	6784.86
909.117	6727.92
909.43	6727.69
909.743	6714.36
910.056	6681.36
910.368	6642.04
910.681	6631.87
910.994	6604.98
911.307	6536.51
911.619	6509.84
911.932	6572.67
912.244	6417.42
912.557	6501.03
912.869	6447.7
913.181	6398.21
913.494	6416.74
913.806	6379.9
914.118	6348.72
914.43	6316.85
914.742	6301.49
915.054	6246.57
915.366	6238.44
915.678	6218.1
915.99	6197.08
916.302	6153.69
916.613	6128.84
916.925	6123.86
917.236	6150.76
917.548	6072.11
917.859	6056.97
918.171	5975.85
918.482	5995.96
918.794	5963.19
919.105	5964.55
919.416	5890.88
919.727	5860.14
920.038	5911.21
920.349	5791.9
920.66	5798
920.971	5806.36
921.282	5802.97
921.593	5735.85
921.903	5706.25
922.214	5717.32
922.525	5668.51
922.835	5594.84
923.146	5592.13
923.456	5608.4
923.767	5591.9
924.077	5563.65
924.387	5571.79
924.697	5508.74
925.008	5460.38
925.318	5471
925.628	5460.15
925.938	5428.74
926.248	5376.54
926.558	5355.07
926.867	5372.7
927.177	5297.22
927.487	5321.85
927.796	5231.23
928.106	5257.67
928.416	5230.1
928.725	5243.21
929.034	5169.99
929.344	5188.3
929.653	5179.03
929.962	5113.27
930.271	5045.93
930.581	5067.85
930.89	5059.49
931.199	5072.59
931.508	5011.13
931.817	4979.71
932.125	5019.26
932.434	4996.44
932.743	4890
933.051	4910.34
933.36	4883.45
933.669	4850.23
933.977	4852.71
934.286	4791.24
934.594	4818.59
934.902	4774.52
935.21	4764.35
935.519	4754.63
935.827	4757.12
936.135	4682.32
936.443	4689.33
936.751	4666.05
937.059	4634.64
937.367	4599.38
937.674	4644.13
937.982	4595.32
938.29	4595.54
938.597	4589.22
938.905	4503.57
939.213	4528.65
939.52	4489.78
939.827	4494.08
940.135	4477.81
940.442	4469.22
940.749	4424.25
941.056	4419.05
941.363	4357.13
941.67	4289.34
941.977	4303.12
942.284	4331.6
942.591	4257.02
942.898	4290.01
943.205	4315.78
943.511	4214.54
943.818	4210.47
944.125	4228.77
944.431	4183.8
944.738	4172.73
945.044	4152.16
945.35	4164.82
945.657	4106.74
945.963	4135.22
946.269	4084.14
946.575	4077.36
946.881	4046.4
947.187	4047.76
947.493	3980.42
947.799	3981.55
948.105	3995.56
948.41	3979.97
948.716	4009.8
949.022	3940.64
949.327	3937.93
949.633	3903.81
949.938	3874.88
950.244	3914.2
950.549	3853.19
950.854	3820.87
951.16	3813.87
951.465	3840.31
951.77	3825.39
952.075	3716.7
952.38	3756.47
952.685	3747.66
952.99	3730.93
953.294	3741.1
953.599	3707.43
953.904	3676.25
954.209	3661.33
954.513	3641.44
954.818	3601.22
955.122	3612.74
955.426	3588.56
955.731	3612.07
956.035	3610.03
956.339	3573.65
956.643	3584.5
956.948	3518.96
957.252	3501.56
957.556	3471.96
957.86	3477.61
958.163	3506.31
958.467	3403.03
958.771	3429.25
959.075	3403.71
959.378	3428.34
959.682	3382.02
959.985	3376.82
960.289	3342.92
960.592	3370.49
960.896	3334.11
961.199	3306.31
961.502	3324.39
961.805	3315.58
962.108	3282.36
962.411	3245.3
962.714	3243.94
963.017	3221.34
963.32	3223.15
963.623	3190.38
963.926	3198.52
964.228	3137.28
964.531	3183.15
964.833	3146.99
965.136	3126.66
965.438	3094.34
965.741	3137.73
966.043	3101.57
966.345	3087.79
966.648	3083.72
966.95	3083.94
967.252	3051.18
967.554	3009.14
967.856	3002.59
968.158	3016.15
968.46	3030.61
968.761	2984.96
969.063	2961.91
969.365	2935.47
969.666	2946.09
969.968	2901.8
970.269	2897.06
970.571	2889.83
970.872	2918.98
971.174	2900.9
971.475	2857.51
971.776	2869.94
972.077	2807.57
972.378	2820.67
972.679	2834.69
972.98	2792.2
973.281	2769.6
973.582	2787.45
973.883	2775.25
974.183	2730.96
974.484	2752.2
974.785	2710.39
975.085	2760.11
975.386	2723.28
975.686	2709.26
975.986	2673.79
976.287	2657.29
976.587	2653.22
976.887	2603.05
977.187	2644.41
977.487	2609.83
977.787	2642.15
978.087	2631.75
978.387	2604.18
978.687	2581.58
978.987	2584.3
979.286	2561.47
979.586	2578.65
979.885	2540.23
980.185	2535.03
980.484	2507.01
980.784	2487.12
981.083	2500.91
981.382	2500.68
981.682	2517.41
981.981	2485.54
982.28	2441.02
982.579	2441.7
982.878	2462.04
983.177	2396.96
983.475	2444.64
983.774	2406.22
984.073	2391.08
984.372	2341.59
984.67	2376.62
984.969	2360.12
985.267	2356.28
985.566	2355.83
985.864	2343.85
986.162	2337.52
986.461	2327.58
986.759	2319.9
987.057	2304.53
987.355	2275.6
987.653	2283.29
987.951	2263.17
988.249	2297.07
988.547	2246.45
988.844	2233.35
989.142	2262.05
989.44	2203.06
989.737	2212.78
990.035	2201.03
990.332	2194.7
990.63	2168.71
990.927	2123.07
991.224	2111.09
991.521	2163.06
991.819	2137.75
992.116	2140.24
992.413	2094.59
992.71	2068.15
993.006	2074.48
993.303	2079.22
993.6	2084.65
993.897	2084.65
994.193	2046.68
994.49	2035.16
994.787	2019.79
995.083	2030.64
995.379	2010.53
995.676	2000.81
995.972	2005.1
996.268	1987.7
996.565	1974.37
996.861	1963.75
997.157	1975.5
997.453	1952.9
997.749	1930.98
998.044	1946.57
998.34	1928.95
998.636	1937.08
998.932	1895.95
999.227	1878.55
999.523	1873.81
999.818	1864.99
1000.114	1869.74
1000.409	1841.72
1000.704	1866.35
1001	1836.29
1001.295	1811.89
1001.59	1807.37
1001.885	1829.51
1002.18	1796.29
1002.475	1795.62
1002.77	1784.77
1003.065	1770.76
1003.359	1797.88
1003.654	1727.14
1003.949	1754.94
1004.243	1716.07
1004.538	1714.49
1004.832	1714.04
1005.127	1676.3
1005.421	1707.26
1005.715	1687.6
1006.009	1686.92
1006.304	1665.45
1006.598	1677.65
1006.892	1666.58
1007.186	1640.37
1007.48	1653.02
1007.773	1646.69
1008.067	1640.14
1008.361	1615.06
1008.655	1603.08
1008.948	1590.65
1009.242	1578.9
1009.535	1573.25
1009.829	1545.91
1010.122	1542.97
1010.415	1534.15
1010.708	1568.05
1011.001	1519.69
1011.295	1541.16
1011.588	1530.99
1011.881	1489.41
1012.173	1489.18
1012.466	1502.29
1012.759	1454.83
1013.052	1474.5
1013.344	1469.07
1013.637	1462.07
1013.93	1433.14
1014.222	1423.87
1014.514	1415.97
1014.807	1436.53
1015.099	1414.61
1015.391	1388.4
1015.683	1433.37
1015.976	1384.1
1016.268	1350.66
1016.56	1398.79
1016.851	1352.24
1017.143	1381.84
1017.435	1350.88
1017.727	1346.36
1018.018	1346.14
1018.31	1342.07
1018.602	1305.46
1018.893	1305.23
1019.185	1310.21
1019.476	1294.39
1019.767	1294.39
1020.058	1267.95
1020.35	1272.24
1020.641	1270.21
1020.932	1245.8
1021.223	1242.41
1021.514	1236.99
1021.804	1217.33
1022.095	1234.05
1022.386	1220.26
1022.677	1194.5
1022.967	1230.66
1023.258	1188.17
1023.548	1175.75
1023.839	1201.51
1024.129	1175.29
1024.419	1173.49
1024.709	1164.67
1025	1149.76
1025.29	1146.14
1025.58	1145.24
1025.87	1125.35
1026.16	1126.93
1026.449	1118.57
1026.739	1111.11
1027.029	1122.64
1027.319	1100.72
1027.608	1093.49
1027.898	1077.44
1028.187	1058.23
1028.477	1068.86
1028.766	1084.45
1029.055	1059.82
1029.344	1076.99
1029.634	1050.55
1029.923	1025.92
1030.212	1042.64
1030.501	1015.07
1030.79	999.93
1031.078	1024.11
1031.367	1001.51
1031.656	982.53
1031.945	1000.84
1032.233	995.41
1032.522	990.21
1032.81	979.14
1033.099	958.12
1033.387	962.19
1033.675	1000.61
1033.963	948.41
1034.251	978.69
1034.54	960.61
1034.828	941.4
1035.116	938.69
1035.403	923.32
1035.691	934.85
1035.979	884.68
1036.267	899.59
1036.554	864.34
1036.842	884.91
1037.129	890.33
1037.417	883.32
1037.704	889.65
1037.992	867.28
1038.279	848.3
1038.566	865.47
1038.853	865.47
1039.14	865.47
