Data from hue_40_FLMS001491_95.txt Node
Date: Mon Feb 06 15:08:51 GMT 2017
User: dcchb
Spectrometer: FLMS00149
Trigger mode: 0
Integration Time (sec): 2.000000E-2
Scans to average: 10
Electric dark correction enabled: true
Nonlinearity correction enabled: false
Boxcar width: 0
XAxis mode: Wavelengths
Number of Pixels in Spectrum: 2048
>>>>>Begin Spectral Data<<<<<
341.393	-12.57
341.776	-12.57
342.16	-12.57
342.543	-71.1
342.927	-64.32
343.31	-69.52
343.693	-69.07
344.077	-64.32
344.46	-69.29
344.843	-54.6
345.226	-44.89
345.61	-32.91
345.993	-31.1
346.376	2.57
346.759	15
347.142	29.24
347.525	46.19
347.908	57.94
348.291	74.21
348.674	92.96
349.057	117.6
349.44	115.11
349.823	142.23
350.206	168.67
350.588	204.15
350.971	214.32
351.354	236.01
351.737	244.15
352.119	265.84
352.502	277.82
352.884	288.44
353.267	295.9
353.65	287.31
354.032	322.34
354.414	321.21
354.797	318.04
355.179	309
355.562	337.7
355.944	330.47
356.326	328.44
356.709	335.9
357.091	339.06
357.473	341.54
357.855	341.77
358.238	352.39
358.62	350.13
359.002	331.6
359.384	358.95
359.766	372.73
360.148	349.91
360.53	335.67
360.912	357.14
361.294	376.35
361.676	335.44
362.057	322.56
362.439	350.13
362.821	336.57
363.203	339.28
363.584	338.15
363.966	316.46
364.348	304.71
364.729	332.05
365.111	327.99
365.493	309.46
365.874	327.08
366.256	322.56
366.637	314.65
367.019	314.43
367.4	320.98
367.781	302
368.163	307.2
368.544	333.64
368.925	318.27
369.306	347.19
369.688	333.64
370.069	312.39
370.45	311.49
370.831	305.39
371.212	307.87
371.593	327.53
371.974	305.61
372.355	314.2
372.736	330.02
373.117	309.23
373.498	331.83
373.879	335.9
374.26	345.16
374.641	329.34
375.021	304.26
375.402	337.48
375.783	341.32
376.163	347.87
376.544	342.9
376.925	304.48
377.305	340.19
377.686	328.21
378.066	346.52
378.447	336.12
378.827	341.54
379.208	351.71
379.588	351.49
379.968	343.13
380.349	336.35
380.729	339.74
381.109	358.04
381.489	334.77
381.87	368.21
382.25	346.06
382.63	340.87
383.01	354.88
383.39	348.32
383.77	347.42
384.15	332.28
384.53	364.37
384.91	387.19
385.29	367.53
385.67	348.32
386.049	339.51
386.429	362.79
386.809	367.76
387.189	358.49
387.568	368.44
387.948	342
388.328	373.86
388.707	390.81
389.087	355.56
389.466	369.11
389.846	380.19
390.225	367.31
390.605	389.23
390.984	399.17
391.363	392.39
391.743	387.19
392.122	386.06
392.501	371.37
392.881	399.17
393.26	389
393.639	395.78
394.018	393.29
394.397	386.97
394.776	401.43
395.155	393.52
395.534	386.74
395.913	393.29
396.292	392.62
396.671	409.34
397.05	382.45
397.429	406.63
397.808	415.44
398.186	400.98
398.565	397.14
398.944	393.75
399.323	419.28
399.701	432.62
400.08	411.37
400.458	430.13
400.837	419.96
401.215	410.92
401.594	397.36
401.972	426.51
402.351	420.64
402.729	427.64
403.107	417.25
403.486	429.45
403.864	425.84
404.242	436.46
404.62	430.13
404.999	457.7
405.377	450.02
405.755	433.75
406.133	452.05
406.511	440.98
406.889	433.75
407.267	465.38
407.645	452.05
408.023	466.51
408.401	470.81
408.779	450.47
409.156	471.26
409.534	449.11
409.912	469.68
410.29	470.13
410.667	468.77
411.045	474.87
411.422	479.17
411.8	473.74
412.178	490.69
412.555	470.13
412.933	477.81
413.31	510.81
413.687	504.25
414.065	499.73
414.442	523.46
414.819	519.17
415.197	525.95
415.574	516.68
415.951	514.87
416.328	508.09
416.705	528.21
417.082	556.45
417.46	543.35
417.837	513.29
418.214	519.39
418.591	522.56
418.967	541.09
419.344	544.7
419.721	537.7
420.098	537.25
420.475	554.42
420.852	559.39
421.228	553.97
421.605	563.23
421.982	563.69
422.358	587.19
422.735	566.17
423.111	579.28
423.488	586.06
423.864	597.81
424.241	566.4
424.617	600.75
424.994	601.2
425.37	609.11
425.746	598.71
426.123	612.72
426.499	633.51
426.875	602.78
427.251	595.78
427.627	637.13
428.003	620.18
428.379	621.99
428.756	648.66
429.132	636.68
429.507	662.89
429.883	654.53
430.259	664.02
430.635	665.38
431.011	678.03
431.387	670.35
431.763	689.78
432.138	679.16
432.514	679.39
432.89	669.9
433.265	699.28
433.641	708.31
434.016	715.09
434.392	710.12
434.767	735.21
435.143	743.34
435.518	742.66
435.894	730.69
436.269	781.08
436.644	786.28
437.02	767.07
437.395	763.91
437.77	767.52
438.145	779.05
438.52	784.24
438.895	804.58
439.271	784.92
439.646	834.64
440.021	803
440.395	794.64
440.77	818.37
441.145	818.82
441.52	838.48
441.895	839.61
442.27	842.77
442.645	854.98
443.019	835.77
443.394	843
443.769	848.2
444.143	854.98
444.518	876.9
444.892	833.06
445.267	868.76
445.641	874.86
446.016	880.97
446.39	876.9
446.764	897.01
447.139	863.56
447.513	915.99
447.887	911.25
448.262	908.08
448.636	910.34
449.01	954.41
449.384	923.68
449.758	930.46
450.132	933.62
450.506	939.5
450.88	968.19
451.254	959.16
451.628	968.65
452.002	1002.32
452.376	995.31
452.75	1000.51
453.123	978.14
453.497	1001.64
453.871	1005.71
454.244	1023.11
454.618	1040.28
454.992	1054.75
455.365	1047.74
455.739	1044.13
456.112	1075.31
456.486	1094.29
456.859	1099.26
457.232	1102.88
457.606	1073.95
457.979	1121.86
458.352	1130.22
458.725	1145.59
459.099	1171.13
459.472	1181.07
459.845	1176.1
460.218	1214.52
460.591	1203.89
460.964	1212.71
461.337	1209.54
461.71	1244.12
462.083	1262.88
462.456	1296.77
462.829	1292.71
463.201	1329.32
463.574	1332.93
463.947	1335.64
464.32	1387.62
464.692	1378.81
465.065	1375.64
465.438	1391.46
465.81	1460.61
466.183	1439.82
466.555	1459.03
466.928	1505.13
467.3	1508.07
467.672	1504.68
468.045	1553.94
468.417	1552.81
468.789	1588.29
469.161	1595.3
469.534	1651.79
469.906	1640.04
470.278	1670.78
470.65	1713.71
471.022	1767.72
471.394	1735.86
471.766	1792.81
472.138	1816.76
472.51	1864.67
472.882	1889.3
473.253	1926.81
473.625	1944.89
473.997	2037.32
474.369	2031.44
474.74	2031.67
475.112	2116.19
475.484	2170.65
475.855	2191.44
476.227	2214.04
476.598	2293.58
476.97	2300.82
477.341	2386.46
477.713	2432.34
478.084	2445.67
478.455	2528.61
478.827	2590.98
479.198	2715.49
479.569	2704.42
479.94	2788.94
480.311	2847.02
480.682	2941.7
481.053	3009.27
481.424	3134.01
481.795	3143.05
482.166	3228.47
482.537	3303.05
482.908	3381.46
483.279	3481.12
483.65	3531.97
484.021	3629.37
484.391	3703.94
484.762	3781.91
485.133	3845.18
485.503	3962.01
485.874	4059.87
486.244	4130.15
486.615	4233.65
486.985	4317.94
487.356	4461.21
487.726	4520.87
488.097	4648.32
488.467	4772.61
488.837	4885.15
489.207	4985.72
489.578	5092.61
489.948	5182.32
490.318	5286.95
490.688	5318.14
491.058	5510.9
491.428	5635.87
491.798	5699.82
492.168	5843.09
492.538	5919.7
492.908	6073.82
493.278	6125.12
493.648	6227.49
494.017	6375.74
494.387	6403.53
494.757	6582.74
495.126	6645.56
495.496	6752.9
495.866	6867.25
496.235	7032.89
496.605	7047.81
496.974	7179.33
497.344	7295.26
497.713	7385.43
498.082	7461.58
498.452	7588.59
498.821	7617.74
499.19	7733.44
499.559	7836.04
499.928	7956.94
500.298	8009.59
500.667	8163.71
501.036	8157.16
501.405	8283.03
501.774	8320.54
502.143	8454.33
502.512	8512.18
502.88	8561.44
503.249	8687.99
503.618	8809.12
503.987	8854.99
504.356	8957.82
504.724	8997.36
505.093	9114.42
505.462	9200.29
505.83	9233.51
506.199	9317.35
506.567	9458.59
506.936	9496.11
507.304	9589.44
507.672	9700.17
508.041	9702.43
508.409	9819.71
508.777	9940.84
509.145	10105.81
509.514	10076.43
509.882	10144.68
510.25	10165.69
510.618	10243.21
510.986	10374.73
511.354	10458.79
511.722	10542.41
512.09	10664.21
512.458	10609.3
512.826	10778.11
513.193	10885.45
513.561	10782.17
513.929	10971.55
514.297	11086.12
514.664	11127.93
515.032	11183.29
515.4	11325.21
515.767	11324.08
516.135	11440.24
516.502	11372.44
516.869	11494.02
517.237	11604.75
517.604	11652.43
517.972	11700.34
518.339	11842.03
518.706	11837.74
519.073	11893.78
519.44	11855.59
519.808	12056.04
520.175	12077.51
520.542	12255.36
520.909	12313.43
521.276	12332.87
521.643	12538.96
522.009	12564.05
522.376	12658.06
522.743	12663.03
523.11	12806.98
523.477	12907.54
523.843	12990.25
524.21	13053.75
524.577	13121.1
524.943	13261.88
525.31	13315.21
525.676	13516.57
526.043	13591.14
526.409	13642.44
526.776	13688.99
527.142	13723.34
527.508	13852.15
527.874	13938.48
528.241	14005.14
528.607	13972.15
528.973	14172.37
529.339	14126.49
529.705	14284.45
530.071	14530.32
530.437	14394.73
530.803	14580.94
531.169	14653.71
531.535	14628.63
531.901	14678.34
532.267	14785.46
532.632	14916.3
532.998	14963.53
533.364	15026.58
533.73	15091.44
534.095	15210.53
534.461	15287.59
534.826	15355.16
535.192	15380.92
535.557	15500.02
535.923	15520.81
536.288	15622.27
536.653	15639.45
537.019	15682.84
537.384	15667.47
537.749	15817.3
538.114	15851.19
538.479	15944.98
538.845	15993.11
539.21	15961.92
539.575	16006.9
539.94	16068.36
540.305	16325.08
540.67	16283.05
541.034	16393.55
541.399	16452.08
541.764	16487.33
542.129	16495.02
542.494	16572.3
542.858	16652.75
543.223	16658.4
543.587	16737.05
543.952	16741.79
544.316	16901.56
544.681	16833.99
545.045	17008.9
545.41	17181.33
545.774	17135
546.138	17199.18
546.503	17293.87
546.867	17281.21
547.231	17424.49
547.595	17378.84
547.959	17496.57
548.324	17584.71
548.688	17450.25
549.052	17747.41
549.416	17714.65
549.779	17716.46
550.143	17813.4
550.507	17982.21
550.871	18073.51
551.235	17963.45
551.599	18175.43
551.962	18159.38
552.326	18180.17
552.689	18275.76
553.053	18287.74
553.417	18333.84
553.78	18548.52
554.143	18465.36
554.507	18515.53
554.87	18627.39
555.234	18778.35
555.597	18654.28
555.96	18793.71
556.323	18958.23
556.686	18865.8
557.05	19020.38
557.413	19087.04
557.776	19160.48
558.139	19201.61
558.502	19258.11
558.865	19289.3
559.228	19461.04
559.59	19498.33
559.953	19591.21
560.316	19763.18
560.679	19733.58
561.041	19809.06
561.404	19887.7
561.767	19990.52
562.129	20004.76
562.492	20207.24
562.854	20104.87
563.217	20230.06
563.579	20346.44
563.941	20485.65
564.304	20553.89
564.666	20674.12
565.028	20616.04
565.39	20638.86
565.753	20854.9
566.115	20839.54
566.477	20903.49
566.839	21003.6
567.201	21208.34
567.563	21238.4
567.925	21245.4
568.287	21298.06
568.648	21274.1
569.01	21538.73
569.372	21709.34
569.734	21567.43
570.095	21792.73
570.457	21861.88
570.819	21951.82
571.18	21988.66
571.542	22165.6
571.903	22036.57
572.265	22257.58
572.626	22454.41
572.987	22431.59
573.349	22456.67
573.71	22588.64
574.071	22732.14
574.432	22774.63
574.794	22986.37
575.155	23024.79
575.516	23048.29
575.877	23178.46
576.238	23335.06
576.599	23394.5
576.96	23530.09
577.32	23607.37
577.681	23798.56
578.042	23983.86
578.403	24074.48
578.763	24162.61
579.124	24244.87
579.485	24480.12
579.845	24687.8
580.206	24663.62
580.566	24833.56
580.927	24967.79
581.287	25283.94
581.648	25249.36
582.008	25564.84
582.368	25730.03
582.728	25799.86
583.089	25937.03
583.449	26109.68
583.809	26344.93
584.169	26564.81
584.529	26587.18
584.889	27072.14
585.249	27173.16
585.609	27213.61
585.969	27556.2
586.329	27629.19
586.688	27815.85
587.048	28003.87
587.408	28220.36
587.768	28299.23
588.127	28459
588.487	28638.2
588.846	29111.64
589.206	29061.92
589.565	29276.38
589.925	29656.93
590.284	29806.08
590.643	29957.04
591.003	30345.95
591.362	30615.1
591.721	30682.89
592.08	31029.1
592.44	31172.15
592.799	31337.34
593.158	31490.56
593.517	31668.18
593.876	32004.44
594.235	32151.78
594.593	32335.05
594.952	32650.53
595.311	32629.06
595.67	32960.12
596.029	33288.02
596.387	33355.14
596.746	33605.08
597.104	33693.44
597.463	33903.6
597.822	34146.08
598.18	34206.64
598.538	34440.08
598.897	34646.86
599.255	34587.42
599.613	35220.63
599.972	35074.87
600.33	35357.35
600.688	35334.52
601.046	35620.17
601.404	36029.87
601.762	36020.15
602.12	36371.33
602.478	36433.03
602.836	36671.66
603.194	36496.53
603.552	36885.67
603.91	36758.89
604.268	37078.43
604.625	37188.03
604.983	37419.44
605.341	37477.97
605.698	37725.87
606.056	37952.53
606.413	37796.83
606.771	38264.62
607.128	38310.04
607.485	38245.63
607.843	38436.81
608.2	38762.91
608.557	38979.62
608.914	38848.78
609.272	39159.96
609.629	39304.59
609.986	39641.75
610.343	39419.39
610.7	39804.24
611.057	39733.96
611.414	39809.21
611.771	39787.29
612.127	40136.88
612.484	40266.82
612.841	40498.45
613.198	40426.82
613.554	40410.1
613.911	40816.19
614.267	40844.21
614.624	40686.25
614.98	40881.95
615.337	41284.2
615.693	41094.82
616.05	41279.23
616.406	41511.54
616.762	41427.7
617.118	41470.63
617.475	41601.93
617.831	41818.19
618.187	41847.8
618.543	41897.29
618.899	42149.71
619.255	42193.78
619.611	42164.85
619.967	42272.42
620.323	42448.23
620.678	42372.3
621.034	42273.32
621.39	42296.6
621.746	42348.58
622.101	42991.95
622.457	42646.87
622.812	42790.37
623.168	42768.68
623.523	42942.46
623.879	43065.85
624.234	42825.85
624.589	43047.09
624.945	43052.96
625.3	42995.79
625.655	43115.11
626.01	43163.7
626.365	43250.47
626.72	43266.74
627.075	43147.42
627.43	43165.28
627.785	43235.56
628.14	43327.53
628.495	43420.64
628.85	43379.96
629.205	43193.53
629.559	43502.67
629.914	43380.87
630.269	43483.46
630.623	43329.11
630.978	43188.33
631.332	43426.97
631.687	43535.66
632.041	43350.81
632.396	43664.47
632.75	43328.21
633.104	43383.58
633.459	43265.39
633.813	43265.61
634.167	43344.03
634.521	43274.88
634.875	43327.99
635.229	43442.11
635.583	43153.98
635.937	43229.68
636.291	43172.06
636.645	43287.99
636.999	43169.57
637.352	43227.42
637.706	43159.85
638.06	43291.15
638.413	43098.84
638.767	43035.56
639.121	43176.12
639.474	42897.71
639.828	42850.94
640.181	43022.68
640.534	42979.07
640.888	42806.19
641.241	42788.79
641.594	42725.29
641.947	42930.93
642.301	42869.69
642.654	42907.21
643.007	42698.85
643.36	42842.8
643.713	42687.78
644.066	42971.16
644.419	42594.67
644.771	42297.5
645.124	42045.08
645.477	42013.9
645.83	41768.25
646.182	41667.24
646.535	41421.59
646.888	41493.68
647.24	41308.6
647.593	41561.03
647.945	41462.95
648.298	41188.83
648.65	41278.32
649.002	41101.38
649.355	41298.89
649.707	41360.13
650.059	41384.08
650.411	41840.34
650.763	41917.17
651.115	42351.06
651.467	42103.84
651.819	42237.17
652.171	42071.52
652.523	42084.85
652.875	42107.68
653.227	41982.03
653.578	42086.89
653.93	41988.36
654.282	41861.13
654.633	41857.06
654.985	41904.97
655.337	41778.87
655.688	41846.44
656.039	41989.72
656.391	41641.48
656.742	41798.53
657.094	41835.82
657.445	41909.72
657.796	41693
658.147	41697.29
658.498	41795.6
658.849	41811.41
659.2	41555.83
659.551	41613.23
659.902	41657.75
660.253	41572.1
660.604	41808.25
660.955	41513.34
661.306	41774.35
661.656	41549.05
662.007	41496.39
662.358	41603.06
662.708	41574.13
663.059	41536.39
663.409	41339.11
663.76	41571.42
664.11	41508.82
664.461	41462.27
664.811	41538.43
665.161	41517.64
665.511	41442.61
665.862	41493.23
666.212	41571.42
666.562	41593.34
666.912	41549.95
667.262	41531.2
667.612	41455.04
667.962	41544.08
668.312	41445.32
668.662	41657.75
669.011	41461.59
669.361	41424.53
669.711	41353.12
670.06	41307.25
670.41	41286.23
670.76	41187.7
671.109	41513.34
671.459	41302.28
671.808	41270.64
672.157	41304.76
672.507	41159.45
672.856	41209.85
673.205	41193.58
673.554	41294.59
673.904	41079.46
674.253	41314.7
674.602	41088.72
674.951	40566.93
675.3	40458.46
675.649	41110.64
675.998	41082.62
676.346	41000.59
676.695	41139.34
677.044	40769.86
677.393	40862.97
677.741	40985.67
678.09	40749.07
678.438	40703.87
678.787	40764.89
679.135	40801.72
679.484	40478.12
679.832	40680.6
680.181	40505.46
680.529	40588.4
680.877	40562.86
681.225	40414.16
681.573	40713.59
681.922	40486.48
682.27	40220.04
682.618	40230.21
682.966	40172.14
683.314	40259.82
683.661	40162.87
684.009	39949.77
684.357	39862.09
684.705	39921.07
685.053	39890.56
685.4	39827.96
685.748	39833.39
686.095	39690.11
686.443	39547.52
686.79	39442.21
687.138	39591.36
687.485	39538.48
687.832	39412.83
688.18	39343.91
688.527	39158.38
688.874	39079.06
689.221	39099.85
689.568	39096.68
689.915	38940.08
690.262	39053.52
690.609	38912.96
690.956	38699.41
691.303	38679.97
691.65	38561.1
691.997	38440.43
692.344	38209.02
692.69	38230.72
693.037	38219.19
693.383	37991.63
693.73	38199.76
694.077	37883.38
694.423	37985.98
694.769	37792.09
695.116	37696.04
695.462	37655.37
695.808	37428.25
696.155	37566.33
696.501	37361.36
696.847	37166.79
697.193	37030.98
697.539	37175.15
697.885	36875.95
698.231	36776.07
698.577	36767.48
698.923	36831.21
699.269	36404.1
699.614	36353.71
699.96	36244.78
700.306	36363.65
700.651	36102.64
700.997	35994.39
701.342	36113.03
701.688	35980.83
702.033	35754.17
702.379	35771.57
702.724	35643.44
703.069	35896.99
703.415	35300.63
703.76	35310.12
704.105	35407.06
704.45	35098.82
704.795	34997.13
705.14	35108.54
705.485	35064.47
705.83	34937.7
706.175	34924.14
706.52	34812.95
706.865	34692.28
707.209	34655.44
707.554	34472.85
707.899	34691.15
708.243	34479.63
708.588	34206.42
708.932	34179.53
709.277	34081
709.621	34243.7
709.966	33981.56
710.31	33932.75
710.654	33711.51
710.998	33807.33
711.342	33851.4
711.687	33665.87
712.031	33564.4
712.375	33297.74
712.719	33448.24
713.063	33449.83
713.407	33472.2
713.75	33365.31
714.094	33258.87
714.438	33125.32
714.782	33086.67
715.125	32923.51
715.469	33039.67
715.812	32835.61
716.156	32605.78
716.499	32713.12
716.843	32646.68
717.186	32542.51
717.53	32718.55
717.873	32591.09
718.216	32458.44
718.559	32368.05
718.902	32207.37
719.246	32248.95
719.589	32146.13
719.932	32084.44
720.275	32012.8
720.617	32020.94
720.96	31979.58
721.303	31886.7
721.646	31868.17
721.989	31675.64
722.331	31691.91
722.674	31727.39
723.016	31665.24
723.359	31607.84
723.701	31657.78
724.044	31411.69
724.386	31412.37
724.729	31530.33
725.071	31340.05
725.413	31409.2
725.755	31318.81
726.097	31217.34
726.439	31165.59
726.782	31024.35
727.124	31123.56
727.465	30947.75
727.807	30839.5
728.149	30887.63
728.491	30799.05
728.833	30842.44
729.175	30698.26
729.516	30713.4
729.858	30604.7
730.199	30577.81
730.541	30635.89
730.882	30546.4
731.224	30575.78
731.565	30335.33
731.906	30339.63
732.248	30508.89
732.589	30373.07
732.93	30167.2
733.271	30203.36
733.612	30159.29
733.953	30186.18
734.294	30034.1
734.635	29980.77
734.976	30037.49
735.317	29963.36
735.658	29912.29
735.999	29873.88
736.339	29773.77
736.68	29889.69
737.021	29795.91
737.361	29670.94
737.702	29865.51
738.042	29627.78
738.383	29499.2
738.723	29675.69
739.063	29497.84
739.404	29509.82
739.744	29504.62
740.084	29286.55
740.424	29376.04
740.764	29304.4
741.104	29378.97
741.444	29277.28
741.784	29164.06
742.124	29201.35
742.464	29191.41
742.804	28906.9
743.143	29057.4
743.483	29048.59
743.823	28827.8
744.162	28912.09
744.502	28957.97
744.841	28733.79
745.181	28847.69
745.52	28739.89
745.86	28729.5
746.199	28723.17
746.538	28619.45
746.877	28676.39
747.216	28660.12
747.556	28524.98
747.895	28684.75
748.234	28421.71
748.573	28284.99
748.911	28409.73
749.25	28267.36
749.589	28123.41
749.928	28191.21
750.267	28194.82
750.605	28168.38
750.944	28050.19
751.283	27942.63
751.621	28076.18
751.96	27773.82
752.298	27861.73
752.636	27866.92
752.975	27763.42
753.313	27632.35
753.651	27799.58
753.989	27588.06
754.327	27559.59
754.666	27444.33
755.004	27569.3
755.342	27582.18
755.679	27402.3
756.017	27224.91
756.355	27305.13
756.693	27192.14
757.031	27226.49
757.368	26976.55
757.706	26975.65
758.044	26885.25
758.381	27012.03
758.719	26745.37
759.056	26875.54
759.394	26704.02
759.731	26542.89
760.068	26500.4
760.405	26413.63
760.743	26378.6
761.08	26361.65
761.417	26308.32
761.754	26151.49
762.091	26145.16
762.428	25978.16
762.765	25864.04
763.102	25876.69
763.438	25828.78
763.775	25696.36
764.112	25691.84
764.449	25656.36
764.785	25559.86
765.122	25377.27
765.458	25368.68
765.795	25270.83
766.131	25171.85
766.467	25108.13
766.804	24949.49
767.14	24955.59
767.476	24935.7
767.812	24770.96
768.148	24867.23
768.485	24648.25
768.821	24520.8
769.157	24517.86
769.492	24461.14
769.828	24476.73
770.164	24119.9
770.5	24110.41
770.836	24136.85
771.171	24021.37
771.507	24016.85
771.842	23794.26
772.178	23769.63
772.513	23714.94
772.849	23660.48
773.184	23410.09
773.519	23523.08
773.855	23401.05
774.19	23262.52
774.525	23218.91
774.86	23207.61
775.195	23115.18
775.53	23018.24
775.865	22813.27
776.2	22684.69
776.535	22596.78
776.87	22613.95
777.205	22494.41
777.539	22389.1
777.874	22533.5
778.209	22278.6
778.543	22293.96
778.878	22191.37
779.212	22209.9
779.547	21947.76
779.881	22054.87
780.215	21825.73
780.55	21843.13
780.884	21734.2
781.218	21588.44
781.552	21661.89
781.886	21555.45
782.22	21453.76
782.554	21304.16
782.888	21186.19
783.222	21014.22
783.556	20912.98
783.889	20901.68
784.223	20814.23
784.557	20824.62
784.89	20785.98
785.224	20642.48
785.557	20555.02
785.891	20583.5
786.224	20486.1
786.558	20383.5
786.891	20221.25
787.224	20249.72
787.557	20095.15
787.891	20119.78
788.224	20104.87
788.557	20079.33
788.89	19980.8
789.223	19901.48
789.556	19746.68
789.888	19615.39
790.221	19641.38
790.554	19507.82
790.887	19548.95
791.219	19381.72
791.552	19384.89
791.884	19301.27
792.217	19147.83
792.549	19158.68
792.882	19019.7
793.214	18936.31
793.546	18943.99
793.879	18844.34
794.211	18720.04
794.543	18830.55
794.875	18701.29
795.207	18751.68
795.539	18599.82
795.871	18597.34
796.203	18410.9
796.535	18308.98
796.867	18340.17
797.198	18215.2
797.53	18271.69
797.862	18085.94
798.193	18196.44
798.525	18090.46
798.856	18080.74
799.188	17839.84
799.519	17807.07
799.85	17691.37
800.182	17788.32
800.513	17732.27
800.844	17580.41
801.175	17632.84
801.506	17589.68
801.837	17571.37
802.168	17453.64
802.499	17377.03
802.83	17226.3
803.161	17287.54
803.491	17250.48
803.822	17234.43
804.153	17002.8
804.483	17033.08
804.814	17060.88
805.145	16949.7
805.475	16915.8
805.805	16863.6
806.136	16897.72
806.466	16761.9
806.796	16826.08
807.126	16696.14
807.457	16492.08
807.787	16585.41
808.117	16589.48
808.447	16445.53
808.777	16407.79
809.107	16410.73
809.436	16383.38
809.766	16360.78
810.096	16278.07
810.426	16210.28
810.755	16228.13
811.085	16200.56
811.414	16212.31
811.744	16052.77
812.073	16085.76
812.403	15915.6
812.732	15888.03
813.061	15873.57
813.39	15694.81
813.719	15722.16
814.049	15881.48
814.378	15665.44
814.707	15676.28
815.036	15673.8
815.365	15576.4
815.693	15433.13
816.022	15443.97
816.351	15376.4
816.68	15307.7
817.008	15342.28
817.337	15255.28
817.665	15182.74
817.994	15257.99
818.322	15178.44
818.651	15030.2
818.979	15071.1
819.307	15154.71
819.636	14947.04
819.964	14960.14
820.292	15067.71
820.62	14970.54
820.948	14979.35
821.276	14908.17
821.604	14907.49
821.932	14956.98
822.259	14997.2
822.587	14951.78
822.915	14905.68
823.243	14910.43
823.57	14854.38
823.898	14834.04
824.225	14810.77
824.553	14823.42
824.88	14871.11
825.207	14840.37
825.535	14790.43
825.862	14873.82
826.189	14873.37
826.516	14842.63
826.843	14908.85
827.17	14844.89
827.497	14953.82
827.824	14919.24
828.151	14840.37
828.478	14839.69
828.805	14939.35
829.131	14769.41
829.458	14832.92
829.785	14710.88
830.111	14724.67
830.438	14791.33
830.764	14800.15
831.09	14730.54
831.417	14808.28
831.743	14749.08
832.069	14768.28
832.395	14693.94
832.722	14733.03
833.048	14771.9
833.374	14762.41
833.7	14610.77
834.026	14650.1
834.351	14758.79
834.677	14559.48
835.003	14727.16
835.329	14613.71
835.654	14661.85
835.98	14566.93
836.306	14559.93
836.631	14531.91
836.956	14455.3
837.282	14500.72
837.607	14494.84
837.932	14417.33
838.258	14411.23
838.583	14417.33
838.908	14272.03
839.233	14354.51
839.558	14338.46
839.883	14317.9
840.208	14198.36
840.533	14281.29
840.858	14229.77
841.182	14189.09
841.507	14269.77
841.832	14128.07
842.156	14191.8
842.481	14110.67
842.805	14058.02
843.13	14027.74
843.454	13973.28
843.778	13943.67
844.103	13902.32
844.427	13910.91
844.751	13867.06
845.075	13809.21
845.399	13825.94
845.723	13620.52
846.047	13695.09
846.371	13577.58
846.695	13618.71
847.019	13527.41
847.343	13399.05
847.666	13391.82
847.99	13291.26
848.313	13253.52
848.637	13224.14
848.96	13175.11
849.284	13201.77
849.607	13123.13
849.931	13011.49
850.254	12972.63
850.577	12879.52
850.9	12829.35
851.223	12811.05
851.546	12717.72
851.869	12638.4
852.192	12693.76
852.515	12555.91
852.838	12569.7
853.161	12577.38
853.483	12487.89
853.806	12433.43
854.129	12390.04
854.451	12329.03
854.774	12295.58
855.096	12280.89
855.419	12183.04
855.741	12214.23
856.063	12070.95
856.385	12090.16
856.708	12046.77
857.03	12090.84
857.352	11991.86
857.674	11933.56
857.996	11883.39
858.318	11856.04
858.64	11875.25
858.961	11857.85
859.283	11805.88
859.605	11807.01
859.926	11784.41
860.248	11708.7
860.57	11644.07
860.891	11662.6
861.212	11532.44
861.534	11565.43
861.855	11541.25
862.176	11487.24
862.498	11538.54
862.819	11528.14
863.14	11480.91
863.461	11411.31
863.782	11432.1
864.103	11358.66
864.424	11315.49
864.745	11426.68
865.065	11341.03
865.386	11263.97
865.707	11285.44
866.027	11245.44
866.348	11285.89
866.668	11187.81
866.989	11174.93
867.309	11122.28
867.63	11132.9
867.95	11110.3
868.27	11049.06
868.59	11023.3
868.91	11052.45
869.23	11034.14
869.55	11038.44
869.87	11101.49
870.19	10983.07
870.51	11095.39
870.83	11100.36
871.15	10926.8
871.469	10927.03
871.789	10903.98
872.109	11000.7
872.428	10875.05
872.748	10872.12
873.067	10880.7
873.386	10905.11
873.706	10821.27
874.025	10794.6
874.344	10721.84
874.663	10783.98
874.982	10710.99
875.301	10724.55
875.62	10733.36
875.939	10586.7
876.258	10645
876.577	10648.84
876.896	10614.49
877.214	10555.97
877.533	10589.86
877.852	10590.09
878.17	10597.32
878.489	10545.34
878.807	10586.02
879.125	10507.38
879.444	10518.9
879.762	10486.14
880.08	10411.11
880.398	10409.3
880.716	10426.03
881.034	10367.27
881.352	10382.18
881.67	10397.55
881.988	10430.77
882.306	10309.64
882.624	10237.33
882.941	10252.24
883.259	10207.5
883.577	10177.22
883.894	10138.12
884.212	10126.6
884.529	10150.33
884.846	10209.76
885.164	10078.01
885.481	10037.33
885.798	10099.03
886.115	9999.6
886.432	10006.6
886.75	9921.86
887.067	9984.68
887.383	9932.03
887.7	9923.67
888.017	9841.86
888.334	9897.9
888.651	9900.16
888.967	9839.37
889.284	9826.27
889.6	9742.65
889.917	9682.32
890.233	9610.91
890.55	9631.24
890.866	9641.41
891.182	9624.92
891.498	9598.48
891.815	9579.49
892.131	9541.98
892.447	9515.09
892.763	9411.14
893.079	9492.26
893.395	9396.67
893.71	9338.82
894.026	9389.89
894.342	9280.52
894.657	9231.71
894.973	9209.11
895.289	9226.96
895.604	9226.28
895.92	9189
896.235	9155.55
896.55	9112.61
896.865	9081.88
897.181	9061.54
897.496	9155.55
897.811	8983.35
898.126	8974.99
898.441	8989.23
898.756	8947.87
899.071	8896.57
899.386	8909.68
899.7	8798.5
900.015	8768.89
900.33	8662.23
900.644	8732.74
900.959	8765.05
901.273	8665.85
901.588	8577.71
901.902	8590.37
902.216	8543.14
902.531	8561.89
902.845	8501.56
903.159	8465.62
903.473	8433.31
903.787	8394.21
904.101	8350.37
904.415	8376.59
904.729	8318.74
905.042	8298.62
905.356	8246.87
905.67	8264.73
905.984	8259.75
906.297	8220.21
906.611	8131.4
906.924	8144.96
907.237	8140.89
907.551	8120.55
907.864	8030.16
908.177	8012.3
908.491	7959.42
908.804	7956.03
909.117	7921.23
909.43	7893.44
909.743	7808.24
910.056	7835.36
910.368	7774.34
910.681	7805.53
910.994	7747.45
911.307	7676.27
911.619	7606.44
911.932	7627.91
912.244	7608.7
912.557	7544.75
912.869	7548.13
913.181	7446.44
913.494	7522.82
913.806	7392.66
914.118	7372.55
914.43	7318.99
914.742	7345.2
915.054	7204.42
915.366	7272.66
915.678	7223.62
915.99	7217.97
916.302	7130.52
916.613	7074.48
916.925	7101.14
917.236	7105.43
917.548	7022.05
917.859	7033.12
918.171	6947.02
918.482	6982.05
918.794	6999.67
919.105	6903.86
919.416	6822.96
919.727	6830.19
920.038	6811.43
920.349	6794.48
920.66	6726.46
920.971	6705.9
921.282	6733.24
921.593	6645.56
921.903	6646.01
922.214	6591.1
922.525	6602.17
922.835	6541.61
923.146	6516.98
923.456	6526.69
923.767	6502.51
924.077	6478.11
924.387	6452.12
924.697	6368.28
925.008	6395.4
925.318	6349.3
925.628	6312.46
925.938	6298.22
926.248	6228.85
926.558	6226.59
926.867	6247.6
927.177	6209.86
927.487	6144.56
927.796	6108.85
928.106	6131
928.416	6106.82
928.725	6065.01
929.034	5985.92
929.344	6023.66
929.653	6008.74
929.962	5959.48
930.271	5916.09
930.581	5886.03
930.89	5854.62
931.199	5823.89
931.508	5862.76
931.817	5830.21
932.125	5769.42
932.434	5771.68
932.743	5655.3
933.051	5684
933.36	5677
933.669	5618.69
933.977	5612.37
934.286	5636.55
934.594	5564.01
934.902	5588.19
935.21	5467.51
935.519	5497.57
935.827	5490.79
936.135	5483.56
936.443	5450.79
936.751	5415.08
937.059	5375.99
937.367	5356.78
937.674	5318.59
937.982	5333.96
938.29	5300.28
938.597	5291.02
938.905	5227.07
939.213	5231.59
939.52	5211.02
939.827	5230
940.135	5149.78
940.442	5164.02
940.749	5152.04
941.056	5089.22
941.363	5091.25
941.67	5069.78
941.977	4999.5
942.284	5026.17
942.591	4958.15
942.898	4975.32
943.205	4912.95
943.511	4976.68
943.818	4852.61
944.125	4872.95
944.431	4875.44
944.738	4907.75
945.044	4795.21
945.35	4815.55
945.657	4787.3
945.963	4755.44
946.269	4800.64
946.575	4731.26
946.881	4689
947.187	4701.66
947.493	4618.27
947.799	4646.97
948.105	4632.96
948.41	4632.51
948.716	4612.84
949.022	4601.32
949.327	4540.76
949.633	4492.62
949.938	4498.5
950.244	4465.73
950.549	4432.51
950.854	4409.01
951.16	4405.62
951.465	4355
951.77	4377.14
952.075	4394.55
952.38	4338.5
952.685	4359.97
952.99	4289.92
953.294	4288.56
953.599	4262.8
953.904	4246.53
954.209	4170.14
954.513	4206.75
954.818	4155.23
955.122	4210.14
955.426	4142.8
955.731	4115.46
956.035	4119.07
956.339	4016.02
956.643	4092.63
956.948	4022.8
957.252	4015.57
957.556	4030.49
957.86	3985.74
958.163	3957.95
958.467	3971.51
958.771	3957.49
959.075	3961.56
959.378	3950.49
959.682	3898.74
959.985	3904.16
960.289	3872.75
960.592	3887.21
960.896	3830.27
961.199	3803.6
961.502	3790.49
961.805	3836.82
962.108	3777.61
962.411	3752.08
962.714	3749.14
963.017	3768.12
963.32	3718.41
963.623	3699.2
963.926	3659.42
964.228	3674.56
964.531	3657.16
964.833	3655.58
965.136	3642.93
965.438	3621.68
965.741	3598.86
966.043	3551.63
966.345	3579.43
966.648	3528.81
966.95	3544.17
967.252	3510.05
967.554	3480.22
967.856	3468.24
968.158	3438.86
968.46	3423.27
968.761	3430.05
969.063	3423.95
969.365	3415.81
969.666	3410.39
969.968	3379.88
970.269	3343.27
970.571	3357.74
970.872	3345.31
971.174	3324.07
971.475	3327.91
971.776	3272.09
972.077	3285.42
972.378	3250.62
972.679	3248.13
972.98	3256.04
973.281	3250.85
973.582	3205.88
973.883	3207.23
974.183	3192.32
974.484	3161.36
974.785	3135.82
975.085	3151.87
975.386	3156.16
975.686	3105.31
975.986	3100.12
976.287	3084.75
976.587	3054.92
976.887	3033.23
977.187	3026.45
977.487	3020.57
977.787	3009.27
978.087	3017.18
978.387	2974.7
978.687	2943.74
978.987	2939.44
979.286	2936.28
979.586	2914.58
979.885	2899.44
980.185	2913.91
980.484	2909.16
980.784	2865.55
981.083	2852.44
981.382	2818.32
981.682	2847.92
981.981	2813.57
982.28	2809.5
982.579	2813.12
982.878	2803.4
983.177	2779.67
983.475	2727.47
983.774	2751.42
984.073	2751.42
984.372	2734.25
984.67	2720.92
984.969	2731.76
985.267	2703.52
985.566	2702.61
985.864	2660.58
986.162	2665.78
986.461	2620.13
986.759	2649.05
987.057	2628.49
987.355	2588.72
987.653	2586.01
987.951	2580.13
988.249	2603.18
988.547	2564.76
988.844	2570.41
989.142	2556.18
989.44	2570.41
989.737	2530.41
990.035	2534.26
990.332	2487.03
990.63	2466.46
990.927	2504.2
991.224	2461.04
991.521	2447.48
991.819	2427.37
992.116	2433.92
992.413	2437.53
992.71	2405.45
993.006	2391.43
993.303	2371.1
993.6	2402.28
993.897	2341.27
994.193	2342.17
994.49	2352.79
994.787	2317.99
995.083	2312.11
995.379	2339.91
995.676	2315.73
995.972	2288.84
996.268	2262.17
996.565	2236.41
996.861	2221.95
997.157	2262.17
997.453	2235.51
997.749	2223.3
998.044	2176.98
998.34	2173.81
998.636	2205.45
998.932	2185.56
999.227	2162.29
999.523	2139.46
999.818	2124.55
1000.114	2129.97
1000.409	2135.85
1000.704	2092.46
1001	2097.2
1001.295	2094.04
1001.59	2061.05
1001.885	2038.45
1002.18	2043.19
1002.475	1987.38
1002.77	2056.75
1003.065	2019.01
1003.359	2017.88
1003.654	2015.62
1003.949	2011.56
1004.243	1977.21
1004.538	1953.48
1004.832	1973.82
1005.127	1937.66
1005.421	1928.4
1005.715	1915.97
1006.009	1918.9
1006.304	1931.11
1006.598	1877.1
1006.892	1861.05
1007.186	1870.54
1007.48	1859.47
1007.773	1841.84
1008.067	1845.46
1008.361	1835.74
1008.655	1831.45
1008.948	1783.31
1009.242	1793.03
1009.535	1809.75
1009.829	1783.54
1010.122	1769.76
1010.415	1762.75
1010.708	1742.64
1011.001	1711.23
1011.295	1743.32
1011.588	1708.06
1011.881	1688.18
1012.173	1707.38
1012.466	1718.46
1012.759	1670.78
1013.052	1661.74
1013.344	1678.46
1013.637	1657.67
1013.93	1630.55
1014.222	1631.23
1014.514	1624.9
1014.807	1596.43
1015.099	1595.3
1015.391	1600.95
1015.683	1621.29
1015.976	1574.05
1016.268	1597.78
1016.56	1547.16
1016.851	1543.77
1017.143	1537.67
1017.435	1513.27
1017.727	1511.23
1018.018	1515.98
1018.31	1513.04
1018.602	1499.71
1018.893	1470.55
1019.185	1445.02
1019.476	1474.17
1019.767	1476.2
1020.058	1459.26
1020.35	1459.26
1020.641	1419.71
1020.932	1402.08
1021.223	1391.23
1021.514	1434.62
1021.804	1393.72
1022.095	1367.05
1022.386	1352.59
1022.677	1358.47
1022.967	1349.88
1023.258	1324.57
1023.548	1341.29
1023.839	1325.93
1024.129	1322.31
1024.419	1315.98
1024.709	1283.67
1025	1316.66
1025.29	1291.35
1025.58	1272.82
1025.87	1282.31
1026.16	1266.49
1026.449	1268.3
1026.739	1261.75
1027.029	1220.62
1027.319	1218.58
1027.608	1228.53
1027.898	1226.04
1028.187	1183.78
1028.477	1207.74
1028.766	1210.45
1029.055	1186.72
1029.344	1206.61
1029.634	1146.95
1029.923	1150.11
1030.212	1141.98
1030.501	1141.98
1030.79	1132.03
1031.078	1169.77
1031.367	1136.33
1031.656	1113.28
1031.945	1125.25
1032.233	1112.15
1032.522	1103.11
1032.81	1080.51
1033.099	1084.35
1033.387	1087.97
1033.675	1079.15
1033.963	1073.05
1034.251	1077.34
1034.54	1040.74
1034.828	1040.28
1035.116	1002.54
1035.403	1031.92
1035.691	1001.19
1035.979	1017.46
1036.267	1011.36
1036.554	1023.11
1036.842	992.83
1037.129	1001.41
1037.417	969.55
1037.704	980.85
1037.992	976.33
1038.279	951.02
1038.566	935.65
1038.853	935.65
1039.14	935.65
