Data from hue_180_FLMS001491_00015.txt Node
Date: Tue Feb 07 16:46:37 GMT 2017
User: dcchb
Spectrometer: FLMS00149
Trigger mode: 0
Integration Time (sec): 2.000000E-2
Scans to average: 10
Electric dark correction enabled: true
Nonlinearity correction enabled: false
Boxcar width: 0
XAxis mode: Wavelengths
Number of Pixels in Spectrum: 2048
>>>>>Begin Spectral Data<<<<<
341.393	-18.76
341.776	-18.76
342.16	-18.76
342.543	-35.48
342.927	-68.92
343.31	-63.73
343.693	-78.19
344.077	-66.89
344.46	-56.72
344.843	-32.99
345.226	-51.3
345.61	-10.85
345.993	-1.81
346.376	-24.41
346.759	16.95
347.142	21.92
347.525	40.45
347.908	52.65
348.291	84.29
348.674	79.77
349.057	90.85
349.44	125.42
349.823	141.92
350.206	168.36
350.588	194.35
350.971	209.26
351.354	201.35
351.737	232.76
352.119	256.04
352.502	255.13
352.884	266.89
353.267	272.08
353.65	289.48
354.032	313.89
354.414	319.54
354.797	323.38
355.179	297.17
355.562	323.83
355.944	335.13
356.326	344.85
356.709	348.47
357.091	344.85
357.473	338.75
357.855	333.1
358.238	354.57
358.62	350.05
359.002	331.06
359.384	341.23
359.766	348.01
360.148	339.43
360.53	330.16
360.912	318.64
361.294	331.06
361.676	329.71
362.057	327.67
362.439	337.62
362.821	332.65
363.203	336.71
363.584	340.33
363.966	342.36
364.348	313.21
364.729	303.04
365.111	305.75
365.493	318.41
365.874	298.52
366.256	301.46
366.637	316.6
367.019	313.21
367.4	321.57
367.781	327.45
368.163	320.67
368.544	312.08
368.925	317.96
369.306	315.92
369.688	328.8
370.069	315.92
370.45	305.08
370.831	327.9
371.212	308.01
371.593	320.9
371.974	319.09
372.355	318.41
372.736	311.4
373.117	294.91
373.498	319.09
373.879	309.82
374.26	309.6
374.641	317.51
375.021	321.8
375.402	311.18
375.783	312.53
376.163	335.36
376.544	326.55
376.925	318.64
377.305	324.96
377.686	333.78
378.066	314.57
378.447	321.12
378.827	331.74
379.208	320.44
379.588	326.09
379.968	325.87
380.349	330.16
380.729	338.07
381.109	333.55
381.489	346.88
381.87	314.34
382.25	320.22
382.63	352.31
383.01	331.06
383.39	339.65
383.77	342.82
384.15	343.49
384.53	338.97
384.91	340.33
385.29	355.02
385.67	324.06
386.049	352.08
386.429	364.74
386.809	360.89
387.189	348.24
387.568	365.64
387.948	358.41
388.328	349.37
388.707	363.61
389.087	374
389.466	362.93
389.846	369.71
390.225	369.48
390.605	348.24
390.984	376.49
391.363	363.83
391.743	362.48
392.122	357.5
392.501	382.14
392.881	378.52
393.26	354.57
393.639	382.14
394.018	374.68
394.397	395.92
394.776	370.39
395.155	363.15
395.534	371.74
395.913	385.53
396.292	405.19
396.671	393.44
397.05	429.14
397.429	386.66
397.808	401.35
398.186	394.34
398.565	395.92
398.944	407.9
399.323	394.57
399.701	411.51
400.08	414.23
400.458	410.84
400.837	399.76
401.215	393.44
401.594	436.37
401.972	417.16
402.351	416.94
402.729	409.71
403.107	444.28
403.486	443.6
403.864	411.06
404.242	444.06
404.62	442.02
404.999	431.63
405.377	439.54
405.755	440.67
406.133	461.23
406.511	445.19
406.889	464.85
407.267	504.17
407.645	467.11
408.023	492.42
408.401	478.63
408.779	479.99
409.156	489.93
409.534	518.4
409.912	501
410.29	536.26
410.667	508.46
411.045	522.92
411.422	500.33
411.8	520.21
412.178	538.29
412.555	539.42
412.933	565.18
413.31	565.18
413.687	569.48
414.065	594.79
414.442	589.59
414.819	564.73
415.197	599.53
415.574	598.85
415.951	600.89
416.328	624.62
416.705	621.23
417.082	637.05
417.46	625.29
417.837	650.83
418.214	642.47
418.591	671.85
418.967	671.62
419.344	673.65
419.721	663.26
420.098	682.92
420.475	696.93
420.852	700.77
421.228	720.21
421.605	718.85
421.982	732.86
422.358	744.61
422.735	747.55
423.111	755.01
423.488	790.71
423.864	792.52
424.241	817.61
424.617	814.22
424.994	807.44
425.37	821.67
425.746	817.83
426.123	845.85
426.499	854.67
426.875	860.09
427.251	889.47
427.627	904.38
428.003	926.98
428.379	886.76
428.756	907.77
429.132	912.52
429.507	929.92
429.883	935.79
430.259	947.32
430.635	981.22
431.011	967.43
431.387	995.23
431.763	1009.24
432.138	1018.5
432.514	1052.85
432.89	1047.2
433.265	1087.43
433.641	1077.94
434.016	1122.23
434.392	1116.35
434.767	1124.49
435.143	1141.44
435.518	1169.91
435.894	1193.19
436.269	1190.48
436.644	1208.56
437.02	1223.24
437.395	1210.36
437.77	1262.57
438.145	1286.75
438.52	1283.58
438.895	1323.13
439.271	1331.04
439.646	1365.84
440.021	1347.31
440.395	1379.85
440.77	1388.21
441.145	1408.78
441.52	1425.73
441.895	1448.32
442.27	1453.52
442.645	1463.92
443.019	1473.86
443.394	1501.2
443.769	1506.63
444.143	1521.32
444.518	1544.59
444.892	1539.17
445.267	1567.64
445.641	1575.1
446.016	1568.09
446.39	1581.65
446.764	1635.21
447.139	1608.55
447.513	1611.71
447.887	1634.76
448.262	1671.14
448.636	1665.94
449.01	1720.86
449.384	1689
449.758	1697.36
450.132	1723.34
450.506	1748.65
450.88	1743.01
451.254	1720.41
451.628	1780.07
452.002	1808.99
452.376	1822.78
452.75	1858.93
453.123	1850.35
453.497	1860.06
453.871	1895.77
454.244	1952.04
454.618	1944.81
454.992	1989.55
455.365	1968.08
455.739	2026.84
456.112	2062.32
456.486	2047.18
456.859	2078.14
457.232	2105.93
457.606	2135.76
457.979	2139.83
458.352	2207.17
458.725	2233.16
459.099	2224.12
459.472	2278.58
459.845	2319.26
460.218	2336.21
460.591	2335.98
460.964	2365.81
461.337	2427.73
461.71	2481.52
462.083	2538.01
462.456	2521.06
462.829	2513.61
463.201	2533.04
463.574	2590.89
463.947	2666.82
464.32	2683.77
464.692	2684.68
465.065	2759.93
465.438	2711.57
465.81	2817.1
466.183	2848.96
466.555	2892.58
466.928	2978.68
467.3	2939.36
467.672	2982.52
468.045	3067.72
468.417	3082.86
468.789	3109.07
469.161	3174.61
469.534	3214.15
469.906	3301.61
470.278	3296.64
470.65	3375.05
471.022	3396.97
471.394	3470.19
471.766	3514.71
472.138	3564.65
472.51	3627.7
472.882	3767.81
473.253	3752.22
473.625	3835.61
473.997	3912.67
474.369	3963.29
474.74	4001.48
475.112	4085.99
475.484	4155.37
475.855	4239.89
476.227	4276.5
476.598	4402.37
476.97	4450.96
477.341	4526.66
477.713	4630.16
478.084	4691.85
478.455	4845.52
478.827	4852.75
479.198	5022.24
479.569	5051.62
479.94	5214.33
480.311	5217.04
480.682	5454.55
481.053	5516.24
481.424	5613.86
481.795	5677.59
482.166	5774.99
482.537	5870.13
482.908	5994.87
483.279	6048.88
483.65	6181.53
484.021	6289.33
484.391	6406.39
484.762	6541.52
485.133	6569.77
485.503	6673.04
485.874	6870.33
486.244	6893.83
486.615	7114.62
486.985	7191.45
487.356	7331.33
487.726	7356.19
488.097	7560.48
488.467	7574.94
488.837	7794.37
489.207	7869.17
489.578	7994.37
489.948	8030.75
490.318	8217.86
490.688	8258.31
491.058	8451.3
491.428	8459.44
491.798	8559.77
492.168	8784.18
492.538	8735.59
492.908	8902.59
493.278	9050.84
493.648	9043.38
494.017	9137.16
494.387	9222.81
494.757	9273.43
495.126	9452.63
495.496	9442.92
495.866	9532.18
496.235	9653.76
496.605	9697.82
496.974	9759.97
497.344	9865.05
497.713	9906.63
498.082	9981.21
498.452	10084.93
498.821	10124.48
499.19	10098.94
499.559	10226.85
499.928	10376.68
500.298	10353.85
500.667	10409.67
501.036	10415.77
501.405	10528.08
501.774	10541.64
502.143	10581.42
502.512	10597.01
502.88	10725.14
503.249	10734.18
503.618	10763.56
503.987	10781.41
504.356	10870.22
504.724	10856.21
505.093	10983.21
505.462	10951.8
505.83	11038.35
506.199	11118.58
506.567	11191.8
506.936	11122.42
507.304	11277.22
507.672	11237.22
508.041	11309.53
508.409	11368.74
508.777	11502.75
509.145	11413.26
509.514	11481.05
509.882	11561.73
510.25	11494.61
510.618	11516.31
510.986	11609.19
511.354	11696.87
511.722	11719.24
512.09	11760.82
512.458	11681.95
512.826	11777.77
513.193	11864.32
513.561	11834.04
513.929	11842.4
514.297	11935.28
514.664	11891.21
515.032	11966.69
515.4	12116.74
515.767	12008.95
516.135	12100.47
516.502	11975.5
516.869	12115.16
517.237	12029.74
517.604	12058.67
517.972	12115.61
518.339	12109.51
518.706	12149.74
519.073	12152
519.44	12199.68
519.808	12297.53
520.175	12157.19
520.542	12310.18
520.909	12303.18
521.276	12286.68
521.643	12276.51
522.009	12268.15
522.376	12363.97
522.743	12413.01
523.11	12489.16
523.477	12515.15
523.843	12596.5
524.21	12572.32
524.577	12609.61
524.943	12613
525.31	12591.99
525.676	12645.54
526.043	12655.94
526.409	12664.75
526.776	12738.87
527.142	12744.75
527.508	12728.93
527.874	12747.69
528.241	12745.65
528.607	12710.4
528.973	12756.5
529.339	12688.25
529.705	12688.71
530.071	12695.49
530.437	12741.81
530.803	12689.38
531.169	12715.6
531.535	12606
531.901	12514.02
532.267	12613.91
532.632	12631.98
532.998	12544.08
533.364	12636.73
533.73	12487.58
534.095	12520.8
534.461	12610.74
534.826	12547.24
535.192	12530.52
535.557	12562.38
535.923	12405.32
536.288	12411.88
536.653	12423.18
537.019	12291.88
537.384	12312.44
537.749	12291.2
538.114	12266.34
538.479	12096.18
538.845	12189.28
539.21	12161.26
539.575	12097.99
539.94	12048.5
540.305	12107.7
540.67	12002.62
541.034	12038.33
541.399	11992.68
541.764	12016.18
542.129	11904.09
542.494	11837.65
542.858	11785
543.223	11782.52
543.587	11789.07
543.952	11702.74
544.316	11636.53
544.681	11584.33
545.045	11521.96
545.41	11564.89
545.774	11592.46
546.138	11471.56
546.503	11447.61
546.867	11418.68
547.231	11308.86
547.595	11318.12
547.959	11245.13
548.324	11174.62
548.688	11197.9
549.052	11109.99
549.416	11100.05
549.779	11081.29
550.143	11054.17
550.507	10953.84
550.871	10972.14
551.235	10938.02
551.599	10953.61
551.962	10896.44
552.326	10876.1
552.689	10811.02
553.053	10691.7
553.417	10782.77
553.78	10848.08
554.143	10635.43
554.507	10615.99
554.87	10643.11
555.234	10695.76
555.597	10606.05
555.96	10620.29
556.323	10538.93
556.686	10512.72
557.05	10585.94
557.413	10483.79
557.776	10476.11
558.139	10464.58
558.502	10449.22
558.865	10396.34
559.228	10432.27
559.59	10508.88
559.953	10430.69
560.316	10504.58
560.679	10445.15
561.041	10400.63
561.404	10332.16
561.767	10486.05
562.129	10371.48
562.492	10491.48
562.854	10378.26
563.217	10305.04
563.579	10484.7
563.941	10372.83
564.304	10371.7
564.666	10389.56
565.028	10415.55
565.39	10356.34
565.753	10408.31
566.115	10416.22
566.477	10417.13
566.839	10357.92
567.201	10425.71
567.563	10360.86
567.925	10455.32
568.287	10403.79
568.648	10403.79
569.01	10442.89
569.372	10446.05
569.734	10427.52
570.095	10511.14
570.457	10369.22
570.819	10471.82
571.18	10449.44
571.542	10453.96
571.903	10458.03
572.265	10445.15
572.626	10501.64
572.987	10411.7
573.349	10484.24
573.71	10546.39
574.071	10552.26
574.432	10510.68
574.794	10584.81
575.155	10469.33
575.516	10496.67
575.877	10605.14
576.238	10503.9
576.599	10543.45
576.96	10493.06
577.32	10527.86
577.681	10535.09
578.042	10539.84
578.403	10512.72
578.763	10549.78
579.124	10485.37
579.485	10556.78
579.845	10618.25
580.206	10540.06
580.566	10534.19
580.927	10462.78
581.287	10546.84
581.648	10508.2
582.008	10513.17
582.368	10400.4
582.728	10502.77
583.089	10455.54
583.449	10454.87
583.809	10447.63
584.169	10493.51
584.529	10423.45
584.889	10464.36
585.249	10423.68
585.609	10399.05
585.969	10484.02
586.329	10296.9
586.688	10396.34
587.048	10375.09
587.408	10289.67
587.768	10360.63
588.127	10310.69
588.487	10323.8
588.846	10408.77
589.206	10319.73
589.565	10267.53
589.925	10370.12
590.284	10331.48
590.643	10267.3
591.003	10354.3
591.362	10318.6
591.721	10253.29
592.08	10307.07
592.44	10297.36
592.799	10266.85
593.158	10226.4
593.517	10248.32
593.876	10291.03
594.235	10147.76
594.593	10230.69
594.952	10175.1
595.311	10194.53
595.67	10180.07
596.029	10231.82
596.387	10252.16
596.746	10214.19
597.104	10201.77
597.463	10138.26
597.822	10178.94
598.18	10178.72
598.538	10157.7
598.897	10164.25
599.255	10120.19
599.613	10177.36
599.972	10194.76
600.33	10117.25
600.688	10104.59
601.046	10087.64
601.404	10152.73
601.762	10142.78
602.12	10261.88
602.478	10218.94
602.836	10133.74
603.194	10093.97
603.552	10219.39
603.91	10105.27
604.268	10204.25
604.625	10109.79
604.983	10165.38
605.341	10088.77
605.698	10140.75
606.056	10147.98
606.413	10089.68
606.771	10110.24
607.128	10155.44
607.485	10065.5
607.843	10146.85
608.2	10102.56
608.557	10217.13
608.914	10172.84
609.272	10216.91
609.629	10195.66
609.986	10209.68
610.343	10171.71
610.7	10254.65
611.057	10243.12
611.414	10268.2
611.771	10218.94
612.127	10208.55
612.484	10274.31
612.841	10243.8
613.198	10233.18
613.554	10229.11
613.911	10322.67
614.267	10328.77
614.624	10278.37
614.98	10237.7
615.337	10300.07
615.693	10242.44
616.05	10273.18
616.406	10284.7
616.762	10251.71
617.118	10265.94
617.475	10244.93
617.831	10357.02
618.187	10306.17
618.543	10344.36
618.899	10387.52
619.255	10315.43
619.611	10384.36
619.967	10387.75
620.323	10420.74
620.678	10383.91
621.034	10341.65
621.39	10359.05
621.746	10322.21
622.101	10465.94
622.457	10353.17
622.812	10397.47
623.168	10394.98
623.523	10386.39
623.879	10391.37
624.234	10315.21
624.589	10465.04
624.945	10354.53
625.3	10406.96
625.655	10361.31
626.01	10385.26
626.365	10355.89
626.72	10358.37
627.075	10379.61
627.43	10338.49
627.785	10271.14
628.14	10399.73
628.495	10260.97
628.85	10416.9
629.205	10285.61
629.559	10417.13
629.914	10300.29
630.269	10291.71
630.623	10259.84
630.978	10283.12
631.332	10287.87
631.687	10386.39
632.041	10187.08
632.396	10276.34
632.75	10312.72
633.104	10209.9
633.459	10165.38
633.813	10166.06
634.167	10203.57
634.521	10193.4
634.875	10179.39
635.229	10154.08
635.583	10053.52
635.937	10079.06
636.291	10098.49
636.645	10158.6
636.999	10098.49
637.352	10079.06
637.706	10018.27
638.06	10012.62
638.413	10068.44
638.767	9978.04
639.121	9974.65
639.474	9890.36
639.828	9967.87
640.181	9908.67
640.534	9962.68
640.888	9959.29
641.241	9868.44
641.594	9909.57
641.947	9937.37
642.301	9917.48
642.654	9923.13
643.007	9904.15
643.36	9893.3
643.713	9837.48
644.066	9904.82
644.419	9851.72
644.771	9776.01
645.124	9709.12
645.477	9668.67
645.83	9679.75
646.182	9594.55
646.535	9606.53
646.888	9552.74
647.24	9507.09
647.593	9502.35
647.945	9521.11
648.298	9438.85
648.65	9463.25
649.002	9471.84
649.355	9503.7
649.707	9468.45
650.059	9519.98
650.411	9662.57
650.763	9685.4
651.115	9752.29
651.467	9743.25
651.819	9761.33
652.171	9734.89
652.523	9700.08
652.875	9710.03
653.227	9669.8
653.578	9752.51
653.93	9749.57
654.282	9675.45
654.633	9705.06
654.985	9718.84
655.337	9773.98
655.688	9702.8
656.039	9756.13
656.391	9637.49
656.742	9689.24
657.094	9726.52
657.445	9784.38
657.796	9693.08
658.147	9704.38
658.498	9733.98
658.849	9753.42
659.2	9701.67
659.551	9667.99
659.902	9770.36
660.253	9750.03
660.604	9808.33
660.955	9704.6
661.306	9761.55
661.656	9771.27
662.007	9742.34
662.358	9735.79
662.708	9784.6
663.059	9740.31
663.409	9707.32
663.76	9764.04
664.11	9728.56
664.461	9730.82
664.811	9803.81
665.161	9813.53
665.511	9716.58
665.862	9809.46
666.212	9858.05
666.562	9825.5
666.912	9812.17
667.262	9815.79
667.612	9834.09
667.962	9744.83
668.312	9778.05
668.662	9894.66
669.011	9783.92
669.361	9765.17
669.711	9751.83
670.06	9799.52
670.41	9712.96
670.76	9760.87
671.109	9764.72
671.459	9731.04
671.808	9725.39
672.157	9788.67
672.507	9658.05
672.856	9635.45
673.205	9675.9
673.554	9752.74
673.904	9652.4
674.253	9758.39
674.602	9672.97
674.951	9548.9
675.3	9509.81
675.649	9642.68
675.998	9615.79
676.346	9589.35
676.695	9642.01
677.044	9589.58
677.393	9606.98
677.741	9639.75
678.09	9582.8
678.438	9569.92
678.787	9542.35
679.135	9540.99
679.484	9462.58
679.832	9514.78
680.181	9404.27
680.529	9422.58
680.877	9419.64
681.225	9468.45
681.573	9534.89
681.922	9404.72
682.27	9363.14
682.618	9425.29
682.966	9405.85
683.314	9395.91
683.661	9308.68
684.009	9247.67
684.357	9323.82
684.705	9240.89
685.053	9224.62
685.4	9227.78
685.748	9243.15
686.095	9186.65
686.443	9113.21
686.79	9139.87
687.138	9198.63
687.485	9139.19
687.832	9106.43
688.18	9114.56
688.527	9039.08
688.874	9054.23
689.221	8965.87
689.568	8957.96
689.915	8870.28
690.262	8953.66
690.609	8917.05
690.956	8810.39
691.303	8898.75
691.65	8817.4
691.997	8813.55
692.344	8724.74
692.69	8782.59
693.037	8703.73
693.383	8669.6
693.73	8647
694.077	8597.51
694.423	8560
694.769	8540.11
695.116	8541.92
695.462	8477.07
695.808	8465.31
696.155	8535.14
696.501	8420.8
696.847	8394.36
697.193	8308.26
697.539	8372.21
697.885	8287.24
698.231	8193
698.577	8276.17
698.923	8212.89
699.269	8152.78
699.614	8126.34
699.96	8167.92
700.306	8157.53
700.651	8068.94
700.997	8081.6
701.342	8031.43
701.688	8058.55
702.033	7958.43
702.379	7978.77
702.724	7903.07
703.069	7919.57
703.415	7871.66
703.76	7830.3
704.105	7804.77
704.45	7851.54
704.795	7785.11
705.14	7708.5
705.485	7644.54
705.83	7647.26
706.175	7686.35
706.52	7637.99
706.865	7536.52
707.209	7541.72
707.554	7511.89
707.899	7579.24
708.243	7465.11
708.588	7487.26
708.932	7402.74
709.277	7402.29
709.621	7453.14
709.966	7383.99
710.31	7395.51
710.654	7349.41
710.998	7358
711.342	7283.42
711.687	7340.37
712.031	7305.34
712.375	7204.33
712.719	7246.82
713.063	7237.32
713.407	7239.58
713.75	7198.91
714.094	7213.6
714.438	7179.02
714.782	7180.83
715.125	7124.33
715.469	7209.08
715.812	7092.02
716.156	7096.54
716.499	7123.2
716.843	7142.86
717.186	7066.25
717.53	7108.74
717.873	7073.71
718.216	7089.31
718.559	6985.35
718.902	7033.04
719.246	6964.34
719.589	6976.77
719.932	6965.24
720.275	7004.11
720.617	6966.37
720.96	6924.56
721.303	6958.46
721.646	6944.68
721.989	6833.27
722.331	6939.48
722.674	6853.83
723.016	6922.98
723.359	6899.48
723.701	6918.91
724.044	6836.43
724.386	6841.18
724.729	6864
725.071	6872.14
725.413	6854.96
725.755	6859.03
726.097	6828.75
726.439	6816.54
726.782	6775.19
727.124	6841.85
727.465	6797.11
727.807	6814.28
728.149	6760.5
728.491	6758.24
728.833	6808.86
729.175	6748.75
729.516	6795.75
729.858	6741.97
730.199	6753.27
730.541	6777.9
730.882	6712.82
731.224	6767.73
731.565	6777.45
731.906	6788.07
732.248	6745.36
732.589	6712.59
732.93	6726.38
733.271	6769.54
733.612	6733.38
733.953	6735.19
734.294	6744.91
734.635	6716.66
734.976	6727.05
735.317	6684.34
735.658	6771.35
735.999	6807.96
736.339	6719.37
736.68	6771.8
737.021	6782.19
737.361	6764.12
737.702	6823.32
738.042	6833.04
738.383	6768.86
738.723	6844.11
739.063	6790.33
739.404	6798.69
739.744	6837.11
740.084	6792.82
740.424	6802.76
740.764	6898.58
741.104	6887.05
741.444	6886.37
741.784	6925.24
742.124	6947.61
742.464	6922.76
742.804	6984.68
743.143	6941.74
743.483	6956.2
743.823	7000.27
744.162	6966.6
744.502	7103.54
744.841	7027.16
745.181	7111.23
745.52	7083.43
745.86	7137.21
746.199	7180.38
746.538	7194.16
746.877	7280.71
747.216	7354.61
747.556	7350.54
747.895	7424.44
748.234	7448.84
748.573	7460.82
748.911	7555.96
749.25	7617.43
749.589	7645
749.928	7712.11
750.267	7786.24
750.605	7867.82
750.944	7895.39
751.283	7961.6
751.621	8118.2
751.96	8145.77
752.298	8214.25
752.636	8309.84
752.975	8375.6
753.313	8469.16
753.651	8630.73
753.989	8701.24
754.327	8774.68
754.666	8881.35
755.004	8953.44
755.342	9076.82
755.679	9276.37
756.017	9269.36
756.355	9490.37
756.693	9591.61
757.031	9710.25
757.368	9803.36
757.706	9989.57
758.044	10114.08
758.381	10284.7
758.719	10367.64
759.056	10566.05
759.394	10722.88
759.731	10777.12
760.068	11061.86
760.405	11083.78
760.743	11244.45
761.08	11472.24
761.417	11556.53
761.754	11857.32
762.091	11959.23
762.428	12060.25
762.765	12223.18
763.102	12479.67
763.438	12560.57
763.775	12693
764.112	12977.96
764.449	13098.64
764.785	13251.4
765.122	13345.86
765.458	13528.46
765.795	13687.32
766.131	13840.77
766.467	13954.44
766.804	14156.24
767.14	14151.04
767.476	14408.66
767.812	14419.73
768.148	14784.24
768.485	14697.92
768.821	14836.22
769.157	14948.31
769.492	15062.88
769.828	15272.14
770.164	15352.14
770.5	15544.22
770.836	15608.63
771.171	15645.46
771.507	15747.16
771.842	15803.2
772.178	16057.2
772.513	16066.92
772.849	16123.42
773.184	16170.65
773.519	16299.23
773.855	16359.12
774.19	16418.78
774.525	16433.69
774.86	16668.04
775.195	16645.44
775.53	16662.61
775.865	16724.98
776.2	16744.19
776.535	16716.85
776.87	16835.04
777.205	16901.02
777.539	16800.69
777.874	16991.64
778.209	16939.89
778.543	17035.03
778.878	16994.36
779.212	17042.94
779.547	17026.44
779.881	17192.09
780.215	17123.39
780.55	17170.17
780.884	17197.74
781.218	17220.56
781.552	17149.38
781.886	17139.66
782.22	17113.9
782.554	17212.43
782.888	17097.18
783.222	17223.5
783.556	17205.2
783.889	17215.82
784.223	17067.35
784.557	17209.04
784.89	17242.71
785.224	17112.54
785.557	17043.62
785.891	17071.42
786.224	17109.15
786.558	17163.84
786.891	16891.31
787.224	17016.28
787.557	16980.8
787.891	17077.52
788.224	16972.89
788.557	17073
788.89	16927.92
789.223	17042.49
789.556	16888.6
789.888	16913.68
790.221	16913.91
790.554	16835.04
790.887	16851.99
791.219	16718.88
791.552	16722.5
791.884	16658.77
792.217	16659.22
792.549	16706.91
792.882	16517.98
793.214	16541.94
793.546	16675.95
793.879	16528.83
794.211	16536.29
794.543	16608.15
794.875	16482.28
795.207	16569.06
795.539	16514.37
795.871	16541.94
796.203	16315.05
796.535	16283.87
796.867	16287.03
797.198	16214.49
797.53	16222.62
797.862	16083.87
798.193	16222.17
798.525	16071.67
798.856	16094.49
799.188	16042.74
799.519	15926.81
799.85	15857.89
800.182	15941.95
800.513	15927.04
800.844	15740.83
801.175	15857.21
801.506	15867.38
801.837	15840.94
802.168	15731.56
802.499	15693.82
802.83	15689.3
803.161	15586.03
803.491	15640.72
803.822	15591.45
804.153	15508.29
804.483	15475.98
804.814	15388.3
805.145	15381.06
805.475	15299.03
805.805	15246.15
806.136	15261.75
806.466	15392.14
806.796	15313.27
807.126	15235.08
807.457	15176.55
807.787	15191.69
808.117	15054.07
808.447	15067.85
808.777	15042.77
809.107	15055.2
809.436	14907.18
809.766	14933.84
810.096	14862.66
810.426	14876.9
810.755	14815.66
811.085	14745.6
811.414	14823.11
811.744	14684.59
812.073	14739.27
812.403	14685.94
812.732	14632.16
813.061	14581.54
813.39	14517.58
813.719	14505.38
814.049	14624.47
814.378	14512.16
814.707	14517.13
815.036	14460.18
815.365	14435.55
815.693	14293.64
816.022	14341.54
816.351	14204.6
816.68	14242.11
817.008	14278.95
817.337	14213.86
817.665	14144.71
817.994	14194.2
818.322	14193.53
818.651	14148.78
818.979	14043.47
819.307	14139.74
819.636	14011.61
819.964	14011.83
820.292	14093.64
820.62	14053.19
820.948	13972.74
821.276	14041.21
821.604	14024.49
821.932	14059.29
822.259	14112.85
822.587	14024.72
822.915	13984.94
823.243	13980.42
823.57	13992.85
823.898	14027.65
824.225	13955.57
824.553	13923.02
824.88	14008.45
825.207	14000.31
825.535	13934.1
825.862	14032.63
826.189	13978.62
826.516	14045.73
826.843	14069.91
827.17	14031.27
827.497	14051.16
827.824	14053.42
828.151	14059.07
828.478	14008.67
828.805	14092.06
829.131	14026.52
829.458	14003.02
829.785	14009.8
830.111	13979.52
830.438	14098.16
830.764	14015.68
831.09	14095.22
831.417	13986.52
831.743	14091.15
832.069	14111.95
832.395	13974.77
832.722	13882.35
833.048	13973.19
833.374	13938.62
833.7	13913.76
834.026	13924.38
834.351	13928.45
834.677	13867.66
835.003	13895.45
835.329	13895.91
835.654	13818.85
835.98	13875.12
836.306	13800.32
836.631	13806.42
836.956	13843.25
837.282	13786.3
837.607	13770.71
837.932	13790.37
838.258	13747.89
838.583	13723.48
838.908	13619.08
839.233	13721.67
839.558	13624.5
839.883	13603.26
840.208	13619.98
840.533	13639.42
840.858	13632.41
841.182	13544.95
841.507	13601.68
841.832	13413.88
842.156	13363.72
842.481	13416.6
842.805	13444.62
843.13	13402.59
843.454	13357.16
843.778	13311.51
844.103	13168.24
844.427	13237.62
844.751	13303.61
845.075	13203.27
845.399	13151.29
845.723	13090.96
846.047	13079.88
846.371	13074.46
846.695	13013.44
847.019	12903.16
847.343	12919.89
847.666	12775.26
847.99	12734.35
848.313	12722.38
848.637	12718.99
848.96	12668.37
849.284	12607.13
849.607	12526
849.931	12478.77
850.254	12367.13
850.577	12383.63
850.9	12152.22
851.223	12229.06
851.546	12151.32
851.869	12102.05
852.192	12133.69
852.515	12033.13
852.838	12033.36
853.161	12013.7
853.483	11953.58
853.806	11820.48
854.129	11833.36
854.451	11831.1
854.774	11733.48
855.096	11724.21
855.419	11680.14
855.741	11640.15
856.063	11600.6
856.385	11605.12
856.708	11536.87
857.03	11495.97
857.352	11448.74
857.674	11435.63
857.996	11410.55
858.318	11387.5
858.64	11302.75
858.961	11306.37
859.283	11368.29
859.605	11171.91
859.926	11229.54
860.248	11232.47
860.57	11178.92
860.891	11140.95
861.212	11150.89
861.534	11116.09
861.855	11074.29
862.176	11060.27
862.498	11078.13
862.819	11038.13
863.14	11029.09
863.461	11008.52
863.782	10929.2
864.103	10977.11
864.424	10924.46
864.745	10928.53
865.065	10875.19
865.386	10781.41
865.707	10813.73
866.027	10773.73
866.348	10753.84
866.668	10795.87
866.989	10740.51
867.309	10753.39
867.63	10736.67
867.95	10673.17
868.27	10645.82
868.59	10643.34
868.91	10655.31
869.23	10635.88
869.55	10572.38
869.87	10608.99
870.19	10562.89
870.51	10587.29
870.83	10612.6
871.15	10515.88
871.469	10504.58
871.789	10564.47
872.109	10507.07
872.428	10413.06
872.748	10505.49
873.067	10443.79
873.386	10383.46
873.706	10383.23
874.025	10379.61
874.344	10302.1
874.663	10392.04
874.982	10295.32
875.301	10400.63
875.62	10343
875.939	10241.76
876.258	10225.27
876.577	10240.18
876.896	10248.54
877.214	10230.92
877.533	10196.34
877.852	10202.67
878.17	10182.33
878.489	10186.85
878.807	10156.34
879.125	10117.93
879.444	10129.68
879.762	10051.94
880.08	10067.53
880.398	10012.62
880.716	9985.95
881.034	10015.56
881.352	10030.47
881.67	9957.03
881.988	9877.03
882.306	9919.74
882.624	9889.68
882.941	9893.3
883.259	9796.35
883.577	9765.84
883.894	9820.76
884.212	9714.32
884.529	9764.26
884.846	9731.04
885.164	9660.99
885.481	9670.71
885.798	9665.06
886.115	9581.44
886.432	9583.7
886.75	9559.97
887.067	9657.83
887.383	9520.2
887.7	9590.26
888.017	9510.71
888.334	9508.68
888.651	9512.52
888.967	9472.97
889.284	9419.41
889.6	9377.38
889.917	9324.5
890.233	9343.03
890.55	9348
890.866	9247.89
891.182	9291.28
891.498	9202.24
891.815	9160.66
892.131	9174.9
892.447	9184.84
892.763	9118.86
893.079	9022.14
893.395	9094.22
893.71	9063.49
894.026	8990.5
894.342	9000.22
894.657	8862.59
894.973	8884.06
895.289	8953.66
895.604	8963.38
895.92	8778.75
896.235	8756.61
896.55	8749.6
896.865	8755.25
897.181	8723.84
897.496	8725.65
897.811	8687.91
898.126	8597.97
898.441	8619.66
898.756	8538.53
899.071	8564.52
899.386	8585.31
899.7	8470.06
900.015	8439.1
900.33	8369.27
900.644	8314.13
900.959	8354.13
901.273	8350.06
901.588	8313.68
901.902	8232.78
902.216	8258.31
902.531	8185.55
902.845	8198.2
903.159	8157.53
903.473	8106.45
903.787	8062.16
904.101	7991.43
904.415	8111.88
904.729	7889.51
905.042	7934.03
905.356	7893.35
905.67	7872.56
905.984	7876.86
906.297	7852
906.611	7769.06
906.924	7837.31
907.237	7780.59
907.551	7695.62
907.864	7749.4
908.177	7626.69
908.491	7612
908.804	7618.56
909.117	7519.35
909.43	7422.86
909.743	7471.22
910.056	7393.25
910.368	7442.52
910.681	7387.83
910.994	7386.25
911.307	7301.5
911.619	7249.07
911.932	7295.63
912.244	7222.18
912.557	7247.95
912.869	7176.53
913.181	7157.1
913.494	7079.59
913.806	7072.58
914.118	7019.93
914.43	6953.72
914.742	7061.28
915.054	7001.62
915.366	6940.83
915.678	6966.82
915.99	6900.38
916.302	6863.32
916.613	6815.64
916.925	6793.95
917.236	6808.18
917.548	6786.94
917.859	6744
918.171	6692.25
918.482	6687.28
918.794	6655.87
919.105	6649.99
919.416	6623.78
919.727	6585.36
920.038	6544.91
920.349	6472.37
920.66	6516.89
920.971	6500.39
921.282	6426.72
921.593	6420.17
921.903	6389.66
922.214	6399.15
922.525	6344.24
922.835	6325.71
923.146	6274.86
923.456	6246.84
923.767	6200.74
924.077	6214.98
924.387	6141.53
924.697	6178.59
925.008	6199.84
925.318	6085.94
925.628	6123.23
925.938	6070.12
926.248	6011.82
926.558	5971.82
926.867	5989.22
927.177	5946.06
927.487	5932.27
927.796	5905.61
928.106	5861.99
928.416	5875.55
928.725	5877.36
929.034	5802.79
929.344	5800.98
929.653	5799.85
929.962	5723.24
930.271	5716.23
930.581	5694.99
930.89	5651.15
931.199	5604.82
931.508	5682.11
931.817	5653.41
932.125	5609.34
932.434	5612.28
932.743	5532.96
933.051	5485.96
933.36	5467.43
933.669	5490.48
933.977	5455
934.286	5478.05
934.594	5456.58
934.902	5409.58
935.21	5338.84
935.519	5387.2
935.827	5316.02
936.135	5273.99
936.443	5229.47
936.751	5262.69
937.059	5280.99
937.367	5200.77
937.674	5214.55
937.982	5204.61
938.29	5152.63
938.597	5128.9
938.905	5065.63
939.213	5067.66
939.52	5056.36
939.827	5030.83
940.135	5050.94
940.442	4979.3
940.749	4942.02
941.056	4970.04
941.363	4938.18
941.67	4944.28
941.977	4901.57
942.284	4840.32
942.591	4872.64
942.898	4834.9
943.205	4844.62
943.511	4770.5
943.818	4778.41
944.125	4748.58
944.431	4757.16
944.738	4701.35
945.044	4668.58
945.35	4683.94
945.657	4639.65
945.963	4615.47
946.269	4584.51
946.575	4568.47
946.881	4555.81
947.187	4548.35
947.493	4563.27
947.799	4534.12
948.105	4479.88
948.41	4434.23
948.716	4473.78
949.022	4437.62
949.327	4431.75
949.633	4309.27
949.938	4353.56
950.244	4356.04
950.549	4330.28
950.854	4350.39
951.16	4337.74
951.465	4268.14
951.77	4245.31
952.075	4270.62
952.38	4212.54
952.685	4227.01
952.99	4190.62
953.294	4207.12
953.599	4140.46
953.904	4130.51
954.209	4156.05
954.513	4111.98
954.818	4097.75
955.122	4055.71
955.426	4058.88
955.731	4034.02
956.035	3991.99
956.339	3932.1
956.643	3999.89
956.948	3994.25
957.252	3971.2
957.556	3951.53
957.86	3921.93
958.163	3928.71
958.467	3870.86
958.771	3869.95
959.075	3896.39
959.378	3826.57
959.682	3795.15
959.985	3810.07
960.289	3774.59
960.592	3756.74
960.896	3741.37
961.199	3754.03
961.502	3737.08
961.805	3703.86
962.108	3686.91
962.411	3685.33
962.714	3661.37
963.017	3639.45
963.32	3614.14
963.623	3579.57
963.926	3625.44
964.228	3600.81
964.531	3524.88
964.833	3580.47
965.136	3530.53
965.438	3503.18
965.741	3473.13
966.043	3472
966.345	3499.34
966.648	3466.58
966.95	3476.52
967.252	3419.12
967.554	3456.63
967.856	3397.2
968.158	3378.67
968.46	3375.28
968.761	3383.64
969.063	3347.48
969.365	3332.79
969.666	3356.75
969.968	3266.58
970.269	3302.96
970.571	3271.33
970.872	3249.86
971.174	3233.81
971.475	3213.25
971.776	3192.91
972.077	3206.7
972.378	3200.59
972.679	3174.38
972.98	3129.64
973.281	3127.38
973.582	3153.82
973.883	3121.5
974.183	3100.48
974.484	3104.33
974.785	3083.08
975.085	3078.79
975.386	3078.34
975.686	3052.12
975.986	2987.49
976.287	3027.04
976.587	2952.69
976.887	2993.37
977.187	2997.89
977.487	2940.94
977.787	2918.79
978.087	2907.27
978.387	2911.11
978.687	2914.27
978.987	2871.79
979.286	2886.7
979.586	2863.88
979.885	2821.62
980.185	2809.64
980.484	2808.06
980.784	2813.26
981.083	2801.96
981.382	2794.5
981.682	2786.37
981.981	2755.41
982.28	2706.6
982.579	2741.62
982.878	2739.14
983.177	2691
983.475	2750.66
983.774	2707.5
984.073	2681.06
984.372	2658.01
984.67	2675.86
984.969	2657.11
985.267	2657.11
985.566	2585.47
985.864	2572.14
986.162	2571.91
986.461	2613.26
986.759	2555.19
987.057	2572.36
987.355	2541.63
987.653	2535.07
987.951	2513.83
988.249	2546.6
988.547	2489.43
988.844	2490.1
989.142	2474.06
989.44	2448.75
989.737	2498.24
990.035	2452.82
990.332	2443.33
990.63	2451.91
990.927	2424.34
991.224	2431.57
991.521	2399.03
991.819	2377.34
992.116	2392.71
992.413	2359.71
992.71	2354.06
993.006	2348.64
993.303	2317.91
993.6	2331.69
993.897	2307.51
994.193	2309.77
994.49	2298.92
994.787	2282.88
995.083	2252.14
995.379	2273.16
995.676	2250.11
995.972	2244.01
996.268	2204.69
996.565	2211.47
996.861	2204.69
997.157	2179.6
997.453	2184.35
997.749	2202.43
998.044	2135.09
998.34	2163.56
998.636	2130.11
998.932	2098.48
999.227	2124.01
999.523	2095.54
999.818	2105.03
1000.114	2080.17
1000.409	2054.64
1000.704	2082.66
1001	2044.47
1001.295	2033.62
1001.59	2011.47
1001.885	2025.26
1002.18	2010.12
1002.475	1991.36
1002.77	1987.07
1003.065	1937.8
1003.359	1974.19
1003.654	1942.77
1003.949	1930.34
1004.243	1942.1
1004.538	1903.45
1004.832	1905.03
1005.127	1906.84
1005.421	1874.3
1005.715	1872.72
1006.009	1871.36
1006.304	1868.2
1006.598	1854.41
1006.892	1823.45
1007.186	1829.78
1007.48	1818.26
1007.773	1809.44
1008.067	1792.72
1008.361	1797.24
1008.655	1773.06
1008.948	1749.33
1009.242	1793.63
1009.535	1749.56
1009.829	1733.74
1010.122	1719.73
1010.415	1710.46
1010.708	1722.44
1011.001	1698.03
1011.295	1676.79
1011.588	1699.39
1011.881	1678.83
1012.173	1632.73
1012.466	1629.11
1012.759	1633.18
1013.052	1643.12
1013.344	1663.23
1013.637	1599.05
1013.93	1592.73
1014.222	1607.64
1014.514	1590.01
1014.807	1571.71
1015.099	1567.64
1015.391	1546.17
1015.683	1551.15
1015.976	1540.3
1016.268	1533.74
1016.56	1501.2
1016.851	1504.37
1017.143	1514.08
1017.435	1491.49
1017.727	1477.25
1018.018	1460.3
1018.31	1479.51
1018.602	1457.81
1018.893	1431.6
1019.185	1418.72
1019.476	1379.4
1019.767	1423.92
1020.058	1419.4
1020.35	1389.57
1020.641	1401.09
1020.932	1373.07
1021.223	1349.34
1021.514	1352.51
1021.804	1344.6
1022.095	1355.67
1022.386	1322.68
1022.677	1329
1022.967	1314.54
1023.258	1321.77
1023.548	1307.76
1023.839	1304.15
1024.129	1292.62
1024.419	1273.64
1024.709	1250.81
1025	1247.42
1025.29	1273.41
1025.58	1225.96
1025.87	1224.15
1026.16	1235.67
1026.449	1222.34
1026.739	1218.73
1027.029	1199.74
1027.319	1194.77
1027.608	1182.34
1027.898	1183.92
1028.187	1170.59
1028.477	1182.79
1028.766	1191.83
1029.055	1150.48
1029.344	1145.73
1029.634	1134.43
1029.923	1138.95
1030.212	1137.6
1030.501	1098.5
1030.79	1091.27
1031.078	1111.38
1031.367	1097.82
1031.656	1073.19
1031.945	1086.07
1032.233	1077.26
1032.522	1098.95
1032.81	1074.32
1033.099	1035
1033.387	1055.57
1033.675	1031.84
1033.963	1033.42
1034.251	1031.39
1034.54	1010.82
1034.828	1041.33
1035.116	981.9
1035.403	1002.69
1035.691	996.13
1035.979	989.35
1036.267	980.09
1036.554	980.31
1036.842	966.53
1037.129	968.79
1037.417	964.49
1037.704	960.2
1037.992	950.48
1038.279	969.01
1038.566	937.6
1038.853	937.6
1039.14	937.6
