Data from hue_350_FLMS001491_46.txt Node
Date: Mon Feb 06 15:38:05 GMT 2017
User: dcchb
Spectrometer: FLMS00149
Trigger mode: 0
Integration Time (sec): 2.000000E-2
Scans to average: 10
Electric dark correction enabled: true
Nonlinearity correction enabled: false
Boxcar width: 0
XAxis mode: Wavelengths
Number of Pixels in Spectrum: 2048
>>>>>Begin Spectral Data<<<<<
341.393	-18.22
341.776	-18.22
342.16	-18.22
342.543	-79.46
342.927	-76.3
343.31	-76.75
343.693	-74.72
344.077	-68.84
344.46	-37.2
344.843	-60.03
345.226	-41.72
345.61	-40.59
345.993	-8.95
346.376	-1.5
346.759	0.99
347.142	30.37
347.525	43.25
347.908	60.42
348.291	75.11
348.674	96.58
349.057	103.58
349.44	141.1
349.823	140.42
350.206	151.49
350.588	195.56
350.971	224.26
351.354	217.03
351.737	241.21
352.119	261.32
352.502	266.74
352.884	262.68
353.267	264.03
353.65	271.49
354.032	301.55
354.414	290.02
354.797	294.09
355.179	312.62
355.562	319.85
355.944	307.2
356.326	313.75
356.709	334.31
357.091	329.79
357.473	344.48
357.855	332.05
358.238	331.15
358.62	335.22
359.002	324.6
359.384	337.7
359.766	330.25
360.148	332.51
360.53	317.14
360.912	345.16
361.294	336.35
361.676	318.95
362.057	335.44
362.439	328.89
362.821	330.02
363.203	326.18
363.584	307.42
363.966	318.49
364.348	315.78
364.729	320.53
365.111	318.49
365.493	303.58
365.874	304.03
366.256	317.14
366.637	323.01
367.019	322.79
367.4	297.93
367.781	307.87
368.163	291.38
368.544	299.74
368.925	294.31
369.306	293.18
369.688	301.09
370.069	316.23
370.45	303.35
370.831	312.39
371.212	290.7
371.593	316.91
371.974	304.26
372.355	324.6
372.736	307.65
373.117	303.58
373.498	306.74
373.879	307.2
374.26	319.17
374.641	313.52
375.021	314.43
375.402	295.67
375.783	319.62
376.163	305.61
376.544	293.41
376.925	313.07
377.305	333.41
377.686	322.56
378.066	323.47
378.447	305.16
378.827	335.9
379.208	316.23
379.588	295.67
379.968	336.57
380.349	339.28
380.729	315.78
381.109	330.47
381.489	320.08
381.87	320.98
382.25	326.63
382.63	313.75
383.01	308.55
383.39	335.67
383.77	311.71
384.15	326.86
384.53	327.76
384.91	329.34
385.29	334.09
385.67	330.02
386.049	324.6
386.429	330.25
386.809	348.1
387.189	335.44
387.568	332.51
387.948	337.93
388.328	355.33
388.707	341.09
389.087	348.1
389.466	353.52
389.846	362.11
390.225	347.65
390.605	343.58
390.984	338.83
391.363	341.32
391.743	360.08
392.122	344.93
392.501	351.71
392.881	364.82
393.26	352.39
393.639	356.46
394.018	335.67
394.397	376.57
394.776	368.44
395.155	366.85
395.534	371.83
395.913	359.62
396.292	366.18
396.671	364.59
397.05	355.1
397.429	345.39
397.808	361.88
398.186	361.21
398.565	355.56
398.944	373.63
399.323	385.61
399.701	392.62
400.08	378.83
400.458	370.7
400.837	402.56
401.215	389.68
401.594	376.57
401.972	391.94
402.351	385.61
402.729	391.03
403.107	380.64
403.486	401.66
403.864	358.95
404.242	386.97
404.62	396.91
404.999	399.4
405.377	409.79
405.755	389
406.133	398.49
406.511	391.03
406.889	400.53
407.267	430.58
407.645	417.93
408.023	431.94
408.401	407.31
408.779	416.57
409.156	429.23
409.534	417.93
409.912	404.82
410.29	434.42
410.667	412.96
411.045	430.58
411.422	432.39
411.8	451.6
412.178	453.63
412.555	435.55
412.933	450.69
413.31	456.57
413.687	453.41
414.065	462.45
414.442	477.13
414.819	476.91
415.197	474.2
415.574	458.15
415.951	456.57
416.328	462.45
416.705	497.25
417.082	485.72
417.46	501.54
417.837	505.38
418.214	501.99
418.591	478.26
418.967	495.66
419.344	487.98
419.721	497.7
420.098	507.64
420.475	514.2
420.852	505.16
421.228	483.91
421.605	510.35
421.982	544.7
422.358	523.69
422.735	532.05
423.111	528.66
423.488	534.99
423.864	545.38
424.241	527.75
424.617	563.46
424.994	544.25
425.37	547.41
425.746	553.74
426.123	554.42
426.499	576.57
426.875	566.4
427.251	576.79
427.627	577.47
428.003	586.51
428.379	575.89
428.756	583.8
429.132	611.14
429.507	595.78
429.883	608.43
430.259	636.9
430.635	607.3
431.011	612.72
431.387	627.41
431.763	629.45
432.138	641.42
432.514	634.87
432.89	634.42
433.265	647.75
433.641	660.41
434.016	667.64
434.392	669.45
434.767	678.94
435.143	665.15
435.518	680.29
435.894	669.22
436.269	668.09
436.644	704.02
437.02	705.38
437.395	696.56
437.77	710.35
438.145	715.09
438.52	727.98
438.895	723.68
439.271	711.93
439.646	759.16
440.021	746.05
440.395	759.39
440.77	769.78
441.145	738.37
441.52	754.19
441.895	754.87
442.27	754.87
442.645	768.2
443.019	751.93
443.394	773.85
443.769	797.13
444.143	786.05
444.518	780.18
444.892	774.3
445.267	779.05
445.641	793.96
446.016	794.87
446.39	785.6
446.764	800.52
447.139	808.65
447.513	812.04
447.887	827.86
448.262	811.36
448.636	813.4
449.01	830.35
449.384	831.02
449.758	837.12
450.132	849.1
450.506	826.28
450.88	873.06
451.254	833.06
451.628	851.36
452.002	841.87
452.376	861.08
452.75	885.26
453.123	864.24
453.497	882.77
453.871	901.3
454.244	916.67
454.618	909.89
454.992	918.93
455.365	909.44
455.739	915.31
456.112	954.64
456.486	956.67
456.859	953.96
457.232	962.77
457.606	969.1
457.979	1001.19
458.352	982.21
458.725	1001.19
459.099	976.33
459.472	986.73
459.845	1023.33
460.218	1035.31
460.591	1029.89
460.964	1024.92
461.337	1058.59
461.71	1080.51
462.083	1071.69
462.456	1094.97
462.829	1072.82
463.201	1093.16
463.574	1106.27
463.947	1106.27
464.32	1135.65
464.692	1157.57
465.065	1148.08
465.438	1163.67
465.81	1156.21
466.183	1194.18
466.555	1188.08
466.928	1220.62
467.3	1188.08
467.672	1217.45
468.045	1256.32
468.417	1265.59
468.789	1268.3
469.161	1294.97
469.534	1280.05
469.906	1347.62
470.278	1338.35
470.65	1342.42
471.022	1327.73
471.394	1394.4
471.766	1413.61
472.138	1406.38
472.51	1433.95
472.882	1462.65
473.253	1492.02
473.625	1471.01
473.997	1522.98
474.369	1540.61
474.74	1525.69
475.112	1587.84
475.484	1602.3
475.855	1626.48
476.227	1627.84
476.598	1664.67
476.97	1699.02
477.341	1725.24
477.713	1756.65
478.084	1755.07
478.455	1796.42
478.827	1818.57
479.198	1860.6
479.569	1867.83
479.94	1915.97
480.311	1972.24
480.682	2008.17
481.053	2010.88
481.424	2076.41
481.795	2075.28
482.166	2113.93
482.537	2150.99
482.908	2182.4
483.279	2204.77
483.65	2232.34
484.021	2294.94
484.391	2350.31
484.762	2383.07
485.133	2379.23
485.503	2414.94
485.874	2417.65
486.244	2459.46
486.615	2499
486.985	2541.26
487.356	2600.24
487.726	2604.54
488.097	2673.46
488.467	2686.34
488.837	2704.65
489.207	2764.08
489.578	2811.31
489.948	2829.39
490.318	2848.15
490.688	2900.12
491.058	2909.61
491.428	2979.67
491.798	2979.22
492.168	3016.73
492.538	3087.69
492.908	3110.51
493.278	3168.36
493.648	3161.36
494.017	3198.64
494.387	3246.55
494.757	3258.98
495.126	3297.63
495.496	3263.28
495.866	3350.51
496.235	3367.68
496.605	3372.2
496.974	3437.73
497.344	3428.7
497.713	3460.78
498.082	3465.53
498.452	3496.26
498.821	3540.78
499.19	3542.14
499.559	3567.67
499.928	3583.95
500.298	3601.12
500.667	3659.88
501.036	3661.91
501.405	3693.09
501.774	3691.06
502.143	3746.65
502.512	3751.62
502.88	3801.34
503.249	3748.91
503.618	3814.9
503.987	3834.11
504.356	3837.95
504.724	3815.35
505.093	3824.84
505.462	3893.54
505.83	3902.13
506.199	3909.59
506.567	3960.66
506.936	3960.88
507.304	4008.11
507.672	3974.44
508.041	4043.37
508.409	4044.27
508.777	4031.39
509.145	4117.49
509.514	4099.41
509.882	4100.54
510.25	4147.32
510.618	4100.77
510.986	4161.11
511.354	4202.69
511.722	4204.95
512.09	4245.85
512.458	4200.88
512.826	4217.6
513.193	4299.63
513.561	4277.71
513.929	4305.28
514.297	4302.8
514.664	4354.77
515.032	4340.08
515.4	4405.17
515.767	4379.63
516.135	4390.03
516.502	4406.07
516.869	4448.56
517.237	4463.92
517.604	4466.18
517.972	4440.42
518.339	4506.86
518.706	4457.59
519.073	4476.58
519.44	4479.06
519.808	4569.46
520.175	4529.23
520.542	4600.87
520.909	4580.53
521.276	4596.35
521.643	4642
522.009	4702.11
522.376	4678.61
522.743	4710.47
523.11	4731.49
523.477	4754.31
523.843	4770.35
524.21	4841.09
524.577	4822.33
524.943	4870.47
525.31	4849.22
525.676	4909.11
526.043	4939.84
526.409	4927.64
526.776	4972.38
527.142	4954.76
527.508	5024.13
527.874	5026.85
528.241	5042.21
528.607	5077.47
528.973	5119.5
529.339	5073.4
529.705	5114.75
530.071	5204.69
530.437	5187.97
530.803	5221.19
531.169	5203.79
531.535	5240.17
531.901	5281.3
532.267	5287.18
532.632	5301.64
532.998	5371.24
533.364	5382.77
533.73	5355.65
534.095	5395.65
534.461	5404.24
534.826	5426.61
535.192	5475.42
535.557	5458.92
535.923	5527.17
536.288	5566.49
536.653	5557.68
537.019	5550
537.384	5545.48
537.749	5611.69
538.114	5658.69
538.479	5604.01
538.845	5691.69
539.21	5697.34
539.575	5742.31
539.94	5726.26
540.305	5769.88
540.67	5783.21
541.034	5811.23
541.399	5828.18
541.764	5808.75
542.129	5897.1
542.494	5878.8
542.858	5911.57
543.223	5956.99
543.587	6002.41
543.952	5994.5
544.316	6019.81
544.681	6063.2
545.045	6104.78
545.41	6128.74
545.774	6099.36
546.138	6111.11
546.503	6154.05
546.867	6143.43
547.231	6185.23
547.595	6195.85
547.959	6287.38
548.324	6247.6
548.688	6271.56
549.052	6300.26
549.416	6350.43
549.779	6331.22
550.143	6339.58
550.507	6346.36
550.871	6445.11
551.235	6396.3
551.599	6492.12
551.962	6506.13
552.326	6496.41
552.689	6516.98
553.053	6476.07
553.417	6548.84
553.78	6572.34
554.143	6542.96
554.507	6600.82
554.87	6673.81
555.234	6704.77
555.597	6629.97
555.96	6609.63
556.323	6717.42
556.686	6696.41
557.05	6770.08
557.413	6798.55
557.776	6755.84
558.139	6817.31
558.502	6849.85
558.865	6759.91
559.228	6903.86
559.59	6959
559.953	6978.66
560.316	6998.77
560.679	6965.1
561.041	7025.89
561.404	7036.51
561.767	7117.64
562.129	7055.94
562.492	7106.56
562.854	7105.43
563.217	7151.31
563.579	7198.99
563.941	7194.7
564.304	7169.84
564.666	7265.2
565.028	7208.71
565.39	7264.07
565.753	7377.52
566.115	7421.36
566.477	7398.31
566.839	7392.21
567.201	7453.9
567.563	7394.24
567.925	7461.81
568.287	7551.3
568.648	7542.03
569.01	7557.85
569.372	7601.24
569.734	7637.85
570.095	7679.43
570.457	7711.29
570.819	7714.91
571.18	7718.53
571.542	7777.51
571.903	7822.25
572.265	7862.7
572.626	7943.38
572.987	7974.79
573.349	7919.88
573.71	8033.32
574.071	8104.73
574.432	8123.49
574.794	8220.43
575.155	8180.89
575.516	8278.96
575.877	8296.59
576.238	8381.33
576.599	8431.28
576.96	8578.84
577.32	8567.54
577.681	8704.26
578.042	8777.48
578.403	8823.36
578.763	8854.54
579.124	8988.77
579.485	9057.93
579.845	9159.17
580.206	9285.94
580.566	9346.51
580.927	9457.92
581.287	9580.4
581.648	9650.68
582.008	9791.01
582.368	9855.64
582.728	10103.1
583.089	10178.8
583.449	10350.77
583.809	10437.78
584.169	10660.6
584.529	10790.54
584.889	10963.86
585.249	11072.56
585.609	11301.26
585.969	11543.28
586.329	11643.85
586.688	11909.83
587.048	12003.84
587.408	12276.6
587.768	12401.34
588.127	12646.53
588.487	12908.22
588.846	13190.02
589.206	13401.77
589.565	13559.73
589.925	13915.88
590.284	14127.85
590.643	14442.87
591.003	14633.15
591.362	15010.31
591.721	15195.17
592.08	15392.9
592.44	15772.55
592.799	16022.49
593.158	16278.53
593.517	16470.39
593.876	16837.83
594.235	17104.49
594.593	17405.73
594.952	17651.82
595.311	17941.08
595.67	18251.81
596.029	18713.49
596.387	18955.07
596.746	19244.55
597.104	19491.32
597.463	19673.69
597.822	20126.34
598.18	20230.97
598.538	20515.48
598.897	20935.81
599.255	20992.98
599.613	21598.61
599.972	21844.26
600.33	22071.37
600.688	22228.2
601.046	22719.94
601.404	23045.58
601.762	23231.34
602.12	23646.02
602.478	23815.5
602.836	24079.23
603.194	24314.25
603.552	24539.78
603.91	24694.35
604.268	25139.31
604.625	25256.82
604.983	25586.98
605.341	25715.79
605.698	26254.54
606.056	26584.7
606.413	26563.45
606.771	26950.56
607.128	27191.01
607.485	27291.57
607.843	27543.09
608.2	27893.81
608.557	28176.29
608.914	28335.61
609.272	28683.62
609.629	28845.43
609.986	29238.41
610.343	29343.95
610.7	29557.5
611.057	29823.93
611.414	29950.48
611.771	30223.7
612.127	30498.72
612.484	30616.23
612.841	30954.07
613.198	31027.07
613.554	31142.32
613.911	31460.5
614.267	31756.54
614.624	31764.9
614.98	32091.9
615.337	32259.35
615.693	32242.17
616.05	32469.97
616.406	32782.95
616.762	32734.59
617.118	32958.31
617.475	33174.81
617.831	33328.93
618.187	33536.6
618.543	33587.45
618.899	34008.68
619.255	33987.67
619.611	34101.56
619.967	34097.95
620.323	34447.77
620.678	34408.45
621.034	34430.14
621.39	34664.26
621.746	34723.69
622.101	35148.31
622.457	34908.09
622.812	35137.47
623.168	35264.69
623.523	35317.35
623.879	35545.82
624.234	35565.25
624.589	35612.26
624.945	35693.61
625.3	35898.58
625.655	35845.24
626.01	36039.36
626.365	36053.6
626.72	36047.27
627.075	36157.55
627.43	36268.96
627.785	36301.96
628.14	36406.59
628.495	36412.46
628.85	36434.61
629.205	36533.14
629.559	36876.4
629.914	36573.36
630.269	36591.21
630.623	36695.17
630.978	36632.34
631.332	36767.48
631.687	36825.78
632.041	36766.8
632.396	36862.84
632.75	36750.53
633.104	36933.35
633.459	36777.87
633.813	36767.71
634.167	36831.88
634.521	36888.83
634.875	36984.87
635.229	37015.61
635.583	36805.44
635.937	36880.7
636.291	36856.52
636.645	36901.71
636.999	36798.44
637.352	36993.01
637.706	36707.14
638.06	36907.59
638.413	36857.19
638.767	36827.14
639.121	36811.55
639.474	36808.83
639.828	36828.49
640.181	36829.62
640.534	36923.86
640.888	36784.65
641.241	36723.41
641.594	36778.1
641.947	36872.34
642.301	36714.6
642.654	36663.53
643.007	36865.1
643.36	36781.49
643.713	36763.41
644.066	36988.26
644.419	36741.94
644.771	36502.4
645.124	36073.03
645.477	36199.81
645.83	35882.53
646.182	35828.3
646.535	35642.09
646.888	35873.49
647.24	35644.12
647.593	35851.57
647.945	35822.65
648.298	35676.89
648.65	35437.12
649.002	35461.53
649.355	35538.13
649.707	35476.44
650.059	35666.94
650.411	36134.28
650.763	36154.84
651.115	36430.99
651.467	36426.47
651.819	36388.28
652.171	36396.87
652.523	36228.74
652.875	36348.73
653.227	36075.52
653.578	36310.99
653.93	36287.94
654.282	36119.14
654.633	36191
654.985	36177.21
655.337	36139.7
655.688	36290.2
656.039	36383.76
656.391	36072.13
656.742	36069.87
657.094	36140.83
657.445	36239.36
657.796	36079.14
658.147	36104.67
658.498	36032.36
658.849	36329.07
659.2	36084.11
659.551	35943.09
659.902	36179.02
660.253	36166.82
660.604	36185.35
660.955	35988.52
661.306	36075.75
661.656	36073.26
662.007	36017.22
662.358	35978.35
662.708	35879.14
663.059	35978.35
663.409	35784
663.76	36045.01
664.11	36038.91
664.461	35993.26
664.811	35967.5
665.161	36033.26
665.511	35909.65
665.862	35842.53
666.212	36007.95
666.562	35996.2
666.912	36047.5
667.262	35921.4
667.612	36107.38
667.962	35942.87
668.312	35791.01
668.662	36120.26
669.011	36032.13
669.361	35817.22
669.711	35945.81
670.06	35737.45
670.41	35727.96
670.76	35866.03
671.109	35854.28
671.459	35853.38
671.808	35764.34
672.157	35945.13
672.507	35611.35
672.856	35699.49
673.205	35667.17
673.554	35726.15
673.904	35641.86
674.253	35798.47
674.602	35800.27
674.951	35125.04
675.3	35049.78
675.649	35654.29
675.998	35524.57
676.346	35512.82
676.695	35670.56
677.044	35439.83
677.393	35473.28
677.741	35701.07
678.09	35464.01
678.438	35353.28
678.787	35457.68
679.135	35465.82
679.484	35377.46
679.832	35353.51
680.181	35138.14
680.529	35254.75
680.877	35178.14
681.225	35135.21
681.573	35315.31
681.922	35055.89
682.27	34976.11
682.618	34869.22
682.966	34819.51
683.314	34921.88
683.661	34902.44
684.009	34733.63
684.357	34603.24
684.705	34565.05
685.053	34492.74
685.4	34540.65
685.748	34345.4
686.095	34360.31
686.443	34280.31
686.79	34160.32
687.138	34215.68
687.485	34323.7
687.832	34105.63
688.18	34278.96
688.527	34056.82
688.874	34021.34
689.221	33977.27
689.568	33869.93
689.915	33742.25
690.262	33816.82
690.609	33743.15
690.956	33598.52
691.303	33591.07
691.65	33380.22
691.997	33571.41
692.344	33288.25
692.69	33128.48
693.037	33290.96
693.383	32903.85
693.73	33030.85
694.077	32930.52
694.423	32870.63
694.769	32793.57
695.116	32635.38
695.462	32544.99
695.808	32501.6
696.155	32580.47
696.501	32405.11
696.847	32324.21
697.193	32050.32
697.539	32195.85
697.885	31998.57
698.231	31883.99
698.577	31994.5
698.923	31855.07
699.269	31716.09
699.614	31559.25
699.96	31493.27
700.306	31499.6
700.651	31347.96
700.997	31315.42
701.342	31365.36
701.688	31226.38
702.033	31112.04
702.379	31044.92
702.724	30957.24
703.069	30916.79
703.415	30767.41
703.76	30791.59
704.105	30638.38
704.45	30582.78
704.795	30339.4
705.14	30353.86
705.485	30358.61
705.83	30211.95
706.175	30250.14
706.52	30255.56
706.865	30108.22
707.209	30164.94
707.554	30004.27
707.899	30093.98
708.243	29743.03
708.588	29816.7
708.932	29674.56
709.277	29463.49
709.621	29669.59
709.966	29460.33
710.31	29531.96
710.654	29397.05
710.998	29252.42
711.342	29294.68
711.687	29260.56
712.031	29023.5
712.375	28994.58
712.719	29028.47
713.063	28972.2
713.407	29038.64
713.75	28839.1
714.094	28804.98
714.438	28711.65
714.782	28778.99
715.125	28568.6
715.469	28628.03
715.812	28506.91
716.156	28444.76
716.499	28358.44
716.843	28329.28
717.186	28280.92
717.53	28410.86
717.873	28295.84
718.216	28341.71
718.559	28071.44
718.902	28036.64
719.246	28163.64
719.589	27882.29
719.932	27857.21
720.275	27954.15
720.617	27832.57
720.96	27774.27
721.303	27738.34
721.646	27779.02
721.989	27591.68
722.331	27690.43
722.674	27556.65
723.016	27556.65
723.359	27537.21
723.701	27563.43
724.044	27323.66
724.386	27277.33
724.729	27346.26
725.071	27249.76
725.413	27270.55
725.755	27199.82
726.097	27197.79
726.439	27030.79
726.782	26918.92
727.124	27098.13
727.465	26881.41
727.807	26974.74
728.149	26964.57
728.491	26830.57
728.833	26886.16
729.175	26719.38
729.516	26635.54
729.858	26734.98
730.199	26652.27
730.541	26571.14
730.882	26508.54
731.224	26552.38
731.565	26408.43
731.906	26384.25
732.248	26470.8
732.589	26304.93
732.93	26285.27
733.271	26238.26
733.612	26284.37
733.953	26261.09
734.294	26113.3
734.635	26072.62
734.976	26178.38
735.317	25966.41
735.658	25975.45
735.999	25913.98
736.339	25952.62
736.68	26008.44
737.021	25882.79
737.361	25721.89
737.702	25909.91
738.042	25753.98
738.383	25725.28
738.723	25739.75
739.063	25698.17
739.404	25631.28
739.744	25575.46
740.084	25490.26
740.424	25517.83
740.764	25455.23
741.104	25592.63
741.444	25367.55
741.784	25243.26
742.124	25356.71
742.464	25361
742.804	25182.02
743.143	25228.12
743.483	25157.16
743.823	25064.28
744.162	25142.7
744.502	25072.65
744.841	24853.67
745.181	25131.4
745.52	24912.2
745.86	24994.23
746.199	24949.03
746.538	24875.36
746.877	24881.46
747.216	24882.14
747.556	24770.73
747.895	24801.01
748.234	24674.01
748.573	24525.99
748.911	24730.28
749.25	24610.29
749.589	24504.98
749.928	24589.72
750.267	24595.6
750.605	24473.57
750.944	24569.61
751.283	24314.47
751.621	24447.58
751.96	24239.67
752.298	24224.76
752.636	24186.79
752.975	24100.92
753.313	24001.94
753.651	24204.19
753.989	24022.5
754.327	23973.69
754.666	23800.81
755.004	23983.18
755.342	23889.85
755.679	23849.4
756.017	23669.97
756.355	23736.41
756.693	23604.21
757.031	23653.7
757.368	23540.93
757.706	23501.39
758.044	23298.91
758.381	23409.19
758.719	23329.41
759.056	23330.54
759.394	23218.68
759.731	23046.71
760.068	23116.09
760.405	22926.26
760.743	22906.83
761.08	23071.57
761.417	22847.39
761.754	22731.24
762.091	22651.24
762.428	22701.63
762.765	22526.5
763.102	22674.74
763.438	22459.38
763.775	22380.06
764.112	22271.59
764.449	22385.71
764.785	22182.55
765.122	22060.07
765.458	21932.39
765.795	22034.76
766.131	22014.42
766.467	21849.68
766.804	21733.75
767.14	21590.48
767.476	21689.46
767.812	21560.42
768.148	21591.38
768.485	21506.86
768.821	21349.13
769.157	21291.28
769.492	21298.73
769.828	21229.36
770.164	20977.39
770.5	20969.25
770.836	20966.99
771.171	20778.07
771.507	20846.77
771.842	20568.81
772.178	20615.36
772.513	20518.64
772.849	20534.91
773.184	20500.56
773.519	20454.01
773.855	20393.45
774.19	20280.91
774.525	20314.35
774.86	20146.9
775.195	20187.58
775.53	19989.39
775.865	19896.28
776.2	19799.34
776.535	19679.34
776.87	19772.22
777.205	19522.06
777.539	19543.07
777.874	19597.99
778.209	19352.8
778.543	19317.32
778.878	19218.79
779.212	19206.13
779.547	19166.81
779.881	19166.81
780.215	19000.94
780.55	19033.48
780.884	18991.9
781.218	18881.17
781.552	18914.62
781.886	18823.77
782.22	18557.79
782.554	18591.23
782.888	18428.3
783.222	18342.2
783.556	18243.9
783.889	18226.72
784.223	18074.64
784.557	18064.24
784.89	18026.28
785.224	17963.45
785.557	17911.93
785.891	17873.06
786.224	17791.93
786.558	17774.98
786.891	17609.34
787.224	17545.61
787.557	17527.08
787.891	17516.69
788.224	17446.18
788.557	17382.9
788.89	17255
789.223	17293.42
789.556	17197.82
789.888	17196.47
790.221	17032.63
790.554	17011.84
790.887	16867.44
791.219	16923.26
791.552	16935.91
791.884	16747.22
792.217	16712.87
792.549	16667.9
792.882	16630.38
793.214	16489.82
793.546	16557.84
793.879	16374.57
794.211	16369.82
794.543	16365.53
794.875	16274.91
795.207	16370.95
795.539	16222.26
795.871	16229.49
796.203	16035.6
796.535	15915.37
796.867	15924.19
797.198	15954.02
797.53	15932.1
797.862	15779.1
798.193	15777.52
798.525	15688.03
798.856	15796.51
799.188	15611.2
799.519	15455.05
799.85	15438.1
800.182	15481.26
800.513	15474.03
800.844	15344.31
801.175	15475.61
801.506	15331.21
801.837	15284.65
802.168	15257.99
802.499	15129.63
802.83	15209.85
803.161	15002.18
803.491	15039.01
803.822	15003.31
804.153	14887.38
804.483	14820.49
804.814	14722.64
805.145	14805.35
805.475	14696.2
805.805	14617.78
806.136	14621.17
806.466	14634.5
806.796	14725.57
807.126	14474.51
807.457	14483.32
807.787	14445.58
808.117	14395.64
808.447	14322.42
808.777	14286.94
809.107	14249.88
809.436	14232.48
809.766	14337.11
810.096	14143.44
810.426	14086.72
810.755	14127.62
811.085	14089.88
811.414	13968.31
811.744	13907.97
812.073	13892.37
812.403	13942.77
812.732	13848.99
813.061	13835.43
813.39	13736.22
813.719	13735.32
814.049	13865.03
814.378	13689.67
814.707	13683.79
815.036	13686.05
815.365	13630.91
815.693	13409.22
816.022	13500.07
816.351	13385.5
816.68	13378.04
817.008	13411.03
817.337	13156.35
817.665	13263.92
817.994	13228.21
818.322	13255.33
818.651	13227.08
818.979	13112.73
819.307	13214.88
819.636	13144.6
819.964	13077.71
820.292	13082
820.62	13087.88
820.948	13015.79
821.276	13142.79
821.604	12998.84
821.932	13081.1
822.259	13092.4
822.587	12959.07
822.915	13001.32
823.243	12910.93
823.57	12969.91
823.898	12919.29
824.225	12938.28
824.553	12960.42
824.88	12920.42
825.207	12926.3
825.535	12902.57
825.862	13000.87
826.189	12890.59
826.516	12989.57
826.843	13027.99
827.17	12983.7
827.497	12954.55
827.824	12957.94
828.151	12906.19
828.478	12984.15
828.805	12870.93
829.131	12907.77
829.458	12905.96
829.785	12877.71
830.111	12860.76
830.438	12928.11
830.764	12927.43
831.09	12897.82
831.417	12772.18
831.743	12931.5
832.069	12843.59
832.395	12876.13
832.722	12799.07
833.048	12869.58
833.374	12790.93
833.7	12766.75
834.026	12783.25
834.351	12768.79
834.677	12768.56
835.003	12813.53
835.329	12780.77
835.654	12693.08
835.98	12730.6
836.306	12710.26
836.631	12675.68
836.956	12654.44
837.282	12571.28
837.607	12567.21
837.932	12613.31
838.258	12522.47
838.583	12485.86
838.908	12530.15
839.233	12517.95
839.558	12480.89
839.883	12420.32
840.208	12484.28
840.533	12476.59
840.858	12431.4
841.182	12418.97
841.507	12390.04
841.832	12277.95
842.156	12277.05
842.481	12333.32
842.805	12173.55
843.13	12188.24
843.454	12264.4
843.778	12196.83
844.103	12116.38
844.427	12107.34
844.751	12097.17
845.075	12016.72
845.399	12019.88
845.723	11906.89
846.047	11953.44
846.371	11820.11
846.695	11847.23
847.019	11763.17
847.343	11772.43
847.666	11610.17
847.99	11572.21
848.313	11594.81
848.637	11527.01
848.96	11558.2
849.284	11521.36
849.607	11381.48
849.931	11395.72
850.254	11281.14
850.577	11195.72
850.9	11166.34
851.223	11181.49
851.546	11097.19
851.869	11055.16
852.192	11084.54
852.515	10937.65
852.838	10909.4
853.161	10962.73
853.483	10817.65
853.806	10832.12
854.129	10813.13
854.451	10757.77
854.774	10742.4
855.096	10725.23
855.419	10715.51
855.741	10638.68
856.063	10584.89
856.385	10572.91
856.708	10484.55
857.03	10443.65
857.352	10434.16
857.674	10451.11
857.996	10435.06
858.318	10383.54
858.64	10413.6
858.961	10289.76
859.283	10277.78
859.605	10179.48
859.926	10257.44
860.248	10173.83
860.57	10171.57
860.891	10195.75
861.212	10201.62
861.534	10064.9
861.855	10029.2
862.176	10069.42
862.498	10075.3
862.819	10091.57
863.14	10096.54
863.461	9942.87
863.782	9987.84
864.103	9938.35
864.424	9904.68
864.745	9929.54
865.065	9851.35
865.386	9900.62
865.707	9845.02
866.027	9834.4
866.348	9831.01
866.668	9787.62
866.989	9733.16
867.309	9696.78
867.63	9737.23
867.95	9664.01
868.27	9674.41
868.59	9693.16
868.91	9702.43
869.23	9666.72
869.55	9610
869.87	9680.51
870.19	9587.86
870.51	9579.72
870.83	9605.26
871.15	9577.91
871.469	9465.6
871.789	9532.72
872.109	9518.03
872.428	9471.7
872.748	9486.61
873.067	9520.74
873.386	9511.93
873.706	9417.92
874.025	9383.11
874.344	9393.51
874.663	9366.62
874.982	9439.61
875.301	9358.03
875.62	9333.62
875.939	9329.78
876.258	9327.07
876.577	9255.66
876.896	9289.78
877.214	9237.36
877.533	9251.14
877.852	9304.25
878.17	9210.92
878.489	9261.31
878.807	9190.8
879.125	9216.11
879.444	9160.52
879.762	9142.67
880.08	9139.05
880.398	9114.2
880.716	9110.13
881.034	9075.55
881.352	9083.91
881.67	9038.04
881.988	9055.44
882.306	8959.4
882.624	8978.61
882.941	8965.5
883.259	8920.08
883.577	8934.09
883.894	8870.36
884.212	8930.47
884.529	8852.96
884.846	8842.11
885.164	8854.09
885.481	8749.69
885.798	8824.94
886.115	8744.26
886.432	8743.13
886.75	8704.94
887.067	8727.54
887.383	8690.93
887.7	8700.19
888.017	8625.39
888.334	8592.18
888.651	8612.29
888.967	8578.84
889.284	8500.65
889.6	8457.26
889.917	8506.3
890.233	8423.14
890.55	8405.29
890.866	8469.01
891.182	8445.29
891.498	8383.14
891.815	8411.61
892.131	8345.4
892.447	8245.74
892.763	8277.16
893.079	8227.89
893.395	8225.41
893.71	8203.71
894.026	8206.2
894.342	8179.3
894.657	8149.93
894.973	8156.93
895.289	8069.03
895.604	8090.72
895.92	7939.99
896.235	7923.04
896.55	7996.48
896.865	7923.94
897.181	7926.66
897.496	7896.6
897.811	7885.08
898.126	7848.24
898.441	7803.04
898.756	7775.02
899.071	7723.95
899.386	7704.97
899.7	7683.05
900.015	7645.76
900.33	7631.75
900.644	7603.05
900.959	7612.77
901.273	7564.86
901.588	7526.44
901.902	7489.83
902.216	7427.46
902.531	7442.83
902.845	7381.81
903.159	7380.91
903.473	7325.09
903.787	7354.02
904.101	7323.96
904.415	7287.35
904.729	7263.85
905.042	7190.4
905.356	7113.34
905.67	7214.36
905.984	7236.28
906.297	7127.81
906.611	7114.02
906.924	7054.14
907.237	7058.66
907.551	7061.82
907.864	7003.52
908.177	6970.07
908.491	6953.57
908.804	6957.87
909.117	6906.8
909.43	6883.75
909.743	6834.48
910.056	6835.39
910.368	6784.09
910.681	6731.21
910.994	6758.55
911.307	6671.1
911.619	6685.11
911.932	6660.25
912.244	6591.78
912.557	6596.97
912.869	6585.67
913.181	6602.17
913.494	6519.46
913.806	6498.67
914.118	6463.42
914.43	6409.86
914.742	6403.76
915.054	6396.07
915.366	6306.36
915.678	6300.26
915.99	6331.44
916.302	6256.19
916.613	6198.11
916.925	6264.55
917.236	6208.74
917.548	6207.38
917.859	6250.09
918.171	6091
918.482	6106.36
918.794	6097.1
919.105	6062.3
919.416	6062.52
919.727	6041.73
920.038	6002.41
920.349	5913.15
920.66	5888.29
920.971	5923.32
921.282	5865.69
921.593	5844.22
921.903	5798.58
922.214	5780.5
922.525	5785.02
922.835	5731.23
923.146	5719.93
923.456	5744.79
923.767	5681.07
924.077	5662.08
924.387	5604.01
924.697	5577.57
925.008	5589.99
925.318	5566.04
925.628	5546.15
925.938	5518.13
926.248	5490.79
926.558	5445.37
926.867	5455.31
927.177	5392.49
927.487	5426.83
927.796	5370.57
928.106	5326.72
928.416	5356.33
928.725	5350.68
929.034	5259.16
929.344	5242.66
929.653	5245.82
929.962	5230.91
930.271	5225.94
930.581	5133.74
930.89	5171.25
931.199	5107.3
931.508	5142.32
931.817	5075.21
932.125	5106.62
932.434	5067.97
932.743	4984.59
933.051	5036.34
933.36	4997.69
933.669	4923.57
933.977	4941.42
934.286	4920.41
934.594	4904.81
934.902	4837.02
935.21	4836.34
935.519	4875.21
935.827	4829.34
936.135	4818.94
936.443	4776.23
936.751	4742.11
937.059	4778.04
937.367	4726.06
937.674	4678.15
937.982	4667.98
938.29	4645.61
938.597	4653.52
938.905	4578.5
939.213	4605.16
939.52	4564.03
939.827	4584.37
940.135	4521.55
940.442	4535.78
940.749	4512.28
941.056	4489.68
941.363	4452.4
941.67	4446.75
941.977	4414.66
942.284	4378.27
942.591	4386.18
942.898	4329.01
943.205	4383.47
943.511	4357.26
943.818	4338.5
944.125	4317.94
944.431	4253.98
944.738	4202.01
945.044	4237.49
945.35	4225.96
945.657	4200.88
945.963	4190.71
946.269	4182.8
946.575	4169.69
946.881	4134.44
947.187	4101.67
947.493	4088.11
947.799	4065.97
948.105	4065.97
948.41	4058.51
948.716	4065.29
949.022	4000.21
949.327	4009.24
949.633	3997.27
949.938	3961.11
950.244	3964.05
950.549	3916.14
950.854	3918.4
951.16	3919.53
951.465	3886.31
951.77	3908.46
952.075	3833.43
952.38	3799.76
952.685	3817.84
952.99	3798.4
953.294	3757.95
953.599	3778.06
953.904	3705.75
954.209	3681.8
954.513	3737.84
954.818	3717.73
955.122	3672.3
955.426	3666.43
955.731	3617.16
956.035	3651.29
956.339	3647.45
956.643	3598.63
956.948	3569.93
957.252	3563.38
957.556	3588.69
957.86	3556.6
958.163	3524.74
958.467	3520.67
958.771	3524.96
959.075	3502.37
959.378	3466.21
959.682	3457.62
959.985	3448.13
960.289	3426.21
960.592	3417.17
960.896	3389.83
961.199	3371.07
961.502	3362.71
961.805	3365.65
962.108	3338.53
962.411	3336.95
962.714	3318.42
963.017	3291.52
963.32	3309.6
963.623	3265.76
963.926	3258.08
964.228	3223.73
964.531	3272.32
964.833	3227.57
965.136	3186.89
965.438	3135.14
965.741	3147.12
966.043	3156.61
966.345	3119.78
966.648	3148.25
966.95	3124.07
967.252	3089.27
967.554	3091.75
967.856	3071.42
968.158	3036.39
968.46	3045.43
968.761	3036.62
969.063	3075.94
969.365	3036.39
969.666	2984.64
969.968	2920.23
970.269	2953.68
970.571	2915.49
970.872	2940.35
971.174	2915.26
971.475	2877.3
971.776	2895.83
972.077	2864.64
972.378	2868.48
972.679	2873.91
972.98	2852.21
973.281	2855.15
973.582	2835.94
973.883	2767.02
974.183	2811.54
974.484	2783.29
974.785	2792.1
975.085	2795.94
975.386	2776.28
975.686	2763.85
975.986	2737.87
976.287	2728.37
976.587	2705.1
976.887	2716.62
977.187	2686.79
977.487	2671.65
977.787	2669.17
978.087	2663.07
978.387	2640.02
978.687	2643.41
978.987	2595.72
979.286	2604.31
979.586	2605.67
979.885	2583.52
980.185	2568.38
980.484	2572.22
980.784	2537.87
981.083	2546.01
981.382	2526.57
981.682	2552.79
981.981	2513.92
982.28	2505.33
982.579	2505.78
982.878	2456.29
983.177	2439.12
983.475	2441.83
983.774	2412.45
984.073	2426.91
984.372	2412
984.67	2388.72
984.969	2444.54
985.267	2388.5
985.566	2411.09
985.864	2354.6
986.162	2383.3
986.461	2335.62
986.759	2315.96
987.057	2315.73
987.355	2301.27
987.653	2344.43
987.951	2336.07
988.249	2262.4
988.547	2292.68
988.844	2258.78
989.142	2260.14
989.44	2231.44
989.737	2251.32
990.035	2219.69
990.332	2209.07
990.63	2216.75
990.927	2221.72
991.224	2180.82
991.521	2163.42
991.819	2122.29
992.116	2193.47
992.413	2137.66
992.71	2185.79
993.006	2136.3
993.303	2128.39
993.6	2123.42
993.897	2116.41
994.193	2089.3
994.49	2092.91
994.787	2040.94
995.083	2040.71
995.379	2062.18
995.676	2063.99
995.972	2039.81
996.268	2028.05
996.565	2021.73
996.861	1980.6
997.157	1990.54
997.453	1944.89
997.749	1965.68
998.044	1979.92
998.34	1940.15
998.636	1940.6
998.932	1925.68
999.227	1909.19
999.523	1913.25
999.818	1915.51
1000.114	1880.04
1000.409	1910.32
1000.704	1864.89
1001	1890.2
1001.295	1822.18
1001.59	1866.7
1001.885	1857.89
1002.18	1829.42
1002.475	1820.83
1002.77	1814.27
1003.065	1783.99
1003.359	1784.22
1003.654	1789.64
1003.949	1765.24
1004.243	1756.65
1004.538	1755.52
1004.832	1763.2
1005.127	1746.03
1005.421	1708.74
1005.715	1710.32
1006.009	1718.91
1006.304	1707.16
1006.598	1667.84
1006.892	1671.45
1007.186	1659.48
1007.48	1665.13
1007.773	1683.88
1008.067	1633.26
1008.361	1651.11
1008.655	1609.31
1008.948	1624.9
1009.242	1596.43
1009.535	1604.56
1009.829	1583.09
1010.122	1567.5
1010.415	1549.42
1010.708	1564.56
1011.001	1562.53
1011.295	1556.65
1011.588	1513.72
1011.881	1544.9
1012.173	1513.49
1012.466	1513.49
1012.759	1502.42
1013.052	1514.85
1013.344	1475.53
1013.637	1506.03
1013.93	1478.24
1014.222	1453.61
1014.514	1449.76
1014.807	1452.93
1015.099	1448.41
1015.391	1424.23
1015.683	1424
1015.976	1421.06
1016.268	1425.13
1016.56	1398.69
1016.851	1389.65
1017.143	1372.93
1017.435	1363.89
1017.727	1378.35
1018.018	1345.13
1018.31	1348.98
1018.602	1309.43
1018.893	1313.95
1019.185	1309.2
1019.476	1324.57
1019.767	1291.58
1020.058	1310.11
1020.35	1253.16
1020.641	1295.87
1020.932	1286.83
1021.223	1278.02
1021.514	1290.9
1021.804	1249.77
1022.095	1253.16
1022.386	1277.79
1022.677	1250.9
1022.967	1212.93
1023.258	1224.91
1023.548	1193.27
1023.839	1204.8
1024.129	1187.17
1024.419	1184.23
1024.709	1181.75
1025	1185.14
1025.29	1154.18
1025.58	1135.65
1025.87	1136.78
1026.16	1135.42
1026.449	1126.16
1026.739	1122.99
1027.029	1118.25
1027.319	1140.85
1027.608	1105.37
1027.898	1094.97
1028.187	1094.97
1028.477	1077.8
1028.766	1061.98
1029.055	1074.41
1029.344	1055.2
1029.634	1058.81
1029.923	1056.33
1030.212	1035.31
1030.501	1042.32
1030.79	1028.53
1031.078	1016.33
1031.367	1022.43
1031.656	1005.26
1031.945	1009.55
1032.233	1008.65
1032.522	991.25
1032.81	1006.39
1033.099	987.63
1033.387	958.93
1033.675	961.42
1033.963	956.67
1034.251	958.25
1034.54	930.23
1034.828	918.25
1035.116	936.78
1035.403	933.85
1035.691	903.79
1035.979	927.74
1036.267	935.43
1036.554	917.8
1036.842	909.44
1037.129	886.39
1037.417	896.56
1037.704	926.84
1037.992	865.15
1038.279	864.02
1038.566	874.19
1038.853	874.19
1039.14	874.19
