Data from hue_28_FLMS001491_00035.txt Node
Date: Tue Feb 07 17:17:12 GMT 2017
User: dcchb
Spectrometer: FLMS00149
Trigger mode: 0
Integration Time (sec): 2.000000E-2
Scans to average: 10
Electric dark correction enabled: true
Nonlinearity correction enabled: false
Boxcar width: 0
XAxis mode: Wavelengths
Number of Pixels in Spectrum: 2048
>>>>>Begin Spectral Data<<<<<
341.393	-10.62
341.776	-10.62
342.16	-10.62
342.543	-63.05
342.927	-48.81
343.31	-68.25
343.693	-67.79
344.077	-81.58
344.46	-69.83
344.843	-49.26
345.226	-39.77
345.61	-34.8
345.993	-20.34
346.376	15.82
346.759	30.96
347.142	30.51
347.525	34.35
347.908	53.11
348.291	72.54
348.674	90.85
349.057	103.5
349.44	137.62
349.823	138.75
350.206	168.81
350.588	193.22
350.971	217.4
351.354	217.4
351.737	256.26
352.119	247.9
352.502	272.76
352.884	276.83
353.267	291.97
353.65	292.65
354.032	291.74
354.414	304.62
354.797	301.91
355.179	330.61
355.562	327
355.944	340.78
356.326	349.82
356.709	322.7
357.091	346.66
357.473	347.79
357.855	328.13
358.238	347.56
358.62	367.22
359.002	350.73
359.384	364.74
359.766	338.3
360.148	342.36
360.53	350.5
360.912	337.39
361.294	343.72
361.676	341.01
362.057	344.4
362.439	324.06
362.821	339.43
363.203	328.35
363.584	325.42
363.966	333.78
364.348	327.68
364.729	343.72
365.111	331.97
365.493	325.42
365.874	328.35
366.256	321.8
366.637	327.67
367.019	314.12
367.4	316.83
367.781	296.94
368.163	319.54
368.544	311.63
368.925	326.55
369.306	320.44
369.688	311.4
370.069	325.87
370.45	329.71
370.831	298.98
371.212	341.01
371.593	319.77
371.974	328.13
372.355	317.51
372.736	315.7
373.117	313.89
373.498	302.82
373.879	321.8
374.26	322.25
374.641	301.69
375.021	312.76
375.402	319.31
375.783	339.43
376.163	322.25
376.544	350.27
376.925	336.49
377.305	324.74
377.686	333.55
378.066	328.35
378.447	313.44
378.827	306.21
379.208	345.98
379.588	324.29
379.968	335.81
380.349	352.76
380.729	344.85
381.109	333.55
381.489	342.36
381.87	342.36
382.25	337.84
382.63	323.38
383.01	348.69
383.39	358.41
383.77	352.76
384.15	361.8
384.53	338.07
384.91	341.46
385.29	382.59
385.67	339.65
386.049	378.3
386.429	345.3
386.809	340.33
387.189	352.76
387.568	352.99
387.948	349.37
388.328	353.66
388.707	348.92
389.087	369.03
389.466	372.42
389.846	349.82
390.225	357.73
390.605	383.04
390.984	367
391.363	375.58
391.743	369.93
392.122	381.91
392.501	387.33
392.881	370.61
393.26	385.98
393.639	369.26
394.018	375.81
394.397	383.04
394.776	383.94
395.155	392.98
395.534	376.26
395.913	390.5
396.292	374.23
396.671	405.41
397.05	400.89
397.429	397.5
397.808	400.67
398.186	390.5
398.565	372.42
398.944	398.41
399.323	399.54
399.701	432.31
400.08	411.29
400.458	405.41
400.837	394.11
401.215	423.27
401.594	395.92
401.972	402.7
402.351	419.2
402.729	388.92
403.107	407.9
403.486	415.81
403.864	405.87
404.242	423.72
404.62	423.27
404.999	414.23
405.377	421.68
405.755	443.6
406.133	419.2
406.511	410.38
406.889	425.07
407.267	444.73
407.645	434.34
408.023	437.73
408.401	430.95
408.779	437.05
409.156	413.77
409.534	449.48
409.912	448.35
410.29	451.97
410.667	463.72
411.045	466.2
411.422	451.74
411.8	431.4
412.178	448.12
412.555	473.21
412.933	465.75
413.31	461.23
413.687	445.86
414.065	470.04
414.442	469.59
414.819	471.4
415.197	479.99
415.574	468.91
415.951	470.04
416.328	494.45
416.705	489.25
417.082	493.09
417.46	478.63
417.837	513.43
418.214	500.33
418.591	482.93
418.967	510.5
419.344	504.17
419.721	504.62
420.098	482.02
420.475	515.24
420.852	515.92
421.228	510.27
421.605	516.14
421.982	536.26
422.358	511.4
422.735	526.77
423.111	506.88
423.488	541.45
423.864	542.13
424.241	563.15
424.617	555.47
424.994	548.69
425.37	549.14
425.746	561.34
426.123	534.45
426.499	561.34
426.875	555.69
427.251	571.06
427.627	581.91
428.003	574.9
428.379	572.64
428.756	593.2
429.132	586.65
429.507	604.5
429.883	595.69
430.259	599.31
430.635	621.23
431.011	599.08
431.387	616.03
431.763	627.1
432.138	630.04
432.514	634.33
432.89	642.24
433.265	663.71
433.641	647.21
434.016	655.8
434.392	642.47
434.767	667.55
435.143	670.04
435.518	679.3
435.894	677.72
436.269	689.47
436.644	684.05
437.02	677.95
437.395	689.7
437.77	713.43
438.145	709.81
438.52	720.43
438.895	718.17
439.271	701.68
439.646	717.27
440.021	726.31
440.395	739.64
440.77	726.08
441.145	740.55
441.52	741.45
441.895	750.49
442.27	735.8
442.645	754.33
443.019	753.43
443.394	784.84
443.769	770.38
444.143	765.4
444.518	769.25
444.892	777.61
445.267	782.13
445.641	813.31
446.016	793.65
446.39	784.39
446.764	776.02
447.139	800.2
447.513	798.17
447.887	794.56
448.262	781
448.636	832.07
449.01	805.63
449.384	823.71
449.758	813.54
450.132	807.21
450.506	845.85
450.88	850.83
451.254	859.86
451.628	860.77
452.002	859.86
452.376	875.68
452.75	858.96
453.123	874.55
453.497	893.08
453.871	895.12
454.244	906.42
454.618	896.7
454.992	878.85
455.365	909.58
455.739	926.3
456.112	920.2
456.486	950.71
456.859	957.71
457.232	976.47
457.606	977.83
457.979	974.44
458.352	1004.04
458.725	1012.85
459.099	990.93
459.472	1026.19
459.845	1018.73
460.218	1011.05
460.591	1039.52
460.964	1050.37
461.337	1070.03
461.71	1082.68
462.083	1091.95
462.456	1085.85
462.829	1105.96
463.201	1138.05
463.574	1116.35
463.947	1131.95
464.32	1157.71
464.692	1183.25
465.065	1155.9
465.438	1194.77
465.81	1184.6
466.183	1218.5
466.555	1225.28
466.928	1230.93
467.3	1254.43
467.672	1275.9
468.045	1293.07
468.417	1336.24
468.789	1302.79
469.161	1344.6
469.534	1361.09
469.906	1371.04
470.278	1378.49
470.65	1373.98
471.022	1428.44
471.394	1454.88
471.766	1463.24
472.138	1468.21
472.51	1508.89
472.882	1535.78
473.253	1544.37
473.625	1562.9
473.997	1593.63
474.369	1611.94
474.74	1626.85
475.112	1635.44
475.484	1700.97
475.855	1714.76
476.227	1750.69
476.598	1790.24
476.97	1816.22
477.341	1886.5
477.713	1887.86
478.084	1926.28
478.455	1945.26
478.827	1990.68
479.198	2055.54
479.569	2094.86
479.94	2119.94
480.311	2148.19
480.682	2202.2
481.053	2260.96
481.424	2297.11
481.795	2326.04
482.166	2371.46
482.537	2398.81
482.908	2448.52
483.279	2491.46
483.65	2557.67
484.021	2582.76
484.391	2596.99
484.762	2648.29
485.133	2720.15
485.503	2750.44
485.874	2812.58
486.244	2892.81
486.615	2901.17
486.985	3009.86
487.356	3034.5
487.726	3076.53
488.097	3114.49
488.467	3187.71
488.837	3277.88
489.207	3248.73
489.578	3337.99
489.948	3342.74
490.318	3492.56
490.688	3464.77
491.058	3564.65
491.428	3591.54
491.798	3681.03
492.168	3721.94
492.538	3759.22
492.908	3842.38
493.278	3816.4
493.648	3900.69
494.017	3939.11
494.387	4003.06
494.757	4013.68
495.126	4046.22
495.496	4064.3
495.866	4124.64
496.235	4169.16
496.605	4224.97
496.974	4274.01
497.344	4331.19
497.713	4373.44
498.082	4430.39
498.452	4465.65
498.821	4457.06
499.19	4475.81
499.559	4553.1
499.928	4588.13
500.298	4666.09
500.667	4671.52
501.036	4666.09
501.405	4724.85
501.774	4760.55
502.143	4749.71
502.512	4808.46
502.88	4851.4
503.249	4844.17
503.618	4887.78
503.987	4914.9
504.356	4955.8
504.724	4978.63
505.093	5023.37
505.462	5018.4
505.83	5083.03
506.199	5148.79
506.567	5191.95
506.936	5159.64
507.304	5246.19
507.672	5252.97
508.041	5311.95
508.409	5267.21
508.777	5356.24
509.145	5400.76
509.514	5357.15
509.882	5426.3
510.25	5447.09
510.618	5437.6
510.986	5499.52
511.354	5478.73
511.722	5561.66
512.09	5606.41
512.458	5576.8
512.826	5666.29
513.193	5681.21
513.561	5679.62
513.929	5720.98
514.297	5745.61
514.664	5825.38
515.032	5761.43
515.4	5855.89
515.767	5841.2
516.135	5881.43
516.502	5843.24
516.869	5950.35
517.237	5939.5
517.604	5964.14
517.972	6078.03
518.339	6027.19
518.706	6012.5
519.073	6065.83
519.44	6102.44
519.808	6127.52
520.175	6138.82
520.542	6217.69
520.909	6196.67
521.276	6183.57
521.643	6201.64
522.009	6297.24
522.376	6341.75
522.743	6405.03
523.11	6363
523.477	6435.09
523.843	6473.05
524.21	6564.12
524.577	6530.9
524.943	6587.62
525.31	6612.48
525.676	6655.42
526.043	6676.66
526.409	6669.2
526.776	6781.29
527.142	6799.37
527.508	6812.25
527.874	6920.27
528.241	6951.46
528.607	6912.36
528.973	6995.52
529.339	6977.44
529.705	7070.77
530.071	7077.55
530.437	7119.81
530.803	7179.02
531.169	7239.36
531.535	7244.33
531.901	7191.45
532.267	7291.56
532.632	7311.9
532.998	7326.14
533.364	7366.13
533.73	7370.43
534.095	7452.01
534.461	7481.16
534.826	7473.02
535.192	7541.72
535.557	7670.08
535.923	7605
536.288	7683.19
536.653	7690.87
537.019	7666.01
537.384	7686.35
537.749	7733.81
538.114	7785.78
538.479	7780.59
538.845	7807.03
539.21	7834.82
539.575	7907.36
539.94	7860.81
540.305	7986
540.67	7948.04
541.034	7960.47
541.399	7980.81
541.764	8055.61
542.129	8124.31
542.494	8142.84
542.858	8181.48
543.223	8179.9
543.587	8249.73
543.952	8210.41
544.316	8241.14
544.681	8283.17
545.045	8343.28
545.41	8429.16
545.774	8391.64
546.138	8453.11
546.503	8443.85
546.867	8482.49
547.231	8571.75
547.595	8561.36
547.959	8619.43
548.324	8687.46
548.688	8704.86
549.052	8696.04
549.416	8715.93
549.779	8677.29
550.143	8752.09
550.507	8816.27
550.871	8804.97
551.235	8801.12
551.599	8930.61
551.962	8896.94
552.326	8874.12
552.689	8965.64
553.053	8935.81
553.417	9000.89
553.78	9072.3
554.143	9046.99
554.507	9100.1
554.87	9118.86
555.234	9260.1
555.597	9188.46
555.96	9291.06
556.323	9224.16
556.686	9250.6
557.05	9367.66
557.413	9371.05
557.776	9460.54
558.139	9460.99
558.502	9434.78
558.865	9453.54
559.228	9548
559.59	9534.66
559.953	9545.74
560.316	9637.03
560.679	9686.75
561.041	9756.58
561.404	9707.09
561.767	9859.63
562.129	9797.26
562.492	9860.31
562.854	9825.73
563.217	9858.05
563.579	9849.91
563.941	10030.47
564.304	10043.8
564.666	10022.11
565.028	10062.33
565.39	10112.73
565.753	10154.99
566.115	10154.54
566.477	10197.25
566.839	10239.05
567.201	10295.1
567.563	10330.12
567.925	10368.09
568.287	10452.15
568.648	10431.14
569.01	10515.66
569.372	10541.19
569.734	10520.18
570.095	10536.67
570.457	10668.19
570.819	10755.42
571.18	10754.29
571.542	10784.35
571.903	10841.3
572.265	10901.41
572.626	10955.64
572.987	11004.23
573.349	11036.32
573.71	11073.16
574.071	11042.42
574.432	11204.68
574.794	11302.3
575.155	11328.52
575.516	11342.53
575.877	11444.44
576.238	11491.45
576.599	11587.72
576.96	11674.95
577.32	11781.39
577.681	11798.11
578.042	11929.4
578.403	12046.24
578.763	12118.33
579.124	12243.07
579.485	12373.46
579.845	12413.68
580.206	12583.4
580.566	12672.66
580.927	12793.11
581.287	12999.21
581.648	13028.81
582.008	13264.06
582.368	13338.18
582.728	13509.7
583.089	13610.94
583.449	13740.66
583.809	13983.14
584.169	14148.55
584.529	14369.57
584.889	14588.09
585.249	14703.57
585.609	14846.84
585.969	15162.99
586.329	15292.25
586.688	15666.71
587.048	15737.89
587.408	15954.83
587.768	16192.79
588.127	16419
588.487	16630.98
588.846	17046.11
589.206	17204.97
589.565	17423.27
589.925	17820.1
590.284	17948
590.643	18208.33
591.003	18532.17
591.362	18976
591.721	19017.13
592.08	19423.44
592.44	19727.16
592.799	19994.28
593.158	20152.69
593.517	20538.22
593.876	20859.56
594.235	21030.63
594.593	21269.05
594.952	21755.81
595.311	21960.55
595.67	22193.77
596.029	22610.03
596.387	23022.22
596.746	23213.4
597.104	23434.86
597.463	23727.29
597.822	24142.42
598.18	24341.51
598.538	24590.54
598.897	25082.96
599.255	25114.14
599.613	25885.2
599.972	25924.74
600.33	26199.09
600.688	26430.94
601.046	26768.34
601.404	27196.35
601.762	27398.83
602.12	27861.19
602.478	28032.26
602.836	28298.92
603.194	28501.62
603.552	28843.54
603.91	28993.59
604.268	29265.67
604.625	29493.01
604.983	29930.96
605.341	30082.82
605.698	30457.73
606.056	30583.6
606.413	30857.04
606.771	31144.04
607.128	31392.85
607.485	31542.45
607.843	31814.53
608.2	32155.31
608.557	32331.58
608.914	32561.63
609.272	32832.36
609.629	33038.91
609.986	33383.08
610.343	33429.86
610.7	33960.01
611.057	34095.37
611.414	34131.98
611.771	34468.7
612.127	34770.39
612.484	34945.07
612.841	35223.48
613.198	35093.31
613.554	35388.22
613.911	35718.83
614.267	35837.7
614.624	35957.7
614.98	36179.16
615.337	36413.73
615.693	36622.09
616.05	36688.3
616.406	37032.7
616.762	36907.5
617.118	37174.16
617.475	37396.08
617.831	37557.66
618.187	37784.32
618.543	37750.42
618.899	38137.75
619.255	38102.27
619.611	38302.95
619.967	38403.28
620.323	38579.32
620.678	38645.76
621.034	38674.92
621.39	38754.46
621.746	38697.29
622.101	39158.74
622.457	39027.67
622.812	39252.08
623.168	39451.84
623.523	39511.28
623.879	39569.81
624.234	39443.26
624.589	39702.23
624.945	39747.2
625.3	40025.61
625.655	39921.44
626.01	40101.09
626.365	40223.58
626.72	40190.81
627.075	40126.63
627.43	40188.55
627.785	40277.13
628.14	40356.23
628.495	40438.94
628.85	40403.91
629.205	40409.56
629.559	40672.83
629.914	40537.92
630.269	40631.47
630.623	40570.46
630.978	40563.23
631.332	40836.89
631.687	40927.74
632.041	40808.42
632.396	40970.9
632.75	40803.22
633.104	40984.01
633.459	40839.15
633.813	40879.83
634.167	40885.25
634.521	40993.72
634.875	40999.83
635.229	41030.56
635.583	40750.57
635.937	40844.12
636.291	40906.5
636.645	40832.15
636.999	40892.94
637.352	41078.92
637.706	40885.93
638.06	40950.79
638.413	40961.86
638.767	40730.23
639.121	40950.11
639.474	40615.2
639.828	40808.19
640.181	40834.86
640.534	40885.93
640.888	40759.83
641.241	40630.57
641.594	40762.54
641.947	40882.31
642.301	40786.27
642.654	40741.75
643.007	40723.22
643.36	40725.26
643.713	40591.7
644.066	40880.06
644.419	40627.41
644.771	40479.39
645.124	40026.29
645.477	40070.36
645.83	39823.13
646.182	39592.18
646.535	39534.1
646.888	39574.33
647.24	39498.62
647.593	39595.57
647.945	39551.95
648.298	39427.66
648.65	39391.96
649.002	39443.03
649.355	39497.27
649.707	39477.83
650.059	39608.22
650.411	40107.87
650.763	39852.06
651.115	40550.8
651.467	40370.92
651.819	40493.4
652.171	40279.84
652.523	40260.41
652.875	40298.15
653.227	40099.96
653.578	40376.79
653.93	40280.3
654.282	40076.01
654.633	40069.23
654.985	40157.14
655.337	40143.13
655.688	40210.24
656.039	40323.01
656.391	39978.84
656.742	40138.15
657.094	39973.64
657.445	40262.9
657.796	40103.58
658.147	40225.83
658.498	40125.5
658.849	40116.23
659.2	40030.59
659.551	39965.5
659.902	40172.73
660.253	40125.27
660.604	40121.43
660.955	40030.13
661.306	40127.98
661.656	40024.94
662.007	40001.66
662.358	39975.67
662.708	39996.46
663.059	40019.06
663.409	39665.4
663.76	39906.3
664.11	39830.59
664.461	40034.88
664.811	39984.03
665.161	40087.31
665.511	39945.39
665.862	39886.86
666.212	39979.97
666.562	39989.46
666.912	39918.5
667.262	39932.06
667.612	39980.87
667.962	39887.54
668.312	39814.55
668.662	40033.98
669.011	39961.44
669.361	39911.94
669.711	39807.77
670.06	39782.46
670.41	39735.45
670.76	39638.05
671.109	39842.79
671.459	39723.02
671.808	39580.88
672.157	39861.32
672.507	39545.17
672.856	39350.38
673.205	39718.73
673.554	39853.42
673.904	39526.87
674.253	39856.81
674.602	39704.27
674.951	39100.89
675.3	38988.35
675.649	39487.55
675.998	39499.53
676.346	39435.57
676.695	39727.99
677.044	39303.6
677.393	39421.11
677.741	39565.97
678.09	39431.51
678.438	39186.99
678.787	39438.29
679.135	39412.97
679.484	39180.66
679.832	39244.17
680.181	39085.75
680.529	39172.76
680.877	38952.87
681.225	38943.16
681.573	39295.01
681.922	38928.92
682.27	38862.71
682.618	38917.17
682.966	38927.11
683.314	38820
683.661	38728.02
684.009	38547.46
684.357	38506.11
684.705	38554.24
685.053	38546.33
685.4	38396.05
685.748	38318.09
686.095	38356.96
686.443	38197.19
686.79	37990.87
687.138	38101.6
687.485	38139.79
687.832	37983.63
688.18	38026.8
688.527	37819.8
688.874	37794.49
689.221	37771.89
689.568	37621.16
689.915	37572.8
690.262	37662.74
690.609	37501.84
690.956	37418.9
691.303	37241.73
691.65	37100.95
691.997	37227.72
692.344	37014.85
692.69	36944.79
693.037	36976.43
693.383	36693.5
693.73	36770.56
694.077	36565.37
694.423	36648.53
694.769	36558.13
695.116	36375.54
695.462	36292.83
695.808	36246.96
696.155	36293.28
696.501	35997.92
696.847	36070.92
697.193	35734.43
697.539	35806.74
697.885	35681.55
698.231	35506.41
698.577	35602
698.923	35479.97
699.269	35356.36
699.614	35164.27
699.96	35269.58
700.306	35169.92
700.651	35064.84
700.997	35058.97
701.342	34759.54
701.688	34805.19
702.033	34662.37
702.379	34644.06
702.724	34489.94
703.069	34626.43
703.415	34223.05
703.76	34296.5
704.105	34336.5
704.45	34240.68
704.795	33977.64
705.14	33965.21
705.485	33890.41
705.83	33838.43
706.175	33657.87
706.52	33605.9
706.865	33596.4
707.209	33482.74
707.554	33316.41
707.899	33495.84
708.243	33225.79
708.588	33317.54
708.932	33115.97
709.277	33067.38
709.621	33044.33
709.966	32798.46
710.31	32916.87
710.654	32539.94
710.998	32818.8
711.342	32738.12
711.687	32705.35
712.031	32459.71
712.375	32333.39
712.719	32431.46
713.063	32324.12
713.407	32551.01
713.75	32169.1
714.094	32224.46
714.438	32039.16
714.782	32030.57
715.125	31963.68
715.469	32045.49
715.812	31792.84
716.156	31612.05
716.499	31744.48
716.843	31733.18
717.186	31429.46
717.53	31683.46
717.873	31583.8
718.216	31511.94
718.559	31487.99
718.902	31151.5
719.246	31294.09
719.589	31147.43
719.932	31126.19
720.275	31196.47
720.617	31053.19
720.96	30929.13
721.303	31031.27
721.646	31022.69
721.989	30756.93
722.331	30903.37
722.674	30821.79
723.016	30796.03
723.359	30682.58
723.701	30682.58
724.044	30536.6
724.386	30462.48
724.729	30634.22
725.071	30563.26
725.413	30398.52
725.755	30374.12
726.097	30392.65
726.439	30114.24
726.782	30276.27
727.124	30220
727.465	30152.88
727.807	30117.17
728.149	29890.06
728.491	30024.52
728.833	29990.85
729.175	30010.28
729.516	29777.3
729.858	29832.89
730.199	29899.1
730.541	29834.47
730.882	29816.84
731.224	29775.49
731.565	29573.91
731.906	29576.62
732.248	29655.27
732.589	29363.3
732.93	29377.53
733.271	29355.84
733.612	29317.87
733.953	29366.91
734.294	29303.41
734.635	29154.94
734.976	29239.23
735.317	29026.58
735.658	29113.36
735.999	29012.12
736.339	28922.86
736.68	29182.96
737.021	28999.01
737.361	28839.24
737.702	29036.98
738.042	28855.06
738.383	28881.73
738.723	28772.35
739.063	28658
739.404	28861.39
739.744	28674.05
740.084	28620.72
740.424	28551.79
740.764	28436.54
741.104	28559.02
741.444	28486.26
741.784	28439.93
742.124	28426.6
742.464	28436.99
742.804	28350.22
743.143	28285.81
743.483	28288.3
743.823	28225.02
744.162	28095.08
744.502	28053.05
744.841	27994.74
745.181	28170.56
745.52	27970.11
745.86	27934.63
746.199	27927.63
746.538	27847.86
746.877	27944.58
747.216	27870.23
747.556	27862.09
747.895	27842.43
748.234	27779.38
748.573	27650.12
748.911	27603.79
749.25	27666.39
749.589	27581.2
749.928	27502.1
750.267	27520.86
750.605	27666.84
750.944	27416.68
751.283	27418.04
751.621	27521.54
751.96	27310.69
752.298	27328.32
752.636	27174.88
752.975	27091.49
753.313	27046.07
753.651	27129
753.989	26989.8
754.327	26995.45
754.666	26866.64
755.004	26807.2
755.342	26875.68
755.679	26771.27
756.017	26726.53
756.355	26699.86
756.693	26514.56
757.031	26685.17
757.368	26443.6
757.706	26444.5
758.044	26334.45
758.381	26447.21
758.719	26215.13
759.056	26242.7
759.394	26233.66
759.731	26105.3
760.068	26047.22
760.405	26083.38
760.743	25764.52
761.08	25887.91
761.417	25872.31
761.754	25716.39
762.091	25713
762.428	25618.76
762.765	25575.82
763.102	25616.05
763.438	25463.51
763.775	25367.02
764.112	25319.56
764.449	25326.57
764.785	25166.34
765.122	24868.5
765.458	24859.91
765.795	24819.69
766.131	24875.05
766.467	24743.3
766.804	24543.76
767.14	24508.28
767.476	24463.76
767.812	24409.98
768.148	24514.16
768.485	24159.14
768.821	24174.73
769.157	24071.91
769.492	23977.22
769.828	24021.97
770.164	23799.6
770.5	23716.66
770.836	23653.84
771.171	23598.48
771.507	23530.68
771.842	23391.93
772.178	23438.93
772.513	23196.68
772.849	23249.78
773.184	23174.53
773.519	23121.43
773.855	22999.17
774.19	22873.75
774.525	22827.2
774.86	22801.43
775.195	22774.09
775.53	22713.53
775.865	22550.37
776.2	22497.26
776.535	22156.03
776.87	22228.79
777.205	22236.7
777.539	22105.86
777.874	22119.87
778.209	21972.98
778.543	21875.58
778.878	21790.39
779.212	21716.27
779.547	21494.12
779.881	21670.84
780.215	21477.63
780.55	21575.48
780.884	21316.73
781.218	21354.69
781.552	21332.09
781.886	21159.22
782.22	21031.99
782.554	20997.19
782.888	20845.78
783.222	20741.38
783.556	20703.41
783.889	20603.53
784.223	20539.8
784.557	20413.7
784.89	20476.75
785.224	20351.1
785.557	20207.15
785.891	20216.19
786.224	20219.13
786.558	20107.04
786.891	19902.75
787.224	19773.27
787.557	19819.14
787.891	19823.66
788.224	19822.53
788.557	19695.75
788.89	19729.88
789.223	19709.09
789.556	19459.83
789.888	19451.24
790.221	19360.17
790.554	19174.64
790.887	19177.8
791.219	19279.04
791.552	19179.16
791.884	18993.85
792.217	18937.58
792.549	18867.53
792.882	18806.29
793.214	18669.57
793.546	18727.64
793.879	18618.95
794.211	18481.55
794.543	18572.84
794.875	18536.01
795.207	18596.57
795.539	18345.28
795.871	18382.79
796.203	18166.53
796.535	18219.63
796.867	18100.77
797.198	18100.09
797.53	18046.08
797.862	17953.88
798.193	17949.81
798.525	17799.53
798.856	17863.94
799.188	17647.9
799.519	17588.01
799.85	17510.27
800.182	17472.99
800.513	17472.53
800.844	17323.61
801.175	17498.97
801.506	17409.26
801.837	17280.22
802.168	17338.98
802.499	17219.21
802.83	17100.79
803.161	16979.89
803.491	17058.76
803.822	17038.2
804.153	16965.88
804.483	16853.79
804.814	16767.92
805.145	16662.16
805.475	16759.11
805.805	16594.14
806.136	16568.6
806.466	16654.93
806.796	16595.27
807.126	16438.21
807.457	16379.68
807.787	16356.41
808.117	16246.8
808.447	16315.28
808.777	16323.19
809.107	16092.23
809.436	16059.69
809.766	16117.32
810.096	16027.6
810.426	16012.01
810.755	16043.42
811.085	15929.3
811.414	15914.16
811.744	15720.94
812.073	15792.13
812.403	15720.72
812.732	15684.79
813.061	15705.12
813.39	15601.85
813.719	15601.62
814.049	15588.52
814.378	15532.47
814.707	15481.17
815.036	15460.61
815.365	15288.41
815.693	15244.57
816.022	15264.01
816.351	15165.7
816.68	15138.81
817.008	15209.77
817.337	15085.25
817.665	15086.38
817.994	15131.13
818.322	14990.57
818.651	14912.38
818.979	14930
819.307	14956.67
819.636	14939.27
819.964	14818.14
820.292	14868.99
820.62	14797.35
820.948	14822.66
821.276	14773.4
821.604	14666.96
821.932	14769.56
822.259	14766.62
822.587	14759.39
822.915	14735.66
823.243	14781.98
823.57	14691.37
823.898	14653.17
824.225	14696.56
824.553	14714.64
824.88	14638.71
825.207	14744.92
825.535	14656.56
825.862	14773.4
826.189	14708.77
826.516	14744.02
826.843	14733.4
827.17	14683.68
827.497	14638.26
827.824	14711.48
828.151	14662.67
828.478	14669.67
828.805	14677.81
829.131	14668.31
829.458	14665.38
829.785	14575.66
830.111	14643.23
830.438	14614.31
830.764	14655.66
831.09	14659.73
831.417	14509
831.743	14694.53
832.069	14631.03
832.395	14522.56
832.722	14619.5
833.048	14531.6
833.374	14507.64
833.7	14471.71
834.026	14474.42
834.351	14577.92
834.677	14520.3
835.003	14492.05
835.329	14446.85
835.654	14483.01
835.98	14425.16
836.306	14352.39
836.631	14304.48
836.956	14485.95
837.282	14448.66
837.607	14263.58
837.932	14264.03
838.258	14294.09
838.583	14278.04
838.908	14235.56
839.233	14161.66
839.558	14246.41
839.883	14167.31
840.208	14118.95
840.533	14098.61
840.858	14036.24
841.182	14137.71
841.507	14053.64
841.832	13948.33
842.156	14033.53
842.481	13923.7
842.805	13909.92
843.13	13797.15
843.454	13852.29
843.778	13781.78
844.103	13758.06
844.427	13649.36
844.751	13683.48
845.075	13683.71
845.399	13709.47
845.723	13622.69
846.047	13566.65
846.371	13520.55
846.695	13505.63
847.019	13314.9
847.343	13257.28
847.666	13213.21
847.99	13190.16
848.313	13144.29
848.637	13044.85
848.96	13136.6
849.284	13061.13
849.607	12935.93
849.931	12865.65
850.254	12809.61
850.577	12782.04
850.9	12684.64
851.223	12646.67
851.546	12616.62
851.869	12489.39
852.192	12525.55
852.515	12492.78
852.838	12451.42
853.161	12450.29
853.483	12377.53
853.806	12335.49
854.129	12240.13
854.451	12140.02
854.774	12163.3
855.096	12107.7
855.419	12107.7
855.741	12099.34
856.063	11937.54
856.385	11958.56
856.708	11907.48
857.03	11909.97
857.352	11919.91
857.674	11831.78
857.996	11815.96
858.318	11717.43
858.64	11673.82
858.961	11674.72
859.283	11568.51
859.605	11633.59
859.926	11655.74
860.248	11645.12
860.57	11629.98
860.891	11542.52
861.212	11505.69
861.534	11403.77
861.855	11412.13
862.176	11434.73
862.498	11451.68
862.819	11367.16
863.14	11349.53
863.461	11286.48
863.782	11347.27
864.103	11302.75
864.424	11260.49
864.745	11325.58
865.065	11225.47
865.386	11187.5
865.707	11175.07
866.027	11193.15
866.348	11137.11
866.668	11121.52
866.989	11097.11
867.309	11038.13
867.63	11095.75
867.95	11062.53
868.27	11009.2
868.59	11026.83
868.91	10940.05
869.23	10938.47
869.55	10831.35
869.87	10908.87
870.19	10872.26
870.51	10937.79
870.83	10935.31
871.15	10920.62
871.469	10894.4
871.789	10880.62
872.109	10895.08
872.428	10696.89
872.748	10787.96
873.067	10780.96
873.386	10780.06
873.706	10713.16
874.025	10727.63
874.344	10651.92
874.663	10715.2
874.982	10717.23
875.301	10630.68
875.62	10616.44
875.939	10592.72
876.258	10591.59
876.577	10484.47
876.896	10563.79
877.214	10456.45
877.533	10543.68
877.852	10560.85
878.17	10514.98
878.489	10511.81
878.807	10442.21
879.125	10402.21
879.444	10378.94
879.762	10315.21
880.08	10326.28
880.398	10326.51
880.716	10334.87
881.034	10293.06
881.352	10255.32
881.67	10226.85
881.988	10248.77
882.306	10259.17
882.624	10214.65
882.941	10097.14
883.259	10155.89
883.577	10137.13
883.894	10118.6
884.212	10111.82
884.529	10028.66
884.846	10082.22
885.164	9932.62
885.481	9965.16
885.798	9993.64
886.115	9907.31
886.432	9881.32
886.75	9912.51
887.067	9791.38
887.383	9767.88
887.7	9808.78
888.017	9787.09
888.334	9790.25
888.651	9794.09
888.967	9724.49
889.284	9628.9
889.6	9720.87
889.917	9607.66
890.233	9629.8
890.55	9593.19
890.866	9557.49
891.182	9556.58
891.498	9421.67
891.815	9508.22
892.131	9432.29
892.447	9420.09
892.763	9346.19
893.079	9361.11
893.395	9297.16
893.71	9282.69
894.026	9271.85
894.342	9289.25
894.657	9223.03
894.973	9185.07
895.289	9139.42
895.604	9143.94
895.92	9087.44
896.235	9061.46
896.55	9007.67
896.865	8952.31
897.181	8914.12
897.496	9056.26
897.811	8970.16
898.126	8877.05
898.441	8846.55
898.756	8924.96
899.071	8800.67
899.386	8771.52
899.7	8769.71
900.015	8688.81
900.33	8644.74
900.644	8614.24
900.959	8649.49
901.273	8572.66
901.588	8554.8
901.902	8524.07
902.216	8458.31
902.531	8371.31
902.845	8410.17
903.159	8357.97
903.473	8341.25
903.787	8280.01
904.101	8312.55
904.415	8313.23
904.729	8223.29
905.042	8228.48
905.356	8193.68
905.67	8252.44
905.984	8244.3
906.297	8079.34
906.611	8034.37
906.924	8018.55
907.237	7992.78
907.551	7974.48
907.864	7929.28
908.177	7919.57
908.491	7963.86
908.804	7864.43
909.117	7835.73
909.43	7803.18
909.743	7751.21
910.056	7778.33
910.368	7692.23
910.681	7648.61
910.994	7649.74
911.307	7649.97
911.619	7548.5
911.932	7569.07
912.244	7479.8
912.557	7483.42
912.869	7489.97
913.181	7391.44
913.494	7393.93
913.806	7343.76
914.118	7363.65
914.43	7257.89
914.742	7257.44
915.054	7223.31
915.366	7171.56
915.678	7183.77
915.99	7160.26
916.302	7098.34
916.613	7047.72
916.925	7070.55
917.236	7068.06
917.548	6883.43
917.859	6959.59
918.171	6942.87
918.482	6906.71
918.794	6892.25
919.105	6896.77
919.416	6762.31
919.727	6822.42
920.038	6726.38
920.349	6736.09
920.66	6710.56
920.971	6739.94
921.282	6645.25
921.593	6581.52
921.903	6629.66
922.214	6563.9
922.525	6520.05
922.835	6493.61
923.146	6445.48
923.456	6468.08
923.767	6377.01
924.077	6414.75
924.387	6359.38
924.697	6333.62
925.008	6380.85
925.318	6259.5
925.628	6288.65
925.938	6271.02
926.248	6234.64
926.558	6187.63
926.867	6168.88
927.177	6111.48
927.487	6141.08
927.796	6035.55
928.106	6116
928.416	6016.34
928.725	6009.79
929.034	5982.67
929.344	5972.72
929.653	5978.6
929.962	5891.37
930.271	5905.38
930.581	5849.34
930.89	5863.35
931.199	5784.03
931.508	5758.49
931.817	5749.45
932.125	5724.14
932.434	5748.32
932.743	5686.63
933.051	5636.01
933.36	5660.19
933.669	5569.57
933.977	5550.81
934.286	5550.59
934.594	5548.33
934.902	5458.84
935.21	5470.14
935.519	5431.27
935.827	5440.31
936.135	5415.68
936.443	5358.5
936.751	5378.39
937.059	5349.01
937.367	5325.96
937.674	5332.29
937.982	5258.84
938.29	5231.05
938.597	5226.98
938.905	5246.19
939.213	5190.15
939.52	5158.73
939.827	5171.84
940.135	5122.58
940.442	5103.59
940.749	5097.04
941.056	5089.81
941.363	5006.87
941.67	5025.63
941.977	5011.85
942.284	4930.94
942.591	4932.75
942.898	4905.41
943.205	4906.09
943.511	4885.3
943.818	4864.73
944.125	4820.66
944.431	4788.12
944.738	4806.88
945.044	4779.99
945.35	4756.49
945.657	4753.77
945.963	4748.58
946.269	4695.47
946.575	4718.29
946.881	4622.03
947.187	4649.82
947.493	4618.41
947.799	4564.63
948.105	4582.93
948.41	4573.44
948.716	4619.31
949.022	4502.03
949.327	4517.62
949.633	4429.49
949.938	4483.05
950.244	4501.12
950.549	4416.16
950.854	4402.14
951.16	4401.69
951.465	4343.84
951.77	4353.78
952.075	4345.2
952.38	4371.18
952.685	4333.67
952.99	4289.15
953.294	4246.44
953.599	4235.37
953.904	4155.82
954.209	4167.57
954.513	4200.57
954.818	4148.59
955.122	4177.74
955.426	4168.93
955.731	4132.77
956.035	4078.76
956.339	4113.34
956.643	4054.13
956.948	4040.8
957.252	4027.24
957.556	4023.4
957.86	4000.35
958.163	3975.49
958.467	3989.5
958.771	3976.39
959.075	3930.07
959.378	3888.94
959.682	3940.24
959.985	3856.62
960.289	3837.41
960.592	3835.38
960.896	3826.11
961.199	3798.77
961.502	3795.61
961.805	3789.5
962.108	3729.62
962.411	3744.99
962.714	3713.35
963.017	3715.16
963.32	3730.07
963.623	3693.46
963.926	3698.21
964.228	3646.91
964.531	3620.02
964.833	3621.83
965.136	3608.49
965.438	3582.73
965.741	3578.89
966.043	3535.95
966.345	3496.41
966.648	3534.14
966.95	3534.82
967.252	3465.22
967.554	3482.17
967.856	3474.03
968.158	3424.54
968.46	3420.93
968.761	3413.24
969.063	3387.93
969.365	3408.95
969.666	3350.42
969.968	3363.08
970.269	3339.57
970.571	3347.48
970.872	3302.06
971.174	3296.41
971.475	3312
971.776	3253.25
972.077	3230.88
972.378	3252.8
972.679	3225
972.98	3201.27
973.281	3184.55
973.582	3189.29
973.883	3211.22
974.183	3145.23
974.484	3119.24
974.785	3105.46
975.085	3104.78
975.386	3107.94
975.686	3080.6
975.986	3092.12
976.287	3072.91
976.587	3062.07
976.887	2987.72
977.187	2989.98
977.487	3015.06
977.787	2992.24
978.087	2997.21
978.387	2927.38
978.687	2956.76
978.987	2911.11
979.286	2902.3
979.586	2905.01
979.885	2897.55
980.185	2873.6
980.484	2872.69
980.784	2857.33
981.083	2860.49
981.382	2844.67
981.682	2821.85
981.981	2806.71
982.28	2800.38
982.579	2773.71
982.878	2746.82
983.177	2731.68
983.475	2792.69
983.774	2742.75
984.073	2723.09
984.372	2700.04
984.67	2709.99
984.969	2709.53
985.267	2657.33
985.566	2671.34
985.864	2658.69
986.162	2626.6
986.461	2629.08
986.759	2629.31
987.057	2569.65
987.355	2596.99
987.653	2585.24
987.951	2559.03
988.249	2549.76
988.547	2548.18
988.844	2559.48
989.142	2543.89
989.44	2542.98
989.737	2510.22
990.035	2518.8
990.332	2498.47
990.63	2464.12
990.927	2448.3
991.224	2468.86
991.521	2472.7
991.819	2418.69
992.116	2406.94
992.413	2392.48
992.71	2380.5
993.006	2387.96
993.303	2368.3
993.6	2311.8
993.897	2362.42
994.193	2339.6
994.49	2317
994.787	2305.25
995.083	2312.71
995.379	2278.36
995.676	2272.48
995.972	2255.08
996.268	2264.8
996.565	2250.11
996.861	2236.55
997.157	2251.24
997.453	2230
997.749	2222.09
998.044	2205.14
998.34	2178.7
998.636	2168.53
998.932	2144.35
999.227	2139.83
999.523	2162.65
999.818	2139.83
1000.114	2103.9
1000.409	2068.87
1000.704	2107.74
1001	2089.66
1001.295	2093.73
1001.59	2087.85
1001.885	2052.15
1002.18	2041.75
1002.475	2045.82
1002.77	2019.83
1003.065	2006.5
1003.359	2002.21
1003.654	1986.84
1003.949	1924.24
1004.243	1958.82
1004.538	1965.15
1004.832	1969.89
1005.127	1916.11
1005.421	1922.44
1005.715	1890.57
1006.009	1924.47
1006.304	1888.31
1006.598	1897.13
1006.892	1892.61
1007.186	1831.82
1007.48	1850.57
1007.773	1857.58
1008.067	1862.55
1008.361	1826.39
1008.655	1789.33
1008.948	1802.44
1009.242	1792.27
1009.535	1785.26
1009.829	1777.81
1010.122	1752.27
1010.415	1775.77
1010.708	1757.24
1011.001	1728.77
1011.295	1752.27
1011.588	1700.97
1011.881	1700.52
1012.173	1691.93
1012.466	1683.8
1012.759	1660.3
1013.052	1679.73
1013.344	1661.65
1013.637	1632.05
1013.93	1624.36
1014.222	1640.41
1014.514	1613.06
1014.807	1614.19
1015.099	1596.34
1015.391	1593.18
1015.683	1602.9
1015.976	1562.44
1016.268	1560.86
1016.56	1555.44
1016.851	1542.56
1017.143	1539.62
1017.435	1551.15
1017.727	1519.06
1018.018	1496.23
1018.31	1494.88
1018.602	1481.77
1018.893	1462.56
1019.185	1455.33
1019.476	1471.15
1019.767	1434.99
1020.058	1437.48
1020.35	1441.54
1020.641	1411.49
1020.932	1388.44
1021.223	1414.43
1021.514	1413.07
1021.804	1389.34
1022.095	1361.77
1022.386	1378.49
1022.677	1368.33
1022.967	1355.44
1023.258	1345.95
1023.548	1316.12
1023.839	1307.31
1024.129	1312.06
1024.419	1307.99
1024.709	1289.23
1025	1311.38
1025.29	1282.9
1025.58	1265.28
1025.87	1259.4
1026.16	1233.87
1026.449	1245.84
1026.739	1243.13
1027.029	1222.57
1027.319	1200.19
1027.608	1226.63
1027.898	1205.17
1028.187	1213.53
1028.477	1205.17
1028.766	1191.16
1029.055	1142.34
1029.344	1179.63
1029.634	1161.1
1029.923	1146.86
1030.212	1150.03
1030.501	1129.46
1030.79	1138.05
1031.078	1132.63
1031.367	1129.69
1031.656	1115.22
1031.945	1093.3
1032.233	1105.51
1032.522	1098.95
1032.81	1102.34
1033.099	1080.2
1033.387	1067.99
1033.675	1060.31
1033.963	1060.99
1034.251	1062.34
1034.54	1039.75
1034.828	1037.94
1035.116	1027.77
1035.403	1019.86
1035.691	1006.3
1035.979	1016.24
1036.267	1011.05
1036.554	996.36
1036.842	988.9
1037.129	1000.43
1037.417	973.31
1037.704	958.84
1037.992	964.27
1038.279	963.59
1038.566	972.4
1038.853	972.4
1039.14	972.4
