Data from hue_22_FLMS001491_00078.txt Node
Date: Tue Feb 07 17:10:38 GMT 2017
User: dcchb
Spectrometer: FLMS00149
Trigger mode: 0
Integration Time (sec): 2.000000E-2
Scans to average: 10
Electric dark correction enabled: true
Nonlinearity correction enabled: false
Boxcar width: 0
XAxis mode: Wavelengths
Number of Pixels in Spectrum: 2048
>>>>>Begin Spectral Data<<<<<
341.393	-18.66
341.776	-18.66
342.16	-18.66
342.543	-77.87
342.927	-64.08
343.31	-47.58
343.693	-70.63
344.077	-61.82
344.46	-59.11
344.843	-39.45
345.226	-65.66
345.61	-27.02
345.993	-18.66
346.376	0.1
346.759	-1.48
347.142	21.34
347.525	37.39
347.908	66.76
348.291	71.96
348.674	80.77
349.057	113.09
349.44	118.74
349.823	130.72
350.206	155.58
350.588	173.43
350.971	201.22
351.354	198.96
351.737	226.53
352.119	236.93
352.502	264.05
352.884	287.32
353.267	278.96
353.65	277.83
354.032	301.56
354.414	291.62
354.797	287.77
355.179	307.21
355.562	336.14
355.944	339.75
356.326	327.77
356.709	340.43
357.091	339.52
357.473	342.46
357.855	346.08
358.238	337.49
358.62	321.45
359.002	345.4
359.384	353.99
359.766	331.84
360.148	325.74
360.53	325.51
360.912	335.91
361.294	317.6
361.676	315.12
362.057	336.14
362.439	328.9
362.821	316.93
363.203	339.07
363.584	318.51
363.966	304.05
364.348	312.41
364.729	298.62
365.111	315.8
365.493	313.08
365.874	303.14
366.256	323.48
366.637	291.84
367.019	309.47
367.4	307.66
367.781	301.79
368.163	303.37
368.544	306.31
368.925	297.49
369.306	320.54
369.688	307.89
370.069	312.41
370.45	296.81
370.831	306.98
371.212	302.92
371.593	301.79
371.974	314.21
372.355	314.44
372.736	326.42
373.117	298.85
373.498	292.52
373.879	319.86
374.26	297.94
374.641	320.09
375.021	283.93
375.402	330.03
375.783	319.19
376.163	312.86
376.544	323.03
376.925	322.35
377.305	323.48
377.686	335.91
378.066	341.56
378.447	309.24
378.827	324.38
379.208	311.96
379.588	334.1
379.968	326.87
380.349	306.53
380.729	306.76
381.109	339.75
381.489	331.84
381.87	332.07
382.25	317.6
382.63	306.98
383.01	326.87
383.39	314.89
383.77	332.29
384.15	331.84
384.53	326.87
384.91	363.71
385.29	343.14
385.67	335.23
386.049	351.05
386.429	346.53
386.809	361.9
387.189	344.72
387.568	348.79
387.948	323.71
388.328	330.71
388.707	336.36
389.087	349.69
389.466	356.93
389.846	344.95
390.225	349.47
390.605	361.22
390.984	335.01
391.363	354.21
391.743	363.93
392.122	363.48
392.501	362.12
392.881	365.06
393.26	355.57
393.639	353.08
394.018	362.8
394.397	363.48
394.776	373.65
395.155	358.51
395.534	403.7
395.913	368.9
396.292	386.3
396.671	396.92
397.05	383.14
397.429	379.52
397.808	367.55
398.186	382.46
398.565	403.48
398.944	392.63
399.323	397.38
399.701	383.14
400.08	400.54
400.458	383.82
400.837	379.52
401.215	401.22
401.594	393.99
401.972	406.87
402.351	413.65
402.729	399.41
403.107	394.89
403.486	406.19
403.864	395.57
404.242	398.96
404.62	409.35
404.999	415
405.377	391.28
405.755	386.53
406.133	390.6
406.511	419.3
406.889	424.49
407.267	420.2
407.645	422.69
408.023	392.4
408.401	417.94
408.779	419.97
409.156	414.55
409.534	419.75
409.912	429.24
410.29	432.4
410.667	449.13
411.045	434.44
411.422	447.77
411.8	430.14
412.178	445.96
412.555	454.32
412.933	454.32
413.31	466.98
413.687	466.53
414.065	429.69
414.442	477.37
414.819	474.21
415.197	471.05
415.574	483.48
415.951	487.54
416.328	466.53
416.705	495.91
417.082	466.08
417.46	489.13
417.837	489.13
418.214	469.01
418.591	468.11
418.967	494.55
419.344	509.24
419.721	502.68
420.098	490.48
420.475	502.01
420.852	508.79
421.228	481.67
421.605	533.19
421.982	536.13
422.358	527.32
422.735	534.77
423.111	523.47
423.488	521.89
423.864	532.74
424.241	537.26
424.617	522.57
424.994	546.3
425.37	558.5
425.746	541.55
426.123	535.68
426.499	538.62
426.875	563.93
427.251	545.62
427.627	569.58
428.003	555.34
428.379	568.67
428.756	581.33
429.132	561.67
429.507	595.56
429.883	598.05
430.259	602.34
430.635	602.12
431.011	586.98
431.387	618.39
431.763	629.69
432.138	622.68
432.514	619.97
432.89	624.49
433.265	629.69
433.641	647.31
434.016	652.29
434.392	647.54
434.767	647.77
435.143	643.92
435.518	663.13
435.894	659.74
436.269	685.28
436.644	659.97
437.02	675.34
437.395	712.4
437.77	699.06
438.145	695.22
438.52	698.84
438.895	696.35
439.271	711.27
439.646	705.39
440.021	704.26
440.395	725.5
440.77	729.8
441.145	721.21
441.52	751.04
441.895	730.7
442.27	749.68
442.645	743.36
443.019	764.82
443.394	738.84
443.769	740.64
444.143	760.98
444.518	776.35
444.892	761.66
445.267	767.31
445.641	787.42
446.016	819.29
446.39	765.73
446.764	802.79
447.139	794.2
447.513	820.19
447.887	789
448.262	813.86
448.636	820.64
449.01	790.59
449.384	815.67
449.758	834.2
450.132	828.55
450.506	847.53
450.88	844.82
451.254	858.16
451.628	849.34
452.002	879.62
452.376	860.42
452.75	879.62
453.123	881.21
453.497	938.38
453.871	882.56
454.244	905.61
454.618	918.27
454.992	926.18
455.365	928.21
455.739	939.96
456.112	948.1
456.486	966.18
456.859	948.32
457.232	949.45
457.606	970.02
457.979	1002.11
458.352	992.62
458.725	1022.22
459.099	1027.19
459.472	1028.09
459.845	1039.62
460.218	1061.77
460.591	1063.57
460.964	1045.04
461.337	1100.41
461.71	1071.94
462.083	1088.21
462.456	1092.5
462.829	1115.32
463.201	1112.61
463.574	1130.92
463.947	1139.05
464.32	1155.1
464.692	1219.95
465.065	1172.72
465.438	1184.7
465.81	1219.28
466.183	1227.64
466.555	1249.56
466.928	1257.24
467.3	1245.04
467.672	1292.04
468.045	1320.52
468.417	1316.45
468.789	1336.79
469.161	1349.67
469.534	1374.75
469.906	1385.6
470.278	1404.58
470.65	1385.15
471.022	1453.62
471.394	1473.96
471.766	1474.41
472.138	1490.46
472.51	1484.81
472.882	1547.63
473.253	1594.86
473.625	1575.42
473.997	1614.75
474.369	1631.02
474.74	1654.07
475.112	1675.99
475.484	1747.17
475.855	1751.92
476.227	1756.89
476.598	1784.91
476.97	1844.12
477.341	1870.11
477.713	1896.55
478.084	1889.77
478.455	1945.58
478.827	1937.22
479.198	2019.71
479.569	2000.72
479.94	2109.2
480.311	2138.12
480.682	2179.02
481.053	2198.91
481.424	2217.44
481.795	2283.2
482.166	2351.9
482.537	2363.88
482.908	2406.36
483.279	2466.25
483.65	2494.95
484.021	2540.37
484.391	2583.99
484.762	2582.86
485.133	2649.07
485.503	2714.38
485.874	2735.39
486.244	2781.49
486.615	2840.7
486.985	2853.81
487.356	2950.76
487.726	2962.73
488.097	3043.86
488.467	3053.13
488.837	3117.53
489.207	3183.07
489.578	3209.28
489.948	3236.85
490.318	3286.57
490.688	3276.85
491.058	3313.68
491.428	3379.9
491.798	3437.3
492.168	3525.66
492.538	3529.27
492.908	3570.4
493.278	3591.19
493.648	3629.16
494.017	3700.57
494.387	3742.37
494.757	3750.73
495.126	3807.91
495.496	3831.18
495.866	3887
496.235	3886.32
496.605	3932.88
496.974	3978.98
497.344	3984.17
497.713	4047.68
498.082	4095.81
498.452	4085.42
498.821	4125.87
499.19	4138.3
499.559	4183.72
499.928	4215.58
500.298	4222.81
500.667	4252.42
501.036	4318.4
501.405	4343.49
501.774	4370.61
502.143	4398.63
502.512	4390.72
502.88	4442.47
503.249	4439.53
503.618	4482.92
503.987	4472.52
504.356	4496.48
504.724	4588.9
505.093	4587.77
505.462	4607.21
505.83	4644.95
506.199	4614.89
506.567	4749.35
506.936	4654.89
507.304	4733.99
507.672	4753.65
508.041	4777.6
508.409	4819.86
508.777	4845.62
509.145	4885.62
509.514	4889.91
509.882	4930.36
510.25	4950.25
510.618	4955.22
510.986	4974.43
511.354	5015.79
511.722	5022.34
512.09	5065.05
512.458	5071.15
512.826	5125.61
513.193	5108.67
513.561	5124.48
513.929	5229.79
514.297	5220.3
514.664	5243.12
515.032	5288.55
515.4	5261.2
515.767	5311.37
516.135	5335.33
516.502	5309.79
516.869	5393.18
517.237	5352.73
517.604	5369.9
517.972	5433.85
518.339	5453.97
518.706	5479.05
519.073	5486.73
519.44	5480.18
519.808	5548.2
520.175	5543.23
520.542	5556.34
520.909	5616.9
521.276	5631.82
521.643	5689.44
522.009	5658.48
522.376	5726.05
522.743	5718.14
523.11	5780.29
523.477	5845.14
523.843	5870.23
524.21	5916.55
524.577	5914.75
524.943	5983.22
525.31	5973.95
525.676	6032.03
526.043	6028.41
526.409	6083.55
526.776	6137.56
527.142	6135.08
527.508	6144.12
527.874	6223.21
528.241	6240.84
528.607	6248.75
528.973	6313.15
529.339	6346.6
529.705	6374.85
530.071	6404.45
530.437	6508.18
530.803	6538.91
531.169	6508.18
531.535	6550.66
531.901	6530.77
532.267	6561.96
532.632	6601.06
532.998	6591.56
533.364	6688.28
533.73	6693.03
534.095	6774.16
534.461	6745.01
534.826	6805.12
535.192	6832.91
535.557	6830.2
535.923	6852.57
536.288	6938.67
536.653	6917.21
537.019	6903.87
537.384	6942.29
537.749	7030.42
538.114	7014.15
538.479	7071.33
538.845	7063.87
539.21	7028.39
539.575	7118.1
539.94	7088.27
540.305	7175.5
540.67	7191.1
541.034	7226.8
541.399	7258.44
541.764	7215.05
542.129	7276.29
542.494	7347.02
542.858	7326.01
543.223	7348.15
543.587	7455.5
543.952	7414.14
544.316	7429.51
544.681	7493.91
545.045	7463.63
545.41	7569.17
545.774	7563.97
546.138	7589.05
546.503	7666.11
546.867	7601.25
547.231	7738.88
547.595	7706.34
547.959	7712.89
548.324	7686.45
548.688	7766
549.052	7750.63
549.416	7845.99
549.779	7848.03
550.143	7888.03
550.507	7967.8
550.871	7923.28
551.235	7940.23
551.599	8013
551.962	7987.23
552.326	8054.12
552.689	8135.03
553.053	8020
553.417	8078.08
553.78	8187.45
554.143	8174.57
554.507	8218.41
554.87	8241.46
555.234	8286.66
555.597	8252.99
555.96	8335.7
556.323	8318.52
556.686	8352.87
557.05	8441.68
557.413	8377.28
557.776	8448.46
558.139	8490.72
558.502	8485.98
558.865	8486.88
559.228	8611.17
559.59	8558.07
559.953	8581.79
560.316	8668.35
560.679	8727.55
561.041	8765.29
561.404	8774.56
561.767	8814.78
562.129	8781.34
562.492	8872.41
562.854	8869.7
563.217	8852.75
563.579	8853.88
563.941	8949.69
564.304	8939.75
564.666	9035.34
565.028	9045.96
565.39	9052.52
565.753	9091.61
566.115	9106.98
566.477	9228.56
566.839	9236.47
567.201	9262.45
567.563	9271.49
567.925	9419.06
568.287	9422.9
568.648	9450.25
569.01	9424.03
569.372	9476.91
569.734	9448.44
570.095	9577.02
570.457	9649.34
570.819	9605.04
571.18	9640.98
571.542	9716.45
571.903	9760.75
572.265	9774.53
572.626	9761.42
572.987	9883.23
573.349	9862.21
573.71	9940.85
574.071	9972.72
574.432	9989.21
574.794	10179.04
575.155	10203.67
575.516	10207.29
575.877	10275.53
576.238	10229.43
576.599	10380.16
576.96	10480.73
577.32	10530.22
577.681	10608.18
578.042	10782.41
578.403	10800.04
578.763	10886.37
579.124	10922.98
579.485	11032.35
579.845	11179.24
580.206	11260.59
580.566	11328.39
580.927	11408.16
581.287	11580.36
581.648	11627.82
582.008	11885.44
582.368	11978.99
582.728	12071.19
583.089	12205.43
583.449	12273.45
583.809	12556.83
584.169	12689.93
584.529	12805.86
584.889	13090.38
585.249	13205.4
585.609	13357.71
585.969	13614.88
586.329	13719.51
586.688	14013.52
587.048	14099.62
587.408	14345.48
587.768	14596.78
588.127	14730.56
588.487	14996.77
588.846	15343.65
589.206	15497.32
589.565	15701.61
589.925	16104.99
590.284	16265.43
590.643	16481.02
591.003	16825.42
591.362	17205.3
591.721	17322.81
592.08	17610.03
592.44	17991.49
592.799	18270.13
593.158	18412.04
593.517	18788.31
593.876	19109.43
594.235	19266.71
594.593	19725.23
594.952	19948.27
595.311	20298.32
595.67	20565.21
596.029	21011.07
596.387	21309.82
596.746	21616.03
597.104	21813.54
597.463	22112.29
597.822	22616.68
598.18	22751.37
598.538	23079.94
598.897	23503.21
599.255	23662.98
599.613	24169.18
599.972	24478.55
600.33	24772.55
600.688	25027.69
601.046	25358.3
601.404	25729.59
601.762	25977.27
602.12	26357.82
602.478	26595.11
602.836	26965.27
603.194	27186.05
603.552	27500.17
603.91	27686.38
604.268	28055.86
604.625	28315.29
604.983	28655.84
605.341	28800.92
605.698	29256.28
606.056	29513.9
606.413	29843.83
606.771	30016.26
607.128	30393.88
607.485	30423.71
607.843	30742.79
608.2	31082.67
608.557	31581.87
608.914	31444.92
609.272	31949.32
609.629	32240.16
609.986	32549.98
610.343	32744.1
610.7	33156.29
611.057	33277.19
611.414	33415.49
611.771	33593.11
612.127	34000.79
612.484	34163.49
612.841	34396.48
613.198	34479.42
613.554	34690.26
613.911	35035.34
614.267	35158.27
614.624	35403.24
614.98	35561.65
615.337	35909.66
615.693	35899.04
616.05	36075.99
616.406	36398.01
616.762	36487.95
617.118	36698.57
617.475	36932.69
617.831	37078.45
618.187	37205.22
618.543	37312.56
618.899	37741.48
619.255	37823.51
619.611	37950.97
619.967	38155.93
620.323	38318.64
620.678	38198.19
621.034	38281.58
621.39	38589.59
621.746	38547.11
622.101	39062.57
622.457	39008.56
622.812	39199.75
623.168	39235
623.523	39351.38
623.879	39425.5
624.234	39467.76
624.589	39667.3
624.945	39655.33
625.3	39846.28
625.655	39780.97
626.01	39943.46
626.365	40006.05
626.72	40036.56
627.075	40024.81
627.43	40167.86
627.785	40112.49
628.14	40165.14
628.495	40313.16
628.85	40531.46
629.205	40390.68
629.559	40710.44
629.914	40523.33
630.269	40639.03
630.623	40540.95
630.978	40617.11
631.332	40869.31
631.687	40910.89
632.041	40841.96
632.396	40838.8
632.75	40741.4
633.104	41032.47
633.459	40846.71
633.813	40906.37
634.167	40869.76
634.521	40996.31
634.875	41015.07
635.229	41016.42
635.583	40844.67
635.937	41011.68
636.291	40906.82
636.645	40931.45
636.999	40952.24
637.352	41088.74
637.706	40855.52
638.06	41124.22
638.413	41080.6
638.767	40871.57
639.121	40912.24
639.474	40736.43
639.828	40957.89
640.181	41069.98
640.534	41069.75
640.888	40848.52
641.241	40719.71
641.594	40816.2
641.947	41143.42
642.301	40873.15
642.654	40934.84
643.007	40968.29
643.36	41036.08
643.713	40868.4
644.066	41053.71
644.419	40803.09
644.771	40565.13
645.124	40172.83
645.477	40226.39
645.83	39982.55
646.182	39769.45
646.535	39718.6
646.888	39834.53
647.24	39617.81
647.593	39891.03
647.945	39825.94
648.298	39639.51
648.65	39477.48
649.002	39509.12
649.355	39783.01
649.707	39614.2
650.059	39942.78
650.411	40319.72
650.763	40329.66
651.115	40819.14
651.467	40635.41
651.819	40482.65
652.171	40453.05
652.523	40440.62
652.875	40291.02
653.227	40239.94
653.578	40567.62
653.93	40368.98
654.282	40304.35
654.633	40271.81
654.985	40415.99
655.337	40433.61
655.688	40161.3
656.039	40474.06
656.391	40255.31
656.742	40130.57
657.094	40281.3
657.445	40364.91
657.796	40337.8
658.147	40152.04
658.498	40231.36
658.849	40250.79
659.2	40160.17
659.551	40333.28
659.902	40356.1
660.253	40260.74
660.604	40248.98
660.955	40148.42
661.306	40312.26
661.656	40176.44
662.007	40139.83
662.358	40207.63
662.708	40058.71
663.059	40107.97
663.409	39939.61
663.76	40301.64
664.11	40248.31
664.461	40255.76
664.811	40110.91
665.161	40066.16
665.511	39961.31
665.862	40006.28
666.212	40148.42
666.562	40221.64
666.912	40076.33
667.262	40034.98
667.612	39948.88
667.962	40056.22
668.312	40018.26
668.662	40170.12
669.011	40046.5
669.361	39987.52
669.711	39925.38
670.06	39901.65
670.41	39963.57
670.76	39870.46
671.109	39954.3
671.459	39890.35
671.808	39840.63
672.157	40031.36
672.507	39797.02
672.856	39786.17
673.205	39927.41
673.554	39914.76
673.904	39733.74
674.253	40072.72
674.602	39779.39
674.951	39310.7
675.3	39171.72
675.649	39828.43
675.998	39711.6
676.346	39664.37
676.695	39850.58
677.044	39506.86
677.393	39540.53
677.741	39599.28
678.09	39446.75
678.438	39336.69
678.787	39526.97
679.135	39573.75
679.484	39268.22
679.832	39467.31
680.181	39255.79
680.529	39399.97
680.877	39195
681.225	39211.05
681.573	39396.13
681.922	39129.69
682.27	38964.27
682.618	38859.64
682.966	38906.87
683.314	38980.09
683.661	38877.27
684.009	38642.25
684.357	38662.13
684.705	38617.39
685.053	38804.05
685.4	38651.74
685.748	38425.76
686.095	38348.92
686.443	38220.56
686.79	38382.82
687.138	38321.58
687.485	38282.93
687.832	38131.75
688.18	38112.77
688.527	37967.69
688.874	37977.41
689.221	37884.53
689.568	37824.87
689.915	37581.03
690.262	37696.28
690.609	37639.79
690.956	37428.72
691.303	37434.59
691.65	37149.63
691.997	37333.13
692.344	37156.64
692.69	37121.83
693.037	37005.68
693.383	36777.89
693.73	36842.07
694.077	36758.45
694.423	36774.27
694.769	36605.92
695.116	36565.92
695.462	36590.1
695.808	36394.62
696.155	36395.3
696.501	36118.7
696.847	36166.38
697.193	35827.41
697.539	36048.42
697.885	35725.94
698.231	35736.79
698.577	35702.66
698.923	35730.68
699.269	35453.86
699.614	35367.98
699.96	35332.96
700.306	35243.69
700.651	35044.38
700.997	34993.98
701.342	34903.14
701.688	34912.63
702.033	34781.11
702.379	34794.89
702.724	34641.9
703.069	34697.27
703.415	34404.84
703.76	34460.89
704.105	34483.26
704.45	34209.82
704.795	34096.15
705.14	33932.99
705.485	33891.86
705.83	33805.99
706.175	33968.92
706.52	33748.14
706.865	33723.96
707.209	33593.57
707.554	33586.11
707.899	33572.55
708.243	33326.68
708.588	33339.79
708.932	33182.28
709.277	33084.2
709.621	33167.14
709.966	32898.89
710.31	32945.22
710.654	32672.46
710.998	32735.51
711.342	32792.23
711.687	32634.95
712.031	32432.92
712.375	32354.5
712.719	32424.33
713.063	32400.38
713.407	32496.42
713.75	32427.49
714.094	32251
714.438	32150.89
714.782	32175.75
715.125	32031.12
715.469	32185.47
715.812	31922.65
716.156	31876.77
716.499	31774.4
716.843	31939.37
717.186	31743.45
717.53	31732.6
717.873	31747.29
718.216	31605.82
718.559	31472.49
718.902	31311.59
719.246	31406.28
719.589	31395.21
719.932	31218.04
720.275	31084.48
720.617	31281.08
720.96	31163.57
721.303	31059.62
721.646	31193.18
721.989	30802.23
722.331	30953.86
722.674	30831.15
723.016	30851.94
723.359	30801.55
723.701	30795.45
724.044	30623.7
724.386	30282.24
724.729	30695.34
725.071	30505.74
725.413	30467.55
725.755	30417.6
726.097	30334.44
726.439	30097.84
726.782	30058.29
727.124	30230.72
727.465	30090.61
727.807	30011.97
728.149	30030.27
728.491	30033.43
728.833	30013.77
729.175	29946.2
729.516	29952.98
729.858	29837.05
730.199	29878.64
730.541	29767
730.882	29773.33
731.224	29824.85
731.565	29506.22
731.906	29649.94
732.248	29632.09
732.589	29456.5
732.93	29397.29
733.271	29404.75
733.612	29442.94
733.953	29425.31
734.294	29284.3
734.635	29186
734.976	29344.41
735.317	29046.79
735.658	29077.07
735.999	29100.58
736.339	29069.17
736.68	29096.28
737.021	28949.85
737.361	28844.99
737.702	28971.77
738.042	28958.66
738.383	28924.08
738.723	28975.16
739.063	28757.76
739.404	28814.71
739.744	28822.17
740.084	28757.76
740.424	28766.35
740.764	28620.82
741.104	28702.17
741.444	28482.97
741.784	28423.53
742.124	28491.33
742.464	28455.4
742.804	28451.1
743.143	28357.32
743.483	28284.78
743.823	28237.77
744.162	28118.46
744.502	28370.65
744.841	28092.02
745.181	28188.51
745.52	28087.72
745.86	28195.52
746.199	28068.29
746.538	27963.43
746.877	28139.47
747.216	28035.75
747.556	27913.49
747.895	27966.37
748.234	27832.81
748.573	27752.59
748.911	27751.23
749.25	27729.77
749.589	27582.88
749.928	27710.1
750.267	27665.36
750.605	27499.26
750.944	27466.72
751.283	27425.37
751.621	27392.6
751.96	27335.43
752.298	27291.81
752.636	27358.48
752.975	27243.68
753.313	27173.62
753.651	27262.21
753.989	27079.16
754.327	26979.73
754.666	26853.18
755.004	26897.7
755.342	27014.08
755.679	26894.76
756.017	26776.8
756.355	26901.99
756.693	26695.89
757.031	26786.97
757.368	26545.39
757.706	26433.08
758.044	26435.11
758.381	26443.92
758.719	26338.39
759.056	26304.49
759.394	26260.43
759.731	26117.15
760.068	26096.81
760.405	25987.21
760.743	25862.7
761.08	25926.65
761.417	25810.49
761.754	25841.68
762.091	25739.99
762.428	25681.01
762.765	25557.39
763.102	25673.1
763.438	25463.16
763.775	25345.42
764.112	25410.96
764.449	25433.78
764.785	25191.75
765.122	25111.08
765.458	24963.28
765.795	24961.02
766.131	24915.38
766.467	24742.95
766.804	24704.08
767.14	24637.87
767.476	24517.65
767.812	24444.88
768.148	24486.69
768.485	24185.9
768.821	24216.41
769.157	24076.53
769.492	24136.87
769.828	24058
770.164	23819.59
770.5	23784.33
770.836	23776.2
771.171	23655.07
771.507	23656.43
771.842	23524.9
772.178	23435.41
772.513	23371.01
772.849	23336.89
773.184	23254.85
773.519	23214.4
773.855	23095.31
774.19	23036.1
774.525	22909.78
774.86	22858.48
775.195	22810.57
775.53	22765.38
775.865	22652.61
776.2	22519.51
776.535	22335.56
776.87	22304.37
777.205	22248.78
777.539	22199.97
777.874	22256.69
778.209	21974.89
778.543	21957.49
778.878	21904.61
779.212	21892.86
779.547	21661.9
779.881	21773.31
780.215	21586.42
780.55	21663.94
780.884	21412.64
781.218	21441.57
781.552	21404.28
781.886	21355.47
782.22	21077.96
782.554	21005.65
782.888	21068.7
783.222	20815.14
783.556	20769.72
783.889	20775.15
784.223	20591.42
784.557	20430.3
784.89	20532.89
785.224	20356.4
785.557	20266.68
785.891	20230.3
786.224	20280.24
786.558	20206.8
786.891	20043.41
787.224	19915.73
787.557	19882.06
787.891	19887.71
788.224	19850.42
788.557	19814.49
788.89	19686.59
789.223	19701.95
789.556	19566.82
789.888	19511.45
790.221	19314.62
790.554	19224.68
790.887	19190.1
791.219	19188.97
791.552	19126.83
791.884	19045.47
792.217	19026.94
792.549	19013.84
792.882	18858.36
793.214	18836.44
793.546	18729.78
793.879	18627.18
794.211	18511.48
794.543	18589.67
794.875	18583.79
795.207	18518.71
795.539	18434.19
795.871	18411.14
796.203	18233.29
796.535	18145.84
796.867	18152.39
797.198	18082.11
797.53	18063.8
797.862	17982.45
798.193	18010.47
798.525	17787.2
798.856	17891.38
799.188	17635.79
799.519	17584.5
799.85	17602.8
800.182	17559.86
800.513	17531.16
800.844	17335.91
801.175	17431.73
801.506	17393.54
801.837	17271.51
802.168	17181.57
802.499	17320.32
802.83	17172.53
803.161	17111.06
803.491	16925.53
803.822	17042.36
804.153	16880.33
804.483	16829.26
804.814	16803.95
805.145	16744.97
805.475	16716.27
805.805	16694.8
806.136	16614.58
806.466	16585.88
806.796	16659.77
807.126	16521.92
807.457	16374.81
807.787	16464.3
808.117	16433.79
808.447	16246.23
808.777	16453.23
809.107	16202.38
809.436	16210.07
809.766	16090.98
810.096	16085.55
810.426	16076.96
810.755	16074.93
811.085	15968.49
811.414	15967.81
811.744	15883.52
812.073	15744.09
812.403	15780.7
812.732	15740.25
813.061	15646.02
813.39	15658.22
813.719	15640.59
814.049	15662.74
814.378	15534.15
814.707	15559.46
815.036	15511.33
815.365	15492.57
815.693	15260.04
816.022	15313.82
816.351	15280.15
816.68	15221.85
817.008	15184.11
817.337	15131.23
817.665	15044.45
817.994	15051.23
818.322	15063.21
818.651	15001.06
818.979	14872.25
819.307	15040.38
819.636	14883.32
819.964	14868.41
820.292	14913.61
820.62	14911.8
820.948	14749.77
821.276	14866.15
821.604	14726.72
821.932	14867.73
822.259	14804.23
822.587	14808.3
822.915	14704.57
823.243	14823.66
823.57	14735.53
823.898	14737.11
824.225	14776.66
824.553	14658.92
824.88	14728.07
825.207	14733.72
825.535	14694.18
825.862	14798.81
826.189	14640.17
826.516	14795.42
826.843	14758.81
827.17	14746.6
827.497	14859.6
827.824	14694.85
828.151	14777.34
828.478	14791.12
828.805	14733.5
829.131	14714.74
829.458	14766.26
829.785	14617.79
830.111	14612.6
830.438	14705.7
830.764	14684.46
831.09	14644.69
831.417	14640.62
831.743	14707.28
832.069	14645.59
832.395	14610.79
832.722	14671.35
833.048	14638.13
833.374	14571.47
833.7	14479.27
834.026	14553.16
834.351	14562.2
834.677	14446.27
835.003	14486.27
835.329	14502.32
835.654	14457.8
835.98	14425.26
836.306	14464.13
836.631	14383
836.956	14443.56
837.282	14424.58
837.607	14349.1
837.932	14262.1
838.258	14358.14
838.583	14310.23
838.908	14174.87
839.233	14290.8
839.558	14208.09
839.883	14157.69
840.208	14129.67
840.533	14153.4
840.858	14147.52
841.182	14113.17
841.507	14061.88
841.832	14014.19
842.156	14016.91
842.481	13933.52
842.805	13946.62
843.13	13842.9
843.454	13830.47
843.778	13734.65
844.103	13817.81
844.427	13738.72
844.751	13826.18
845.075	13714.31
845.399	13686.97
845.723	13594.32
846.047	13550.03
846.371	13489.01
846.695	13565.84
847.019	13357.04
847.343	13321.56
847.666	13304.16
847.99	13241.56
848.313	13214.44
848.637	13137.61
848.96	13053.31
849.284	13059.64
849.607	12896.93
849.931	12912.98
850.254	12908.23
850.577	12769.03
850.9	12730.16
851.223	12693.78
851.546	12613.1
851.869	12554.12
852.192	12607.23
852.515	12547.34
852.838	12435.03
853.161	12408.59
853.483	12433.22
853.806	12354.58
854.129	12272.77
854.451	12240.45
854.774	12113.68
855.096	12186.22
855.419	12028.71
855.741	12076.39
856.063	12068.26
856.385	11990.52
856.708	11873.91
857.03	11914.59
857.352	11941.03
857.674	11883.63
857.996	11807.47
858.318	11719.34
858.64	11739.9
858.961	11731.54
859.283	11661.94
859.605	11599.12
859.926	11684.09
860.248	11560.25
860.57	11594.14
860.891	11641.83
861.212	11488.38
861.534	11425.11
861.855	11405.9
862.176	11434.15
862.498	11386.24
862.819	11420.59
863.14	11363.42
863.461	11322.06
863.782	11325.45
864.103	11308.28
864.424	11293.59
864.745	11316.19
865.065	11271.21
865.386	11185.12
865.707	11160.94
866.027	11207.04
866.348	11169.07
866.668	11136.76
866.989	11121.61
867.309	11045.23
867.63	11130.65
867.95	11101.95
868.27	10967.95
868.59	10952.13
868.91	11021.28
869.23	10969.75
869.55	10815.63
869.87	10971.79
870.19	10907.16
870.51	10961.62
870.83	10849.76
871.15	10868.97
871.469	10850.44
871.789	10852.47
872.109	10795.75
872.428	10741.06
872.748	10779.25
873.067	10768.18
873.386	10729.53
873.706	10739.03
874.025	10676.88
874.344	10602.31
874.663	10602.98
874.982	10646.37
875.301	10619.93
875.62	10597.79
875.939	10570.44
876.258	10620.38
876.577	10515.53
876.896	10513.49
877.214	10434.85
877.533	10435.53
877.852	10473.5
878.17	10480.95
878.489	10454.51
878.807	10519.6
879.125	10414.29
879.444	10384.46
879.762	10396.21
880.08	10373.16
880.398	10271.69
880.716	10376.78
881.034	10322.54
881.352	10352.14
881.67	10266.5
881.988	10193.05
882.306	10212.71
882.624	10181.75
882.941	10135.43
883.259	10134.52
883.577	10101.08
883.894	10129.1
884.212	10078.25
884.529	10071.7
884.846	10019.95
885.164	10055.88
885.481	9986.28
885.798	10027.41
886.115	9913.74
886.432	9899.05
886.75	9888.65
887.067	9906.73
887.383	9803.46
887.7	9812.72
888.017	9784.7
888.334	9789.22
888.651	9741.76
888.967	9722.56
889.284	9678.71
889.6	9676.45
889.917	9600.52
890.233	9673.06
890.55	9545.38
890.866	9617.93
891.182	9476.23
891.498	9534.31
891.815	9459.51
892.131	9413.41
892.447	9440.75
892.763	9387.2
893.079	9393.52
893.395	9337.71
893.71	9258.61
894.026	9280.53
894.342	9219.07
894.657	9155.56
894.973	9207.99
895.289	9183.36
895.604	9144.27
895.92	9090.71
896.235	8999.86
896.55	9050.48
896.865	9034.44
897.181	9034.21
897.496	8979.3
897.811	8947.43
898.126	8893.2
898.441	8859.3
898.756	8819.08
899.071	8781.34
899.386	8841
899.7	8692.75
900.015	8725.29
900.33	8615.47
900.644	8635.13
900.959	8609.14
901.273	8576.82
901.588	8528.24
901.902	8497.73
902.216	8477.16
902.531	8436.04
902.845	8473.77
903.159	8432.87
903.473	8361.23
903.787	8335.47
904.101	8252.54
904.415	8312.87
904.729	8228.81
905.042	8214.12
905.356	8219.77
905.67	8172.09
905.984	8139.32
906.297	8150.17
906.611	8088.25
906.924	8073.11
907.237	7965.54
907.551	8015.93
907.864	8004.86
908.177	7919.66
908.491	7869.5
908.804	7852.77
909.117	7863.17
909.43	7810.51
909.743	7774.81
910.056	7682.61
910.368	7713.12
910.681	7676.73
910.994	7612.1
911.307	7618.43
911.619	7582.72
911.932	7531.2
912.244	7511.77
912.557	7422.5
912.869	7428.38
913.181	7397.42
913.494	7363.75
913.806	7374.14
914.118	7313.13
914.43	7219.34
914.742	7259.12
915.054	7225.9
915.366	7196.75
915.678	7194.71
915.99	7147.93
916.302	7118.78
916.613	7091.21
916.925	7075.85
917.236	6996.75
917.548	7058.44
917.859	6982.51
918.171	6936.64
918.482	6925.57
918.794	6843.76
919.105	6843.76
919.416	6841.73
919.727	6840.82
920.038	6770.54
920.349	6763.31
920.66	6731.67
920.971	6637.44
921.282	6705.23
921.593	6646.48
921.903	6618.68
922.214	6565.35
922.525	6572.36
922.835	6539.36
923.146	6486.03
923.456	6413.04
923.767	6484.67
924.077	6386.37
924.387	6380.27
924.697	6396.54
925.008	6373.26
925.318	6309.99
925.628	6326.71
925.938	6230.67
926.248	6215.3
926.558	6145.7
926.867	6177.56
927.177	6146.15
927.487	6137.11
927.796	6014.63
928.106	6087.4
928.416	6053.5
928.725	6006.04
929.034	5987.06
929.344	5972.82
929.653	5953.61
929.962	5897.57
930.271	5904.8
930.581	5806.5
930.89	5851.47
931.199	5773.73
931.508	5797.46
931.817	5775.77
932.125	5667.07
932.434	5719.5
932.743	5703.68
933.051	5622.32
933.36	5648.99
933.669	5592.49
933.977	5585.49
934.286	5572.38
934.594	5549.11
934.902	5500.07
935.21	5471.59
935.519	5522.67
935.827	5425.94
936.135	5412.16
936.443	5395.21
936.751	5420.52
937.059	5376
937.367	5348.88
937.674	5284.03
937.982	5321.09
938.29	5214.88
938.597	5256.23
938.905	5192.28
939.213	5210.58
939.52	5150.92
939.827	5147.53
940.135	5165.61
940.442	5146.18
940.749	5102.56
941.056	5058.72
941.363	5007.88
941.67	5034.54
941.977	5011.04
942.284	4967.88
942.591	4970.36
942.898	4941.21
943.205	4964.94
943.511	4918.84
943.818	4891.72
944.125	4878.84
944.431	4840.65
944.738	4833.19
945.044	4775.79
945.35	4778.96
945.657	4751.61
945.963	4759.97
946.269	4724.95
946.575	4670.71
946.881	4638.85
947.187	4657.38
947.493	4617.15
947.799	4615.34
948.105	4578.96
948.41	4567.44
948.716	4576.93
949.022	4511.84
949.327	4511.17
949.633	4477.5
949.938	4454.45
950.244	4472.75
950.549	4430.94
950.854	4392.53
951.16	4372.41
951.465	4372.19
951.77	4332.64
952.075	4337.84
952.38	4344.17
952.685	4301.91
952.99	4249.25
953.294	4295.58
953.599	4242.7
953.904	4185.98
954.209	4223.04
954.513	4208.35
954.818	4168.8
955.122	4143.72
955.426	4155.47
955.731	4069.82
956.035	4107.34
956.339	4025.3
956.643	4073.21
956.948	4044.29
957.252	4018.07
957.556	4083.61
957.86	3996.83
958.163	3960.22
958.467	3919.32
958.771	3971.75
959.075	3925.87
959.378	3925.87
959.682	3909.15
959.985	3880
960.289	3845.42
960.592	3862.6
960.896	3797.29
961.199	3801.13
961.502	3788.93
961.805	3796.84
962.108	3768.14
962.411	3757.74
962.714	3760.23
963.017	3689.04
963.32	3725.42
963.623	3675.71
963.926	3667.35
964.228	3657.4
964.531	3613.11
964.833	3611.76
965.136	3579.44
965.438	3568.59
965.741	3557.97
966.043	3550.06
966.345	3565.43
966.648	3539.21
966.95	3478.88
967.252	3497.86
967.554	3503.28
967.856	3473.91
968.158	3443.17
968.46	3418.31
968.761	3428.26
969.063	3402.95
969.365	3363.63
969.666	3346.45
969.968	3358.88
970.269	3327.02
970.571	3294.02
970.872	3282.95
971.174	3274.82
971.475	3248.38
971.776	3250.41
972.077	3248.15
972.378	3251.54
972.679	3240.24
972.98	3188.26
973.281	3200.69
973.582	3207.02
973.883	3170.86
974.183	3141.49
974.484	3176.06
974.785	3104.65
975.085	3077.98
975.386	3091.54
975.686	3099.23
975.986	3077.53
976.287	3051.77
976.587	3042.05
976.887	3032.34
977.187	3030.08
977.487	3027.82
977.787	2959.8
978.087	2951.43
978.387	2975.84
978.687	2973.58
978.987	2942.39
979.286	2924.09
979.586	2920.47
979.885	2923.19
980.185	2892.45
980.484	2901.94
980.784	2863.75
981.083	2824.21
981.382	2851.32
981.682	2823.3
981.981	2803.64
982.28	2803.19
982.579	2782.85
982.878	2780.59
983.177	2753.25
983.475	2751.66
983.774	2703.76
984.073	2747.37
984.372	2675.51
984.67	2702.4
984.969	2668.96
985.267	2670.09
985.566	2682.51
985.864	2653.36
986.162	2678.22
986.461	2617.21
986.759	2599.35
987.057	2616.53
987.355	2558.45
987.653	2640.93
987.951	2584.89
988.249	2576.98
988.547	2572.46
988.844	2539.92
989.142	2506.93
989.44	2524.78
989.737	2532.24
990.035	2496.76
990.332	2489.98
990.63	2492.69
990.927	2482.97
991.224	2436.64
991.521	2425.12
991.819	2419.92
992.116	2402.3
992.413	2363.65
992.71	2387.38
993.006	2379.92
993.303	2385.35
993.6	2359.58
993.897	2331.34
994.193	2348.06
994.49	2329.08
994.787	2327.72
995.083	2283.2
995.379	2289.53
995.676	2296.99
995.972	2280.04
996.268	2273.94
996.565	2240.72
996.861	2221.96
997.157	2227.61
997.453	2223.54
997.749	2188.06
998.044	2180.15
998.34	2144.9
998.636	2198.01
998.932	2155.07
999.227	2152.36
999.523	2142.64
999.818	2104
1000.114	2106.94
1000.409	2114.17
1000.704	2059.48
1001	2079.82
1001.295	2062.42
1001.59	2058.58
1001.885	2042.76
1002.18	2017.67
1002.475	2029.88
1002.77	1974.96
1003.065	2010.22
1003.359	1989.43
1003.654	1995.75
1003.949	1966.15
1004.243	1986.49
1004.538	1967.96
1004.832	1926.83
1005.127	1930.44
1005.421	1920.73
1005.715	1912.14
1006.009	1869.65
1006.304	1852.25
1006.598	1882.31
1006.892	1863.1
1007.186	1847.51
1007.48	1838.24
1007.773	1818.13
1008.067	1830.11
1008.361	1801.63
1008.655	1794.4
1008.948	1800.5
1009.242	1802.54
1009.535	1756.66
1009.829	1778.81
1010.122	1747.85
1010.415	1753.95
1010.708	1740.39
1011.001	1731.35
1011.295	1721.18
1011.588	1733.84
1011.881	1704.69
1012.173	1679.38
1012.466	1701.07
1012.759	1657.23
1013.052	1677.79
1013.344	1646.84
1013.637	1623.78
1013.93	1628.3
1014.222	1648.64
1014.514	1602.54
1014.807	1630.34
1015.099	1585.37
1015.391	1583.56
1015.683	1540.4
1015.976	1531.13
1016.268	1519.61
1016.56	1538.14
1016.851	1546.72
1017.143	1571.58
1017.435	1516.22
1017.727	1519.38
1018.018	1514.41
1018.31	1493.39
1018.602	1462.89
1018.893	1481.42
1019.185	1453.17
1019.476	1428.54
1019.767	1438.25
1020.058	1430.12
1020.35	1407.75
1020.641	1422.43
1020.932	1391.7
1021.223	1397.35
1021.514	1365.03
1021.804	1353.28
1022.095	1376.33
1022.386	1366.39
1022.677	1360.74
1022.967	1342.44
1023.258	1335.88
1023.548	1348.31
1023.839	1325.04
1024.129	1311.02
1024.419	1286.62
1024.709	1307.41
1025	1261.99
1025.29	1283.23
1025.58	1266.05
1025.87	1253.4
1026.16	1260.86
1026.449	1230.35
1026.739	1216.79
1027.029	1202.78
1027.319	1224.93
1027.608	1216.79
1027.898	1190.12
1028.187	1181.54
1028.477	1190.35
1028.766	1172.5
1029.055	1177.7
1029.344	1166.62
1029.634	1186.28
1029.923	1159.16
1030.212	1151.48
1030.501	1128.66
1030.79	1114.42
1031.078	1149.45
1031.367	1119.84
1031.656	1104.93
1031.945	1105.83
1032.233	1091.6
1032.522	1090.92
1032.81	1046.85
1033.099	1060.86
1033.387	1063.8
1033.675	1056.34
1033.963	1042.33
1034.251	1031.03
1034.54	1022.44
1034.828	1020.86
1035.116	1041.43
1035.403	1030.81
1035.691	1028.09
1035.979	1015.44
1036.267	1000.3
1036.554	994.2
1036.842	975.67
1037.129	972.28
1037.417	969.79
1037.704	957.59
1037.992	956.46
1038.279	960.75
1038.566	963.46
1038.853	963.46
1039.14	963.46
