Data from hue_100_FLMS001491_00025.txt Node
Date: Tue Feb 07 17:02:56 GMT 2017
User: dcchb
Spectrometer: FLMS00149
Trigger mode: 0
Integration Time (sec): 2.000000E-2
Scans to average: 10
Electric dark correction enabled: true
Nonlinearity correction enabled: false
Boxcar width: 0
XAxis mode: Wavelengths
Number of Pixels in Spectrum: 2048
>>>>>Begin Spectral Data<<<<<
341.393	-25.2
341.776	-25.2
342.16	-25.2
342.543	-62.03
342.927	-53.67
343.31	-91.64
343.693	-68.59
344.077	-61.35
344.46	-65.2
344.843	-57.96
345.226	-24.07
345.61	1.92
345.993	-15.03
346.376	-23.62
346.759	12.99
347.142	37.17
347.525	41.24
347.908	48.25
348.291	76.95
348.674	85.53
349.057	103.39
349.44	128.47
349.823	136.38
350.206	181.35
350.588	184.29
350.971	217.96
351.354	215.7
351.737	233.78
352.119	243.72
352.502	257.96
352.884	261.35
353.267	298.86
353.65	303.38
354.032	301.57
354.414	315.36
354.797	328.01
355.179	330.5
355.562	335.47
355.944	328.69
356.326	335.7
356.709	321.69
357.091	356.49
357.473	329.37
357.855	345.19
358.238	337.73
358.62	334.57
359.002	330.05
359.384	316.04
359.766	347.9
360.148	335.02
360.53	347.9
360.912	344.51
361.294	351.52
361.676	337.96
362.057	342.7
362.439	321.23
362.821	331.86
363.203	319.65
363.584	341.57
363.966	326.88
364.348	342.25
364.729	315.13
365.111	323.72
365.493	324.17
365.874	331.63
366.256	342.02
366.637	305.64
367.019	304.29
367.4	329.14
367.781	331.18
368.163	321.01
368.544	300.44
368.925	326.88
369.306	335.02
369.688	302.93
370.069	332.53
370.45	311.74
370.831	326.66
371.212	331.86
371.593	310.84
371.974	323.95
372.355	320.78
372.736	337.51
373.117	341.8
373.498	351.06
373.879	304.06
374.26	321.91
374.641	325.53
375.021	323.04
375.402	324.62
375.783	330.05
376.163	329.14
376.544	352.42
376.925	339.54
377.305	325.53
377.686	337.96
378.066	345.87
378.447	348.13
378.827	336.38
379.208	356.71
379.588	350.39
379.968	351.52
380.349	351.06
380.729	335.92
381.109	329.82
381.489	362.59
381.87	356.94
382.25	328.92
382.63	350.61
383.01	353.1
383.39	350.61
383.77	358.3
384.15	391.29
384.53	344.96
384.91	355.36
385.29	353.32
385.67	355.58
386.049	374.57
386.429	352.42
386.809	365.98
387.189	368.92
387.568	378.63
387.948	378.18
388.328	380.67
388.707	358.97
389.087	363.72
389.466	392.19
389.846	391.52
390.225	379.31
390.605	369.59
390.984	384.28
391.363	393.77
391.743	377.73
392.122	393.1
392.501	393.77
392.881	390.16
393.26	404.62
393.639	390.84
394.018	383.38
394.397	396.49
394.776	396.71
395.155	398.07
395.534	396.03
395.913	418.41
396.292	410.27
396.671	413.89
397.05	396.94
397.429	404.85
397.808	405.98
398.186	398.07
398.565	424.96
398.944	423.83
399.323	420.21
399.701	428.35
400.08	436.03
400.458	434.9
400.837	418.41
401.215	417.73
401.594	429.03
401.972	441.23
402.351	408.01
402.729	435.58
403.107	417.5
403.486	434
403.864	444.17
404.242	427.45
404.62	437.39
404.999	442.59
405.377	431.29
405.755	453.66
406.133	460.67
406.511	465.19
406.889	463.83
407.267	465.19
407.645	442.81
408.023	462.02
408.401	483.49
408.779	476.94
409.156	463.15
409.534	485.52
409.912	486.2
410.29	509.93
410.667	479.2
411.045	502.7
411.422	502.7
411.8	521.68
412.178	542.25
412.555	506.09
412.933	520.78
413.31	532.98
413.687	524.84
414.065	548.12
414.442	516.94
414.819	541.79
415.197	524.39
415.574	528.69
415.951	546.54
416.328	528.23
416.705	545.18
417.082	571.85
417.46	550.16
417.837	574.11
418.214	569.14
418.591	568.23
418.967	563.49
419.344	570.95
419.721	579.31
420.098	574.34
420.475	584.96
420.852	609.81
421.228	595.58
421.605	613.88
421.982	615.69
422.358	601.68
422.735	608.01
423.111	610.72
423.488	624.73
423.864	634.9
424.241	643.26
424.617	638.74
424.994	650.04
425.37	625.86
425.746	632.41
426.123	647.55
426.499	641.68
426.875	657.95
427.251	650.94
427.627	681
428.003	695.24
428.379	689.59
428.756	676.93
429.132	684.39
429.507	699.53
429.883	728.91
430.259	723.94
430.635	711.05
431.011	724.84
431.387	731.17
431.763	737.04
432.138	752.18
432.514	746.53
432.89	755.12
433.265	773.88
433.641	786.53
434.016	768.23
434.392	772.07
434.767	812.52
435.143	796.02
435.518	840.77
435.894	815.23
436.269	835.8
436.644	841.22
437.02	840.54
437.395	821.11
437.77	849.58
438.145	869.02
438.52	874.21
438.895	838.51
439.271	860.43
439.646	905.17
440.021	923.93
440.395	903.14
440.77	906.53
441.145	890.71
441.52	930.03
441.895	917.6
442.27	935.46
442.645	937.26
443.019	957.83
443.394	948.79
443.769	947.21
444.143	966.64
444.518	996.47
444.892	981.1
445.267	980.65
445.641	970.03
446.016	985.85
446.39	984.27
446.764	996.24
447.139	997.6
447.513	1019.52
447.887	1017.94
448.262	1024.94
448.636	1013.87
449.01	1016.36
449.384	1030.59
449.758	1051.84
450.132	1040.09
450.506	1071.95
450.88	1066.98
451.254	1101.78
451.628	1101.55
452.002	1096.36
452.376	1124.15
452.75	1130.48
453.123	1132.06
453.497	1149.24
453.871	1145.85
454.244	1181.1
454.618	1184.04
454.992	1170.93
455.365	1223.81
455.739	1236.46
456.112	1252.28
456.486	1227.65
456.859	1276.92
457.232	1307.2
457.606	1278.72
457.979	1271.72
458.352	1335.22
458.725	1343.81
459.099	1351.04
459.472	1390.81
459.845	1380.87
460.218	1372.05
460.591	1436.46
460.964	1414.99
461.337	1442.11
461.71	1460.87
462.083	1471.49
462.456	1476.23
462.829	1525.72
463.201	1520.52
463.574	1547.19
463.947	1584.48
464.32	1589
464.692	1625.38
465.065	1656.57
465.438	1671.48
465.81	1697.92
466.183	1732.95
466.555	1741.76
466.928	1750.8
467.3	1779.05
467.672	1802.33
468.045	1876
468.417	1869.89
468.789	1882.78
469.161	1925.94
469.534	1969.55
469.906	1995.77
470.278	2021.98
470.65	2061.08
471.022	2103.11
471.394	2151.47
471.766	2190.11
472.138	2226.27
472.51	2255.87
472.882	2323.44
473.253	2379.26
473.625	2407.28
473.997	2489.54
474.369	2515.08
474.74	2553.72
475.112	2603.66
475.484	2670.1
475.855	2736.99
476.227	2758.68
476.598	2865.35
476.97	2938.11
477.341	2983.54
477.713	3091.56
478.084	3128.84
478.455	3260.59
478.827	3291.78
479.198	3415.16
479.569	3464.43
479.94	3569.74
480.311	3639.79
480.682	3781.93
481.053	3899.45
481.424	3992.32
481.795	4129.04
482.166	4193
482.537	4292.88
482.908	4398.42
483.279	4469.15
483.65	4660.1
484.021	4767.45
484.391	4927.22
484.762	5011.73
485.133	5064.16
485.503	5181.9
485.874	5375.34
486.244	5505.28
486.615	5650.81
486.985	5751.15
487.356	5940.75
487.726	6087.41
488.097	6270.91
488.467	6359.04
488.837	6524.69
489.207	6663.44
489.578	6814.62
489.948	6980.49
490.318	7172.81
490.688	7219.13
491.058	7416.64
491.428	7585.68
491.798	7759.01
492.168	7974.14
492.538	8038.77
492.908	8266.34
493.278	8443.73
493.648	8550.85
494.017	8685.08
494.387	8882.37
494.757	8997.39
495.126	9139.31
495.496	9222.92
495.866	9381.34
496.235	9526.42
496.605	9727.31
496.974	9909.46
497.344	9915.33
497.713	10111.26
498.082	10237.13
498.452	10407.75
498.821	10500.85
499.19	10611.59
499.559	10748.76
499.928	10923.67
500.298	10958.02
500.667	11214.73
501.036	11238.69
501.405	11418.8
501.774	11458.12
502.143	11567.27
502.512	11689.75
502.88	11808.84
503.249	11838.22
503.618	11993.02
503.987	12107.37
504.356	12247.47
504.724	12212.9
505.093	12324.76
505.462	12468.49
505.83	12557.07
506.199	12700.57
506.567	12877.97
506.936	12833
507.304	13080
507.672	13157.28
508.041	13163.16
508.409	13236.38
508.777	13276.37
509.145	13547.55
509.514	13589.36
509.882	13651.28
510.25	13682.24
510.618	13768.34
510.986	13812.86
511.354	13945.06
511.722	14027.99
512.09	14041.33
512.458	14136.24
512.826	14230.7
513.193	14336.23
513.561	14330.81
513.929	14418.72
514.297	14518.6
514.664	14630.01
515.032	14674.53
515.4	14733.28
515.767	14818.93
516.135	14817.35
516.502	14791.36
516.869	15042.43
517.237	14938.93
517.604	14966.73
517.972	15095.76
518.339	15132.14
518.706	15202.65
519.073	15266.15
519.44	15374.62
519.808	15401.74
520.175	15387.73
520.542	15543.89
520.909	15649.42
521.276	15533.26
521.643	15748.4
522.009	15794.73
522.376	15789.53
522.743	15773.94
523.11	15909.07
523.477	16057.77
523.843	16101.16
524.21	16160.82
524.577	16129.86
524.943	16270.42
525.31	16239.46
525.676	16323.53
526.043	16323.98
526.409	16392.9
526.776	16533.24
527.142	16485.78
527.508	16511.32
527.874	16638.77
528.241	16595.16
528.607	16506.8
528.973	16709.05
529.339	16528.27
529.705	16764.42
530.071	16829.05
530.437	16725.77
530.803	16823.63
531.169	16854.59
531.535	16876.05
531.901	16841.03
532.267	16877.18
532.632	16916.28
532.998	16908.14
533.364	16868.6
533.73	16949.27
534.095	16934.36
534.461	16991.3
534.826	16950.4
535.192	17001.93
535.557	16984.3
535.923	16936.16
536.288	16917.41
536.653	16979.78
537.019	16842.16
537.384	16842.38
537.749	16913.34
538.114	16808.71
538.479	16794.93
538.845	16789.95
539.21	16595.83
539.575	16705.21
539.94	16766.23
540.305	16742.05
540.67	16694.14
541.034	16706.57
541.399	16754.25
541.764	16715.38
542.129	16662.95
542.494	16633.8
542.858	16618.89
543.223	16640.58
543.587	16676.28
543.952	16521.26
544.316	16553.12
544.681	16410.3
545.045	16424.31
545.41	16546.8
545.774	16523.75
546.138	16455.5
546.503	16427.03
546.867	16342.51
547.231	16410.75
547.595	16388.83
547.959	16303.41
548.324	16153.81
548.688	16164.66
549.052	16327.14
549.416	16142.74
549.779	16152.68
550.143	16151.1
550.507	16123.08
550.871	16134.83
551.235	15977.09
551.599	16132.34
551.962	16060.48
552.326	16053.02
552.689	16039.92
553.053	15947.26
553.417	16002.18
553.78	16112.46
554.143	15980.48
554.507	15969.18
554.87	16019.35
555.234	15969.64
555.597	15919.69
555.96	15870.88
556.323	15920.15
556.686	15832.69
557.05	15992.46
557.413	15943.65
557.776	15823.88
558.139	15848.28
558.502	15976.19
558.865	15873.59
559.228	15957.43
559.59	15950.43
559.953	15962.18
560.316	15953.37
560.679	15910.2
561.041	15973.03
561.404	15938.22
561.767	16053.02
562.129	15992.46
562.492	16117.88
562.854	16082.18
563.217	16027.94
563.579	15996.98
563.941	16125.34
564.304	16097.32
564.666	16196.3
565.028	15980.48
565.39	16064.55
565.753	16183.19
566.115	16206.92
566.477	16197.43
566.839	16206.01
567.201	16258.67
567.563	16286.46
567.925	16314.03
568.287	16378.21
568.648	16306.35
569.01	16493.92
569.372	16480.13
569.734	16352.45
570.095	16404.43
570.457	16464.31
570.819	16509.51
571.18	16500.92
571.542	16565.1
571.903	16472.9
572.265	16417.76
572.626	16532.79
572.987	16565.55
573.349	16565.1
573.71	16592.45
574.071	16590.19
574.432	16620.01
574.794	16710.18
575.155	16608.04
575.516	16624.99
575.877	16712.67
576.238	16653.69
576.599	16721.26
576.96	16699.56
577.32	16702.95
577.681	16748.83
578.042	16736.62
578.403	16839.22
578.763	16730.07
579.124	16802.84
579.485	16794.93
579.845	16884.41
580.206	16747.92
580.566	16805.55
580.927	16721.26
581.287	16809.84
581.648	16821.14
582.008	16730.97
582.368	16750.41
582.728	16753.12
583.089	16711.99
583.449	16767.36
583.809	16685.32
584.169	16666.12
584.529	16638.09
584.889	16732.1
585.249	16698.21
585.609	16688.71
585.969	16755.6
586.329	16573.24
586.688	16699.79
587.048	16663.63
587.408	16545.44
587.768	16642.39
588.127	16631.09
588.487	16545.21
588.846	16747.02
589.206	16677.41
589.565	16529.4
589.925	16626.57
590.284	16615.72
590.643	16543.41
591.003	16657.08
591.362	16636.96
591.721	16477.65
592.08	16517.64
592.44	16478.55
592.799	16561.49
593.158	16555.84
593.517	16562.62
593.876	16478.1
594.235	16394.71
594.593	16397.42
594.952	16492.79
595.311	16522.16
595.67	16498.44
596.029	16582.05
596.387	16600.35
596.746	16510.87
597.104	16385.22
597.463	16480.81
597.822	16474.71
598.18	16439.45
598.538	16382.73
598.897	16506.35
599.255	16294.15
599.613	16499.11
599.972	16440.81
600.33	16472.45
600.688	16425.9
601.046	16460.7
601.404	16502.05
601.762	16462.5
602.12	16398.33
602.478	16457.53
602.836	16488.27
603.194	16372.79
603.552	16513.58
603.91	16391.55
604.268	16482.17
604.625	16385.22
604.983	16537.53
605.341	16355.84
605.698	16522.84
606.056	16620.47
606.413	16435.16
606.771	16549.96
607.128	16465.67
607.485	16438.55
607.843	16439.23
608.2	16466.12
608.557	16518.77
608.914	16514.26
609.272	16621.14
609.629	16585.67
609.986	16645.78
610.343	16653.69
610.7	16686.91
611.057	16669.05
611.414	16727.13
611.771	16660.69
612.127	16682.39
612.484	16691.43
612.841	16733.01
613.198	16787.47
613.554	16773.01
613.911	16807.81
614.267	16814.59
614.624	16765.55
614.98	16763.97
615.337	16942.94
615.693	16916.05
616.05	16867.69
616.406	16959.22
616.762	16824.76
617.118	16860.91
617.475	16866.79
617.831	16874.92
618.187	16813
618.543	16929.61
618.899	16971.87
619.255	16934.36
619.611	16926
619.967	17141.36
620.323	17124.41
620.678	16993.34
621.034	16942.94
621.39	16945.2
621.746	16947.01
622.101	17148.36
622.457	16980.91
622.812	17075.14
623.168	17013.22
623.523	17079.66
623.879	17019.78
624.234	16926.9
624.589	16929.16
624.945	17024.52
625.3	16954.24
625.655	16888.48
626.01	16989.72
626.365	17029.04
626.72	16977.29
627.075	16959.22
627.43	16932.32
627.785	16987.46
628.14	16915.83
628.495	16948.59
628.85	17031.76
629.205	16929.39
629.559	17025.2
629.914	16918.09
630.269	16875.38
630.623	16824.08
630.978	16741.14
631.332	16899.1
631.687	16928.93
632.041	16833.79
632.396	16832.44
632.75	16690.3
633.104	16789.28
633.459	16653.46
633.813	16689.17
634.167	16688.49
634.521	16683.97
634.875	16743.18
635.229	16684.65
635.583	16573.69
635.937	16591.09
636.291	16609.17
636.645	16595.61
636.999	16559
637.352	16481.94
637.706	16551.09
638.06	16530.75
638.413	16429.29
638.767	16454.82
639.121	16481.49
639.474	16353.36
639.828	16349.29
640.181	16409.17
640.534	16345.22
640.888	16261.83
641.241	16235.39
641.594	16225.22
641.947	16376.86
642.301	16202.62
642.654	16315.62
643.007	16304.77
643.36	16328.5
643.713	16169.63
644.066	16345.22
644.419	16189.52
644.771	16137.77
645.124	16000.14
645.477	15960.37
645.83	15861.84
646.182	15733.94
646.535	15732.35
646.888	15702.52
647.24	15589.53
647.593	15789.53
647.945	15739.13
648.298	15623.43
648.65	15540.5
649.002	15669.31
649.355	15749.76
649.707	15735.74
650.059	15802.18
650.411	16019.35
650.763	15957.21
651.115	16037.21
651.467	15980.03
651.819	16116.75
652.171	16010.99
652.523	15945.46
652.875	16010.99
653.227	16028.84
653.578	16053.02
653.93	16061.84
654.282	16009.18
654.633	15913.82
654.985	15938.68
655.337	15914.72
655.688	16001.27
656.039	16067.26
656.391	15919.92
656.742	15907.04
657.094	15942.74
657.445	16083.53
657.796	16026.13
658.147	15959.92
658.498	16006.7
658.849	16112.46
659.2	16061.39
659.551	15912.24
659.902	16036.08
660.253	16073.81
660.604	16043.76
660.955	15970.31
661.306	16041.5
661.656	16018.22
662.007	16054.83
662.358	16069.97
662.708	16092.8
663.059	15949.3
663.409	15882.63
663.76	16073.81
664.11	16079.24
664.461	16031.78
664.811	16023.65
665.161	16107.03
665.511	16041.73
665.862	16022.52
666.212	16119.69
666.562	16131.89
666.912	16055.74
667.262	16017.09
667.612	16079.46
667.962	16042.63
668.312	16081.72
668.662	16072.91
669.011	16046.24
669.361	16041.27
669.711	15939.35
670.06	16003.08
670.41	15906.81
670.76	15895.29
671.109	16014.16
671.459	15964.21
671.808	15931.45
672.157	15893.25
672.507	15874.27
672.856	15897.1
673.205	15899.58
673.554	15922.86
673.904	15956.08
674.253	15990.65
674.602	15844.67
674.951	15640.15
675.3	15526.26
675.649	15821.84
675.998	15807.38
676.346	15783.65
676.695	15870.66
677.044	15714.5
677.393	15757.44
677.741	15769.64
678.09	15641.74
678.438	15691.9
678.787	15678.34
679.135	15716.54
679.484	15595.41
679.832	15639.93
680.181	15478.35
680.529	15601.28
680.877	15512.25
681.225	15485.36
681.573	15544.56
681.922	15474.51
682.27	15405.13
682.618	15443.55
682.966	15361.97
683.314	15458.69
683.661	15369.88
684.009	15214.63
684.357	15232.03
684.705	15121.98
685.053	15269.09
685.4	15140.05
685.748	15105.93
686.095	15074.29
686.443	15028.64
686.79	14991.81
687.138	14982.32
687.485	15017.35
687.832	15002.43
688.18	14910.68
688.527	14818.25
688.874	14841.76
689.221	14766.73
689.568	14750.46
689.915	14686.73
690.262	14776.22
690.609	14674.76
690.956	14611.71
691.303	14617.81
691.65	14470.92
691.997	14599.05
692.344	14412.84
692.69	14342.33
693.037	14332.39
693.383	14248.33
693.73	14305.5
694.077	14212.17
694.423	14128.56
694.769	14151.15
695.116	14084.94
695.462	13996.58
695.808	13918.84
696.155	13978.95
696.501	13817.6
696.847	13835.23
697.193	13736.93
697.539	13758.17
697.885	13693.09
698.231	13524.28
698.577	13698.51
698.923	13626.87
699.269	13515.01
699.614	13404.73
699.96	13394.56
700.306	13322.25
700.651	13275.47
700.997	13304.85
701.342	13243.15
701.688	13267.79
702.033	13101.92
702.379	13087.23
702.724	13039.77
703.069	13123.16
703.415	12992.54
703.76	12827.35
704.105	12912.09
704.45	12882.71
704.795	12778.08
705.14	12754.13
705.485	12693.56
705.83	12647.01
706.175	12664.86
706.52	12612.66
706.865	12604.08
707.209	12564.53
707.554	12474.59
707.899	12591.87
708.243	12409.96
708.588	12389.84
708.932	12336.29
709.277	12304.2
709.621	12310.52
709.966	12219.23
710.31	12222.62
710.654	12114.37
710.998	12135.39
711.342	12167.7
711.687	12066.46
712.031	12064.65
712.375	11996.86
712.719	12031.44
713.063	11941.49
713.407	12038.44
713.75	11947.82
714.094	11927.26
714.438	11851.78
714.782	11894.72
715.125	11771.1
715.469	11830.08
715.812	11734.27
716.156	11635.51
716.499	11744.89
716.843	11737.43
717.186	11606.14
717.53	11663.31
717.873	11695.62
718.216	11646.13
718.559	11590.32
718.902	11563.65
719.246	11530.88
719.589	11558.68
719.932	11457.66
720.275	11427.61
720.617	11421.73
720.96	11505.57
721.303	11496.99
721.646	11420.83
721.989	11386.25
722.331	11414.95
722.674	11374.28
723.016	11463.99
723.359	11365.01
723.701	11360.04
724.044	11256.31
724.386	11208.18
724.729	11268.29
725.071	11278.01
725.413	11264.45
725.755	11284.79
726.097	11233.72
726.439	11129.99
726.782	11228.97
727.124	11205.92
727.465	11228.29
727.807	11165.92
728.149	11295.41
728.491	11219.48
728.833	11243.66
729.175	11191.46
729.516	11172.93
729.858	11173.15
730.199	11142.19
730.541	11172.93
730.882	11131.57
731.224	11188.07
731.565	11093.61
731.906	11156.2
732.248	11135.87
732.589	11125.47
732.93	11112.59
733.271	11041.63
733.612	11125.47
733.953	11094.51
734.294	11118.01
734.635	11065.13
734.976	11169.08
735.317	11067.84
735.658	11032.37
735.999	10988.75
736.339	11051.35
736.68	11107.39
737.021	11044.57
737.361	11026.49
737.702	11092.48
738.042	11092.48
738.383	11139.48
738.723	11150.55
739.063	11071.01
739.404	11151.91
739.744	11113.49
740.084	11072.36
740.424	11219.7
740.764	11125.24
741.104	11185.13
741.444	11133.15
741.784	11260.16
742.124	11241.85
742.464	11289.99
742.804	11259.25
743.143	11304.22
743.483	11310.78
743.823	11289.76
744.162	11312.58
744.502	11375.63
744.841	11320.72
745.181	11420.6
745.52	11420.15
745.86	11478
746.199	11503.54
746.538	11603.88
746.877	11682.97
747.216	11734.27
747.556	11752.35
747.895	11778.11
748.234	11857.65
748.573	11853.81
748.911	11942.85
749.25	11983.98
749.589	12007.03
749.928	12154.14
750.267	12213.8
750.605	12237.31
750.944	12324.53
751.283	12350.97
751.621	12539.44
751.96	12531.31
752.298	12648.82
752.636	12801.81
752.975	12895.59
753.313	12939.21
753.651	13109.82
753.989	13190.73
754.327	13258.52
754.666	13410.83
755.004	13550.94
755.342	13688.34
755.679	13692.63
756.017	13901.67
756.355	14095.11
756.693	14235.67
757.031	14423.46
757.368	14485.61
757.706	14631.14
758.044	14725.6
758.381	15033.62
758.719	15082.65
759.056	15308.64
759.394	15465.92
759.731	15561.51
760.068	15716.31
760.405	15840.37
760.743	16060.71
761.08	16200.36
761.417	16371.89
761.754	16510.41
762.091	16638.09
762.428	16785.89
762.765	16881.25
763.102	17288.7
763.438	17369.83
763.775	17396.04
764.112	17695.47
764.449	17858.17
764.785	17941.56
765.122	18033.76
765.458	18172.29
765.795	18269.01
766.131	18500.19
766.467	18597.82
766.804	18787.87
767.14	18682.11
767.476	18965.26
767.812	19012.49
768.148	19330.68
768.485	19307.85
768.821	19419.04
769.157	19476.44
769.492	19699.93
769.828	19781.97
770.164	19804.34
770.5	19881.17
770.836	20021.96
771.171	20022.41
771.507	20146.7
771.842	20129.3
772.178	20288.62
772.513	20313.7
772.849	20407.49
773.184	20469.18
773.519	20554.37
773.855	20566.35
774.19	20537.65
774.525	20668.95
774.86	20858.55
775.195	20824.65
775.53	20888.83
775.865	20774.03
776.2	20847.93
776.535	20725.44
776.87	20942.39
777.205	20977.41
777.539	20869.62
777.874	20977.87
778.209	20993.23
778.543	20907.59
778.878	20906.23
779.212	20913.91
779.547	20995.95
779.881	21024.64
780.215	21069.39
780.55	21045.89
780.884	20949.17
781.218	20999.79
781.552	20934.25
781.886	21002.05
782.22	20941.48
782.554	20969.73
782.888	20794.59
783.222	20855.84
783.556	20795.5
783.889	20826.23
784.223	20563.64
784.557	20710.08
784.89	20755.95
785.224	20657.2
785.557	20623.07
785.891	20612.23
786.224	20599.8
786.558	20548.27
786.891	20531.55
787.224	20434.6
787.557	20441.38
787.891	20418.11
788.224	20333.82
788.557	20346.92
788.89	20289.97
789.223	20399.35
789.556	20284.1
789.888	20179.92
790.221	20206.81
790.554	20013.6
790.887	20066.48
791.219	19961.4
791.552	20057.44
791.884	20026.48
792.217	19878.91
792.549	20006.59
792.882	19737.9
793.214	19767.05
793.546	19809.99
793.879	19726.15
794.211	19642.08
794.543	19713.04
794.875	19634.85
795.207	19690.22
795.539	19499.94
795.871	19607.96
796.203	19435.99
796.535	19277.57
796.867	19361.19
797.198	19279.61
797.53	19251.36
797.862	19077.13
798.193	19129.33
798.525	19075.09
798.856	19042.1
799.188	18851.59
799.519	18864.25
799.85	18748.55
800.182	18840.75
800.513	18749.9
800.844	18659.74
801.175	18716.23
801.506	18702.9
801.837	18619.28
802.168	18528.67
802.499	18482.34
802.83	18523.47
803.161	18439.4
803.491	18387.43
803.822	18397.6
804.153	18292.29
804.483	18171.16
804.814	18153.08
805.145	18152.86
805.475	18153.31
805.805	18085.29
806.136	18066.08
806.466	17997.83
806.796	17952.64
807.126	17861.79
807.457	17728.23
807.787	17902.69
808.117	17804.39
808.447	17746.09
808.777	17788.8
809.107	17708.12
809.436	17554.23
809.766	17614.34
810.096	17605.75
810.426	17398.07
810.755	17518.07
811.085	17460.44
811.414	17441.91
811.744	17286.89
812.073	17285.76
812.403	17338.41
812.732	17168.02
813.061	17223.84
813.39	17101.36
813.719	17141.58
814.049	17186.55
814.378	17072.88
814.707	17002.6
815.036	16969.61
815.365	16891.19
815.693	16826.79
816.022	16822.95
816.351	16774.14
816.68	16762.16
817.008	16761.03
817.337	16528.94
817.665	16553.8
817.994	16653.46
818.322	16596.74
818.651	16427.48
818.979	16470.19
819.307	16540.7
819.636	16493.01
819.964	16372.79
820.292	16452.79
820.62	16396.07
820.948	16330.98
821.276	16401.04
821.604	16293.24
821.932	16283.98
822.259	16370.08
822.587	16290.08
822.915	16246.24
823.243	16348.16
823.57	16281.04
823.898	16352.45
824.225	16290.08
824.553	16323.75
824.88	16365.56
825.207	16403.07
825.535	16233.13
825.862	16422.28
826.189	16292.11
826.516	16410.75
826.843	16370.98
827.17	16339.12
827.497	16388.38
827.824	16349.51
828.151	16476.97
828.478	16358.1
828.805	16448.49
829.131	16333.02
829.458	16376.63
829.785	16268.84
830.111	16338.21
830.438	16395.61
830.764	16264.77
831.09	16310.42
831.417	16315.62
831.743	16336.41
832.069	16351.55
832.395	16229.52
832.722	16337.76
833.048	16278.1
833.374	16288.5
833.7	16204.21
834.026	16202.17
834.351	16193.36
834.677	16189.97
835.003	16199.91
835.329	16216.41
835.654	16122.85
835.98	16091.67
836.306	16160.59
836.631	16138.67
836.956	16150.65
837.282	16116.3
837.607	15976.42
837.932	15995.4
838.258	16006.92
838.583	15935.74
838.908	15879.47
839.233	15913.59
839.558	15881.73
839.883	15834.95
840.208	15701.4
840.533	15822.07
840.858	15766.03
841.182	15743.2
841.507	15720.38
841.832	15705.91
842.156	15637.89
842.481	15576.88
842.805	15622.75
843.13	15586.14
843.454	15568.07
843.778	15488.75
844.103	15424.34
844.427	15451.23
844.751	15333.27
845.075	15373.27
845.399	15241.52
845.723	15153.84
846.047	15166.72
846.371	15135.53
846.695	15103.9
847.019	14990
847.343	14911.81
847.666	14893.05
847.99	14780.29
848.313	14744.13
848.637	14747.07
848.96	14696
849.284	14517.02
849.607	14476.12
849.931	14503.01
850.254	14301.21
850.577	14322
850.9	14204.94
851.223	14209.68
851.546	14188.67
851.869	14066.86
852.192	14181.66
852.515	14004.49
852.838	13882.46
853.161	13948.45
853.483	13861.44
853.806	13827.09
854.129	13789.35
854.451	13789.81
854.774	13634.1
855.096	13586.87
855.419	13630.72
855.741	13607.66
856.063	13477.72
856.385	13475.01
856.708	13461
857.03	13405.18
857.352	13432.08
857.674	13326.09
857.996	13282.93
858.318	13257.62
858.64	13222.14
858.961	13109.82
859.283	13084.74
859.605	12975.14
859.926	13108.69
860.248	12978.53
860.57	12934.01
860.891	13034.8
861.212	12890.85
861.534	12811.98
861.855	12779.66
862.176	12795.48
862.498	12732.21
862.819	12892.88
863.14	12762.26
863.461	12681.36
863.782	12687.24
864.103	12689.5
864.424	12728.59
864.745	12673.23
865.065	12519.56
865.386	12527.92
865.707	12512.55
866.027	12489.95
866.348	12470.75
866.668	12535.83
866.989	12388.94
867.309	12370.18
867.63	12482.27
867.95	12391.2
868.27	12358.43
868.59	12410.86
868.91	12273.24
869.23	12330.86
869.55	12231.66
869.87	12303.07
870.19	12172.45
870.51	12265.1
870.83	12258.55
871.15	12210.19
871.469	12172
871.789	12155.5
872.109	12154.6
872.428	12051.1
872.748	12092.9
873.067	12023.3
873.386	12088.38
873.706	12082.96
874.025	11971.78
874.344	11918.9
874.663	11984.88
874.982	11952.12
875.301	11977.43
875.62	11857.65
875.939	11962.96
876.258	11911.89
876.577	11823.08
876.896	11830.99
877.214	11772.91
877.533	11780.82
877.852	11790.99
878.17	11688.39
878.489	11798.9
878.807	11775.85
879.125	11742.4
879.444	11672.12
879.762	11671.22
880.08	11667.15
880.398	11594.38
880.716	11613.59
881.034	11576.08
881.352	11590.99
881.67	11539.92
881.988	11510.77
882.306	11521.17
882.624	11395.07
882.941	11301.74
883.259	11457.66
883.577	11378.8
883.894	11290.89
884.212	11329.53
884.529	11231.46
884.846	11260.83
885.164	11245.69
885.481	11213.6
885.798	11263.55
886.115	11186.71
886.432	11129.31
886.75	11138.8
887.067	11067.39
887.383	11094.28
887.7	11027.17
888.017	11016.77
888.334	11029.88
888.651	10963.21
888.967	10928.64
889.284	10823.78
889.6	10841.41
889.917	10811.58
890.233	10821.07
890.55	10684.8
890.866	10766.61
891.182	10726.61
891.498	10747.18
891.815	10612.72
892.131	10576.56
892.447	10546.73
892.763	10531.59
893.079	10490.68
893.395	10503.34
893.71	10448.88
894.026	10420.4
894.342	10382.66
894.657	10323.23
894.973	10253.18
895.289	10347.86
895.604	10236.23
895.92	10149.68
896.235	10160.07
896.55	10150.35
896.865	10112.62
897.181	10014.09
897.496	10110.58
897.811	9971.83
898.126	9962.56
898.441	9923.69
898.756	9866.97
899.071	9850.02
899.386	9791.49
899.7	9782.45
900.015	9699.07
900.33	9626.75
900.644	9642.57
900.959	9616.13
901.273	9623.14
901.588	9549.92
901.902	9530.03
902.216	9489.81
902.531	9424.05
902.845	9489.36
903.159	9400.54
903.473	9376.36
903.787	9253.43
904.101	9235.35
904.415	9243.94
904.729	9195.8
905.042	9216.82
905.356	9174.11
905.67	9120.1
905.984	9105.18
906.297	9055.69
906.611	8991.74
906.924	8961.91
907.237	8899.31
907.551	8873.55
907.864	8901.57
908.177	8812.76
908.491	8777.06
908.804	8743.39
909.117	8719.66
909.43	8684.63
909.743	8639.66
910.056	8680.11
910.368	8646.21
910.681	8572.77
910.994	8542.26
911.307	8504.52
911.619	8443.73
911.932	8501.36
912.244	8385.43
912.557	8332.55
912.869	8330.97
913.181	8250.52
913.494	8229.73
913.806	8208.48
914.118	8129.39
914.43	8115.61
914.742	8160.8
915.054	8136.85
915.366	8041.03
915.678	8076.96
915.99	8007.81
916.302	7902.73
916.613	7911.77
916.925	7857.08
917.236	7889.4
917.548	7745.22
917.859	7853.24
918.171	7671.78
918.482	7688.5
918.794	7681.72
919.105	7657.31
919.416	7650.31
919.727	7641.27
920.038	7582.74
920.349	7497.77
920.66	7474.49
920.971	7483.08
921.282	7458
921.593	7391.11
921.903	7326.47
922.214	7372.8
922.525	7304.33
922.835	7234.73
923.146	7237.21
923.456	7220.26
923.767	7175.07
924.077	7144.33
924.387	7137.1
924.697	7142.98
925.008	7045.35
925.318	7026.37
925.628	6993.83
925.938	7000.83
926.248	6930.1
926.558	6935.52
926.867	6852.59
927.177	6843.32
927.487	6817.33
927.796	6754.29
928.106	6747.73
928.416	6732.14
928.725	6737.11
929.034	6655.76
929.344	6669.99
929.653	6600.39
929.962	6570.11
930.271	6483.33
930.581	6520.85
930.89	6438.81
931.199	6436.78
931.508	6430
931.817	6447.63
932.125	6454.41
932.434	6389.78
932.743	6372.37
933.051	6325.14
933.36	6290.8
933.669	6271.36
933.977	6228.42
934.286	6222.77
934.594	6182.1
934.902	6193.85
935.21	6183.91
935.519	6143.45
935.827	6079.05
936.135	6065.04
936.443	6053.29
936.751	6043.8
937.059	6000.63
937.367	5987.98
937.674	5955.66
937.982	5945.95
938.29	5874.08
938.597	5917.25
938.905	5851.94
939.213	5831.6
939.52	5778.94
939.827	5755.67
940.135	5757.02
940.442	5718.83
940.749	5726.29
941.056	5691.71
941.363	5640.64
941.67	5619.4
941.977	5600.19
942.284	5557.93
942.591	5552.28
942.898	5521.1
943.205	5501.44
943.511	5498.05
943.818	5479.74
944.125	5416.47
944.431	5399.07
944.738	5346.19
945.044	5373.31
945.35	5356.13
945.657	5324.94
945.963	5274.32
946.269	5226.87
946.575	5282.01
946.881	5230.94
947.187	5248.56
947.493	5176.7
947.799	5155.68
948.105	5135.57
948.41	5126.76
948.716	5112.75
949.022	5045.63
949.327	5127.21
949.633	4980.55
949.938	4997.72
950.244	4977.84
950.549	4948.23
950.854	4926.31
951.16	4941.23
951.465	4884.5
951.77	4879.53
952.075	4847.22
952.38	4801.57
952.685	4807.9
952.99	4769.48
953.294	4766.32
953.599	4728.35
953.904	4703.04
954.209	4656.94
954.513	4686.09
954.818	4637.96
955.122	4627.79
955.426	4631.63
955.731	4651.06
956.035	4609.03
956.339	4573.55
956.643	4552.99
956.948	4508.92
957.252	4517.06
957.556	4498.3
957.86	4453.1
958.163	4442.71
958.467	4440.67
958.771	4396.61
959.075	4425.31
959.378	4366.1
959.682	4352.31
959.985	4295.82
960.289	4306.67
960.592	4283.62
960.896	4292.66
961.199	4272.99
961.502	4256.05
961.805	4267.57
962.108	4209.27
962.411	4211.3
962.714	4166.78
963.017	4145.09
963.32	4130.85
963.623	4104.41
963.926	4109.61
964.228	4073.9
964.531	4100.34
964.833	4064.19
965.136	3984.64
965.438	4028.71
965.741	4010.4
966.043	3953.23
966.345	3973.12
966.648	3944.87
966.95	3929.05
967.252	3869.62
967.554	3890.86
967.856	3843.18
968.158	3816.74
968.46	3855.38
968.761	3816.28
969.063	3754.82
969.365	3823.97
969.666	3816.74
969.968	3739.9
970.269	3725.44
970.571	3703.07
970.872	3750.75
971.174	3680.69
971.475	3673.69
971.776	3700.35
972.077	3641.15
972.378	3593.01
972.679	3615.39
972.98	3562.28
973.281	3571.32
973.582	3558.44
973.883	3527.93
974.183	3538.55
974.484	3521.6
974.785	3482.28
975.085	3495.16
975.386	3461.26
975.686	3437.08
975.986	3442.28
976.287	3419.46
976.587	3422.17
976.887	3331.78
977.187	3379.46
977.487	3374.26
977.787	3329.52
978.087	3334.94
978.387	3340.14
978.687	3325.68
978.987	3282.74
979.286	3241.84
979.586	3266.92
979.885	3242.29
980.185	3224.66
980.484	3214.27
980.784	3212.23
981.083	3191.44
981.382	3187.15
981.682	3169.97
981.981	3134.95
982.28	3084.55
982.579	3103.08
982.878	3106.92
983.177	3080.03
983.475	3052.24
983.774	3032.8
984.073	3037.55
984.372	3008.62
984.67	3015.63
984.969	3002.97
985.267	2993.48
985.566	3014.72
985.864	2967.72
986.162	2961.62
986.461	2940.15
986.759	2939.47
987.057	2904.9
987.355	2863.31
987.653	2892.69
987.951	2853.15
988.249	2833.03
988.547	2872.13
988.844	2805.24
989.142	2828.74
989.44	2793.94
989.737	2762.3
990.035	2771.57
990.332	2774.05
990.63	2736.99
990.927	2772.47
991.224	2750.55
991.521	2701.51
991.819	2685.69
992.116	2681.85
992.413	2665.58
992.71	2678.46
993.006	2641.63
993.303	2615.64
993.6	2610.67
993.897	2618.12
994.193	2610.67
994.49	2592.59
994.787	2532.7
995.083	2535.19
995.379	2554.4
995.676	2551.46
995.972	2517.79
996.268	2499.26
996.565	2492.25
996.861	2495.19
997.157	2449.99
997.453	2472.59
997.749	2456.32
998.044	2425.81
998.34	2454.96
998.636	2408.41
998.932	2382.42
999.227	2410.22
999.523	2360.5
999.818	2351.24
1000.114	2323.44
1000.409	2351.01
1000.704	2328.41
1001	2295.87
1001.295	2295.87
1001.59	2290.45
1001.885	2299.71
1002.18	2254.52
1002.475	2216.55
1002.77	2254.29
1003.065	2183.33
1003.359	2222.65
1003.654	2187.85
1003.949	2179.49
1004.243	2200.06
1004.538	2141.98
1004.832	2178.81
1005.127	2120.51
1005.421	2124.58
1005.715	2091.13
1006.009	2113.28
1006.304	2074.41
1006.598	2064.01
1006.892	2064.92
1007.186	2030.34
1007.48	2053.62
1007.773	2006.61
1008.067	2006.61
1008.361	1983.34
1008.655	2021.75
1008.948	1961.19
1009.242	1989.67
1009.535	1962.55
1009.829	1924.58
1010.122	1942.89
1010.415	1922.77
1010.708	1896.33
1011.001	1898.82
1011.295	1875.77
1011.588	1892.72
1011.881	1871.25
1012.173	1835.77
1012.466	1862.44
1012.759	1854.3
1013.052	1821.76
1013.344	1810.46
1013.637	1800.29
1013.93	1804.13
1014.222	1782.89
1014.514	1770.01
1014.807	1761.87
1015.099	1740.63
1015.391	1733.4
1015.683	1735.89
1015.976	1720.97
1016.268	1716
1016.56	1673.74
1016.851	1673.06
1017.143	1677.36
1017.435	1682.78
1017.727	1674.42
1018.018	1659.96
1018.31	1628.77
1018.602	1642.56
1018.893	1654.53
1019.185	1609.11
1019.476	1608.88
1019.767	1609.79
1020.058	1577.02
1020.35	1541.09
1020.641	1523.46
1020.932	1535.67
1021.223	1512.39
1021.514	1534.54
1021.804	1524.82
1022.095	1520.98
1022.386	1452.28
1022.677	1516.91
1022.967	1464.93
1023.258	1469.68
1023.548	1448.21
1023.839	1440.75
1024.129	1443.46
1024.419	1428.32
1024.709	1409.79
1025	1413.86
1025.29	1388.78
1025.58	1404.37
1025.87	1401.21
1026.16	1375.22
1026.449	1361.21
1026.739	1365.73
1027.029	1334.54
1027.319	1326.18
1027.608	1318.5
1027.898	1343.35
1028.187	1300.19
1028.477	1284.82
1028.766	1313.75
1029.055	1250.7
1029.344	1280.31
1029.634	1280.08
1029.923	1234.2
1030.212	1248.89
1030.501	1253.19
1030.79	1231.49
1031.078	1211.38
1031.367	1216.35
1031.656	1196.92
1031.945	1226.52
1032.233	1226.52
1032.522	1179.07
1032.81	1143.59
1033.099	1158.05
1033.387	1160.08
1033.675	1165.28
1033.963	1156.24
1034.251	1172.96
1034.54	1156.69
1034.828	1134.55
1035.116	1100.2
1035.403	1107.88
1035.691	1068.33
1035.979	1080.31
1036.267	1100.2
1036.554	1077.6
1036.842	1064.94
1037.129	1099.07
1037.417	1062.46
1037.704	1037.37
1037.992	1045.51
1038.279	1036.92
1038.566	1040.09
1038.853	1040.09
1039.14	1040.09
