Data from hue_130_FLMS001491_00100.txt Node
Date: Tue Feb 07 16:58:22 GMT 2017
User: dcchb
Spectrometer: FLMS00149
Trigger mode: 0
Integration Time (sec): 2.000000E-2
Scans to average: 10
Electric dark correction enabled: true
Nonlinearity correction enabled: false
Boxcar width: 0
XAxis mode: Wavelengths
Number of Pixels in Spectrum: 2048
>>>>>Begin Spectral Data<<<<<
341.393	-9.1
341.776	-9.1
342.16	-9.1
342.543	-47.74
342.927	-75.08
343.31	-55.87
343.693	-67.85
344.077	-57
344.46	-55.42
344.843	-73.73
345.226	-20.17
345.61	-57.91
345.993	-27.4
346.376	5.59
346.759	-10
347.142	21.41
347.525	54.18
347.908	59.6
348.291	75.65
348.674	110.22
349.057	98.7
349.44	126.04
349.823	138.47
350.206	156.78
350.588	195.87
350.971	190
351.354	221.18
351.737	239.71
352.119	254.17
352.502	267.96
352.884	283.78
353.267	277
353.65	285.36
354.032	309.31
354.414	313.83
354.797	321.74
355.179	352.02
355.562	333.49
355.944	333.27
356.326	328.97
356.709	340.73
357.091	326.71
357.473	330.56
357.855	341.86
358.238	351.35
358.62	321.07
359.002	335.53
359.384	356.54
359.766	342.76
360.148	334.4
360.53	352.02
360.912	345.47
361.294	329.2
361.676	326.04
362.057	334.17
362.439	323.78
362.821	324.68
363.203	325.58
363.584	343.21
363.966	299.37
364.348	322.42
364.729	327.17
365.111	331.69
365.493	322.87
365.874	318.81
366.256	310.22
366.637	300.73
367.019	311.8
367.4	320.84
367.781	324.23
368.163	302.31
368.544	305.7
368.925	320.84
369.306	318.13
369.688	325.58
370.069	302.53
370.45	303.21
370.831	308.18
371.212	297.79
371.593	306.83
371.974	300.5
372.355	306.38
372.736	318.13
373.117	298.92
373.498	308.86
373.879	300.95
374.26	323.78
374.641	312.03
375.021	321.74
375.402	328.75
375.783	324.23
376.163	328.97
376.544	313.16
376.925	309.77
377.305	314.29
377.686	317.68
378.066	317.22
378.447	319.26
378.827	322.65
379.208	319.71
379.588	346.83
379.968	345.7
380.349	323.55
380.729	337.11
381.109	339.37
381.489	342.76
381.87	328.75
382.25	322.65
382.63	317.22
383.01	332.59
383.39	348.86
383.77	343.89
384.15	337.11
384.53	337.56
384.91	357.67
385.29	352.02
385.67	324.68
386.049	328.07
386.429	344.57
386.809	353.83
387.189	355.64
387.568	356.32
387.948	361.52
388.328	335.3
388.707	336.88
389.087	333.72
389.466	351.12
389.846	352.7
390.225	357.67
390.605	371.91
390.984	364.91
391.363	370.78
391.743	363.32
392.122	387.28
392.501	387.28
392.881	351.12
393.26	361.29
393.639	381.4
394.018	364.91
394.397	371.23
394.776	373.49
395.155	364
395.534	370.56
395.913	384.57
396.292	383.66
396.671	369.65
397.05	359.71
397.429	381.63
397.808	379.59
398.186	377.79
398.565	407.16
398.944	387.28
399.323	358.8
399.701	379.59
400.08	380.5
400.458	412.36
400.837	417.79
401.215	395.87
401.594	398.8
401.972	392.25
402.351	407.84
402.729	415.75
403.107	389.76
403.486	392.25
403.864	400.61
404.242	399.26
404.62	410.55
404.999	409.42
405.377	412.14
405.755	419.59
406.133	397.67
406.511	438.35
406.889	436.77
407.267	432.02
407.645	434.28
408.023	441.06
408.401	422.53
408.779	429.99
409.156	433.15
409.534	429.31
409.912	435.64
410.29	440.38
410.667	448.52
411.045	452.59
411.422	439.03
411.8	452.14
412.178	445.36
412.555	477.67
412.933	470.67
413.31	455.3
413.687	476.54
414.065	457.78
414.442	480.83
414.819	462.3
415.197	464.11
415.574	484.9
415.951	493.04
416.328	497.33
416.705	475.41
417.082	468.41
417.46	491.91
417.837	517.44
418.214	494.17
418.591	498.01
418.967	511.34
419.344	494.17
419.721	486.71
420.098	490.78
420.475	512.02
420.852	509.08
421.228	517.9
421.605	514.28
421.982	526.26
422.358	535.3
422.735	535.75
423.111	540.27
423.488	549.53
423.864	549.08
424.241	532.36
424.617	523.55
424.994	544.11
425.37	537.56
425.746	553.6
426.123	553.6
426.499	544.11
426.875	580.49
427.251	561.96
427.627	587.5
428.003	581.62
428.379	588.63
428.756	581.85
429.132	590.44
429.507	611.45
429.883	593.37
430.259	599.25
430.635	605.8
431.011	622.53
431.387	608.29
431.763	603.54
432.138	630.21
432.514	630.66
432.89	659.14
433.265	646.25
433.641	627.95
434.016	647.38
434.392	667.95
434.767	653.26
435.143	661.85
435.518	656.88
435.894	669.3
436.269	670.43
436.644	681.96
437.02	694.39
437.395	678.57
437.77	709.76
438.145	698.46
438.52	685.35
438.895	699.36
439.271	753.6
439.646	725.8
440.021	730.32
440.395	721.28
440.77	711.56
441.145	757.89
441.52	761.73
441.895	756.53
442.27	773.71
442.645	752.01
443.019	774.61
443.394	785.46
443.769	762.64
444.143	774.39
444.518	779.58
444.892	780.71
445.267	794.27
445.641	786.36
446.016	780.26
446.39	813.93
446.764	805.35
447.139	820.71
447.513	823.42
447.887	829.98
448.262	834.05
448.636	820.94
449.01	816.42
449.384	822.97
449.758	852.12
450.132	843.09
450.506	874.5
450.88	863.88
451.254	863.65
451.628	879.47
452.002	870.66
452.376	928.51
452.75	908.85
453.123	899.81
453.497	905.23
453.871	939.58
454.244	949.52
454.618	932.12
454.992	959.92
455.365	971.9
455.739	959.01
456.112	1013.93
456.486	989.52
456.859	989.52
457.232	994.72
457.606	995.85
457.979	1033.59
458.352	1037.2
458.725	1058.45
459.099	1057.09
459.472	1067.71
459.845	1090.08
460.218	1077.88
460.591	1099.35
460.964	1107.71
461.337	1136.86
461.71	1150.87
462.083	1156.98
462.456	1163.3
462.829	1174.83
463.201	1196.75
463.574	1186.13
463.947	1217.31
464.32	1239.91
464.692	1268.61
465.065	1276.52
465.438	1287.82
465.81	1309.74
466.183	1329.4
466.555	1349.51
466.928	1357.87
467.3	1363.07
467.672	1397.65
468.045	1439.91
468.417	1438.1
468.789	1473.8
469.161	1511.32
469.534	1504.76
469.906	1526.23
470.278	1580.47
470.65	1591.99
471.022	1624.31
471.394	1680.35
471.766	1681.03
472.138	1699.79
472.51	1761.93
472.882	1799.44
473.253	1803.29
473.625	1844.87
473.997	1900.46
474.369	1910.4
474.74	1932.77
475.112	1999.21
475.484	2055.71
475.855	2123.05
476.227	2162.37
476.598	2224.97
476.97	2225.2
477.341	2285.53
477.713	2349.49
478.084	2395.81
478.455	2531.85
478.827	2547.22
479.198	2664.73
479.569	2664.73
479.94	2775.46
480.311	2788.12
480.682	2897.72
481.053	3016.36
481.424	3096.81
481.795	3149.47
482.166	3231.27
482.537	3337.26
482.908	3433.3
483.279	3501.55
483.65	3582.9
484.021	3701.54
484.391	3814.08
484.762	3894.3
485.133	3976.34
485.503	4107.63
485.874	4240.06
486.244	4308.3
486.615	4428.3
486.985	4553.72
487.356	4695.87
487.726	4785.35
488.097	4912.81
488.467	4994.61
488.837	5186.02
489.207	5254.04
489.578	5405.45
489.948	5517.99
490.318	5622.62
490.688	5730.41
491.058	5929.28
491.428	6071.2
491.798	6142.38
492.168	6349.83
492.538	6423.05
492.908	6612.65
493.278	6686.32
493.648	6724.51
494.017	6922.25
494.387	7016.03
494.757	7152.52
495.126	7343.03
495.496	7435.45
495.866	7515.68
496.235	7684.49
496.605	7760.19
496.974	7919.51
497.344	8072.95
497.713	8092.84
498.082	8228.65
498.452	8361.98
498.821	8463.9
499.19	8550.68
499.559	8658.47
499.928	8712.26
500.298	8855.98
500.667	8996.54
501.036	9023.21
501.405	9188.18
501.774	9215.07
502.143	9329.42
502.512	9387.95
502.88	9497.09
503.249	9560.82
503.618	9689.63
503.987	9760.36
504.356	9838.55
504.724	9955.16
505.093	10005.33
505.462	10075.38
505.83	10192.67
506.199	10289.39
506.567	10414.36
506.936	10324.19
507.304	10503.85
507.672	10542.04
508.041	10607.35
508.409	10696.39
508.777	10819.09
509.145	10820.45
509.514	10828.13
509.882	10903.39
510.25	10976.6
510.618	11100.22
510.986	11092.08
511.354	11175.69
511.722	11254.56
512.09	11347.22
512.458	11323.71
512.826	11442.58
513.193	11444.61
513.561	11447.33
513.929	11584.5
514.297	11691.16
514.664	11728.9
515.032	11720.31
515.4	11758.05
515.767	11859.74
516.135	11838.05
516.502	11712.63
516.869	11993.75
517.237	11929.8
517.604	11928.9
517.972	12039.17
518.339	12030.14
518.706	12051.15
519.073	12172.5
519.44	12098.38
519.808	12084.82
520.175	12177.48
520.542	12292.28
520.909	12325.04
521.276	12290.02
521.643	12410.24
522.009	12460.63
522.376	12450.92
522.743	12459.73
523.11	12525.94
523.477	12684.81
523.843	12667.86
524.21	12705.37
524.577	12766.39
524.943	12767.29
525.31	12707.86
525.676	12802.54
526.043	12785.82
526.409	12840.74
526.776	12933.61
527.142	12892.71
527.508	12982.2
527.874	12967.51
528.241	12937.91
528.607	12935.65
528.973	12976.1
529.339	12970.45
529.705	13030.56
530.071	13054.06
530.437	13033.27
530.803	12980.62
531.169	13003.22
531.535	13050.22
531.901	12925.03
532.267	12963.67
532.632	13073.72
532.998	12939.72
533.364	12993.27
533.73	12959.15
534.095	13023.33
534.461	12938.36
534.826	12911.24
535.192	12830.11
535.557	12988.98
535.923	12894.07
536.288	12936.1
536.653	13012.48
537.019	12863.33
537.384	12870.57
537.749	12830.34
538.114	12804.35
538.479	12798.7
538.845	12696.78
539.21	12652.49
539.575	12619.5
539.94	12627.41
540.305	12702.66
540.67	12631.02
541.034	12572.49
541.399	12600.52
541.764	12563.45
542.129	12579.95
542.494	12475.32
542.858	12490.91
543.223	12437.81
543.587	12488.2
543.952	12416.34
544.316	12426.06
544.681	12269.9
545.045	12313.29
545.41	12289.34
545.774	12198.49
546.138	12171.15
546.503	12195.33
546.867	12092.05
547.231	12126.18
547.595	12069.91
547.959	12150.81
548.324	11956.69
548.688	11972.28
549.052	11952.85
549.416	11978.39
549.779	11899.52
550.143	11898.61
550.507	11885.73
550.871	11813.64
551.235	11895.9
551.599	11882.34
551.962	11786.3
552.326	11766.41
552.689	11832.4
553.053	11691.39
553.417	11731.84
553.78	11768.67
554.143	11698.84
554.507	11652.97
554.87	11683.03
555.234	11683.48
555.597	11606.19
555.96	11605.06
556.323	11553.99
556.686	11601.9
557.05	11636.7
557.413	11546.31
557.776	11553.09
558.139	11500.66
558.502	11523.71
558.865	11536.36
559.228	11560.32
559.59	11535.69
559.953	11461.11
560.316	11548.79
560.679	11531.17
561.041	11513.31
561.404	11579.53
561.767	11525.52
562.129	11529.81
562.492	11596.25
562.854	11528
563.217	11473.09
563.579	11580.43
563.941	11636.02
564.304	11531.62
564.666	11623.82
565.028	11648.45
565.39	11570.71
565.753	11627.21
566.115	11585.63
566.477	11711.27
566.839	11690.48
567.201	11604.16
567.563	11646.87
567.925	11750.82
568.287	11769.35
568.648	11685.96
569.01	11663.59
569.372	11767.32
569.734	11661.33
570.095	11805.51
570.457	11793.53
570.819	11713.76
571.18	11753.08
571.542	11807.54
571.903	11804.38
572.265	11866.98
572.626	11779.07
572.987	11822.68
573.349	11870.14
573.71	11863.36
574.071	11893.42
574.432	11782.23
574.794	11906.52
575.155	11976.58
575.516	11844.38
575.877	11813.19
576.238	11869.24
576.599	11857.48
576.96	11868.11
577.32	11851.16
577.681	11877.37
578.042	11923.7
578.403	11912.85
578.763	11882.12
579.124	11920.53
579.485	11943.58
579.845	11902.68
580.206	11955.34
580.566	11924.6
580.927	11897.26
581.287	11906.98
581.648	11946.52
582.008	11999.4
582.368	11947.43
582.728	11916.69
583.089	12005.96
583.449	11901.78
583.809	11979.06
584.169	11897.71
584.529	11909.69
584.889	11959.63
585.249	11903.81
585.609	11753.76
585.969	11863.13
586.329	11864.72
586.688	11949.69
587.048	11790.37
587.408	11794.44
587.768	11856.58
588.127	11726.64
588.487	11731.16
588.846	11803.93
589.206	11732.97
589.565	11715.12
589.925	11749.69
590.284	11685.29
590.643	11678.28
591.003	11745.4
591.362	11687.32
591.721	11685.06
592.08	11693.87
592.44	11715.57
592.799	11770.48
593.158	11666.3
593.517	11684.61
593.876	11713.76
594.235	11617.94
594.593	11721.44
594.952	11708.11
595.311	11636.47
595.67	11623.14
596.029	11746.53
596.387	11712.18
596.746	11695.23
597.104	11673.31
597.463	11706.08
597.822	11656.13
598.18	11602.58
598.538	11662.24
598.897	11652.29
599.255	11599.86
599.613	11699.07
599.972	11688.22
600.33	11658.17
600.688	11595.12
601.046	11582.46
601.404	11636.47
601.762	11671.73
602.12	11614.1
602.478	11740.43
602.836	11691.61
603.194	11552.63
603.552	11589.92
603.91	11581.56
604.268	11650.03
604.625	11581.33
604.983	11624.5
605.341	11604.38
605.698	11678.05
606.056	11631.5
606.413	11573.42
606.771	11686.64
607.128	11663.82
607.485	11626.98
607.843	11576.36
608.2	11694.55
608.557	11727.54
608.914	11721.22
609.272	11710.37
609.629	11753.98
609.986	11754.66
610.343	11663.37
610.7	11801.67
611.057	11693.2
611.414	11748.79
611.771	11712.86
612.127	11806.86
612.484	11761.89
612.841	11800.31
613.198	11712.18
613.554	11760.99
613.911	11877.37
614.267	11849.35
614.624	11754.66
614.98	11836.69
615.337	11895.9
615.693	11838.73
616.05	11802.57
616.406	11939.29
616.762	11859.29
617.118	11856.81
617.475	11918.5
617.831	11838.28
618.187	11881.21
618.543	11891.38
618.899	11905.17
619.255	11944.94
619.611	11972.28
619.967	11952.85
620.323	11930.48
620.678	11889.57
621.034	11981.32
621.39	12001.44
621.746	11922.57
622.101	12032.4
622.457	11942.23
622.812	12005.05
623.168	11959.86
623.523	11927.31
623.879	12012.51
624.234	11893.87
624.589	11919.4
624.945	11944.94
625.3	12031.27
625.655	11990.81
626.01	12033.98
626.365	12030.36
626.72	11888.44
627.075	11920.53
627.43	11952.62
627.785	11946.07
628.14	11990.59
628.495	11908.33
628.85	11895.68
629.205	11881.21
629.559	11882.57
629.914	11916.92
630.269	11934.09
630.623	11880.54
630.978	11900.42
631.332	11886.18
631.687	11866.98
632.041	11867.2
632.396	11836.24
632.75	11763.93
633.104	11790.37
633.459	11709.92
633.813	11723.03
634.167	11760.09
634.521	11716.47
634.875	11806.64
635.229	11764.61
635.583	11713.76
635.937	11661.11
636.291	11712.63
636.645	11659.98
636.999	11670.15
637.352	11654.33
637.706	11652.07
638.06	11580.2
638.413	11657.26
638.767	11586.31
639.121	11643.48
639.474	11598.73
639.828	11542.01
640.181	11528.91
640.534	11615.46
640.888	11467.66
641.241	11516.7
641.594	11468.34
641.947	11475.8
642.301	11486.87
642.654	11440.55
643.007	11493.88
643.36	11544.05
643.713	11458.63
644.066	11459.53
644.419	11409.36
644.771	11408.01
645.124	11318.06
645.477	11240.1
645.83	11233.09
646.182	11197.62
646.535	11184.96
646.888	11202.81
647.24	11078.75
647.593	11154
647.945	11095.47
648.298	11134.11
648.65	11096.83
649.002	10968.24
649.355	11042.59
649.707	11039.65
650.059	11152.19
650.411	11186.32
650.763	11263.83
651.115	11331.4
651.467	11388.12
651.819	11320.78
652.171	11322.58
652.523	11259.76
652.875	11310.38
653.227	11227.9
653.578	11339.76
653.93	11339.53
654.282	11264.73
654.633	11220.44
654.985	11353.77
655.337	11273.55
655.688	11342.7
656.039	11306.99
656.391	11264.51
656.742	11318.29
657.094	11286.2
657.445	11412.3
657.796	11285.07
658.147	11288.23
658.498	11296.37
658.849	11240.55
659.2	11312.87
659.551	11385.86
659.902	11329.14
660.253	11268.8
660.604	11384.5
660.955	11300.66
661.306	11408.91
661.656	11342.7
662.007	11362.58
662.358	11331.62
662.708	11346.31
663.059	11355.35
663.409	11220.21
663.76	11418.17
664.11	11392.19
664.461	11404.39
664.811	11401.23
665.161	11413.43
665.511	11405.52
665.862	11288.46
666.212	11336.37
666.562	11409.59
666.912	11278.07
667.262	11365.52
667.612	11382.7
667.962	11394.67
668.312	11379.98
668.662	11433.77
669.011	11343.83
669.361	11332.75
669.711	11392.19
670.06	11317.16
670.41	11363.71
670.76	11241.23
671.109	11334.56
671.459	11355.58
671.808	11339.98
672.157	11363.03
672.507	11228.8
672.856	11345.18
673.205	11258.63
673.554	11321
673.904	11297.5
674.253	11346.09
674.602	11313.54
674.951	11117.17
675.3	11085.98
675.649	11263.83
675.998	11191.97
676.346	11182.47
676.695	11221.12
677.044	11140.22
677.393	11184.28
677.741	11238.52
678.09	11149.71
678.438	11168.01
678.787	11130.27
679.135	11043.72
679.484	10974.8
679.832	11185.19
680.181	10981.58
680.529	11076.49
680.877	11036.94
681.225	10966.43
681.573	11076.94
681.922	10959.88
682.27	10963.05
682.618	10957.4
682.966	10888.47
683.314	10871.52
683.661	10904.74
684.009	10861.35
684.357	10846.44
684.705	10916.04
685.053	10828.13
685.4	10754.69
685.748	10792.43
686.095	10676.72
686.443	10742.49
686.79	10663.84
687.138	10650.74
687.485	10751.07
687.832	10667.91
688.18	10683.05
688.527	10583.62
688.874	10568.48
689.221	10546.11
689.568	10529.61
689.915	10514.24
690.262	10418.88
690.609	10349.95
690.956	10326.23
691.303	10407.58
691.65	10307.47
691.997	10308.15
692.344	10220.69
692.69	10223.63
693.037	10193.57
693.383	10120.58
693.73	10143.41
694.077	10039.91
694.423	10087.59
694.769	10060.92
695.116	10013.69
695.462	10027.7
695.808	9927.59
696.155	9992.22
696.501	9834.26
696.847	9818.89
697.193	9752.68
697.539	9819.35
697.885	9721.5
698.231	9724.66
698.577	9701.84
698.923	9629.52
699.269	9650.31
699.614	9590.2
699.96	9553.82
700.306	9496.87
700.651	9470.65
700.997	9469.3
701.342	9412.8
701.688	9385.46
702.033	9319.92
702.379	9308.4
702.724	9362.41
703.069	9266.37
703.415	9165.8
703.76	9176.43
704.105	9185.69
704.45	9159.25
704.795	9145.92
705.14	9056.43
705.485	9060.27
705.83	9036.99
706.175	9049.2
706.52	8967.17
706.865	9004.68
707.209	8924.91
707.554	8891.69
707.899	8919.26
708.243	8885.36
708.588	8785.7
708.932	8790.67
709.277	8797.68
709.621	8734.4
709.966	8637.91
710.31	8751.8
710.654	8623.22
710.998	8647.63
711.342	8604.24
711.687	8616.89
712.031	8576.22
712.375	8571.7
712.719	8570.11
713.063	8614.41
713.407	8553.84
713.75	8468.87
714.094	8498.7
714.438	8413.51
714.782	8498.7
715.125	8444.02
715.469	8444.47
715.812	8332.15
716.156	8419.84
716.499	8326.28
716.843	8326.5
717.186	8290.57
717.53	8302.55
717.873	8357.92
718.216	8311.59
718.559	8290.57
718.902	8261.2
719.246	8268.65
719.589	8282.66
719.932	8232.5
720.275	8174.42
720.617	8264.36
720.96	8225.49
721.303	8250.12
721.646	8211.25
721.989	8163.57
722.331	8193.63
722.674	8139.84
723.016	8148.2
723.359	8106.62
723.701	8132.39
724.044	8069.56
724.386	8031.6
724.729	8117.7
725.071	8131.03
725.413	8123.8
725.755	8117.92
726.097	8031.6
726.439	8031.37
726.782	8034.99
727.124	8068.66
727.465	8031.14
727.807	8107.07
728.149	8004.48
728.491	8006.74
728.833	7993.18
729.175	8032.5
729.516	8013.29
729.858	8055.78
730.199	8019.17
730.541	7992.95
730.882	8018.49
731.224	8053.29
731.565	8002.9
731.906	8002.44
732.248	8028.88
732.589	7938.72
732.93	7942.79
733.271	7947.53
733.612	8017.81
733.953	7992.28
734.294	8016.23
734.635	7945.95
734.976	7994.54
735.317	7982.33
735.658	7950.92
735.999	7982.56
736.339	7951.37
736.68	8044.48
737.021	7960.19
737.361	7973.75
737.702	8049.68
738.042	8005.16
738.383	7998.6
738.723	8080.86
739.063	8031.82
739.404	7955.67
739.744	8069.34
740.084	7999.73
740.424	8050.81
740.764	8022.78
741.104	8087.87
741.444	8041.99
741.784	8099.62
742.124	8077.02
742.464	8159.73
742.804	8159.28
743.143	8132.16
743.483	8236.34
743.823	8218.26
744.162	8138.94
744.502	8247.64
744.841	8252.16
745.181	8310.01
745.52	8293.74
745.86	8379.84
746.199	8397.46
746.538	8443.56
746.877	8519.04
747.216	8518.36
747.556	8533.5
747.895	8566.72
748.234	8575.09
748.573	8668.19
748.911	8756.55
749.25	8752.26
749.589	8808.75
749.928	8963.55
750.267	8985.92
750.605	9040.61
750.944	9125.35
751.283	9178.23
751.621	9200.15
751.96	9288.29
752.298	9429.3
752.636	9557.43
752.975	9599.24
753.313	9732.34
753.651	9752.23
753.989	9821.83
754.327	9984.31
754.666	10041.94
755.004	10166
755.342	10295.49
755.679	10400.8
756.017	10547.91
756.355	10727.8
756.693	10730.06
757.031	10969.6
757.368	11111.06
757.706	11117.84
758.044	11407.55
758.381	11460.43
758.719	11595.8
759.056	11758.28
759.394	11955.11
759.731	11979.52
760.068	12164.82
760.405	12347.64
760.743	12420.63
761.08	12724.13
761.417	12808.87
761.754	12943.56
762.091	13120.5
762.428	13222.87
762.765	13400.5
763.102	13597.78
763.438	13676.42
763.775	13742.18
764.112	13949.63
764.449	14221.49
764.785	14290.64
765.122	14383.75
765.458	14482.27
765.795	14641.37
766.131	14874.35
766.467	14943.73
766.804	15034.8
767.14	15210.39
767.476	15343.04
767.812	15499.42
768.148	15618.97
768.485	15673.88
768.821	15797.27
769.157	15920.88
769.492	16072.29
769.828	16116.13
770.164	16155.9
770.5	16316.35
770.836	16466.18
771.171	16455.1
771.507	16629.34
771.842	16629.56
772.178	16819.61
772.513	16795.21
772.849	17016.9
773.184	16998.82
773.519	17009.44
773.855	17049.89
774.19	17120.62
774.525	17174.86
774.86	17332.14
775.195	17435.87
775.53	17390.22
775.865	17441.29
776.2	17429.99
776.535	17400.16
776.87	17447.85
777.205	17518.8
777.539	17537.11
777.874	17617.11
778.209	17511.57
778.543	17569.2
778.878	17573.04
779.212	17602.87
779.547	17681.96
779.881	17763.54
780.215	17675.41
780.55	17762.87
780.884	17653.72
781.218	17732.36
781.552	17784.11
781.886	17758.12
782.22	17661.17
782.554	17732.58
782.888	17498.47
783.222	17634.51
783.556	17638.35
783.889	17615.75
784.223	17456.89
784.557	17659.37
784.89	17557.9
785.224	17525.13
785.557	17443.1
785.891	17429.09
786.224	17533.72
786.558	17517.67
786.891	17493.04
787.224	17452.37
787.557	17323.1
787.891	17424.57
788.224	17406.04
788.557	17467.05
788.89	17444.46
789.223	17412.37
789.556	17326.72
789.888	17365.81
790.221	17377.34
790.554	17151.13
790.887	17165.37
791.219	17178.02
791.552	17151.13
791.884	17103.9
792.217	16989.78
792.549	16943.23
792.882	16798.37
793.214	16879.95
793.546	16950.01
793.879	16736.68
794.211	16763.57
794.543	16816.22
794.875	16830.46
795.207	16801.54
795.539	16754.53
795.871	16752.27
796.203	16627.3
796.535	16613.29
796.867	16488.32
797.198	16562.22
797.53	16510.47
797.862	16417.82
798.193	16546.18
798.525	16369.23
798.856	16366.07
799.188	16249.46
799.519	16214.43
799.85	16108.9
800.182	16142.8
800.513	16152.29
800.844	16019.41
801.175	16138.95
801.506	16086.07
801.837	15903.25
802.168	15939.19
802.499	15941.67
802.83	15811.28
803.161	15834.56
803.491	15768.34
803.822	15712.3
804.153	15711.62
804.483	15606.31
804.814	15562.7
805.145	15548.01
805.475	15569.48
805.805	15530.61
806.136	15508.01
806.466	15583.94
806.796	15464.17
807.126	15412.87
807.457	15320.22
807.787	15358.41
808.117	15288.13
808.447	15238.64
808.777	15266.21
809.107	15257.85
809.436	15170.62
809.766	15080.9
810.096	14997.29
810.426	15018.98
810.755	15130.17
811.085	14998.42
811.414	14997.97
811.744	14900.12
812.073	14892.21
812.403	14941.92
812.732	14793.9
813.061	14788.71
813.39	14698.99
813.719	14661.25
814.049	14755.26
814.378	14725.21
814.707	14650.18
815.036	14704.19
815.365	14587.58
815.693	14513.23
816.022	14523.4
816.351	14507.13
816.68	14394.37
817.008	14479.11
817.337	14289.96
817.665	14363.63
817.994	14375.61
818.322	14279.12
818.651	14228.95
818.979	14240.92
819.307	14193.47
819.636	14202.96
819.964	14201.15
820.292	14160.48
820.62	14205.9
820.948	14151.21
821.276	14163.64
821.604	14122.51
821.932	14125.9
822.259	14106.69
822.587	14068.05
822.915	14084.09
823.243	14106.24
823.57	14106.24
823.898	14142.4
824.225	14039.8
824.553	14068.05
824.88	14088.16
825.207	14133.36
825.535	14061.04
825.862	14194.37
826.189	14129.74
826.516	14262.39
826.843	14217.65
827.17	14182.17
827.497	14184.43
827.824	14198.67
828.151	14242.51
828.478	14168.61
828.805	14217.2
829.131	14174.03
829.458	14064.21
829.785	14115.05
830.111	14171.1
830.438	14262.17
830.764	14140.36
831.09	14156.41
831.417	14064.21
831.743	14105.56
832.069	14117.99
832.395	14092.68
832.722	14166.58
833.048	14066.47
833.374	14174.94
833.7	14042.74
834.026	14069.86
834.351	14133.36
834.677	14038.22
835.003	14015.85
835.329	13990.76
835.654	14060.59
835.98	13892.01
836.306	14001.16
836.631	13942.18
836.956	14025.79
837.282	14031.44
837.607	13842.74
837.932	13892.01
838.258	13847.49
838.583	13789.41
838.908	13685.91
839.233	13724.33
839.558	13779.92
839.883	13665.57
840.208	13654.27
840.533	13648.4
840.858	13688.17
841.182	13634.61
841.507	13616.76
841.832	13509.19
842.156	13577.67
842.481	13504.45
842.805	13515.29
843.13	13451.34
843.454	13480.27
843.778	13446.37
844.103	13345.13
844.427	13354.62
844.751	13334.73
845.075	13294.06
845.399	13300.38
845.723	13199.14
846.047	13238.92
846.371	13111.24
846.695	13097.45
847.019	12947.85
847.343	12925.25
847.666	12860.17
847.99	12780.17
848.313	12878.02
848.637	12640.97
848.96	12697.91
849.284	12600.74
849.607	12581.99
849.931	12546.28
850.254	12543.57
850.577	12389.45
850.9	12375.89
851.223	12396
851.546	12227.87
851.869	12245.95
852.192	12221.54
852.515	12103.58
852.838	12051.15
853.161	12095.9
853.483	12026.52
853.806	11986.07
854.129	11934.54
854.451	11910.82
854.774	11905.17
855.096	11701.78
855.419	11782.91
855.741	11765.06
856.063	11661.56
856.385	11659.07
856.708	11606.19
857.03	11593.99
857.352	11586.76
857.674	11503.37
857.996	11502.47
858.318	11419.08
858.64	11465.18
858.961	11434.9
859.283	11408.91
859.605	11339.76
859.926	11266.99
860.248	11274.68
860.57	11272.19
860.891	11263.38
861.212	11106.54
861.534	11133.66
861.855	11150.84
862.176	11114.23
862.498	11092.53
862.819	11096.15
863.14	11015.7
863.461	11078.52
863.782	11046.66
864.103	11004.17
864.424	11027.45
864.745	11029.48
865.065	10906.55
865.386	10839.43
865.707	10878.98
866.027	10877.62
866.348	10918.75
866.668	10862.26
866.989	10780.9
867.309	10795.14
867.63	10699.1
867.95	10795.59
868.27	10782.94
868.59	10714.46
868.91	10740
869.23	10697.06
869.55	10600.79
869.87	10708.81
870.19	10601.7
870.51	10608.48
870.83	10587.46
871.15	10606.44
871.469	10579.55
871.789	10601.7
872.109	10553.79
872.428	10469.72
872.748	10565.99
873.067	10514.02
873.386	10461.82
873.706	10432.66
874.025	10488.71
874.344	10356.96
874.663	10438.99
874.982	10373.68
875.301	10354.47
875.62	10382.95
875.939	10279.9
876.258	10349.95
876.577	10262.5
876.896	10233.35
877.214	10248.26
877.533	10269.05
877.852	10203.74
878.17	10210.07
878.489	10207.13
878.807	10239.45
879.125	10173.01
879.444	10133.01
879.762	10158.32
880.08	10123.52
880.398	10027.93
880.716	10065.67
881.034	10123.52
881.352	10071.09
881.67	10017.31
881.988	10001.26
882.306	9906.8
882.624	9929.17
882.941	9931.66
883.259	9907.93
883.577	9853.92
883.894	9835.62
884.212	9850.98
884.529	9820.48
884.846	9814.6
885.164	9733.25
885.481	9716.75
885.798	9733.47
886.115	9679.69
886.432	9674.72
886.75	9626.13
887.067	9738.67
887.383	9636.98
887.7	9639.01
888.017	9567.6
888.334	9547.94
888.651	9519.69
888.967	9450.77
889.284	9523.99
889.6	9487.15
889.917	9389.53
890.233	9399.24
890.55	9409.64
890.866	9345.91
891.182	9326.25
891.498	9314.05
891.815	9311.56
892.131	9301.17
892.447	9183.66
892.763	9167.84
893.079	9125.35
893.395	9062.3
893.71	9093.26
894.026	9016.43
894.342	9057.11
894.657	8981.63
894.973	8926.94
895.289	8947.05
895.604	8912.25
895.92	8865.47
896.235	8834.06
896.55	8812.37
896.865	8774.63
897.181	8797.45
897.496	8767.4
897.811	8699.15
898.126	8639.94
898.441	8582.54
898.756	8664.12
899.071	8564.01
899.386	8583.45
899.7	8487.4
900.015	8489.21
900.33	8362.44
900.644	8355.43
900.959	8382.1
901.273	8362.44
901.588	8317.01
901.902	8264.13
902.216	8243.12
902.531	8253.96
902.845	8176.9
903.159	8149.33
903.473	8185.04
903.787	8086.06
904.101	8119.5
904.415	8067.3
904.729	8085.15
905.042	7973.29
905.356	7987.08
905.67	7946.18
905.984	7906.63
906.297	7904.37
906.611	7891.71
906.924	7881.54
907.237	7849.68
907.551	7790.47
907.864	7759.74
908.177	7692.85
908.491	7645.84
908.804	7627.31
909.117	7600.65
909.43	7555.68
909.743	7534.66
910.056	7445.85
910.368	7403.36
910.681	7418.51
910.994	7387.32
911.307	7417.83
911.619	7381.9
911.932	7365.4
912.244	7304.84
912.557	7260.09
912.869	7211.28
913.181	7221.45
913.494	7177.83
913.806	7125.86
914.118	7136.03
914.43	7077.27
914.742	7023.26
915.054	7037.95
915.366	6970.61
915.678	6981.91
915.99	6914.11
916.302	6882.7
916.613	6886.54
916.925	6832.53
917.236	6806.54
917.548	6801.57
917.859	6752.08
918.171	6735.13
918.482	6708.47
918.794	6707.79
919.105	6650.16
919.416	6620.56
919.727	6652.42
920.038	6627.79
920.349	6590.05
920.66	6481.13
920.971	6517.74
921.282	6499.43
921.593	6476.61
921.903	6435.48
922.214	6414.24
922.525	6424.86
922.835	6362.26
923.146	6304.64
923.456	6280
923.767	6221.93
924.077	6240.46
924.387	6181.02
924.697	6175.15
925.008	6199.1
925.318	6101.03
925.628	6080.69
925.938	6091.99
926.248	6049.73
926.558	6035.27
926.867	6008.6
927.177	6014.93
927.487	5964.98
927.796	5860.81
928.106	5928.6
928.416	5928.83
928.725	5863.29
929.034	5876.63
929.344	5835.95
929.653	5885.89
929.962	5783.97
930.271	5713.92
930.581	5685.9
930.89	5728.15
931.199	5633.24
931.508	5654.71
931.817	5653.35
932.125	5609.74
932.434	5597.54
932.743	5534.26
933.051	5499.23
933.36	5548.95
933.669	5492.91
933.977	5440.25
934.286	5447.71
934.594	5400.93
934.902	5430.31
935.21	5368.39
935.519	5366.81
935.827	5384.21
936.135	5346.92
936.443	5282.97
936.751	5258.11
937.059	5241.39
937.367	5185.12
937.674	5241.16
937.982	5233.03
938.29	5153.25
938.597	5173.82
938.905	5071.9
939.213	5111.45
939.52	5035.52
939.827	5049.53
940.135	5029.64
940.442	5014.27
940.749	4994.84
941.056	4998.23
941.363	4963.2
941.67	4917.33
941.977	4913.03
942.284	4877.78
942.591	4872.13
942.898	4854.28
943.205	4828.97
943.511	4801.63
943.818	4792.36
944.125	4744.45
944.431	4711.01
944.738	4709.2
945.044	4690.67
945.35	4679.14
945.657	4663.1
945.963	4645.02
946.269	4659.71
946.575	4615.64
946.881	4587.85
947.187	4558.92
947.493	4498.81
947.799	4536.55
948.105	4532.71
948.41	4505.81
948.716	4475.53
949.022	4488.41
949.327	4420.17
949.633	4380.85
949.938	4407.96
950.244	4415.65
950.549	4320.28
950.854	4367.74
951.16	4292.49
951.465	4298.14
951.77	4282.77
952.075	4242.32
952.38	4217.23
952.685	4219.49
952.99	4257.46
953.294	4197.8
953.599	4198.48
953.904	4144.02
954.209	4104.02
954.513	4065.6
954.818	4103.79
955.122	4102.66
955.426	4102.43
955.731	4070.34
956.035	4019.95
956.339	4021.76
956.643	4013.4
956.948	3957.81
957.252	3994.87
957.556	3915.32
957.86	3916.45
958.163	3888.2
958.467	3916.22
958.771	3875.1
959.075	3881.88
959.378	3867.86
959.682	3863.12
959.985	3792.84
960.289	3760.97
960.592	3777.92
960.896	3770.92
961.199	3760.3
961.502	3750.81
961.805	3704.7
962.108	3680.07
962.411	3674.42
962.714	3692.95
963.017	3643.92
963.32	3612.5
963.623	3625.84
963.926	3629.9
964.228	3582.67
964.531	3618.61
964.833	3585.39
965.136	3517.59
965.438	3527.76
965.741	3511.26
966.043	3495.44
966.345	3491.15
966.648	3470.59
966.95	3471.26
967.252	3425.62
967.554	3419.29
967.856	3375
968.158	3316.47
968.46	3407.99
968.761	3388.1
969.063	3353.98
969.365	3345.84
969.666	3334.09
969.968	3317.37
970.269	3285.96
970.571	3254.1
970.872	3300.65
971.174	3253.64
971.475	3252.06
971.776	3224.72
972.077	3205.28
972.378	3211.61
972.679	3171.84
972.98	3162.35
973.281	3146.08
973.582	3135.45
973.883	3133.42
974.183	3117.38
974.484	3081.9
974.785	3071.73
975.085	3079.64
975.386	3065.63
975.686	3051.61
975.986	3069.02
976.287	3028.34
976.587	3017.27
976.887	2984.95
977.187	2965.74
977.487	2977.49
977.787	2959.64
978.087	2944.72
978.387	2938.62
978.687	2903.82
978.987	2913.09
979.286	2873.09
979.586	2847.78
979.885	2843.71
980.185	2829.93
980.484	2833.32
980.784	2822.69
981.083	2824.95
981.382	2826.76
981.682	2824.95
981.981	2786.76
982.28	2732.3
982.579	2743.6
982.878	2751.74
983.177	2743.37
983.475	2738.4
983.774	2702.47
984.073	2682.36
984.372	2657.5
984.67	2648.24
984.969	2660.66
985.267	2679.42
985.566	2633.09
985.864	2620.44
986.162	2597.84
986.461	2589.48
986.759	2580.89
987.057	2577.95
987.355	2525.3
987.653	2543.61
987.951	2543.38
988.249	2492.53
988.547	2536.6
988.844	2513.78
989.142	2482.59
989.44	2474.68
989.737	2453.44
990.035	2457.05
990.332	2463.16
990.63	2424.29
990.927	2445.08
991.224	2425.19
991.521	2397.17
991.819	2380.22
992.116	2418.19
992.413	2383.61
992.71	2359.88
993.006	2327.34
993.303	2335.02
993.6	2351.52
993.897	2330.73
994.193	2306.55
994.49	2322.82
994.787	2278.53
995.083	2249.15
995.379	2260
995.676	2233.11
995.972	2245.76
996.268	2225.65
996.565	2198.98
996.861	2186.78
997.157	2198.98
997.453	2208.02
997.749	2178.87
998.044	2149.94
998.34	2148.36
998.636	2146.1
998.932	2129.61
999.227	2139.1
999.523	2100.23
999.818	2081.92
1000.114	2076.95
1000.409	2071.08
1000.704	2044.64
1001	2066.56
1001.295	2017.74
1001.59	2034.69
1001.885	2008.48
1002.18	2029.04
1002.475	2019.55
1002.77	1966.45
1003.065	1951.3
1003.359	1972.55
1003.654	1937.52
1003.949	1951.53
1004.243	1923.28
1004.538	1919.67
1004.832	1902.72
1005.127	1916.5
1005.421	1890.52
1005.715	1872.66
1006.009	1855.04
1006.304	1870.4
1006.598	1854.58
1006.892	1860.91
1007.186	1826.56
1007.48	1790.63
1007.773	1802.83
1008.067	1821.36
1008.361	1754.7
1008.655	1785.66
1008.948	1760.12
1009.242	1787.02
1009.535	1760.8
1009.829	1721.03
1010.122	1726.45
1010.415	1720.8
1010.708	1693.46
1011.001	1686.45
1011.295	1679
1011.588	1663.63
1011.881	1675.61
1012.173	1660.69
1012.466	1644.65
1012.759	1653.46
1013.052	1633.35
1013.344	1618.43
1013.637	1616.17
1013.93	1578.43
1014.222	1615.04
1014.514	1592.9
1014.807	1615.95
1015.099	1575.04
1015.391	1532.33
1015.683	1578.89
1015.976	1523.07
1016.268	1501.6
1016.56	1540.24
1016.851	1523.29
1017.143	1489.62
1017.435	1509.28
1017.727	1497.98
1018.018	1463.86
1018.31	1506.34
1018.602	1454.14
1018.893	1436.74
1019.185	1430.87
1019.476	1434.71
1019.767	1414.14
1020.058	1406.69
1020.35	1392.22
1020.641	1398.1
1020.932	1403.07
1021.223	1372.11
1021.514	1361.04
1021.804	1352.68
1022.095	1335.5
1022.386	1317.42
1022.677	1342.73
1022.967	1337.99
1023.258	1316.75
1023.548	1309.97
1023.839	1308.61
1024.129	1268.16
1024.419	1258.22
1024.709	1262.06
1025	1259.57
1025.29	1235.17
1025.58	1242.4
1025.87	1244.66
1026.16	1233.81
1026.449	1211.44
1026.739	1241.04
1027.029	1213.7
1027.319	1178.67
1027.608	1199.23
1027.898	1222.06
1028.187	1182.06
1028.477	1167.37
1028.766	1163.98
1029.055	1180.48
1029.344	1146.81
1029.634	1137.77
1029.923	1138.22
1030.212	1118.11
1030.501	1125.56
1030.79	1102.51
1031.078	1099.12
1031.367	1067.94
1031.656	1105.45
1031.945	1084.43
1032.233	1065.68
1032.522	1083.3
1032.81	1057.77
1033.099	1088.73
1033.387	1057.32
1033.675	1022.52
1033.963	1055.06
1034.251	1009.86
1034.54	1037.88
1034.828	1025.68
1035.116	1031.55
1035.403	999.92
1035.691	1018.45
1035.979	1006.47
1036.267	1010.31
1036.554	991.78
1036.842	992.46
1037.129	964.44
1037.417	994.27
1037.704	981.39
1037.992	954.27
1038.279	945.23
1038.566	942.29
1038.853	942.29
1039.14	942.29
