Data from hue_90_FLMS001491_47.txt Node
Date: Mon Feb 06 15:25:12 GMT 2017
User: dcchb
Spectrometer: FLMS00149
Trigger mode: 0
Integration Time (sec): 2.000000E-2
Scans to average: 10
Electric dark correction enabled: true
Nonlinearity correction enabled: false
Boxcar width: 0
XAxis mode: Wavelengths
Number of Pixels in Spectrum: 2048
>>>>>Begin Spectral Data<<<<<
341.393	8.12
341.776	8.12
342.16	8.12
342.543	-67.13
342.927	-60.58
343.31	-84.08
343.693	-88.15
344.077	-63.06
344.46	-70.07
344.843	-53.57
345.226	-61.71
345.61	-27.81
345.993	-13.8
346.376	8.8
346.759	19.87
347.142	28.91
347.525	38.18
347.908	61.45
348.291	80.89
348.674	97.38
349.057	126.76
349.44	110.94
349.823	150.49
350.206	168.79
350.588	199.08
350.971	204.05
351.354	232.52
351.737	249.24
352.119	242.01
352.502	259.64
352.884	245.4
353.267	277.72
353.65	275.68
354.032	295.8
354.414	321.79
354.797	295.12
355.179	310.26
355.562	320.66
355.944	328.56
356.326	316.81
356.709	332.63
357.091	348.45
357.473	358.17
357.855	340.09
358.238	342.8
358.62	329.02
359.002	343.93
359.384	325.63
359.766	360.65
360.148	342.12
360.53	343.48
360.912	355.23
361.294	314.33
361.676	324.05
362.057	336.02
362.439	325.63
362.821	336.93
363.203	318.62
363.584	313.2
363.966	322.01
364.348	315.91
364.729	328.79
365.111	304.38
365.493	342.58
365.874	328.79
366.256	309.36
366.637	319.75
367.019	321.11
367.4	314.33
367.781	294.67
368.163	326.76
368.544	330.82
368.925	316.14
369.306	326.3
369.688	325.18
370.069	325.4
370.45	316.59
370.831	318.17
371.212	304.38
371.593	288.11
371.974	315.68
372.355	334.44
372.736	296.93
373.117	331.5
373.498	320.43
373.879	322.69
374.26	314.1
374.641	310.03
375.021	298.06
375.402	341.67
375.783	323.14
376.163	312.52
376.544	338.28
376.925	341.9
377.305	314.78
377.686	330.37
378.066	337.38
378.447	338.28
378.827	350.94
379.208	340.09
379.588	343.25
379.968	347.55
380.349	331.5
380.729	334.21
381.109	339.19
381.489	327.21
381.87	331.28
382.25	345.74
382.63	346.42
383.01	348.45
383.39	350.03
383.77	363.37
384.15	337.6
384.53	357.04
384.91	354.1
385.29	347.77
385.67	338.51
386.049	322.46
386.429	354.33
386.809	352.07
387.189	361.33
387.568	340.32
387.948	343.03
388.328	356.36
388.707	362.46
389.087	373.31
389.466	375.34
389.846	343.71
390.225	362.69
390.605	364.04
390.984	369.92
391.363	368.79
391.743	371.28
392.122	365.4
392.501	389.58
392.881	381.22
393.26	369.47
393.639	369.47
394.018	385.51
394.397	419.41
394.776	382.12
395.155	400.88
395.534	369.24
395.913	391.39
396.292	383.25
396.671	385.96
397.05	397.72
397.429	389.13
397.808	374.21
398.186	396.13
398.565	425.51
398.944	399.07
399.323	408.56
399.701	408.79
400.08	397.26
400.458	395.91
400.837	387.77
401.215	413.53
401.594	395
401.972	401.11
402.351	417.38
402.729	409.24
403.107	427.09
403.486	421.67
403.864	412.18
404.242	414.66
404.62	436.13
404.999	404.04
405.377	428
405.755	440.65
406.133	420.31
406.511	435.45
406.889	455.79
407.267	427.09
407.645	453.08
408.023	450.6
408.401	434.78
408.779	441.56
409.156	425.51
409.534	452.4
409.912	471.84
410.29	441.78
410.667	463.02
411.045	462.57
411.422	486.07
411.8	479.3
412.178	449.47
412.555	475.68
412.933	484.94
413.31	486.75
413.687	487.43
414.065	479.07
414.442	490.37
414.819	486.98
415.197	496.92
415.574	496.7
415.951	512.51
416.328	504.61
416.705	513.42
417.082	493.76
417.46	501.89
417.837	503.48
418.214	517.94
418.591	495.79
418.967	530.37
419.344	547.99
419.721	522.01
420.098	513.87
420.475	541.44
420.852	565.85
421.228	529.46
421.605	554.32
421.982	544.6
422.358	553.64
422.735	560.42
423.111	554.1
423.488	580.08
423.864	576.69
424.241	554.77
424.617	576.24
424.994	559.07
425.37	579.63
425.746	593.87
426.123	589.8
426.499	594.55
426.875	596.81
427.251	612.17
427.627	584.15
428.003	605.17
428.379	609.46
428.756	640.2
429.132	623.25
429.507	625.28
429.883	632.51
430.259	650.82
430.635	647.43
431.011	655.11
431.387	642.68
431.763	667.31
432.138	654.88
432.514	679.06
432.89	657.37
433.265	669.35
433.641	669.35
434.016	690.59
434.392	695.11
434.767	691.04
435.143	686.75
435.518	694.43
435.894	706.41
436.269	712.96
436.644	738.95
437.02	740.31
437.395	742.57
437.77	760.64
438.145	762
438.52	771.04
438.895	766.52
439.271	771.94
439.646	782.79
440.021	763.81
440.395	769.46
440.77	764.49
441.145	804.48
441.52	791.83
441.895	784.37
442.27	791.6
442.645	797.71
443.019	814.43
443.394	804.71
443.769	801.09
444.143	804.94
444.518	857.36
444.892	824.6
445.267	826.63
445.641	860.75
446.016	859.62
446.39	862.79
446.764	856.91
447.139	883.13
447.513	858.27
447.887	872.73
448.262	862.34
448.636	875.22
449.01	900.98
449.384	887.65
449.758	892.39
450.132	921.09
450.506	901.43
450.88	911.15
451.254	942.11
451.628	929.23
452.002	958.83
452.376	935.1
452.75	943.46
453.123	961.77
453.497	959.06
453.871	983.69
454.244	987.3
454.618	1009.22
454.992	1013.97
455.365	1035.44
455.739	1010.58
456.112	1039.96
456.486	1065.72
456.859	1082.67
457.232	1058.72
457.606	1086.51
457.979	1109.56
458.352	1119.28
458.725	1133.29
459.099	1144.59
459.472	1150.01
459.845	1185.72
460.218	1195.66
460.591	1175.32
460.964	1184.36
461.337	1241.76
461.71	1232.5
462.083	1241.54
462.456	1239.05
462.829	1258.71
463.201	1288.54
463.574	1309.56
463.947	1315.21
464.32	1344.36
464.692	1352.72
465.065	1360.18
465.438	1390.46
465.81	1395.2
466.183	1406.28
466.555	1465.26
466.928	1445.6
467.3	1488.08
467.672	1479.72
468.045	1550.23
468.417	1568.76
468.789	1573.28
469.161	1566.5
469.534	1634.75
469.906	1654.41
470.278	1666.61
470.65	1686.72
471.022	1704.8
471.394	1772.59
471.766	1805.59
472.138	1806.04
472.51	1885.81
472.882	1935.53
473.253	1943.66
473.625	1976.88
473.997	2039.25
474.369	2072.7
474.74	2141.17
475.112	2195.41
475.484	2173.94
475.855	2260.72
476.227	2278.57
476.598	2351.34
476.97	2421.17
477.341	2512.01
477.713	2550.43
478.084	2568.73
478.455	2659.58
478.827	2721.72
479.198	2835.84
479.569	2863.41
479.94	2940.47
480.311	3033.58
480.682	3114.25
481.053	3209.62
481.424	3290.97
481.795	3409.84
482.166	3438.77
482.537	3544.07
482.908	3625.88
483.279	3732.09
483.65	3874.69
484.021	3982.03
484.391	4043.27
484.762	4102.25
485.133	4225.86
485.503	4336.82
485.874	4478.74
486.244	4587.66
486.615	4720.99
486.985	4794.44
487.356	4972.96
487.726	5061.1
488.097	5188.55
488.467	5304.93
488.837	5508.09
489.207	5591.48
489.578	5734.75
489.948	5790.12
490.318	5983.11
490.688	6054.52
491.058	6273.27
491.428	6394.85
491.798	6473.26
492.168	6660.15
492.538	6784.21
492.908	6924.32
493.278	7087.94
493.648	7143.07
494.017	7348.95
494.387	7399.34
494.757	7570.86
495.126	7731.08
495.496	7787.13
495.866	7934.01
496.235	8115.48
496.605	8167.68
496.974	8263.27
497.344	8437.05
497.713	8586.88
498.082	8653.32
498.452	8789.13
498.821	8836.14
499.19	8973.31
499.559	9120.65
499.928	9196.35
500.298	9263.47
500.667	9406.52
501.036	9477.7
501.405	9588.66
501.774	9635.44
502.143	9868.43
502.512	9902.55
502.88	9933.96
503.249	10041.98
503.618	10118.14
503.987	10184.8
504.356	10367.85
504.724	10339.15
505.093	10429.32
505.462	10538.69
505.83	10666.6
506.199	10692.13
506.567	10857.55
506.936	10855.52
507.304	11034.27
507.672	10980.71
508.041	11101.16
508.409	11192.91
508.777	11227.04
509.145	11256.87
509.514	11336.41
509.882	11431.78
510.25	11555.61
510.618	11566.91
510.986	11575.05
511.354	11757.87
511.722	11805.33
512.09	11901.14
512.458	11824.76
512.826	11989.73
513.193	11961.25
513.561	12076.05
513.929	12104.3
514.297	12226.78
514.664	12223.62
515.032	12246.44
515.4	12369.38
515.767	12410.73
516.135	12487.57
516.502	12368.93
516.869	12506.78
517.237	12553.55
517.604	12498.87
517.972	12644.17
518.339	12608.02
518.706	12715.13
519.073	12727.33
519.44	12655.7
519.808	12812.53
520.175	12784.51
520.542	12899.99
520.909	12942.92
521.276	12953.77
521.643	12972.3
522.009	13029.93
522.376	13090.94
522.743	13110.38
523.11	13191.28
523.477	13296.59
523.843	13274.67
524.21	13335.91
524.577	13387.2
524.943	13398.73
525.31	13404.38
525.676	13541.1
526.043	13501.1
526.409	13518.05
526.776	13572.28
527.142	13669.23
527.508	13611.61
527.874	13631.04
528.241	13687.08
528.607	13654.99
528.973	13793.3
529.339	13657.71
529.705	13737.93
530.071	13781.54
530.437	13777.93
530.803	13739.06
531.169	13771.38
531.535	13718.5
531.901	13765.27
532.267	13709.91
532.632	13883.24
532.998	13757.14
533.364	13729.12
533.73	13785.61
534.095	13841.2
534.461	13754.43
534.826	13770.92
535.192	13787.19
535.557	13695.9
535.923	13714.88
536.288	13736.8
536.653	13728.89
537.019	13637.14
537.384	13569.35
537.749	13612.96
538.114	13583.81
538.479	13577.03
538.845	13567.76
539.21	13546.07
539.575	13427.66
539.94	13499.29
540.305	13585.17
540.67	13397.37
541.034	13389.46
541.399	13455.23
541.764	13368.22
542.129	13354.21
542.494	13296.36
542.858	13329.13
543.223	13318.28
543.587	13378.84
543.952	13248
544.316	13203.03
544.681	13178.4
545.045	13072.18
545.41	13171.39
545.774	13096.82
546.138	13007.55
546.503	13071.28
546.867	12956.93
547.231	13018.17
547.595	12914.67
547.959	12918.29
548.324	12935.92
548.688	12785.19
549.052	12862.47
549.416	12832.87
549.779	12770.95
550.143	12823.6
550.507	12775.92
550.871	12779.54
551.235	12664.29
551.599	12691.4
551.962	12716.26
552.326	12613.44
552.689	12644.85
553.053	12573.67
553.417	12546.1
553.78	12612.76
554.143	12528.92
554.507	12542.71
554.87	12490.28
555.234	12564.4
555.597	12484.4
555.96	12454.57
556.323	12438.53
556.686	12497.06
557.05	12537.74
557.413	12424.97
557.776	12414.35
558.139	12482.82
558.502	12408.7
558.865	12476.04
559.228	12459.09
559.59	12461.58
559.953	12449.83
560.316	12506.1
560.679	12448.47
561.041	12462.71
561.404	12389.26
561.767	12506.78
562.129	12412.31
562.492	12527.79
562.854	12471.97
563.217	12453.22
563.579	12445.31
563.941	12457.51
564.304	12467.68
564.666	12563.27
565.028	12522.14
565.39	12511.3
565.753	12494.12
566.115	12615.93
566.477	12526.21
566.839	12597.85
567.201	12604.17
567.563	12622.03
567.925	12622.48
568.287	12577.28
568.648	12591.29
569.01	12667.45
569.372	12732.98
569.734	12678.07
570.095	12704.06
570.457	12743.83
570.819	12688.01
571.18	12779.08
571.542	12794.9
571.903	12729.59
572.265	12796.49
572.626	12763.49
572.987	12738.18
573.349	12791.29
573.71	12838.52
574.071	12853.66
574.432	12921.23
574.794	12952.64
575.155	12872.87
575.516	12813.21
575.877	12888.91
576.238	12847.78
576.599	12863.83
576.96	12801.23
577.32	12834.22
577.681	12867.9
578.042	12869.7
578.403	12862.47
578.763	12854.34
579.124	12886.43
579.485	12931.62
579.845	12909.02
580.206	12900.66
580.566	12831.96
580.927	12923.49
581.287	12936.37
581.648	12906.31
582.008	12959.42
582.368	12955.8
582.728	12843.26
583.089	12824.28
583.449	12824.96
583.809	12853.43
584.169	12815.24
584.529	12770.72
584.889	12876.94
585.249	12786.09
585.609	12823.6
585.969	12849.59
586.329	12726.66
586.688	12789.71
587.048	12803.27
587.408	12776.15
587.768	12782.47
588.127	12730.27
588.487	12757.39
588.846	12810.04
589.206	12719.2
589.565	12743.83
589.925	12732.53
590.284	12749.03
590.643	12755.58
591.003	12795.58
591.362	12754.23
591.721	12745.19
592.08	12766.2
592.44	12700.22
592.799	12707.45
593.158	12718.97
593.517	12646.88
593.876	12688.24
594.235	12604.63
594.593	12597.17
594.952	12663.38
595.311	12594.23
595.67	12680.78
596.029	12745.19
596.387	12603.27
596.746	12700.22
597.104	12550.39
597.463	12604.4
597.822	12596.94
598.18	12603.04
598.538	12529.37
598.897	12629.03
599.255	12505.65
599.613	12689.82
599.972	12578.64
600.33	12675.58
600.688	12523.27
601.046	12635.36
601.404	12611.63
601.762	12545.42
602.12	12574.12
602.478	12553.33
602.836	12591.29
603.194	12554.68
603.552	12504.97
603.91	12504.52
604.268	12510.39
604.625	12601.24
604.983	12604.85
605.341	12506.1
605.698	12631.29
606.056	12642.59
606.413	12602.59
606.771	12631.97
607.128	12519.66
607.485	12565.08
607.843	12570.73
608.2	12584.51
608.557	12686.88
608.914	12638.98
609.272	12639.43
609.629	12619.32
609.986	12673.78
610.343	12670.84
610.7	12720.33
611.057	12736.83
611.414	12643.27
611.771	12747.22
612.127	12772.08
612.484	12761.68
612.841	12838.97
613.198	12668.81
613.554	12782.25
613.911	12850.95
614.267	12692.76
614.624	12763.27
614.98	12856.6
615.337	12819.54
615.693	12805.75
616.05	12792.19
616.406	12860.89
616.762	12862.92
617.118	12863.6
617.475	12824.73
617.831	12819.08
618.187	12841.91
618.543	12934.56
618.899	12920.55
619.255	12906.77
619.611	12888.91
619.967	13020.66
620.323	12968.68
620.678	12948.35
621.034	12896.6
621.39	12896.6
621.746	12891.62
622.101	13017.04
622.457	12906.77
622.812	12933.21
623.168	13080.55
623.523	12976.82
623.879	12936.37
624.234	12879.42
624.589	12938.63
624.945	12942.92
625.3	13022.92
625.655	13008.01
626.01	12873.77
626.365	13006.2
626.72	12940.89
627.075	12907.44
627.43	12999.87
627.785	12882.58
628.14	12933.43
628.495	12929.59
628.85	12931.85
629.205	12888.01
629.559	12924.62
629.914	12875.81
630.269	12848.24
630.623	12829.03
630.978	12707.22
631.332	12924.84
631.687	12885.97
632.041	12827.22
632.396	12844.17
632.75	12711.29
633.104	12770.05
633.459	12726.66
633.813	12695.25
634.167	12762.59
634.521	12736.15
634.875	12716.26
635.229	12761.68
635.583	12686.21
635.937	12720.33
636.291	12603.27
636.645	12577.73
636.999	12597.39
637.352	12635.59
637.706	12644.17
638.06	12663.16
638.413	12651.18
638.767	12522.14
639.121	12601.91
639.474	12537.06
639.828	12470.84
640.181	12544.06
640.534	12460.45
640.888	12460.45
641.241	12417.74
641.594	12456.38
641.947	12416.16
642.301	12363.95
642.654	12403.95
643.007	12416.38
643.36	12442.82
643.713	12368.47
644.066	12399.89
644.419	12305.65
644.771	12203.51
645.124	12126.45
645.477	12126.22
645.83	12048.26
646.182	12078.09
646.535	11935.49
646.888	12074.47
647.24	11950.18
647.593	12035.6
647.945	11977.52
648.298	12006.68
648.65	11996.96
649.002	11979.11
649.355	11942.27
649.707	11947.24
650.059	11972.1
650.411	12138.42
650.763	12107.92
651.115	12309.49
651.467	12224.52
651.819	12282.37
652.171	12250.29
652.523	12268.59
652.875	12178.2
653.227	12088.26
653.578	12160.8
653.93	12294.35
654.282	12099.1
654.633	12133.9
654.985	12171.42
655.337	12252.09
655.688	12210.06
656.039	12245.54
656.391	12135.94
656.742	12247.57
657.094	12225.88
657.445	12219.33
657.796	12237.63
658.147	12205.31
658.498	12346.1
658.849	12186.56
659.2	12264.75
659.551	12279.89
659.902	12260.45
660.253	12210.06
660.604	12232.21
660.955	12249.38
661.306	12182.94
661.656	12189.5
662.007	12309.27
662.358	12300
662.708	12305.65
663.059	12296.84
663.409	12198.76
663.76	12273.11
664.11	12266.78
664.461	12323.28
664.811	12255.71
665.161	12278.76
665.511	12274.92
665.862	12295.93
666.212	12368.25
666.562	12231.08
666.912	12332.54
667.262	12279.66
667.612	12294.58
667.962	12301.13
668.312	12296.84
668.662	12306.33
669.011	12282.6
669.361	12309.04
669.711	12333.9
670.06	12153.79
670.41	12218.87
670.76	12224.52
671.109	12279.44
671.459	12328.7
671.808	12238.99
672.157	12304.97
672.507	12167.58
672.856	12201.92
673.205	12195.37
673.554	12241.92
673.904	12148.82
674.253	12246.44
674.602	12200.8
674.951	12084.19
675.3	11956.96
675.649	12102.04
675.998	12110.85
676.346	12086
676.695	12175.94
677.044	12147.46
677.393	12046.22
677.741	12063.85
678.09	12098.42
678.438	12082.38
678.787	12066.11
679.135	12000.12
679.484	11937.75
679.832	12046.45
680.181	11923.06
680.529	12001.48
680.877	11875.15
681.225	11867.02
681.573	11983.63
681.922	11775.04
682.27	11782.73
682.618	11897.98
682.966	11732.33
683.314	11817.75
683.661	11825.66
684.009	11721.49
684.357	11707.47
684.705	11646.69
685.053	11656.63
685.4	11697.76
685.748	11624.76
686.095	11575.73
686.443	11553.13
686.79	11541.6
687.138	11493.02
687.485	11514.49
687.832	11502.73
688.18	11532.34
688.527	11427.93
688.874	11365.56
689.221	11353.59
689.568	11307.94
689.915	11279.92
690.262	11265
690.609	11236.53
690.956	11128.96
691.303	11184.78
691.65	11054.61
691.997	11115.63
692.344	10981.39
692.69	10969.41
693.037	11061.16
693.383	10893.94
693.73	10943.43
694.077	10909.53
694.423	10879.25
694.769	10790.66
695.116	10805.35
695.462	10714.73
695.808	10674.51
696.155	10677.9
696.501	10623.21
696.847	10671.57
697.193	10573.04
697.539	10545.92
697.885	10500.95
698.231	10477.9
698.577	10434.97
698.923	10347.96
699.269	10319.04
699.614	10254.41
699.96	10305.7
700.306	10286.5
700.651	10243.56
700.997	10155.43
701.342	10142.32
701.688	10103.9
702.033	10078.59
702.379	10040.4
702.724	10020.29
703.069	9994.3
703.415	9910.69
703.76	9936.45
704.105	9846.73
704.45	9908.65
704.795	9802.67
705.14	9743.91
705.485	9734.19
705.83	9683.57
706.175	9740.07
706.52	9674.08
706.865	9600.86
707.209	9569.23
707.554	9571.49
707.899	9536.01
708.243	9456.91
708.588	9448.1
708.932	9469.12
709.277	9384.6
709.621	9472.28
709.966	9334.66
710.31	9420.76
710.654	9293.98
710.998	9313.64
711.342	9350.93
711.687	9260.99
712.031	9229.8
712.375	9196.58
712.719	9157.94
713.063	9196.58
713.407	9205.39
713.75	9163.81
714.094	9128.33
714.438	9049.69
714.782	9146.41
715.125	9127.43
715.469	9115
715.812	9065.28
716.156	8993.2
716.499	9020.31
716.843	8996.81
717.186	8873.2
717.53	8936.47
717.873	8973.76
718.216	8950.48
718.559	8908
718.902	8891.73
719.246	8891.5
719.589	8955.46
719.932	8837.95
720.275	8914.55
720.617	8856.93
720.96	8809.92
721.303	8816.48
721.646	8812.86
721.989	8799.53
722.331	8768.79
722.674	8729.25
723.016	8742.13
723.359	8709.59
723.701	8762.69
724.044	8638.18
724.386	8639.08
724.729	8689.7
725.071	8714.56
725.413	8733.77
725.755	8657.39
726.097	8616.71
726.439	8614.67
726.782	8628.69
727.124	8654.67
727.465	8577.39
727.807	8622.13
728.149	8601.34
728.491	8607.67
728.833	8578.29
729.175	8502.14
729.516	8592.3
729.858	8512.53
730.199	8616.26
730.541	8604.05
730.882	8586.43
731.224	8591.4
731.565	8580.1
731.906	8592.3
732.248	8546.88
732.589	8528.12
732.93	8548.69
733.271	8568.57
733.612	8641.34
733.953	8599.31
734.294	8553.21
734.635	8533.55
734.976	8505.75
735.317	8544.17
735.658	8519.99
735.999	8502.81
736.339	8556.6
736.68	8556.82
737.021	8544.85
737.361	8549.59
737.702	8600.21
738.042	8525.86
738.383	8628.23
738.723	8554.34
739.063	8605.86
739.404	8638.4
739.744	8604.28
740.084	8504.17
740.424	8612.41
740.764	8560.66
741.104	8704.62
741.444	8650.15
741.784	8679.98
742.124	8693.32
742.464	8667.78
742.804	8703.94
743.143	8698.51
743.483	8693.32
743.823	8737.61
744.162	8767.44
744.502	8762.24
744.841	8846.98
745.181	8919.53
745.52	8868.45
745.86	8943.03
746.199	8902.58
746.538	9006.3
746.877	9100.54
747.216	9157.94
747.556	9098.96
747.895	9177.82
748.234	9196.81
748.573	9234.77
748.911	9326.97
749.25	9342.57
749.589	9380.08
749.928	9507.98
750.267	9624.59
750.605	9672.73
750.944	9721.99
751.283	9782.1
751.621	9905.94
751.96	9891.03
752.298	10013.73
752.636	10051.47
752.975	10153.84
753.313	10197.46
753.651	10394.97
753.989	10449.43
754.327	10563.1
754.666	10622.08
755.004	10770.78
755.342	10876.99
755.679	11005.35
756.017	11160.6
756.355	11265.23
756.693	11405.11
757.031	11473.81
757.368	11666.8
757.706	11713.12
758.044	11893.68
758.381	12097.97
758.719	12128.25
759.056	12402.82
759.394	12483.73
759.731	12537.74
760.068	12791.97
760.405	12885.3
760.743	13094.1
761.08	13192.86
761.417	13323.93
761.754	13444.15
762.091	13638.27
762.428	13673.3
762.765	13837.14
763.102	14134.3
763.438	14236.67
763.775	14353.05
764.112	14531.36
764.449	14657.68
764.785	14799.82
765.122	14927.73
765.458	14978.12
765.795	15224.44
766.131	15361.62
766.467	15480.03
766.804	15614.26
767.14	15635.73
767.476	15857.2
767.812	15886.8
768.148	16182.16
768.485	16059.22
768.821	16302.16
769.157	16398.42
769.492	16472.55
769.828	16600.68
770.164	16609.94
770.5	16793.44
770.836	16917.73
771.171	16963.83
771.507	17080.44
771.842	17006.32
772.178	17173.09
772.513	17346.87
772.849	17250.61
773.184	17420.77
773.519	17500.09
773.855	17547.77
774.19	17531.95
774.525	17598.39
774.86	17649.01
775.195	17728.33
775.53	17699.86
775.865	17713.42
776.2	17695.79
776.535	17747.54
776.87	17812.17
777.205	17804.04
777.539	17756.36
777.874	17906.86
778.209	17905.28
778.543	17944.37
778.878	17995.44
779.212	17980.08
779.547	17896.92
779.881	18007.42
780.215	17976.69
780.55	18008.55
780.884	17931.72
781.218	17957.71
781.552	17990.93
781.886	18036.8
782.22	17957.03
782.554	18072.05
782.888	17864.15
783.222	17887.2
783.556	17826.86
783.889	17820.31
784.223	17787.77
784.557	17727.66
784.89	17940.08
785.224	17809.91
785.557	17743.25
785.891	17794.77
786.224	17738.73
786.558	17773.3
786.891	17607.66
787.224	17674.78
787.557	17621.9
787.891	17657.37
788.224	17626.42
788.557	17713.42
788.89	17657.37
789.223	17653.53
789.556	17561.33
789.888	17454.67
790.221	17479.75
790.554	17324.5
790.887	17443.37
791.219	17407.44
791.552	17416.03
791.884	17246.31
792.217	17250.15
792.549	17257.39
792.882	17104.85
793.214	17059.65
793.546	17202.92
793.879	17050.61
794.211	16884.06
794.543	17131.96
794.875	16983.95
795.207	16971.74
795.539	16909.82
795.871	16943.95
796.203	16812.2
796.535	16771.52
796.867	16705.31
797.198	16686.33
797.53	16707.12
797.862	16489.5
798.193	16652.2
798.525	16543.73
798.856	16504.64
799.188	16413.57
799.519	16376.5
799.85	16238.65
800.182	16311.42
800.513	16361.82
800.844	16188.71
801.175	16216.96
801.506	16314.36
801.837	16155.95
802.168	16137.64
802.499	16059.68
802.83	16021.49
803.161	15909.4
803.491	15955.72
803.822	16003.63
804.153	15904.2
804.483	15851.09
804.814	15792.79
805.145	15729.06
805.475	15765.67
805.805	15637.31
806.136	15631.44
806.466	15741.49
806.796	15639.35
807.126	15477.32
807.457	15445.91
807.787	15496.75
808.117	15452.46
808.447	15251.56
808.777	15437.32
809.107	15304.22
809.436	15275.29
809.766	15337.21
810.096	15284.33
810.426	15275.06
810.755	15282.3
811.085	15171.34
811.414	15151
811.744	15023.09
812.073	15038.01
812.403	15029.87
812.732	14881.4
813.061	14941.06
813.39	14842.99
813.719	14823.32
814.049	14940.38
814.378	14831.69
814.707	14798.69
815.036	14779.48
815.365	14739.03
815.693	14589.43
816.022	14651.13
816.351	14646.38
816.68	14564.35
817.008	14667.85
817.337	14473.73
817.665	14464.46
817.994	14511.92
818.322	14361.19
818.651	14326.61
818.979	14317.12
819.307	14375.65
819.636	14312.83
819.964	14304.02
820.292	14363.22
820.62	14252.49
820.948	14278.71
821.276	14272.38
821.604	14263.11
821.932	14294.98
822.259	14332.72
822.587	14220.18
822.915	14272.6
823.243	14261.31
823.57	14211.14
823.898	14164.36
824.225	14143.79
824.553	14233.28
824.88	14260.4
825.207	14218.82
825.535	14238.26
825.862	14212.04
826.189	14227.41
826.516	14273.06
826.843	14252.49
827.17	14232.83
827.497	14325.26
827.824	14298.14
828.151	14262.66
828.478	14283
828.805	14337.01
829.131	14258.59
829.458	14149.9
829.785	14137.02
830.111	14212.72
830.438	14216.56
830.764	14198.03
831.09	14290.46
831.417	14256.79
831.743	14271.7
832.069	14251.14
832.395	14132.5
832.722	14160.97
833.048	14142.89
833.374	14136.11
833.7	14094.08
834.026	14125.94
834.351	14186.28
834.677	14056.34
835.003	14163.68
835.329	14124.36
835.654	14026.06
835.98	14035.32
836.306	14018.15
836.631	13994.87
836.956	14109.22
837.282	13995.32
837.607	14009.34
837.932	13892.05
838.258	13928.21
838.583	13944.03
838.908	13892.5
839.233	13846.85
839.558	13765.95
839.883	13828.32
840.208	13666.29
840.533	13739.74
840.858	13756.91
841.182	13759.4
841.507	13777.25
841.832	13608.89
842.156	13584.49
842.481	13702.22
842.805	13602.79
843.13	13527.77
843.454	13610.93
843.778	13431.05
844.103	13399.63
844.427	13396.47
844.751	13407.09
845.075	13334.55
845.399	13268.11
845.723	13332.74
846.047	13296.81
846.371	13134.56
846.695	13249.36
847.019	13107.89
847.343	13089.13
847.666	12950.15
847.99	12955.58
848.313	12912.19
848.637	12756.26
848.96	12808.91
849.284	12723.72
849.607	12707.45
849.931	12622.7
850.254	12645.76
850.577	12573.67
850.9	12432.65
851.223	12422.48
851.546	12352.88
851.869	12316.5
852.192	12317.85
852.515	12182.26
852.838	12154.47
853.161	12222.72
853.483	12107.01
853.806	12006.68
854.129	12033.12
854.451	11949.28
854.774	11988.37
855.096	11967.13
855.419	11992.66
855.741	11875.38
856.063	11757.19
856.385	11812.1
856.708	11767.81
857.03	11669.74
857.352	11642.84
857.674	11586.57
857.996	11637.42
858.318	11502.96
858.64	11537.54
858.961	11509.29
859.283	11372.12
859.605	11378.44
859.926	11448.05
860.248	11399.69
860.57	11303.87
860.891	11331.21
861.212	11293.93
861.534	11271.1
861.855	11208.05
862.176	11176.64
862.498	11212.8
862.819	11208.28
863.14	11150.2
863.461	11139.35
863.782	11058.23
864.103	11040.37
864.424	11021.39
864.745	11080.82
865.065	11056.19
865.386	11032.24
865.707	11009.19
866.027	10929.64
866.348	10906.59
866.668	10907.27
866.989	10850.55
867.309	10791.11
867.63	10829.53
867.95	10856.88
868.27	10731.46
868.59	10762.41
868.91	10772.36
869.23	10719.03
869.55	10612.14
869.87	10755.18
870.19	10681.06
870.51	10680.16
870.83	10726.94
871.15	10613.04
871.469	10624.34
871.789	10618.92
872.109	10690.78
872.428	10476.09
872.748	10508.41
873.067	10511.35
873.386	10495.98
873.706	10507.96
874.025	10527.62
874.344	10458.24
874.663	10504.57
874.982	10369.43
875.301	10407.85
875.62	10380.05
875.939	10349.09
876.258	10397.23
876.577	10269.32
876.896	10287.62
877.214	10366.72
877.533	10286.04
877.852	10282.88
878.17	10280.62
878.489	10248.98
878.807	10254.18
879.125	10251.47
879.444	10212.6
879.762	10216.89
880.08	10261.86
880.398	10149.78
880.716	10130.34
881.034	10080.17
881.352	10156.33
881.67	10090.79
881.988	10077.46
882.306	10026.16
882.624	10016.67
882.941	9987.07
883.259	9962.89
883.577	9976.22
883.894	9837.47
884.212	9947.07
884.529	9947.29
884.846	9848.09
885.164	9801.99
885.481	9832.95
885.798	9815.55
886.115	9787.98
886.432	9772.61
886.75	9691.71
887.067	9745.72
887.383	9630.47
887.7	9671.37
888.017	9572.16
888.334	9591.37
888.651	9554.76
888.967	9550.92
889.284	9498.49
889.6	9470.02
889.917	9402.68
890.233	9459.62
890.55	9484.26
890.866	9421.21
891.182	9371.04
891.498	9308.22
891.815	9275.9
892.131	9274.32
892.447	9289.69
892.763	9196.13
893.079	9158.16
893.395	9127.2
893.71	9183.02
894.026	9143.47
894.342	9080.2
894.657	9061.89
894.973	9044.27
895.289	8985.74
895.604	8978.73
895.92	8898.28
896.235	8869.13
896.55	8872.75
896.865	8849.02
897.181	8794.78
897.496	8809.92
897.811	8772.64
898.126	8676.37
898.441	8669.36
898.756	8648.12
899.071	8604.05
899.386	8586.88
899.7	8507.56
900.015	8561.57
900.33	8481.8
900.644	8473.89
900.959	8481.8
901.273	8389.82
901.588	8413.78
901.902	8310.5
902.216	8318.41
902.531	8320.22
902.845	8183.73
903.159	8145.31
903.473	8234.12
903.787	8136.72
904.101	8129.72
904.415	8121.35
904.729	8023.73
905.042	8022.37
905.356	8034.58
905.67	7955.26
905.984	7958.65
906.297	7896.05
906.611	7923.85
906.924	7833.9
907.237	7846.33
907.551	7796.17
907.864	7750.97
908.177	7699.44
908.491	7738.99
908.804	7650.86
909.117	7632.33
909.43	7597.53
909.743	7537.19
910.056	7548.26
910.368	7524.99
910.681	7437.08
910.994	7440.47
911.307	7473.46
911.619	7353.46
911.932	7317.99
912.244	7297.87
912.557	7243.41
912.869	7261.26
913.181	7207.25
913.494	7204.54
913.806	7142.85
914.118	7174.03
914.43	7102.4
914.742	7112.34
915.054	7014.49
915.366	7035.96
915.678	6966.36
915.99	6983.08
916.302	6940.82
916.613	6908.96
916.925	6855.85
917.236	6882.29
917.548	6796.87
917.859	6840.26
918.171	6758.68
918.482	6732.92
918.794	6718
919.105	6691.11
919.416	6631
919.727	6644.56
920.038	6673.03
920.349	6561.62
920.66	6599.59
920.971	6608.4
921.282	6483.43
921.593	6447.5
921.903	6391.68
922.214	6447.27
922.525	6406.6
922.835	6367.95
923.146	6340.84
923.456	6334.28
923.767	6261.29
924.077	6248.64
924.387	6261.52
924.697	6200.73
925.008	6208.86
925.318	6148.3
925.628	6136.1
925.938	6157.79
926.248	6105.81
926.558	6057
926.867	6074.85
927.177	6034.86
927.487	6004.12
927.796	5946.04
928.106	5959.15
928.416	5949.43
928.725	5916.44
929.034	5872.37
929.344	5871.7
929.653	5879.83
929.962	5819.27
930.271	5772.04
930.581	5765.26
930.89	5694.3
931.199	5706.05
931.508	5715.99
931.817	5706.95
932.125	5651.59
932.434	5602.55
932.743	5554.19
933.051	5568.2
933.36	5535.66
933.669	5466.73
933.977	5489.11
934.286	5490.01
934.594	5429
934.902	5383.57
935.21	5343.12
935.519	5366.85
935.827	5384.7
936.135	5343.57
936.443	5269.45
936.751	5243.46
937.059	5279.17
937.367	5266.97
937.674	5211.37
937.982	5216.57
938.29	5196.23
938.597	5170.92
938.905	5136.35
939.213	5123.02
939.52	5091.83
939.827	5101.55
940.135	5086.41
940.442	4999.4
940.749	5023.58
941.056	5017.71
941.363	4975
941.67	4918.5
941.977	4945.39
942.284	4899.07
942.591	4878.73
942.898	4840.08
943.205	4865.62
943.511	4832.63
943.818	4788.79
944.125	4760.76
944.431	4794.89
944.738	4774.78
945.044	4698.85
945.35	4695.68
945.657	4706.98
945.963	4669.69
946.269	4610.03
946.575	4652.97
946.881	4614.55
947.187	4597.15
947.493	4556.93
947.799	4523.26
948.105	4547.66
948.41	4488.23
948.716	4454.56
949.022	4470.38
949.327	4483.48
949.633	4458.63
949.938	4422.47
950.244	4389.02
950.549	4316.48
950.854	4320.78
951.16	4336.37
951.465	4355.13
951.77	4290.49
952.075	4315.58
952.38	4290.49
952.685	4263.6
952.99	4258.63
953.294	4202.14
953.599	4224.51
953.904	4148.8
954.209	4176.37
954.513	4074.46
954.818	4117.62
955.122	4069.48
955.426	4074
955.731	4048.24
956.035	4042.59
956.339	4000.78
956.643	3999.88
956.948	3975.02
957.252	3956.72
957.556	3973.67
957.86	3963.95
958.163	3928.7
958.467	3900
958.771	3882.82
959.075	3862.48
959.378	3837.4
959.682	3849.38
959.985	3820.68
960.289	3833.78
960.592	3786.1
960.896	3785.2
961.199	3768.47
961.502	3771.64
961.805	3682.83
962.108	3668.59
962.411	3658.87
962.714	3725.31
963.017	3660.45
963.32	3658.19
963.623	3657.97
963.926	3563.06
964.228	3583.62
964.531	3564.41
964.833	3612.55
965.136	3542.49
965.438	3527.35
965.741	3488.93
966.043	3547.24
966.345	3496.39
966.648	3438.31
966.95	3469.73
967.252	3449.39
967.554	3463.62
967.856	3422.95
968.158	3421.36
968.46	3369.61
968.761	3371.2
969.063	3384.53
969.365	3368.03
969.666	3344.08
969.968	3321.25
970.269	3271.31
970.571	3313.12
970.872	3250.97
971.174	3223.4
971.475	3234.93
971.776	3232.44
972.077	3211.65
972.378	3229.96
972.679	3206.46
972.98	3157.64
973.281	3180.47
973.582	3151.77
973.883	3170.98
974.183	3130.3
974.484	3070.87
974.785	3121.71
975.085	3096.85
975.386	3088.49
975.686	3042.84
975.986	3017.53
976.287	3017.31
976.587	2989.29
976.887	2965.33
977.187	3016.63
977.487	2950.19
977.787	2973.92
978.087	2972.11
978.387	2918.33
978.687	2883.07
978.987	2909.74
979.286	2930.76
979.586	2925.33
979.885	2860.25
980.185	2866.8
980.484	2815.96
980.784	2829.29
981.083	2820.25
981.382	2813.02
981.682	2800.36
981.981	2811.21
982.28	2759.46
982.579	2746.81
982.878	2782.96
983.177	2729.18
983.475	2723.76
983.774	2720.14
984.073	2688.95
984.372	2692.34
984.67	2655.96
984.969	2690.76
985.267	2657.54
985.566	2611.89
985.864	2632.91
986.162	2597.21
986.461	2628.84
986.759	2622.97
987.057	2582.97
987.355	2545.23
987.653	2568.51
987.951	2572.8
988.249	2504.33
988.547	2512.01
988.844	2498.23
989.142	2508.62
989.44	2445.35
989.737	2458.23
990.035	2458.68
990.332	2425.68
990.63	2445.57
990.927	2437.66
991.224	2412.13
991.521	2418
991.819	2422.97
992.116	2412.8
992.413	2382.75
992.71	2378.45
993.006	2334.61
993.303	2322.18
993.6	2363.09
993.897	2333.03
994.193	2301.62
994.49	2318.34
994.787	2269.98
995.083	2249.87
995.379	2239.02
995.676	2260.49
995.972	2239.25
996.268	2213.49
996.565	2198.12
996.861	2210.32
997.157	2193.37
997.453	2178.69
997.749	2175.3
998.044	2129.65
998.34	2114.51
998.636	2146.14
998.932	2145.92
999.227	2103.66
999.523	2088.52
999.818	2083.09
1000.114	2078.12
1000.409	2073.38
1000.704	2047.16
1001	2076.77
1001.295	2048.52
1001.59	2003.32
1001.885	2040.38
1002.18	2018.46
1002.475	2006.49
1002.77	2010.55
1003.065	1965.13
1003.359	1956.09
1003.654	1988.41
1003.949	1947.05
1004.243	1929.2
1004.538	1927.17
1004.832	1925.81
1005.127	1894.4
1005.421	1873.38
1005.715	1899.6
1006.009	1884
1006.304	1862.99
1006.598	1870.45
1006.892	1840.62
1007.186	1839.26
1007.48	1820.05
1007.773	1799.26
1008.067	1797.45
1008.361	1766.49
1008.655	1781.41
1008.948	1764.46
1009.242	1762.65
1009.535	1747.74
1009.829	1735.31
1010.122	1735.08
1010.415	1739.6
1010.708	1718.13
1011.001	1694.63
1011.295	1685.82
1011.588	1671.81
1011.881	1654.63
1012.173	1674.97
1012.466	1666.83
1012.759	1651.47
1013.052	1659.38
1013.344	1635.2
1013.637	1620.51
1013.93	1627.29
1014.222	1617.34
1014.514	1609.21
1014.807	1573.05
1015.099	1580.74
1015.391	1566.05
1015.683	1566.72
1015.976	1572.6
1016.268	1515.2
1016.56	1524.92
1016.851	1499.61
1017.143	1518.14
1017.435	1504.81
1017.727	1495.09
1018.018	1469.1
1018.31	1466.39
1018.602	1471.13
1018.893	1475.65
1019.185	1461.64
1019.476	1456.9
1019.767	1438.59
1020.058	1416.67
1020.35	1397.92
1020.641	1388.65
1020.932	1385.26
1021.223	1382.55
1021.514	1364.02
1021.804	1364.24
1022.095	1319.27
1022.386	1328.76
1022.677	1308.2
1022.967	1337.13
1023.258	1330.35
1023.548	1317.69
1023.839	1286.51
1024.129	1264.13
1024.419	1290.12
1024.709	1254.64
1025	1271.82
1025.29	1257.13
1025.58	1264.36
1025.87	1240.86
1026.16	1230.69
1026.449	1225.49
1026.739	1227.75
1027.029	1226.39
1027.319	1188.43
1027.608	1213.97
1027.898	1195.21
1028.187	1167.64
1028.477	1196.79
1028.766	1156.57
1029.055	1185.04
1029.344	1128.77
1029.634	1126.51
1029.923	1158.37
1030.212	1103.23
1030.501	1097.13
1030.79	1112.27
1031.078	1107.53
1031.367	1104.14
1031.656	1083.8
1031.945	1069.56
1032.233	1066.85
1032.522	1052.39
1032.81	1055.78
1033.099	1087.41
1033.387	1063.69
1033.675	1058.04
1033.963	1049.68
1034.251	1043.57
1034.54	1053.07
1034.828	1011.94
1035.116	1007.19
1035.403	1005.38
1035.691	1000.41
1035.979	998.15
1036.267	987.53
1036.554	988.66
1036.842	965.84
1037.129	961.32
1037.417	957.93
1037.704	939.85
1037.992	945.95
1038.279	929.23
1038.566	943.92
1038.853	943.92
1039.14	943.92
