Data from hue_10_FLMS001491_45.txt Node
Date: Mon Feb 06 15:31:58 GMT 2017
User: dcchb
Spectrometer: FLMS00149
Trigger mode: 0
Integration Time (sec): 2.000000E-2
Scans to average: 10
Electric dark correction enabled: true
Nonlinearity correction enabled: false
Boxcar width: 0
XAxis mode: Wavelengths
Number of Pixels in Spectrum: 2048
>>>>>Begin Spectral Data<<<<<
341.393	-27.78
341.776	-27.78
342.16	-27.78
342.543	-61.68
342.927	-77.27
343.31	-62.81
343.693	-83.37
344.077	-62.13
344.46	-65.29
344.843	-54.22
345.226	-45.41
345.61	-54.9
345.993	-5.41
346.376	-2.47
346.759	11.77
347.142	17.41
347.525	54.7
347.908	61.71
348.291	80.24
348.674	102.16
349.057	108.03
349.44	126.79
349.823	140.35
350.206	160.01
350.588	190.97
350.971	229.61
351.354	253.34
351.737	214.7
352.119	237.75
352.502	262.38
352.884	267.8
353.267	281.36
353.65	288.82
354.032	292.44
354.414	309.61
354.797	313.23
355.179	303.51
355.562	313
355.944	341.02
356.326	326.56
356.709	308.25
357.091	333.11
357.473	341.93
357.855	347.58
358.238	329.27
358.62	309.61
359.002	343.51
359.384	331.53
359.766	338.76
360.148	319.33
360.53	323.17
360.912	352.55
361.294	330.17
361.676	321.14
362.057	327.01
362.439	330.63
362.821	328.37
363.203	336.73
363.584	317.97
363.966	321.14
364.348	297.63
364.729	326.79
365.111	322.49
365.493	319.33
365.874	311.87
366.256	316.39
366.637	303.96
367.019	283.62
367.4	322.27
367.781	304.64
368.163	298.99
368.544	290.4
368.925	310.74
369.306	326.11
369.688	325.43
370.069	311.19
370.45	284.07
370.831	298.31
371.212	320.01
371.593	324.75
371.974	327.24
372.355	314.58
372.736	304.41
373.117	303.06
373.498	305.54
373.879	314.58
374.26	302.83
374.641	291.31
375.021	319.1
375.402	320.23
375.783	336.28
376.163	316.16
376.544	334.92
376.925	308.93
377.305	313.9
377.686	316.84
378.066	324.75
378.447	303.28
378.827	334.02
379.208	325.88
379.588	327.92
379.968	314.58
380.349	336.28
380.729	313.23
381.109	337.18
381.489	322.49
381.87	327.69
382.25	323.85
382.63	320.68
383.01	324.3
383.39	310.51
383.77	340.57
384.15	333.34
384.53	356.84
384.91	327.92
385.29	327.46
385.67	338.08
386.049	337.63
386.429	334.92
386.809	332.43
387.189	331.76
387.568	346.9
387.948	360
388.328	365.2
388.707	357.52
389.087	344.64
389.466	371.98
389.846	362.26
390.225	354.36
390.605	343.28
390.984	351.19
391.363	365.43
391.743	370.85
392.122	356.61
392.501	365.65
392.881	352.77
393.26	357.52
393.639	354.36
394.018	368.59
394.397	364.52
394.776	363.62
395.155	371.76
395.534	367.01
395.913	364.07
396.292	366.11
396.671	363.39
397.05	391.19
397.429	374.24
397.808	356.16
398.186	364.07
398.565	376.28
398.944	361.36
399.323	377.18
399.701	365.43
400.08	360.23
400.458	368.37
400.837	401.13
401.215	390.51
401.594	359.33
401.972	386.9
402.351	391.42
402.729	395.71
403.107	398.42
403.486	395.94
403.864	383.51
404.242	406.33
404.62	400.23
404.999	375.6
405.377	403.62
405.755	400
406.133	407.69
406.511	413.11
406.889	408.36
407.267	414.24
407.645	404.98
408.023	421.25
408.401	413.34
408.779	407.46
409.156	417.63
409.534	430.74
409.912	409.04
410.29	430.06
410.667	402.72
411.045	436.84
411.422	421.47
411.8	436.16
412.178	427.57
412.555	444.97
412.933	440
413.31	445.43
413.687	456.95
414.065	442.26
414.442	444.3
414.819	464.63
415.197	461.7
415.574	466.22
415.951	459.66
416.328	463.96
416.705	456.5
417.082	464.86
417.46	476.39
417.837	474.8
418.214	463.5
418.591	477.06
418.967	475.03
419.344	480.23
419.721	466.44
420.098	468.25
420.475	479.32
420.852	492.66
421.228	494.24
421.605	481.58
421.982	500.57
422.358	510.74
422.735	498.76
423.111	510.28
423.488	498.08
423.864	508.7
424.241	506.67
424.617	522.03
424.994	501.92
425.37	513.22
425.746	520.45
426.123	529.49
426.499	548.25
426.875	521.36
427.251	530.85
427.627	521.58
428.003	536.72
428.379	532.88
428.756	530.62
429.132	532.88
429.507	574.69
429.883	558.19
430.259	574.69
430.635	571.07
431.011	568.13
431.387	567
431.763	588.02
432.138	597.06
432.514	588.47
432.89	574.91
433.265	589.38
433.641	587.8
434.016	586.44
434.392	620.11
434.767	619.88
435.143	613.78
435.518	629.6
435.894	625.53
436.269	633.67
436.644	632.99
437.02	629.6
437.395	642.94
437.77	656.04
438.145	650.39
438.52	644.29
438.895	670.73
439.271	666.66
439.646	658.08
440.021	678.19
440.395	676.61
440.77	682.71
441.145	714.12
441.52	704.63
441.895	657.4
442.27	689.49
442.645	686.55
443.019	701.92
443.394	718.87
443.769	720.45
444.143	704.4
444.518	727.23
444.892	711.18
445.267	715.93
445.641	739.2
446.016	738.07
446.39	737.62
446.764	720.9
447.139	736.04
447.513	743.5
447.887	728.81
448.262	756.83
448.636	755.25
449.01	745.53
449.384	766.32
449.758	743.5
450.132	776.94
450.506	761.35
450.88	768.36
451.254	768.58
451.628	810.84
452.002	757.51
452.376	757.28
452.75	783.95
453.123	804.74
453.497	827.79
453.871	816.94
454.244	812.42
454.618	818.07
454.992	827.79
455.365	850.39
455.739	833.89
456.112	856.71
456.486	867.79
456.859	870.5
457.232	873.21
457.606	868.69
457.979	880.89
458.352	891.52
458.725	899.88
459.099	915.7
459.472	929.93
459.845	907.79
460.218	947.33
460.591	939.2
460.964	965.19
461.337	952.98
461.71	964.51
462.083	1000.21
462.456	988.46
462.829	989.59
463.201	996.15
463.574	987.56
463.947	1011.96
464.32	1038.18
464.692	1024.85
465.065	1050.38
465.438	1053.77
465.81	1078.4
466.183	1081.12
466.555	1098.52
466.928	1113.21
467.3	1119.98
467.672	1143.03
468.045	1158.18
468.417	1166.99
468.789	1151.4
469.161	1163.83
469.534	1211.06
469.906	1225.29
470.278	1197.04
470.65	1250.38
471.022	1242.24
471.394	1276.82
471.766	1295.8
472.138	1274.33
472.51	1342.8
472.882	1362.46
473.253	1387.55
473.625	1412.18
473.997	1399.07
474.369	1420.09
474.74	1439.52
475.112	1453.54
475.484	1478.39
475.855	1513.87
476.227	1509.8
476.598	1582.35
476.97	1579.41
477.341	1625.51
477.713	1663.02
478.084	1673.87
478.455	1698.73
478.827	1712.06
479.198	1806.75
479.569	1766.97
479.94	1790.02
480.311	1843.58
480.682	1861.21
481.053	1925.61
481.424	1990.24
481.795	1991.15
482.166	2046.97
482.537	2065.04
482.908	2078.38
483.279	2147.08
483.65	2162.67
484.021	2208.09
484.391	2224.81
484.762	2316.79
485.133	2297.81
485.503	2343
485.874	2364.02
486.244	2421.65
486.615	2494.86
486.985	2527.18
487.356	2551.36
487.726	2589.78
488.097	2655.99
488.467	2665.93
488.837	2725.14
489.207	2770.56
489.578	2790.68
489.948	2819.15
490.318	2863.89
490.688	2897.79
491.058	2904.8
491.428	2984.57
491.798	3021.86
492.168	3059.82
492.538	3080.61
492.908	3151.57
493.278	3178.46
493.648	3217.78
494.017	3254.39
494.387	3257.33
494.757	3340.49
495.126	3331.45
495.496	3382.98
495.866	3399.7
496.235	3423.2
496.605	3466.82
496.974	3466.36
497.344	3532.8
497.713	3539.36
498.082	3585
498.452	3611.9
498.821	3627.49
499.19	3677.88
499.559	3688.96
499.928	3747.94
500.298	3741.38
500.667	3797.65
501.036	3789.74
501.405	3826.13
501.774	3827.03
502.143	3862.29
502.512	3872.68
502.88	3952.68
503.249	3964.43
503.618	3941.61
503.987	4017.99
504.356	3992.23
504.724	4003.3
505.093	4009.17
505.462	4053.92
505.83	4095.5
506.199	4119.45
506.567	4110.64
506.936	4135.5
507.304	4161.03
507.672	4194.03
508.041	4195.84
508.409	4248.26
508.777	4307.92
509.145	4288.04
509.514	4273.12
509.882	4343.85
510.25	4321.03
510.618	4384.98
510.986	4332.1
511.354	4372.78
511.722	4379.79
512.09	4473.34
512.458	4411.88
512.826	4452.1
513.193	4459.78
513.561	4475.6
513.929	4503.4
514.297	4532.78
514.664	4567.35
515.032	4556.96
515.4	4596.5
515.767	4590.4
516.135	4648.71
516.502	4575.71
516.869	4648.93
517.237	4717.63
517.604	4623.17
517.972	4683.05
518.339	4682.83
518.706	4668.14
519.073	4747.01
519.44	4768.02
519.808	4808.25
520.175	4797.85
520.542	4843.5
520.909	4804.41
521.276	4796.72
521.643	4864.07
522.009	4924.86
522.376	4921.69
522.743	4935.03
523.11	4939.32
523.477	4998.75
523.843	5034.01
524.21	5008.24
524.577	5069.26
524.943	5060.45
525.31	5148.58
525.676	5174.12
526.043	5168.92
526.409	5199.88
526.776	5278.75
527.142	5262.47
527.508	5304.96
527.874	5337.27
528.241	5344.28
528.607	5343.6
528.973	5363.26
529.339	5359.65
529.705	5426.99
530.071	5460.44
530.437	5472.64
530.803	5514.45
531.169	5552.86
531.535	5545.86
531.901	5532.07
532.267	5573.88
532.632	5626.53
532.998	5648.45
533.364	5622.69
533.73	5692.07
534.095	5672.18
534.461	5730.26
534.826	5722.58
535.192	5750.37
535.557	5819.3
535.923	5828.34
536.288	5801.44
536.653	5832.4
537.019	5892.06
537.384	5893.19
537.749	5904.72
538.114	5955.11
538.479	5980.87
538.845	5977.94
539.21	5987.43
539.575	6032.4
539.94	6078.05
540.305	6098.61
540.67	6102.23
541.034	6120.76
541.399	6215.9
541.764	6188.33
542.129	6204.82
542.494	6217.25
542.858	6200.76
543.223	6271.49
543.587	6243.01
543.952	6285.95
544.316	6370.92
544.681	6307.64
545.045	6322.11
545.41	6379.06
545.774	6404.37
546.138	6454.31
546.503	6467.19
546.867	6526.85
547.231	6506.28
547.595	6581.08
547.959	6558.71
548.324	6609.11
548.688	6657.24
549.052	6697.01
549.416	6669.9
549.779	6700.18
550.143	6679.16
550.507	6738.82
550.871	6772.94
551.235	6746.28
551.599	6845.03
551.962	6829.89
552.326	6859.04
552.689	6887.52
553.053	6885.71
553.417	6867.18
553.78	7035.76
554.143	6974.52
554.507	7024.01
554.87	6944.92
555.234	7036.21
555.597	7027.63
555.96	7125.02
556.323	7087.06
556.686	7056.78
557.05	7140.17
557.413	7137.23
557.776	7160.96
558.139	7198.69
558.502	7246.6
558.865	7229.65
559.228	7270.56
559.59	7282.08
559.953	7310.1
560.316	7394.85
560.679	7384.68
561.041	7397.11
561.404	7417.22
561.767	7465.13
562.129	7409.76
562.492	7527.05
562.854	7512.13
563.217	7466.71
563.579	7553.26
563.941	7562.08
564.304	7565.24
564.666	7611.79
565.028	7778.57
565.39	7715.97
565.753	7772.24
566.115	7761.84
566.477	7770.21
566.839	7792.8
567.201	7824.44
567.563	7871.22
567.925	7932.46
568.287	7885.46
568.648	7918.45
569.01	7977.88
569.372	8073.7
569.734	8056.3
570.095	8142.17
570.457	8203.64
570.819	8199.57
571.18	8179.23
571.542	8255.16
571.903	8254.94
572.265	8302.62
572.626	8354.82
572.987	8341.94
573.349	8453.8
573.71	8487.47
574.071	8534.48
574.432	8591.43
574.794	8693.8
575.155	8717.75
575.516	8755.72
575.877	8769.95
576.238	8821.93
576.599	8954.13
576.96	9016.05
577.32	9073
577.681	9183.5
578.042	9291.75
578.403	9331.07
578.763	9384.17
579.124	9496.71
579.485	9568.12
579.845	9777.61
580.206	9762.92
580.566	9858.51
580.927	10047.89
581.287	10255.79
581.648	10252.17
582.008	10477.93
582.368	10603.35
582.728	10755.21
583.089	10893.96
583.449	11018.26
583.809	11227.52
584.169	11390.22
584.529	11581.18
584.889	11806.94
585.249	11965.12
585.609	12146.81
585.969	12484.66
586.329	12592.23
586.688	12796.51
587.048	13029.05
587.408	13296.16
587.768	13505.87
588.127	13773.21
588.487	14059.08
588.846	14337.26
589.206	14464.04
589.565	14681.66
589.925	15072.84
590.284	15346.5
590.643	15696.32
591.003	15988.07
591.362	16276.2
591.721	16534.27
592.08	16859.23
592.44	17192.56
592.799	17570.17
593.158	17880.67
593.517	18148.01
593.876	18425.52
594.235	18749.13
594.593	19025.28
594.952	19511.14
595.311	19753.39
595.67	20121.74
596.029	20487.39
596.387	20894.38
596.746	21213.24
597.104	21441.48
597.463	21857.74
597.822	22313.78
598.18	22378.86
598.538	22837.83
598.897	23224.71
599.255	23417.25
599.613	24092.49
599.972	24217
600.33	24531.57
600.688	24802.98
601.046	25232.8
601.404	25623.3
601.762	25882.5
602.12	26264.86
602.478	26683.61
602.836	26907.78
603.194	27061.9
603.552	27421.21
603.91	27731.26
604.268	28220.06
604.625	28409.21
604.983	28838.13
605.341	28871.8
605.698	29263.88
606.056	29622.29
606.413	29854.82
606.771	30083.97
607.128	30497.07
607.485	30636.95
607.843	30933.66
608.2	31316.93
608.557	31705.85
608.914	31825.84
609.272	32169.79
609.629	32512.83
609.986	32945.81
610.343	32933.84
610.7	33297.9
611.057	33523.43
611.414	33740.6
611.771	34019.91
612.127	34312.11
612.484	34495.83
612.841	34745.32
613.198	34803.62
613.554	34951.86
613.911	35342.36
614.267	35497.84
614.624	35804.95
614.98	36053.53
615.337	36333.75
615.693	36446.06
616.05	36526.51
616.406	36979.83
616.762	36874.52
617.118	37085.14
617.475	37255.31
617.831	37649.19
618.187	37660.72
618.543	37926.25
618.899	38210.99
619.255	38260.25
619.611	38454.82
619.967	38685.1
620.323	38737.53
620.678	38826.56
621.034	38941.14
621.39	39046.22
621.746	39030.85
622.101	39591.29
622.457	39255.71
622.812	39671.06
623.168	39789.02
623.523	39885.75
623.879	40022.24
624.234	39894.33
624.589	40243.48
624.945	40359.63
625.3	40470.59
625.655	40400.31
626.01	40498.16
626.365	40691.6
626.72	40655.67
627.075	40747.64
627.43	40871.93
627.785	40863.57
628.14	40903.8
628.495	41081.19
628.85	41061.76
629.205	41084.13
629.559	41299.72
629.914	41169.78
630.269	41273.28
630.623	41315.31
630.978	41246.61
631.332	41496.32
631.687	41521.63
632.041	41359.38
632.396	41585.59
632.75	41485.7
633.104	41465.59
633.459	41301.53
633.813	41574.74
634.167	41560.5
634.521	41555.53
634.875	41748.97
635.229	41532.03
635.583	41546.49
635.937	41561.18
636.291	41692.03
636.645	41547.62
636.999	41580.84
637.352	41663.33
637.706	41320.96
638.06	41585.59
638.413	41510.11
638.767	41480.05
639.121	41660.61
639.474	41387.63
639.828	41506.95
640.181	41547.62
640.534	41661.52
640.888	41524.8
641.241	41279.61
641.594	41444.8
641.947	41576.32
642.301	41523.44
642.654	41402.54
643.007	41481.86
643.36	41466.04
643.713	41500.17
644.066	41655.87
644.419	41357.34
644.771	41099.72
645.124	40726.85
645.477	40738.15
645.83	40556.91
646.182	40399.4
646.535	40294.1
646.888	40457.71
647.24	40108.34
647.593	40371.16
647.945	40271.95
648.298	40065.85
648.65	40023.14
649.002	39916.7
649.355	40191.73
649.707	40145.85
650.059	40261.33
650.411	40817.25
650.763	40702.22
651.115	41177.69
651.467	41071.93
651.819	41151.93
652.171	40959.16
652.523	40800.75
652.875	40837.13
653.227	40792.16
653.578	41066.96
653.93	40931.59
654.282	40894.53
654.633	40814.53
654.985	40779.51
655.337	40801.43
655.688	40760.98
656.039	41085.04
656.391	40697.7
656.742	40604.14
657.094	40815.89
657.445	40817.25
657.796	40761.2
658.147	40653.86
658.498	40770.02
658.849	40766.17
659.2	40662.67
659.551	40732.95
659.902	40800.07
660.253	40719.85
660.604	40885.04
660.955	40589
661.306	40922.33
661.656	40737.02
662.007	40601.21
662.358	40614.31
662.708	40626.97
663.059	40605.5
663.409	40336.81
663.76	40674.2
664.11	40699.73
664.461	40656.57
664.811	40650.47
665.161	40696.57
665.511	40491.83
665.862	40551.49
666.212	40693.86
666.562	40716.23
666.912	40650.02
667.262	40552.17
667.612	40514.2
667.962	40669
668.312	40587.65
668.662	40802.56
669.011	40656.57
669.361	40415.9
669.711	40437.82
670.06	40396.47
670.41	40330.48
670.76	40203.02
671.109	40549.91
671.459	40432.62
671.808	40280.76
672.157	40463.36
672.507	40203.02
672.856	40213.19
673.205	40276.7
673.554	40450.93
673.904	40135
674.253	40487.76
674.602	40208.67
674.951	39740.66
675.3	39598.07
675.649	40040.54
675.998	40029.47
676.346	40006.19
676.695	40212.52
677.044	39937.95
677.393	39999.87
677.741	40135.23
678.09	39975.91
678.438	39997.83
678.787	39935.46
679.135	40030.15
679.484	39819.98
679.832	39869.47
680.181	39677.16
680.529	39775.01
680.877	39771.17
681.225	39693.21
681.573	39938.85
681.922	39638.29
682.27	39434.01
682.618	39580.67
682.966	39485.3
683.314	39540.67
683.661	39363.5
684.009	39299.77
684.357	39132.32
684.705	38984.07
685.053	39071.08
685.4	38901.59
685.748	38884.42
686.095	38922.15
686.443	38756.51
686.79	38712.22
687.138	38851.2
687.485	38766.9
687.832	38642.16
688.18	38668.6
688.527	38381.6
688.874	38366.24
689.221	38401.94
689.568	38362.4
689.915	38311.55
690.262	38218.44
690.609	37970.32
690.956	38035.62
691.303	37874.5
691.65	37832.01
691.997	37700.94
692.344	37533.26
692.69	37497.79
693.037	37703.66
693.383	37227.74
693.73	37256.21
694.077	37049.89
694.423	37148.87
694.769	36923.79
695.116	36858.71
695.462	36662.1
695.808	36842.89
696.155	36805.15
696.501	36607.64
696.847	36518.38
697.193	36373.97
697.539	36404.03
697.885	36151.83
698.231	36043.59
698.577	36051.27
698.923	36114.77
699.269	35856.25
699.614	35606.99
699.96	35636.59
700.306	35666.65
700.651	35548.01
700.997	35440.89
701.342	35336.26
701.688	35285.64
702.033	35265.3
702.379	35092.2
702.724	35093.78
703.069	35112.76
703.415	34659.44
703.76	34713.45
704.105	34704.86
704.45	34752.09
704.795	34447.47
705.14	34359.56
705.485	34338.55
705.83	34206.12
706.175	34185.56
706.52	34034.83
706.865	33972.68
707.209	33931.33
707.554	33775.85
707.899	33933.81
708.243	33771.56
708.588	33637.55
708.932	33449.53
709.277	33479.59
709.621	33488.63
709.966	33345.58
710.31	33394.16
710.654	33081.86
710.998	33048.86
711.342	33049.31
711.687	32920.96
712.031	32883.67
712.375	32836.44
712.719	32874.18
713.063	32884.12
713.407	32794.63
713.75	32723.67
714.094	32607.07
714.438	32514.19
714.782	32561.19
715.125	32410.91
715.469	32506.73
715.812	32179.28
716.156	32075.1
716.499	31993.07
716.843	32071.04
717.186	31958.72
717.53	32057.48
717.873	32048.89
718.216	31969.34
718.559	31777.94
718.902	31626.3
719.246	31686.86
719.589	31675.79
719.932	31506.98
720.275	31576.81
720.617	31315.35
720.96	31324.16
721.303	31410.71
721.646	31421.11
721.989	31170.04
722.331	31223.83
722.674	31196.48
723.016	31194.9
723.359	31186.09
723.701	31207.33
724.044	30845.53
724.386	30687.79
724.729	30892.99
725.071	30743.84
725.413	30780.22
725.755	30688.7
726.097	30563.5
726.439	30380.23
726.782	30523.51
727.124	30656.38
727.465	30407.35
727.807	30353.79
728.149	30251.65
728.491	30264.76
728.833	30222.72
729.175	30061.14
729.516	30100.92
729.858	30140.46
730.199	30104.53
730.541	29982.5
730.882	30025.67
731.224	30062.5
731.565	29818.89
731.906	29892.34
732.248	29890.53
732.589	29704.09
732.93	29536.64
733.271	29619.57
733.612	29614.15
733.953	29733.92
734.294	29550.2
734.635	29485.11
734.976	29526.02
735.317	29269.53
735.658	29410.54
735.999	29324.21
736.339	29336.19
736.68	29413.25
737.021	29235.18
737.361	29134.16
737.702	29278.34
738.042	29148.17
738.383	29058.23
738.723	29081.74
739.063	29006.71
739.404	29079.93
739.744	28938.24
740.084	28856.2
740.424	28862.08
740.764	28774.62
741.104	28803.78
741.444	28642.2
741.784	28604.69
742.124	28638.58
742.464	28600.84
742.804	28577.34
743.143	28458.93
743.483	28528.76
743.823	28346.61
744.162	28298.03
744.502	28449.44
744.841	28282.66
745.181	28394.97
745.52	28231.36
745.86	28203.11
746.199	28148.43
746.538	28259.16
746.877	28257.35
747.216	28160.4
747.556	28012.84
747.895	28133.96
748.234	27954.99
748.573	27941.43
748.911	27896.91
749.25	27892.61
749.589	27788.44
749.928	27761.32
750.267	27864.37
750.605	27627.08
750.944	27691.72
751.283	27477.48
751.621	27654.43
751.96	27363.59
752.298	27542.57
752.636	27345.51
752.975	27330.14
753.313	27241.78
753.651	27345.06
753.989	27298.05
754.327	27123.82
754.666	26932.87
755.004	27025.29
755.342	27095.35
755.679	26844.73
756.017	26840.44
756.355	26902.58
756.693	26717.5
757.031	26757.95
757.368	26711.63
757.706	26641.35
758.044	26535.81
758.381	26712.53
758.719	26472.99
759.056	26467.34
759.394	26405.2
759.731	26274.13
760.068	26183.51
760.405	26069.39
760.743	26090.85
761.08	26048.59
761.417	25913.46
761.754	25864.19
762.091	25895.83
762.428	25685.44
762.765	25592.56
763.102	25669.85
763.438	25515.28
763.775	25264.66
764.112	25472.11
764.449	25376.3
764.785	25248.39
765.122	25110.99
765.458	25092.01
765.795	25049.3
766.131	24999.36
766.467	24916.2
766.804	24765.92
767.14	24676.43
767.476	24739.25
767.812	24523.66
768.148	24581.74
768.485	24469.65
768.821	24290
769.157	24360.28
769.492	24193.73
769.828	24231.92
770.164	23908.99
770.5	23914.41
770.836	23962.55
771.171	23770.91
771.507	23690.01
771.842	23571.6
772.178	23505.38
772.513	23562.78
772.849	23510.81
773.184	23257.48
773.519	23204.38
773.855	23237.82
774.19	23043.93
774.525	23062.23
774.86	23074.89
775.195	22977.94
775.53	22940.2
775.865	22774.78
776.2	22585.63
776.535	22464.06
776.87	22387
777.205	22319.65
777.539	22385.19
777.874	22231.75
778.209	22127.34
778.543	22074.24
778.878	21898.42
779.212	21828.14
779.547	21785.88
779.881	21766.45
780.215	21783.62
780.55	21691.87
780.884	21518.09
781.218	21479.22
781.552	21463.63
781.886	21332.56
782.22	21187.93
782.554	21219.34
782.888	21026.81
783.222	20941.84
783.556	20808.05
783.889	20829.97
784.223	20723.54
784.557	20666.82
784.89	20624.78
785.224	20603.99
785.557	20436.31
785.891	20435.18
786.224	20312.47
786.558	20293.72
786.891	20122.42
787.224	20026.61
787.557	20006.49
787.891	19948.42
788.224	19875.88
788.557	19857.35
788.89	19706.16
789.223	19724.92
789.556	19579.84
789.888	19573.51
790.221	19413.97
790.554	19333.07
790.887	19331.03
791.219	19174.43
791.552	19199.06
791.884	19082.22
792.217	19165.61
792.549	19105.73
792.882	18880.42
793.214	18860.31
793.546	18777.83
793.879	18792.06
794.211	18627.77
794.543	18646.08
794.875	18548.9
795.207	18653.99
795.539	18490.6
795.871	18425.29
796.203	18316.37
796.535	18272.98
796.867	18195.24
797.198	18134.9
797.53	18092.65
797.862	17995.02
798.193	18043.16
798.525	17910.5
798.856	17957.28
799.188	17706.89
799.519	17687.46
799.85	17675.26
800.182	17673.45
800.513	17598.87
800.844	17449.72
801.175	17595.71
801.506	17454.7
801.837	17384.19
802.168	17291.76
802.499	17259.67
802.83	17134.93
803.161	17112.11
803.491	17091.99
803.822	17124.76
804.153	16983.97
804.483	16767.26
804.814	16759.35
805.145	16814.94
805.475	16744.88
805.805	16703.76
806.136	16603.65
806.466	16629.18
806.796	16635.28
807.126	16528.85
807.457	16460.6
807.787	16389.64
808.117	16276.2
808.447	16315.97
808.777	16356.65
809.107	16378.34
809.436	16256.08
809.766	16215.86
810.096	16156.2
810.426	16096.54
810.755	16028.52
811.085	16122.3
811.414	15902.19
811.744	15885.92
812.073	15832.14
812.403	15781.75
812.732	15713.27
813.061	15703.56
813.39	15626.5
813.719	15601.41
814.049	15730.9
814.378	15541.07
814.707	15478.93
815.036	15546.05
815.365	15436.44
815.693	15338.82
816.022	15297.69
816.351	15320.74
816.68	15175.43
817.008	15227.86
817.337	15101.76
817.665	15048.66
817.994	15062.44
818.322	15069
818.651	14951.03
818.979	14985.16
819.307	15007.53
819.636	14946.29
819.964	14885.95
820.292	14889.79
820.62	14846.86
820.948	14873.52
821.276	14901.09
821.604	14852.05
821.932	14817.7
822.259	14766.18
822.587	14812.51
822.915	14720.98
823.243	14850.02
823.57	14754.43
823.898	14796.69
824.225	14756.01
824.553	14752.85
824.88	14761.89
825.207	14766.63
825.535	14670.14
825.862	14705.16
826.189	14760.3
826.516	14816.8
826.843	14808.44
827.17	14764.6
827.497	14787.2
827.824	14672.17
828.151	14853.18
828.478	14833.52
828.805	14787.2
829.131	14646.18
829.458	14643.92
829.785	14617.71
830.111	14601.21
830.438	14700.87
830.764	14732.51
831.09	14687.31
831.417	14560.54
831.743	14692.28
832.069	14643.24
832.395	14583.81
832.722	14653.19
833.048	14562.12
833.374	14618.84
833.7	14501.1
834.026	14549.01
834.351	14615.45
834.677	14599.63
835.003	14561.21
835.329	14559.63
835.654	14533.19
835.98	14441.44
836.306	14478.28
836.631	14401.67
836.956	14406.41
837.282	14413.42
837.607	14358.51
837.932	14330.48
838.258	14265.63
838.583	14358.73
838.908	14245.06
839.233	14271.5
839.558	14163.48
839.883	14148.12
840.208	14130.04
840.533	14162.13
840.858	14128.68
841.182	14153.31
841.507	14073.54
841.832	13939.53
842.156	14078.29
842.481	13938.4
842.805	13974.79
843.13	13970.72
843.454	13807.11
843.778	13855.92
844.103	13831.74
844.427	13741.35
844.751	13757.17
845.075	13738.41
845.399	13732.08
845.723	13584.97
846.047	13676.49
846.371	13503.39
846.695	13550.84
847.019	13425.88
847.343	13270.63
847.666	13320.34
847.99	13201.47
848.313	13218.42
848.637	13171.65
848.96	13060.24
849.284	13083.06
849.607	13035.6
849.931	12961.93
850.254	12888.71
850.577	12819.34
850.9	12765.33
851.223	12666.12
851.546	12653.47
851.869	12508.84
852.192	12670.19
852.515	12537.76
852.838	12461.61
853.161	12383.87
853.483	12363.53
853.806	12322.18
854.129	12314.49
854.451	12288.05
854.774	12261.39
855.096	12175.29
855.419	12121.05
855.741	12117.66
856.063	12020.72
856.385	12027.49
856.708	11965.8
857.03	11973.71
857.352	11886.71
857.674	11929.87
857.996	11741.63
858.318	11811.45
858.64	11785.92
858.961	11727.39
859.283	11788.63
859.605	11625.92
859.926	11658.69
860.248	11585.47
860.57	11547.96
860.891	11507.73
861.212	11420.05
861.534	11503.89
861.855	11487.4
862.176	11455.08
862.498	11434.52
862.819	11432.93
863.14	11372.82
863.461	11339.83
863.782	11343.9
864.103	11331.24
864.424	11299.83
864.745	11317
865.065	11234.3
865.386	11175.09
865.707	11219.38
866.027	11147.52
866.348	11189.1
866.668	11183
866.989	11105.71
867.309	11083.79
867.63	11068.88
867.95	11088.54
868.27	11018.03
868.59	11048.54
868.91	10991.82
869.23	10953.17
869.55	10904.36
869.87	10971.7
870.19	10955.66
870.51	10923.79
870.83	10848.99
871.15	10855.32
871.469	10866.4
871.789	10813.97
872.109	10819.84
872.428	10749.56
872.748	10803.8
873.067	10755.89
873.386	10803.35
873.706	10775.1
874.025	10665.27
874.344	10639.28
874.663	10713.63
874.982	10638.83
875.301	10657.59
875.62	10544.82
875.939	10512.73
876.258	10560.87
876.577	10498.72
876.896	10496.69
877.214	10531.04
877.533	10538.95
877.852	10521.55
878.17	10511.83
878.489	10496.46
878.807	10429.34
879.125	10401.77
879.444	10443.81
879.762	10326.3
880.08	10420.76
880.398	10332.85
880.716	10368.78
881.034	10319.97
881.352	10260.54
881.67	10263.25
881.988	10244.04
882.306	10230.03
882.624	10191.61
882.941	10143.02
883.259	10167.88
883.577	10144.83
883.894	10109.8
884.212	10093.76
884.529	10066.64
884.846	9959.07
885.164	10060.99
885.481	9955.91
885.798	9991.16
886.115	9893.31
886.432	9865.74
886.75	9890.38
887.067	9903.48
887.383	9835.01
887.7	9915.69
888.017	9767.44
888.334	9837.04
888.651	9758.18
888.967	9768.8
889.284	9684.51
889.6	9663.26
889.917	9585.07
890.233	9655.58
890.55	9613.09
890.866	9572.87
891.182	9536.49
891.498	9486.77
891.815	9508.69
892.131	9417.85
892.447	9463.27
892.763	9404.51
893.079	9350.28
893.395	9317.51
893.71	9336.72
894.026	9278.64
894.342	9271.18
894.657	9155.48
894.973	9236.83
895.289	9178.76
895.604	9167
895.92	9066.89
896.235	9050.85
896.55	9021.25
896.865	9030.51
897.181	8995.94
897.496	9024.86
897.811	8978.31
898.126	8905.32
898.441	8841.59
898.756	8830.06
899.071	8786.9
899.386	8789.39
899.7	8741.71
900.015	8750.74
900.33	8668.94
900.644	8610.41
900.959	8650.86
901.273	8595.72
901.588	8578.32
901.902	8590.3
902.216	8484.54
902.531	8491.77
902.845	8453.58
903.159	8407.48
903.473	8376.07
903.787	8370.19
904.101	8255.84
904.415	8249.29
904.729	8272.56
905.042	8227.37
905.356	8202.06
905.67	8184.66
905.984	8151.21
906.297	8130.2
906.611	8016.75
906.924	8097.43
907.237	8074.15
907.551	8056.07
907.864	7921.16
908.177	7978.56
908.491	7881.84
908.804	7893.14
909.117	7845.68
909.43	7778.57
909.743	7765.91
910.056	7729.3
910.368	7700.15
910.681	7647.5
910.994	7600.94
911.307	7614.05
911.619	7579.48
911.932	7596.2
912.244	7438.69
912.557	7495.18
912.869	7455.41
913.181	7430.33
913.494	7370.44
913.806	7325.02
914.118	7325.92
914.43	7290.67
914.742	7304.23
915.054	7218.58
915.366	7226.72
915.678	7195.31
915.99	7127.96
916.302	7046.38
916.613	7079.38
916.925	7026.95
917.236	7039.15
917.548	7027.63
917.859	6957.57
918.171	6898.59
918.482	6899.49
918.794	6814.52
919.105	6834.64
919.416	6785.15
919.727	6845.71
920.038	6813.62
920.349	6767.75
920.66	6697.92
920.971	6748.76
921.282	6675.77
921.593	6589.22
921.903	6561.88
922.214	6592.16
922.525	6554.42
922.835	6518.03
923.146	6473.97
923.456	6443.46
923.767	6462.9
924.077	6404.37
924.387	6441.2
924.697	6301.54
925.008	6292.73
925.318	6335.44
925.628	6324.59
925.938	6216.57
926.248	6163.92
926.558	6198.72
926.867	6178.61
927.177	6079.63
927.487	6120.08
927.796	6074.2
928.106	6039.86
928.416	5982
928.725	6000.53
929.034	5976.81
929.344	5992.17
929.653	5957.82
929.962	5893.42
930.271	5883.48
930.581	5882.35
930.89	5819.52
931.199	5773.42
931.508	5769.81
931.817	5827.21
932.125	5730.94
932.434	5747.21
932.743	5663.82
933.051	5648.45
933.36	5623.6
933.669	5615.23
933.977	5614.1
934.286	5575.91
934.594	5557.38
934.902	5517.16
935.21	5466.31
935.519	5506.76
935.827	5481.68
936.135	5401.23
936.443	5400.32
936.751	5365.07
937.059	5367.78
937.367	5298.86
937.674	5317.61
937.982	5302.7
938.29	5301.57
938.597	5268.58
938.905	5194.91
939.213	5182.25
939.52	5168.01
939.827	5159.43
940.135	5144.51
940.442	5092.54
940.749	5111.29
941.056	5092.99
941.363	5029.49
941.67	5009.83
941.977	4978.64
942.284	4956.27
942.591	4998.98
942.898	4937.29
943.205	4887.34
943.511	4889.38
943.818	4884.86
944.125	4843.5
944.431	4823.39
944.738	4824.29
945.044	4822.94
945.35	4726.9
945.657	4714.24
945.963	4718.08
946.269	4707.46
946.575	4666.33
946.881	4688.03
947.187	4624.53
947.493	4632.43
947.799	4612.77
948.105	4590.4
948.41	4568.26
948.716	4526.9
949.022	4491.2
949.327	4529.61
949.633	4479.22
949.938	4495.94
950.244	4460.69
950.549	4412.55
950.854	4403.06
951.16	4408.03
951.465	4391.31
951.77	4335.49
952.075	4332.78
952.38	4333.69
952.685	4299.56
952.99	4242.61
953.294	4261.6
953.599	4239.22
953.904	4200.81
954.209	4212.78
954.513	4173.24
954.818	4156.06
955.122	4158.1
955.426	4094.82
955.731	4099.12
956.035	4111.32
956.339	4066.57
956.643	4071.09
956.948	4037.2
957.252	3993.81
957.556	4029.06
957.86	3964.43
958.163	3959.23
958.467	3973.47
958.771	3937.31
959.075	3920.59
959.378	3912.91
959.682	3895.73
959.985	3852.79
960.289	3885.34
960.592	3838.33
960.896	3830.87
961.199	3800.59
961.502	3797.88
961.805	3753.59
962.108	3729.86
962.411	3731.89
962.714	3694.61
963.017	3711.33
963.32	3669.97
963.623	3678.56
963.926	3658.22
964.228	3626.13
964.531	3631.11
964.833	3577.1
965.136	3590.88
965.438	3547.49
965.741	3571.67
966.043	3519.02
966.345	3527.6
966.648	3547.49
966.95	3528.96
967.252	3482.41
967.554	3460.04
967.856	3453.26
968.158	3445.57
968.46	3392.02
968.761	3415.29
969.063	3374.84
969.365	3390.89
969.666	3379.81
969.968	3325.12
970.269	3329.87
970.571	3325.8
970.872	3320.15
971.174	3257.78
971.475	3314.05
971.776	3264.11
972.077	3249.19
972.378	3239.25
972.679	3213.04
972.98	3228.4
973.281	3215.07
973.582	3182.3
973.883	3155.19
974.183	3168.07
974.484	3167.61
974.785	3107.96
975.085	3133.27
975.386	3094.62
975.686	3125.58
975.986	3057.79
976.287	3057.79
976.587	3032.7
976.887	3066.15
977.187	3020.27
977.487	2973.04
977.787	2955.19
978.087	2985.7
978.387	2974.85
978.687	2954.51
978.987	2947.06
979.286	2921.97
979.586	2874.06
979.885	2883.78
980.185	2894.4
980.484	2874.51
980.784	2850.56
981.083	2850.79
981.382	2847.17
981.682	2818.47
981.981	2812.82
982.28	2783.22
982.579	2793.16
982.878	2735.99
983.177	2758.13
983.475	2753.61
983.774	2738.47
984.073	2705.48
984.372	2695.76
984.67	2698.93
984.969	2710
985.267	2650.57
985.566	2672.71
985.864	2626.39
986.162	2637.23
986.461	2618.25
986.759	2628.19
987.057	2595.2
987.355	2605.82
987.653	2566.05
987.951	2555.65
988.249	2564.92
988.547	2521.08
988.844	2527.63
989.142	2559.49
989.44	2503.9
989.737	2490.12
990.035	2484.69
990.332	2459.84
990.63	2456.22
990.927	2411.25
991.224	2431.36
991.521	2469.1
991.819	2425.26
992.116	2375.54
992.413	2369.22
992.71	2367.18
993.006	2371.7
993.303	2377.8
993.6	2338.03
993.897	2346.39
994.193	2345.49
994.49	2307.98
994.787	2314.3
995.083	2300.29
995.379	2282.44
995.676	2299.61
995.972	2257.58
996.268	2228.66
996.565	2248.32
996.861	2207.64
997.157	2212.84
997.453	2194.53
997.749	2197.92
998.044	2200.86
998.34	2180.75
998.636	2158.83
998.932	2151.37
999.227	2162.9
999.523	2135.33
999.818	2102.56
1000.114	2133.07
1000.409	2101.65
1000.704	2088.32
1001	2063.46
1001.295	2051.94
1001.59	2026.63
1001.885	2053.52
1002.18	2009.68
1002.475	2023.69
1002.77	2013.97
1003.065	2007.42
1003.359	1962.67
1003.654	1971.94
1003.949	1959.28
1004.243	1942.34
1004.538	1933.3
1004.832	1917.93
1005.127	1921.55
1005.421	1919.74
1005.715	1919.74
1006.009	1923.58
1006.304	1889.68
1006.598	1858.95
1006.892	1879.51
1007.186	1852.85
1007.48	1846.75
1007.773	1844.49
1008.067	1842.45
1008.361	1835.9
1008.655	1802.68
1008.948	1788.22
1009.242	1755.67
1009.535	1771.27
1009.829	1731.49
1010.122	1749.12
1010.415	1754.32
1010.708	1732.85
1011.001	1760.19
1011.295	1686.07
1011.588	1723.81
1011.881	1690.37
1012.173	1692.17
1012.466	1701.44
1012.759	1658.5
1013.052	1660.76
1013.344	1634.1
1013.637	1639.97
1013.93	1600.88
1014.222	1607.88
1014.514	1609.01
1014.807	1606.3
1015.099	1610.59
1015.391	1566.07
1015.683	1585.28
1015.976	1559.97
1016.268	1569.92
1016.56	1570.37
1016.851	1551.84
1017.143	1545.74
1017.435	1528.79
1017.727	1515
1018.018	1514.55
1018.31	1496.7
1018.602	1475.91
1018.893	1467.32
1019.185	1459.18
1019.476	1454.21
1019.767	1442.69
1020.058	1472.97
1020.35	1437.04
1020.641	1415.12
1020.932	1410.82
1021.223	1407.43
1021.514	1393.88
1021.804	1375.35
1022.095	1356.14
1022.386	1350.94
1022.677	1340.77
1022.967	1331.96
1023.258	1314.78
1023.548	1310.04
1023.839	1351.39
1024.129	1294.67
1024.419	1308.45
1024.709	1286.31
1025	1284.27
1025.29	1275.69
1025.58	1283.14
1025.87	1242.47
1026.16	1276.14
1026.449	1228.23
1026.739	1219.87
1027.029	1230.72
1027.319	1223.71
1027.608	1218.29
1027.898	1208.57
1028.187	1193.43
1028.477	1189.81
1028.766	1185.52
1029.055	1197.5
1029.344	1164.96
1029.634	1157.95
1029.923	1140.78
1030.212	1123.15
1030.501	1155.46
1030.79	1148.23
1031.078	1096.03
1031.367	1132.64
1031.656	1117.95
1031.945	1107.33
1032.233	1069.14
1032.522	1092.87
1032.81	1072.75
1033.099	1072.98
1033.387	1075.01
1033.675	1034.56
1033.963	1046.09
1034.251	1039.08
1034.54	1059.42
1034.828	1030.95
1035.116	1016.94
1035.403	1028.24
1035.691	997.95
1035.979	1006.99
1036.267	1006.77
1036.554	971.51
1036.842	983.72
1037.129	963.83
1037.417	957.73
1037.704	962.47
1037.992	958.18
1038.279	947.33
1038.566	981.91
1038.853	981.91
1039.14	981.91
