Data from hue_26_FLMS001491_00014.txt Node
Date: Tue Feb 07 17:13:37 GMT 2017
User: dcchb
Spectrometer: FLMS00149
Trigger mode: 0
Integration Time (sec): 2.000000E-2
Scans to average: 10
Electric dark correction enabled: true
Nonlinearity correction enabled: false
Boxcar width: 0
XAxis mode: Wavelengths
Number of Pixels in Spectrum: 2048
>>>>>Begin Spectral Data<<<<<
341.393	-9.77
341.776	-9.77
342.16	-9.77
342.543	-75.53
342.927	-80.28
343.31	-70.11
343.693	-83.67
344.077	-61.3
344.46	-50.68
344.843	-64.46
345.226	-46.16
345.61	-28.08
345.993	-24.01
346.376	19.38
346.759	6.72
347.142	38.36
347.525	51.24
347.908	40.85
348.291	67.29
348.674	87.62
349.057	117
349.44	143.67
349.823	140.73
350.206	164.68
350.588	208.98
350.971	222.99
351.354	215.76
351.737	231.8
352.119	246.72
352.502	260.73
352.884	281.97
353.267	291.24
353.65	296.66
354.032	314.51
354.414	312.48
354.797	293.27
355.179	328.52
355.562	314.51
355.944	326.94
356.326	332.82
356.709	324
357.091	317.45
357.473	346.83
357.855	340.27
358.238	340.05
358.62	349.54
359.002	322.87
359.384	341.18
359.766	342.08
360.148	353.61
360.53	354.06
360.912	335.98
361.294	308.18
361.676	330.56
362.057	359.03
362.439	337.56
362.821	341.63
363.203	325.58
363.584	332.59
363.966	317.9
364.348	318.35
364.729	324.68
365.111	321.74
365.493	331.69
365.874	311.35
366.256	339.37
366.637	305.92
367.019	343.89
367.4	307.96
367.781	330.56
368.163	313.38
368.544	309.54
368.925	304.79
369.306	340.95
369.688	328.75
370.069	300.95
370.45	319.03
370.831	316.77
371.212	328.75
371.593	295.53
371.974	334.4
372.355	317.9
372.736	329.43
373.117	328.3
373.498	310.22
373.879	308.86
374.26	339.14
374.641	325.36
375.021	328.97
375.402	319.94
375.783	317.9
376.163	331.01
376.544	347.73
376.925	335.98
377.305	329.88
377.686	328.97
378.066	344.57
378.447	335.08
378.827	335.53
379.208	354.51
379.588	322.42
379.968	323.55
380.349	338.01
380.729	316.32
381.109	329.43
381.489	330.56
381.87	325.81
382.25	335.98
382.63	341.18
383.01	328.75
383.39	334.17
383.77	339.14
384.15	368.97
384.53	361.74
384.91	331.01
385.29	344.79
385.67	349.54
386.049	355.41
386.429	365.13
386.809	343.66
387.189	347.73
387.568	347.96
387.948	362.42
388.328	363.55
388.707	365.81
389.087	352.25
389.466	363.32
389.846	364.45
390.225	391.35
390.605	371.23
390.984	357.67
391.363	388.41
391.743	381.4
392.122	360.39
392.501	373.27
392.881	384.11
393.26	371.46
393.639	376.66
394.018	366.49
394.397	383.21
394.776	388.18
395.155	389.09
395.534	410.33
395.913	401.74
396.292	383.44
396.671	396.77
397.05	373.04
397.429	375.3
397.808	410.55
398.186	401.74
398.565	394.28
398.944	396.54
399.323	405.81
399.701	411.46
400.08	411.01
400.458	401.29
400.837	411.01
401.215	425.24
401.594	410.1
401.972	430.89
402.351	404.9
402.729	405.36
403.107	415.07
403.486	421.63
403.864	428.41
404.242	432.02
404.62	425.02
404.999	426.15
405.377	400.61
405.755	436.99
406.133	411.01
406.511	439.93
406.889	468.63
407.267	445.58
407.645	443.77
408.023	446.49
408.401	440.16
408.779	453.26
409.156	442.87
409.534	460.72
409.912	475.64
410.29	470.89
410.667	470.44
411.045	439.03
411.422	453.26
411.8	461.85
412.178	480.83
412.555	473.83
412.933	473.83
413.31	483.09
413.687	479.25
414.065	493.26
414.442	490.55
414.819	493.49
415.197	487.61
415.574	516.77
415.951	502.3
416.328	529.65
416.705	507.5
417.082	508.4
417.46	525.13
417.837	524
418.214	511.34
418.591	511.12
418.967	544.79
419.344	545.01
419.721	528.29
420.098	541.85
420.475	535.3
420.852	525.81
421.228	539.82
421.605	550.44
421.982	529.2
422.358	541.4
422.735	559.25
423.111	545.24
423.488	553.83
423.864	556.77
424.241	575.97
424.617	580.27
424.994	602.19
425.37	591.34
425.746	580.27
426.123	589.53
426.499	591.34
426.875	585.69
427.251	603.32
427.627	622.53
428.003	587.5
428.379	610.77
428.756	612.58
429.132	640.15
429.507	636.54
429.883	617.1
430.259	630.66
430.635	644.67
431.011	630.66
431.387	651
431.763	642.86
432.138	665.91
432.514	663.88
432.89	689.42
433.265	693.94
433.641	690.55
434.016	657.1
434.392	696.42
434.767	725.35
435.143	685.12
435.518	716.53
435.894	738.91
436.269	733.94
436.644	745.01
437.02	749.75
437.395	752.24
437.77	719.92
438.145	743.43
438.52	742.97
438.895	767.83
439.271	764.22
439.646	775.52
440.021	766.93
440.395	752.01
440.77	771.67
441.145	805.35
441.52	802.18
441.895	813.48
442.27	815.06
442.645	816.42
443.019	822.07
443.394	829.75
443.769	813.71
444.143	807.61
444.518	830.2
444.892	804.44
445.267	822.97
445.641	847.15
446.016	843.54
446.39	845.57
446.764	862.52
447.139	851.9
447.513	874.5
447.887	870.43
448.262	881.28
448.636	892.58
449.01	888.73
449.384	881.28
449.758	900.71
450.132	917.21
450.506	912.24
450.88	908.62
451.254	907.04
451.628	909.07
452.002	934.61
452.376	921.5
452.75	935.96
453.123	927.15
453.497	965.79
453.871	965.57
454.244	966.92
454.618	981.16
454.992	989.3
455.365	991.33
455.739	1027.71
456.112	999.92
456.486	1032.68
456.859	1034.94
457.232	1044.21
457.606	1043.08
457.979	1078.33
458.352	1078.79
458.725	1078.56
459.099	1111.55
459.472	1098.45
459.845	1138.9
460.218	1132.34
460.591	1121.27
460.964	1178.9
461.337	1156.75
461.71	1157.43
462.083	1177.99
462.456	1196.75
462.829	1180.48
463.201	1223.19
463.574	1229.29
463.947	1273.58
464.32	1278.78
464.692	1288.72
465.065	1282.17
465.438	1321.04
465.81	1326.46
466.183	1332.79
466.555	1354.71
466.928	1387.7
467.3	1402.62
467.672	1406.23
468.045	1396.29
468.417	1418.66
468.789	1420.7
469.161	1445.1
469.534	1500.47
469.906	1496.85
470.278	1523.07
470.65	1537.76
471.022	1555.16
471.394	1592.67
471.766	1591.31
472.138	1633.8
472.51	1645.55
472.882	1715.83
473.253	1688.03
473.625	1721.71
473.997	1756.06
474.369	1766.22
474.74	1801.7
475.112	1815.26
475.484	1844.19
475.855	1900.01
476.227	1900.01
476.598	1991.53
476.97	1986.33
477.341	2024.75
477.713	2057.29
478.084	2070.17
478.455	2141.13
478.827	2176.38
479.198	2231.75
479.569	2248.92
479.94	2288.47
480.311	2334.8
480.682	2379.09
481.053	2443.95
481.424	2452.76
481.795	2502.25
482.166	2579.31
482.537	2610.95
482.908	2673.77
483.279	2704.51
483.65	2751.74
484.021	2769.81
484.391	2828.12
484.762	2879.87
485.133	2925.97
485.503	2986.98
485.874	3007.55
486.244	3089.81
486.615	3130.93
486.985	3181.1
487.356	3252.51
487.726	3295.45
488.097	3376.13
488.467	3419.97
488.837	3480.98
489.207	3527.08
489.578	3570.02
489.948	3594.2
490.318	3715.78
490.688	3730.47
491.058	3734.31
491.428	3777.02
491.798	3821.09
492.168	3938.15
492.538	3975.66
492.908	4008.65
493.278	4076.45
493.648	4101.76
494.017	4165.03
494.387	4200.74
494.757	4233.28
495.126	4295.88
495.496	4362.31
495.866	4392.6
496.235	4408.64
496.605	4432.14
496.974	4472.82
497.344	4563.44
497.713	4553.04
498.082	4614.74
498.452	4692.02
498.821	4656.54
499.19	4709.88
499.559	4753.04
499.928	4776.99
500.298	4805.69
500.667	4903.54
501.036	4859.48
501.405	4895.18
501.774	4942.64
502.143	5004.56
502.512	5066.02
502.88	5075.97
503.249	5107.83
503.618	5071.67
503.987	5124.1
504.356	5207.26
504.724	5186.47
505.093	5266.92
505.462	5233.93
505.83	5299.92
506.199	5342.63
506.567	5405.23
506.936	5419.01
507.304	5450.87
507.672	5462.4
508.041	5517.31
508.409	5561.38
508.777	5592.11
509.145	5587.37
509.514	5617.87
509.882	5670.98
510.25	5657.2
510.618	5684.77
510.986	5711.88
511.354	5700.36
511.722	5771.77
512.09	5834.14
512.458	5823.07
512.826	5878.21
513.193	5906.68
513.561	5967.24
513.929	5936.51
514.297	5986.9
514.664	5988.49
515.032	6037.07
515.4	6049.28
515.767	6103.51
516.135	6155.49
516.502	6106.22
516.869	6219.89
517.237	6204.98
517.604	6222.6
517.972	6301.92
518.339	6351.19
518.706	6297.18
519.073	6382.37
519.44	6341.25
519.808	6424.41
520.175	6416.72
520.542	6501.24
520.909	6513.44
521.276	6480.45
521.643	6519.09
522.009	6573.78
522.376	6638.19
522.743	6680.9
523.11	6719.54
523.477	6730.16
523.843	6745.3
524.21	6866.2
524.577	6847.67
524.943	6827.11
525.31	6911.63
525.676	7016.03
526.043	6996.6
526.409	7086.08
526.776	7125.18
527.142	7117.95
527.508	7203.82
527.874	7256.02
528.241	7202.47
528.607	7253.09
528.973	7331.28
529.339	7311.84
529.705	7433.19
530.071	7469.8
530.437	7465.51
530.803	7582.12
531.169	7542.12
531.535	7561.1
531.901	7623.92
532.267	7628.9
532.632	7652.17
532.998	7693.3
533.364	7799.74
533.73	7829.57
534.095	7865.05
534.461	7793.18
534.826	7947.08
535.192	8002.67
535.557	8043.35
535.923	8018.04
536.288	8029.56
536.653	8084.25
537.019	8106.17
537.384	8106.85
537.749	8181.65
538.114	8144.59
538.479	8141.2
538.845	8205.15
539.21	8241.99
539.575	8243.57
539.94	8307.3
540.305	8406.05
540.67	8380.06
541.034	8460.96
541.399	8447.18
541.764	8482.66
542.129	8556.1
542.494	8503.45
542.858	8684.01
543.223	8629.55
543.587	8605.59
543.952	8662.31
544.316	8739.83
544.681	8712.26
545.045	8811.01
545.41	8821.86
545.774	8898.47
546.138	8849.43
546.503	8921.74
546.867	8960.61
547.231	8973.04
547.595	9035.86
547.959	9085.35
548.324	9085.35
548.688	9086.26
549.052	9096.2
549.416	9155.86
549.779	9087.61
550.143	9210.77
550.507	9226.14
550.871	9260.49
551.235	9332.35
551.599	9322.64
551.962	9405.35
552.326	9429.3
552.689	9476.76
553.053	9479.92
553.417	9479.69
553.78	9623.19
554.143	9525.12
554.507	9622.29
554.87	9646.92
555.234	9778.44
555.597	9669.07
555.96	9646.24
556.323	9719.24
556.686	9690.76
557.05	9804.88
557.413	9838.78
557.776	9932.79
558.139	9952.9
558.502	9925.78
558.865	9966.01
559.228	10048.04
559.59	10080.81
559.953	10129.17
560.316	10212.78
560.679	10155.16
561.041	10254.14
561.404	10220.01
561.767	10285.77
562.129	10309.28
562.492	10414.81
562.854	10407.13
563.217	10401.25
563.579	10419.33
563.941	10522.83
564.304	10540.68
564.666	10586.78
565.028	10620.68
565.39	10618.65
565.753	10764.63
566.115	10708.59
566.477	10714.46
566.839	10747.01
567.201	10901.13
567.563	10899.54
567.925	11068.13
568.287	10963.05
568.648	10944.06
569.01	11067.9
569.372	11087.11
569.734	11119.65
570.095	11188.8
570.457	11223.6
570.819	11307.44
571.18	11355.8
571.542	11322.58
571.903	11434.67
572.265	11439.42
572.626	11523.03
572.987	11578.62
573.349	11571.39
573.71	11636.93
574.071	11672.18
574.432	11799.41
574.794	11927.77
575.155	11870.82
575.516	11889.57
575.877	12047.76
576.238	12023.13
576.599	12209.57
576.96	12250.69
577.32	12307.64
577.681	12470.35
578.042	12550.35
578.403	12609.78
578.763	12748.76
579.124	12822.43
579.485	13000.73
579.845	13083.22
580.206	13085.7
580.566	13255.41
580.927	13347.16
581.287	13517.33
581.648	13610.43
582.008	13859.92
582.368	13925.23
582.728	14160.7
583.089	14168.38
583.449	14390.3
583.809	14498.32
584.169	14751.65
584.529	14784.64
584.889	15044.07
585.249	15216.04
585.609	15377.17
585.969	15624.39
586.329	15823.03
586.688	16014.89
587.048	16236.35
587.408	16389.57
587.768	16610.58
588.127	16867.97
588.487	17055.54
588.846	17427.28
589.206	17520.84
589.565	17786.82
589.925	18154.72
590.284	18315.62
590.643	18634.26
591.003	18924.87
591.362	19237.86
591.721	19410.05
592.08	19729.37
592.44	20138.85
592.799	20339.52
593.158	20502.68
593.517	20835.55
593.876	21182.66
594.235	21502.65
594.593	21735.42
594.952	22049.99
595.311	22347.15
595.67	22616.3
596.029	23096.51
596.387	23379.44
596.746	23737.17
597.104	23881.12
597.463	24128.12
597.822	24519.3
598.18	24644.95
598.538	25098.04
598.897	25630.46
599.255	25565.15
599.613	26220.5
599.972	26410.1
600.33	26721.27
600.688	26856.86
601.046	27261.15
601.404	27655.04
601.762	27848.48
602.12	28280.56
602.478	28495.01
602.836	28806.42
603.194	28867.66
603.552	29238.04
603.91	29503.57
604.268	29794.87
604.625	29955.77
604.983	30405.92
605.341	30414.29
605.698	30935.85
606.056	31265.11
606.413	31502.39
606.771	31683.86
607.128	31987.35
607.485	32025.54
607.843	32385.08
608.2	32750.72
608.557	33062.58
608.914	33073.42
609.272	33565.61
609.629	33709.34
609.986	34134.41
610.343	34081.99
610.7	34642.42
611.057	34615.98
611.414	34925.58
611.771	35013.03
612.127	35411.22
612.484	35544.32
612.841	35796.29
613.198	35791.77
613.554	36122.16
613.911	36401.7
614.267	36571.41
614.624	36685.98
614.98	36821.57
615.337	37300.88
615.693	37338.4
616.05	37334.56
616.406	37839.63
616.762	37810.93
617.118	37890.47
617.475	37970.47
617.831	38231.03
618.187	38424.92
618.543	38502.66
618.899	38716.44
619.255	38778.36
619.611	38983.78
619.967	39203.66
620.323	39288.85
620.678	39399.13
621.034	39476.87
621.39	39602.29
621.746	39709.41
622.101	40171.99
622.457	40023.07
622.812	40159.34
623.168	40218.55
623.523	40367.02
623.879	40450.41
624.234	40339.22
624.589	40638.65
624.945	40675.94
625.3	40860.11
625.655	40826.67
626.01	40878.19
626.365	40990.28
626.72	40935.36
627.075	41056.94
627.43	41143.49
627.785	41127.45
628.14	41245.19
628.495	41383.71
628.85	41375.35
629.205	41278.63
629.559	41584.61
629.914	41423.49
630.269	41489.93
630.623	41453.54
630.978	41449.25
631.332	41729.47
631.687	41802.69
632.041	41588.45
632.396	41700.99
632.75	41633.65
633.104	41772.63
633.459	41666.64
633.813	41643.37
634.167	41788.68
634.521	41835
634.875	41849.01
635.229	41805.85
635.583	41691.05
635.937	41579.19
636.291	41730.15
636.645	41707.1
636.999	41634.1
637.352	41828.67
637.706	41672.75
638.06	41735.12
638.413	41765.62
638.767	41631.39
639.121	41701.9
639.474	41624.39
639.828	41638.62
640.181	41740.77
640.534	41733.08
640.888	41635.68
641.241	41538.29
641.594	41561.11
641.947	41631.62
642.301	41554.33
642.654	41635.91
643.007	41649.47
643.36	41601.79
643.713	41519.3
644.066	41567.44
644.419	41446.31
644.771	41172.42
645.124	40745.09
645.477	40900.11
645.83	40565.88
646.182	40406.34
646.535	40261.26
646.888	40456.05
647.24	40221.94
647.593	40443.63
647.945	40375.83
648.298	40342.16
648.65	40224.2
649.002	40038.66
649.355	40292.44
649.707	40241.15
650.059	40310.97
650.411	40724.07
650.763	40899.43
651.115	41309.14
651.467	41299.65
651.819	41214.45
652.171	41050.62
652.523	41134.91
652.875	41035.47
653.227	40877.29
653.578	41258.97
653.93	41154.34
654.282	41011.52
654.633	40869.83
654.985	40967.91
655.337	40963.61
655.688	40983.5
656.039	41092.65
656.391	40841.58
656.742	40896.04
657.094	40887
657.445	40889.49
657.796	40939.66
658.147	40934.01
658.498	40750.74
658.849	40754.35
659.2	40791.87
659.551	40699.89
659.902	40913.67
660.253	40668.48
660.604	40873.9
660.955	40595.71
661.306	40812.2
661.656	40681.36
662.007	40706.22
662.358	40737.4
662.708	40796.38
663.059	40788.48
663.409	40562.27
663.76	40775.37
664.11	40782.15
664.461	40829.38
664.811	40788.93
665.161	40726.56
665.511	40685.2
665.862	40562.04
666.212	40727.01
666.562	40726.1
666.912	40750.74
667.262	40649.5
667.612	40623.73
667.962	40781.24
668.312	40611.31
668.662	40786.89
669.011	40710.74
669.361	40538.09
669.711	40449.73
670.06	40551.42
670.41	40371.99
670.76	40393.46
671.109	40589.38
671.459	40520.23
671.808	40436.85
672.157	40575.15
672.507	40251.54
672.856	40310.3
673.205	40349.62
673.554	40438.2
673.904	40366.34
674.253	40545.09
674.602	40442.5
674.951	39852.23
675.3	39691.78
675.649	40350.29
675.998	40259.9
676.346	40444.98
676.695	40256.06
677.044	40101.04
677.393	40258.32
677.741	40240.92
678.09	40177.64
678.438	40023.07
678.787	40176.51
679.135	40212.67
679.484	39927.48
679.832	40037.08
680.181	39756.41
680.529	39906.24
680.877	39729.07
681.225	39598.9
681.573	39908.95
681.922	39621.73
682.27	39509.19
682.618	39497.89
682.966	39450.66
683.314	39565
683.661	39416.31
684.009	39405.69
684.357	39377.67
684.705	39179.7
685.053	39338.12
685.4	39070.33
685.748	39069.88
686.095	39139.03
686.443	38898.58
686.79	38851.13
687.138	38895.87
687.485	38748.98
687.832	38690.23
688.18	38707.17
688.527	38528.42
688.874	38495.88
689.221	38401.19
689.568	38456.56
689.915	38352.16
690.262	38436.22
690.609	38195.32
690.956	38068.77
691.303	38215.66
691.65	37953.07
691.997	37949.45
692.344	37669.24
692.69	37582.46
693.037	37622.46
693.383	37258.62
693.73	37539.52
694.077	37258.17
694.423	37245.07
694.769	37161
695.116	37027.22
695.462	37101.79
695.808	36952.87
696.155	36926.88
696.501	36573.9
696.847	36641.24
697.193	36460.45
697.539	36485.76
697.885	36231.08
698.231	36267.46
698.577	36295.94
698.923	36159.44
699.269	35935.72
699.614	35765.33
699.96	35756.29
700.306	35835.84
700.651	35600.14
700.997	35479.01
701.342	35365.34
701.688	35380.71
702.033	35322.4
702.379	35370.99
702.724	35093.71
703.069	35254.16
703.415	34673.61
703.76	34816.2
704.105	34834.28
704.45	34752.25
704.795	34540.5
705.14	34616.43
705.485	34434.52
705.83	34373.73
706.175	34373.28
706.52	34164.24
706.865	34087.18
707.209	34136
707.554	34013.96
707.899	33990.01
708.243	33837.92
708.588	33799.96
708.932	33683.13
709.277	33595.67
709.621	33596.57
709.966	33450.59
710.31	33492.4
710.654	33218.96
710.998	33240.65
711.342	33302.12
711.687	33230.71
712.031	32996.14
712.375	32969.47
712.719	32938.29
713.063	32923.82
713.407	32974.44
713.75	32872.3
714.094	32820.78
714.438	32615.58
714.782	32652.19
715.125	32442.25
715.469	32445.64
715.812	32293.56
716.156	32211.75
716.499	32290.62
716.843	32301.02
717.186	31990.97
717.53	32275.93
717.873	32087.46
718.216	32062.6
718.559	31905.77
718.902	31768.15
719.246	31835.49
719.589	31661.03
719.932	31645.21
720.275	31497.42
720.617	31634.37
720.96	31507.82
721.303	31480.7
721.646	31589.62
721.989	31246.13
722.331	31450.42
722.674	31220.14
723.016	31299.01
723.359	31207.03
723.701	31352.34
724.044	30999.35
724.386	30956.19
724.729	31111.22
725.071	30979.24
725.413	30976.98
725.755	30939.92
726.097	30732.24
726.439	30540.38
726.782	30692.7
727.124	30799.81
727.465	30642.3
727.807	30506.26
728.149	30516.66
728.491	30331.8
728.833	30460.61
729.175	30428.97
729.516	30257.68
729.858	30159.15
730.199	30283.22
730.541	30134.29
730.882	30163.9
731.224	30236.66
731.565	29887.07
731.906	30028.53
732.248	29960.51
732.589	29849.78
732.93	29795.32
733.271	29763.23
733.612	29905.37
733.953	29826.5
734.294	29658.37
734.635	29654.53
734.976	29824.92
735.317	29490.47
735.658	29590.8
735.999	29559.84
736.339	29381.32
736.68	29606.85
737.021	29433.29
737.361	29392.62
737.702	29589.45
738.042	29259.74
738.383	29304.71
738.723	29288.21
739.063	29097.48
739.404	29193.07
739.744	29247.08
740.084	29031.72
740.424	29145.84
740.764	29046.19
741.104	29143.58
741.444	28791.05
741.784	28931.16
742.124	28929.8
742.464	28807.1
742.804	28674.22
743.143	28699.3
743.483	28642.58
743.823	28583.82
744.162	28728
744.502	28568.23
744.841	28476.48
745.181	28603.71
745.52	28400.55
745.86	28456.37
746.199	28433.32
746.538	28330.5
746.877	28448.01
747.216	28312.42
747.556	28245.75
747.895	28283.72
748.234	28136.83
748.573	28097.06
748.911	28051.18
749.25	28136.38
749.589	28001.47
749.928	27992.2
750.267	28043.27
750.605	27890.28
750.944	27932.77
751.283	27763.28
751.621	27849.83
751.96	27669.5
752.298	27686.22
752.636	27676.05
752.975	27567.13
753.313	27363.97
753.651	27550.41
753.989	27511.99
754.327	27423.63
754.666	27177.31
755.004	27301.6
755.342	27251.88
755.679	27204.43
756.017	27054.15
756.355	27093.69
756.693	27082.62
757.031	27027.71
757.368	26937.31
757.706	26867.49
758.044	26769.41
758.381	26762.4
758.719	26587.94
759.056	26685.12
759.394	26653.93
759.731	26321.29
760.068	26408.06
760.405	26375.52
760.743	26265.92
761.08	26377.56
761.417	26133.49
761.754	26073.83
762.091	26074.51
762.428	25919.49
762.765	25792.26
763.102	25905.25
763.438	25725.59
763.775	25674.75
764.112	25649.21
764.449	25666.84
764.785	25486.28
765.122	25352.5
765.458	25272.73
765.795	25349.33
766.131	25197.25
766.467	25070.24
766.804	25019.85
767.14	24875.67
767.476	24815.11
767.812	24752.29
768.148	24746.19
768.485	24573.99
768.821	24481.79
769.157	24410.15
769.492	24358.4
769.828	24302.81
770.164	24182.81
770.5	24154.56
770.836	24135.35
771.171	23897.62
771.507	23878.86
771.842	23628.7
772.178	23707.79
772.513	23725.65
772.849	23589.83
773.184	23495.37
773.519	23435.94
773.855	23351.19
774.19	23283.4
774.525	23298.09
774.86	23118.66
775.195	23078.66
775.53	22928.83
775.865	22842.05
776.2	22759.35
776.535	22671.21
776.87	22615.39
777.205	22541.72
777.539	22336.08
777.874	22350.09
778.209	22280.26
778.543	22179.7
778.878	22184.22
779.212	22073.04
779.547	21941.06
779.881	22009.31
780.215	21843.89
780.55	21687.96
780.884	21633.72
781.218	21637.34
781.552	21585.36
781.886	21414.97
782.22	21399.38
782.554	21267.18
782.888	21111.25
783.222	21042.55
783.556	20934.76
783.889	20938.15
784.223	20805.05
784.557	20729.57
784.89	20745.39
785.224	20588.33
785.557	20453.87
785.891	20466.75
786.224	20439.63
786.558	20372.06
786.891	20252.97
787.224	20190.6
787.557	20123.26
787.891	20036.48
788.224	19971.4
788.557	20018.85
788.89	19941.11
789.223	19888.23
789.556	19789.48
789.888	19679.88
790.221	19647.79
790.554	19500.67
790.887	19484.85
791.219	19402.82
791.552	19353.33
791.884	19256.39
792.217	19223.17
792.549	19227.23
792.882	19047.13
793.214	18960.12
793.546	18947.24
793.879	18852.33
794.211	18804.87
794.543	18842.39
794.875	18653.69
795.207	18757.87
795.539	18567.14
795.871	18556.74
796.203	18492.56
796.535	18346.58
796.867	18210.31
797.198	18378.67
797.53	18178
797.862	18128.28
798.193	18124.89
798.525	18029.75
798.856	18038.34
799.188	17897.55
799.519	17768.74
799.85	17706.6
800.182	17772.13
800.513	17749.99
800.844	17596.99
801.175	17645.58
801.506	17649.42
801.837	17498.69
802.168	17497.11
802.499	17467.51
802.83	17305.25
803.161	17350.67
803.491	17251.02
803.822	17256.44
804.153	17206.95
804.483	17076.1
804.814	17058.03
805.145	16991.36
805.475	16956.56
805.805	16859.61
806.136	16913.4
806.466	16879.05
806.796	16701.2
807.126	16648.55
807.457	16716.11
807.787	16561.54
808.117	16574.2
808.447	16352.06
808.777	16568.77
809.107	16334.2
809.436	16315.67
809.766	16395.22
810.096	16280.65
810.426	16220.53
810.755	16178.05
811.085	16122.91
811.414	16070.93
811.744	15919.52
812.073	15917.72
812.403	15942.58
812.732	15906.64
813.061	15846.76
813.39	15748.46
813.719	15745.29
814.049	15801.34
814.378	15811.96
814.707	15680.66
815.036	15603.6
815.365	15523.38
815.693	15488.58
816.022	15454.45
816.351	15407.45
816.68	15318.18
817.008	15400.67
817.337	15198.41
817.665	15196.15
817.994	15244.97
818.322	15255.59
818.651	15125.87
818.979	15066.21
819.307	15149.83
819.636	15075.71
819.964	15031.64
820.292	15082.48
820.62	15075.93
820.948	14939.21
821.276	15096.27
821.604	14986.44
821.932	14917.52
822.259	14934.92
822.587	14949.83
822.915	14915.71
823.243	14925.2
823.57	14882.94
823.898	14938.31
824.225	14858.76
824.553	14859.89
824.88	14826.22
825.207	14909.16
825.535	14823.73
825.862	14942.6
826.189	14820.57
826.516	14937.4
826.843	14992.54
827.17	14898.31
827.497	14922.94
827.824	14967.01
828.151	14971.53
828.478	14934.92
828.805	14963.17
829.131	14903.96
829.458	14876.84
829.785	14833.9
830.111	14825.32
830.438	14946.67
830.764	14867.8
831.09	14852.89
831.417	14686.56
831.743	14768.37
832.069	14793.23
832.395	14747.35
832.722	14798.65
833.048	14788.93
833.374	14790.52
833.7	14621.71
834.026	14633.91
834.351	14676.17
834.677	14682.5
835.003	14657.41
835.329	14713.23
835.654	14663.29
835.98	14516.85
836.306	14601.37
836.631	14477.98
836.956	14614.25
837.282	14539.22
837.607	14502.39
837.932	14574.02
838.258	14474.14
838.583	14466.23
838.908	14400.47
839.233	14357.53
839.558	14365.89
839.883	14313.24
840.208	14249.74
840.533	14238.44
840.858	14316.63
841.182	14306.91
841.507	14225.56
841.832	14130.42
842.156	14220.13
842.481	14096.75
842.805	14115.05
843.13	14046.58
843.454	13986.69
843.778	13976.53
844.103	13971.78
844.427	13891.78
844.751	14070.08
845.075	13846.36
845.399	13849.52
845.723	13775.4
846.047	13789.86
846.371	13749.19
846.695	13680.49
847.019	13571.56
847.343	13574.5
847.666	13421.96
847.99	13324.11
848.313	13358.01
848.637	13271.68
848.96	13242.99
849.284	13249.31
849.607	13150.78
849.931	13097.45
850.254	12989.43
850.577	12948.53
850.9	12859.49
851.223	12847.29
851.546	12793.28
851.869	12628.76
852.192	12807.52
852.515	12674.19
852.838	12667.63
853.161	12546.05
853.483	12526.62
853.806	12446.62
854.129	12402.78
854.451	12447.75
854.774	12286.63
855.096	12352.39
855.419	12308.77
855.741	12261.54
856.063	12131.83
856.385	12177.02
856.708	12199.62
857.03	12060.19
857.352	12134.31
857.674	12015.67
857.996	11940.65
858.318	11921.66
858.64	11929.35
858.961	11906.3
859.283	11851.38
859.605	11762.12
859.926	11807.09
860.248	11759.86
860.57	11740.88
860.891	11689.13
861.212	11633.54
861.534	11567.32
861.855	11568.9
862.176	11605.74
862.498	11540.66
862.819	11580.88
863.14	11541.33
863.461	11451.62
863.782	11424.28
864.103	11499.08
864.424	11369.81
864.745	11457.27
865.065	11368.91
865.386	11301.57
865.707	11245.3
866.027	11323.49
866.348	11299.76
866.668	11316.26
866.989	11280.32
867.309	11195.81
867.63	11179.31
867.95	11162.14
868.27	11086.88
868.59	11143.61
868.91	11145.41
869.23	11094.57
869.55	11016.6
869.87	11065.64
870.19	11056.6
870.51	11011.63
870.83	11090.95
871.15	10967.11
871.469	10918.07
871.789	11026.55
872.109	10881.01
872.428	10903.16
872.748	10935.25
873.067	10940.9
873.386	10963.72
873.706	10863.39
874.025	10757.85
874.344	10763.5
874.663	10866.55
874.982	10690.06
875.301	10744.97
875.62	10689.83
875.939	10756.27
876.258	10708.81
876.577	10663.17
876.896	10681.92
877.214	10627.91
877.533	10624.75
877.852	10611.19
878.17	10611.19
878.489	10611.64
878.807	10563.96
879.125	10545.88
879.444	10515.83
879.762	10487.8
880.08	10472.21
880.398	10474.24
880.716	10450.29
881.034	10401.03
881.352	10434.92
881.67	10380.24
881.988	10403.74
882.306	10328.26
882.624	10318.77
882.941	10265.66
883.259	10231.99
883.577	10238.77
883.894	10190.18
884.212	10196.29
884.529	10137.08
884.846	10142.73
885.164	10188.15
885.481	10109.51
885.798	10106.12
886.115	10060.92
886.432	10029.96
886.75	9957.87
887.067	9949.96
887.383	9934.15
887.7	9937.31
888.017	9849.85
888.334	9915.61
888.651	9836.52
888.967	9885.79
889.284	9819.35
889.6	9837.42
889.917	9693.47
890.233	9704.1
890.55	9700.48
890.866	9717.65
891.182	9697.32
891.498	9624.55
891.815	9673.81
892.131	9514.72
892.447	9469.98
892.763	9507.94
893.079	9461.62
893.395	9456.87
893.71	9466.36
894.026	9350.43
894.342	9371.45
894.657	9350.88
894.973	9312.02
895.289	9301.39
895.604	9301.39
895.92	9190.44
896.235	9117.9
896.55	9185.24
896.865	9162.87
897.181	9095.3
897.496	9084.45
897.811	8979.82
898.126	9032.93
898.441	8975.53
898.756	8940.27
899.071	8893.72
899.386	8875.64
899.7	8788.41
900.015	8846.49
900.33	8722.43
900.644	8787.96
900.959	8698.47
901.273	8719.71
901.588	8659.83
901.902	8649.66
902.216	8621.64
902.531	8586.61
902.845	8579.6
903.159	8517.23
903.473	8453.51
903.787	8415.54
904.101	8419.61
904.415	8411.93
904.729	8365.83
905.042	8288.99
905.356	8337.8
905.67	8253.06
905.984	8293.06
906.297	8206.28
906.611	8187.75
906.924	8107.53
907.237	8166.06
907.551	8126.74
907.864	8113.4
908.177	8078.38
908.491	8006.74
908.804	7964.03
909.117	7904.82
909.43	7882.67
909.743	7837.03
910.056	7869.57
910.368	7745.95
910.681	7754.77
910.994	7719.51
911.307	7732.17
911.619	7651.27
911.932	7653.98
912.244	7583.47
912.557	7598.61
912.869	7541.44
913.181	7547.77
913.494	7496.92
913.806	7445.85
914.118	7383.7
914.43	7391.39
914.742	7352.07
915.054	7309.13
915.366	7318.4
915.678	7286.76
915.99	7277.94
916.302	7205.86
916.613	7202.92
916.925	7136.48
917.236	7192.75
917.548	7078.63
917.859	7137.38
918.171	7035.46
918.482	6969.7
918.794	7007.22
919.105	7004.96
919.416	6830.27
919.727	6876.6
920.038	6843.15
920.349	6796.15
920.66	6795.02
920.971	6793.89
921.282	6775.13
921.593	6687
921.903	6659.2
922.214	6658.53
922.525	6653.55
922.835	6576.49
923.146	6562.03
923.456	6518.87
923.767	6559.77
924.077	6520.9
924.387	6463.5
924.697	6452.66
925.008	6408.81
925.318	6394.8
925.628	6360
925.938	6321.81
926.248	6286.56
926.558	6256.95
926.867	6213.57
927.177	6196.62
927.487	6218.76
927.796	6166.11
928.106	6157.3
928.416	6065.32
928.725	6129.5
929.034	6098.31
929.344	6044.98
929.653	6061.25
929.962	5975.61
930.271	5954.14
930.581	5933.35
930.89	5864.65
931.199	5873.01
931.508	5821.71
931.817	5857.42
932.125	5776.06
932.434	5748.49
932.743	5719.34
933.051	5689.06
933.36	5701.94
933.669	5658.78
933.977	5646.8
934.286	5632.11
934.594	5602.51
934.902	5569.51
935.21	5567.48
935.519	5544.66
935.827	5497.43
936.135	5482.74
936.443	5456.07
936.751	5426.47
937.059	5482.74
937.367	5447.94
937.674	5383.08
937.982	5318.45
938.29	5344.44
938.597	5341.27
938.905	5260.14
939.213	5238.68
939.52	5247.94
939.827	5212.24
940.135	5186.25
940.442	5188.06
940.749	5151.67
941.056	5147.6
941.363	5086.14
941.67	5130.66
941.977	5046.59
942.284	5023.54
942.591	4998.91
942.898	4949.64
943.205	4929.53
943.511	4961.62
943.818	4942.19
944.125	4875.3
944.431	4937.21
944.738	4845.69
945.044	4834.62
945.35	4875.52
945.657	4810.21
945.963	4791.23
946.269	4740.38
946.575	4781.29
946.881	4741.51
947.187	4684.79
947.493	4705.36
947.799	4691.57
948.105	4625.13
948.41	4613.83
948.716	4640.5
949.022	4602.99
949.327	4550.56
949.633	4547.39
949.938	4529.54
950.244	4516.21
950.549	4465.59
950.854	4412.93
951.16	4450
951.465	4424.01
951.77	4432.82
952.075	4379.72
952.38	4367.51
952.685	4379.04
952.99	4285.48
953.294	4307.63
953.599	4244.35
953.904	4248.87
954.209	4229.44
954.513	4229.66
954.818	4210.91
955.122	4211.58
955.426	4175.65
955.731	4148.08
956.035	4142.21
956.339	4104.69
956.643	4096.33
956.948	4072.6
957.252	4104.24
957.556	4082.55
957.86	4007.3
958.163	4036
958.467	4009.33
958.771	3952.16
959.075	3952.83
959.378	3975.43
959.682	3945.38
959.985	3911.93
960.289	3894.08
960.592	3836.68
960.896	3864.25
961.199	3845.04
961.502	3840.29
961.805	3781.31
962.108	3774.99
962.411	3808.66
962.714	3742.44
963.017	3752.16
963.32	3765.49
963.623	3697.47
963.926	3714.2
964.228	3686.4
964.531	3690.47
964.833	3673.07
965.136	3637.36
965.438	3579.96
965.741	3598.49
966.043	3614.76
966.345	3565.95
966.648	3574.31
966.95	3584.93
967.252	3556.69
967.554	3489.34
967.856	3458.16
968.158	3473.75
968.46	3488.89
968.761	3450.7
969.063	3473.75
969.365	3432.17
969.666	3411.15
969.968	3384.94
970.269	3341.55
970.571	3404.6
970.872	3367.54
971.174	3296.35
971.475	3314.21
971.776	3302.68
972.077	3267.43
972.378	3314.21
972.679	3297.94
972.98	3263.13
973.281	3245.73
973.582	3231.04
973.883	3199.63
974.183	3203.02
974.484	3158.96
974.785	3168
975.085	3137.94
975.386	3125.51
975.686	3121.22
975.986	3119.18
976.287	3144.04
976.587	3061.33
976.887	3063.14
977.187	3074.89
977.487	3072.18
977.787	3028.11
978.087	2995.57
978.387	3005.74
978.687	2977.49
978.987	2947.66
979.286	2921.67
979.586	2951.96
979.885	2927.55
980.185	2912.86
980.484	2894.56
980.784	2878.29
981.083	2857.5
981.382	2892.52
981.682	2888
981.981	2851.85
982.28	2819.98
982.579	2797.84
982.878	2824.28
983.177	2784.73
983.475	2753.32
983.774	2769.59
984.073	2723.04
984.372	2749.48
984.67	2709.25
984.969	2749.7
985.267	2728.46
985.566	2707.67
985.864	2675.13
986.162	2674.9
986.461	2692.53
986.759	2606.2
987.057	2612.76
987.355	2593.77
987.653	2615.24
987.951	2633.32
988.249	2615.24
988.547	2533.89
988.844	2573.21
989.142	2558.29
989.44	2546.32
989.737	2514.68
990.035	2515.81
990.332	2515.13
990.63	2503.15
990.927	2469.71
991.224	2437.17
991.521	2464.96
991.819	2490.5
992.116	2455.7
992.413	2429.26
992.71	2396.04
993.006	2391.07
993.303	2387.45
993.6	2375.25
993.897	2375.7
994.193	2366.89
994.49	2366.21
994.787	2372.08
995.083	2361.92
995.379	2345.19
995.676	2313.1
995.972	2323.72
996.268	2252.77
996.565	2274.69
996.861	2238.98
997.157	2253.67
997.453	2220.9
997.749	2245.08
998.044	2190.85
998.34	2189.26
998.636	2210.05
998.932	2174.35
999.227	2168.47
999.523	2177.06
999.818	2151.98
1000.114	2124.63
1000.409	2130.96
1000.704	2106.33
1001	2107.91
1001.295	2097.52
1001.59	2074.01
1001.885	2070.62
1002.18	2051.64
1002.475	2037.18
1002.77	2021.81
1003.065	2020.68
1003.359	1997.86
1003.654	1999.89
1003.949	2000.34
1004.243	1965.77
1004.538	1977.74
1004.832	1950.17
1005.127	1956.73
1005.421	1923.73
1005.715	1933.45
1006.009	1931.19
1006.304	1896.16
1006.598	1921.7
1006.892	1895.49
1007.186	1860.23
1007.48	1874.24
1007.773	1873.79
1008.067	1831.53
1008.361	1817.07
1008.655	1822.49
1008.948	1827.47
1009.242	1787.02
1009.535	1796.28
1009.829	1790.18
1010.122	1793.12
1010.415	1781.59
1010.708	1766.68
1011.001	1766.22
1011.295	1733.68
1011.588	1709.73
1011.881	1721.25
1012.173	1692.55
1012.466	1710.41
1012.759	1697.98
1013.052	1705.66
1013.344	1660.01
1013.637	1679.22
1013.93	1639.22
1014.222	1681.26
1014.514	1624.08
1014.807	1595.61
1015.099	1591.09
1015.391	1586.79
1015.683	1590.18
1015.976	1590.86
1016.268	1551.32
1016.56	1566.68
1016.851	1518.77
1017.143	1537.08
1017.435	1499.34
1017.727	1518.1
1018.018	1493.69
1018.31	1492.11
1018.602	1482.39
1018.893	1489.85
1019.185	1462.73
1019.476	1483.29
1019.767	1426.12
1020.058	1456.4
1020.35	1452.11
1020.641	1421.38
1020.932	1449.4
1021.223	1375.05
1021.514	1393.13
1021.804	1406.69
1022.095	1393.35
1022.386	1392.22
1022.677	1366.91
1022.967	1360.36
1023.258	1358.33
1023.548	1347.03
1023.839	1313.81
1024.129	1341.6
1024.419	1324.65
1024.709	1327.82
1025	1311.55
1025.29	1283.75
1025.58	1273.13
1025.87	1278.1
1026.16	1284.88
1026.449	1277.65
1026.739	1233.36
1027.029	1220.93
1027.319	1240.36
1027.608	1238.1
1027.898	1228.16
1028.187	1197.88
1028.477	1191.1
1028.766	1173.7
1029.055	1201.72
1029.344	1201.27
1029.634	1193.13
1029.923	1158.78
1030.212	1155.17
1030.501	1127.6
1030.79	1137.31
1031.078	1114.49
1031.367	1122.4
1031.656	1119.69
1031.945	1103.64
1032.233	1099.12
1032.522	1087.6
1032.81	1086.02
1033.099	1086.47
1033.387	1088.5
1033.675	1046.47
1033.963	1054.61
1034.251	1051.22
1034.54	1047.15
1034.828	1039.01
1035.116	1006.7
1035.403	1021.16
1035.691	989.97
1035.979	1013.25
1036.267	993.36
1036.554	993.82
1036.842	979.35
1037.129	977.77
1037.417	998.34
1037.704	1008.05
1037.992	950.43
1038.279	968.05
1038.566	950.65
1038.853	950.65
1039.14	950.65
