Data from hue_260_FLMS001491_00042.txt Node
Date: Tue Feb 07 15:59:02 GMT 2017
User: dcchb
Spectrometer: FLMS00149
Trigger mode: 0
Integration Time (sec): 2.000000E-2
Scans to average: 10
Electric dark correction enabled: true
Nonlinearity correction enabled: false
Boxcar width: 0
XAxis mode: Wavelengths
Number of Pixels in Spectrum: 2048
>>>>>Begin Spectral Data<<<<<
341.393	5.31
341.776	5.31
342.16	5.31
342.543	-57.06
342.927	-55.93
343.31	-48.47
343.693	-69.72
344.077	-80.34
344.46	-48.47
344.843	-64.29
345.226	-30.39
345.61	-30.85
345.993	-22.03
346.376	-1.92
346.759	1.47
347.142	19.77
347.525	54.35
347.908	66.78
348.291	64.97
348.674	78.3
349.057	110.84
349.44	127.12
349.823	126.89
350.206	142.26
350.588	150.17
350.971	194.23
351.354	215.47
351.737	214.12
352.119	227.68
352.502	251.63
352.884	256.6
353.267	263.38
353.65	296.15
354.032	268.35
354.414	282.14
354.797	306.32
355.179	291.18
355.562	301.57
355.944	294.79
356.326	306.55
356.709	301.8
357.091	336.15
357.473	311.97
357.855	322.82
358.238	331.86
358.62	307
359.002	333.44
359.384	329.37
359.766	324.85
360.148	360.78
360.53	328.47
360.912	314.46
361.294	331.18
361.676	333.44
362.057	342.25
362.439	316.71
362.821	305.19
363.203	313.33
363.584	316.94
363.966	315.81
364.348	303.38
364.729	298.18
365.111	292.08
365.493	285.76
365.874	318.97
366.256	284.85
366.637	300.67
367.019	300.9
367.4	288.02
367.781	302.48
368.163	293.89
368.544	310.16
368.925	305.87
369.306	310.39
369.688	324.17
370.069	292.76
370.45	298.86
370.831	306.77
371.212	297.05
371.593	301.35
371.974	301.57
372.355	297.96
372.736	298.18
373.117	298.41
373.498	286.66
373.879	313.1
374.26	297.28
374.641	297.28
375.021	307.22
375.402	315.81
375.783	290.5
376.163	335.7
376.544	305.19
376.925	332.99
377.305	308.81
377.686	306.55
378.066	316.71
378.447	316.71
378.827	334.12
379.208	322.82
379.588	309.71
379.968	305.19
380.349	342.25
380.729	330.73
381.109	303.61
381.489	315.81
381.87	332.99
382.25	343.38
382.63	325.53
383.01	324.17
383.39	341.12
383.77	337.96
384.15	321.23
384.53	332.08
384.91	339.54
385.29	357.84
385.67	338.64
386.049	354.23
386.429	333.44
386.809	323.27
387.189	352.42
387.568	341.35
387.948	339.99
388.328	329.82
388.707	372.76
389.087	345.41
389.466	348.58
389.846	344.06
390.225	356.94
390.605	337.05
390.984	346.77
391.363	358.97
391.743	365.53
392.122	361.69
392.501	373.44
392.881	370.05
393.26	345.41
393.639	363.72
394.018	391.97
394.397	374.79
394.776	366.88
395.155	369.14
395.534	396.26
395.913	372.53
396.292	371.85
396.671	384.51
397.05	387.9
397.429	394
397.808	383.38
398.186	377.05
398.565	391.52
398.944	391.52
399.323	378.63
399.701	412.76
400.08	398.07
400.458	394.9
400.837	398.97
401.215	410.27
401.594	419.76
401.972	417.73
402.351	407.79
402.729	409.37
403.107	404.4
403.486	438.52
403.864	433.55
404.242	427.22
404.62	435.58
404.999	439.2
405.377	434.68
405.755	432.42
406.133	431.74
406.511	445.98
406.889	477.84
407.267	450.04
407.645	447.56
408.023	459.08
408.401	473.77
408.779	462.25
409.156	487.78
409.534	479.42
409.912	486.2
410.29	512.19
410.667	487.78
411.045	504.28
411.422	522.13
411.8	490.72
412.178	517.16
412.555	527.1
412.933	547.44
413.31	544.28
413.687	533.43
414.065	565.75
414.442	580.89
414.819	573.43
415.197	590.38
415.574	594.9
415.951	597.16
416.328	604.39
416.705	605.29
417.082	612.07
417.46	631.06
417.837	615.24
418.214	641.23
418.591	633.99
418.967	656.37
419.344	643.03
419.721	648.91
420.098	676.71
420.475	663.15
420.852	713.54
421.228	695.69
421.605	680.55
421.982	718.06
422.358	714.67
422.735	756.48
423.111	730.94
423.488	745.4
423.864	743.37
424.241	764.39
424.617	776.82
424.994	801.22
425.37	814.33
425.746	810.26
426.123	845.97
426.499	845.29
426.875	852.52
427.251	864.5
427.627	876.7
428.003	885.74
428.379	896.59
428.756	889.58
429.132	908.79
429.507	909.69
429.883	915.34
430.259	930.48
430.635	955.79
431.011	971.16
431.387	986.75
431.763	994.66
432.138	1005.06
432.514	1010.48
432.89	1043.7
433.265	1024.94
433.641	1066.3
434.016	1071.95
434.392	1077.37
434.767	1129.57
435.143	1111.95
435.518	1130.7
435.894	1134.55
436.269	1165.73
436.644	1184.49
437.02	1190.59
437.395	1215.22
437.77	1229.69
438.145	1248.22
438.52	1262.23
438.895	1273.98
439.271	1291.38
439.646	1328.44
440.021	1332.73
440.395	1353.98
440.77	1344.71
441.145	1370.47
441.52	1388.78
441.895	1397.59
442.27	1407.99
442.645	1414.99
443.019	1438.49
443.394	1439.17
443.769	1471.03
444.143	1463.8
444.518	1488.66
444.892	1479.17
445.267	1516.68
445.641	1493.86
446.016	1499.96
446.39	1538.6
446.764	1548.77
447.139	1540.19
447.513	1564.82
447.887	1589.22
448.262	1556.91
448.636	1605.49
449.01	1599.84
449.384	1615.44
449.758	1604.36
450.132	1634.65
450.506	1678.03
450.88	1683.01
451.254	1671.03
451.628	1693.85
452.002	1696.57
452.376	1706.51
452.75	1731.14
453.123	1751.71
453.497	1804.59
453.871	1779.5
454.244	1803.23
454.618	1814.75
454.992	1828.31
455.365	1868.31
455.739	1891.36
456.112	1874.87
456.486	1940.63
456.859	1908.09
457.232	1949.89
457.606	1957.58
457.979	1966.16
458.352	1999.83
458.725	2053.39
459.099	2034.18
459.472	2089.55
459.845	2092.49
460.218	2102.88
460.591	2146.05
460.964	2121.19
461.337	2157.57
461.71	2181.98
462.083	2224.91
462.456	2255.65
462.829	2250
463.201	2323.89
463.574	2302.2
463.947	2311.92
464.32	2380.39
464.692	2358.24
465.065	2386.72
465.438	2447.73
465.81	2473.72
466.183	2459.26
466.555	2525.7
466.928	2560.27
467.3	2530.67
467.672	2584.9
468.045	2632.36
468.417	2647.5
468.789	2678.23
469.161	2680.72
469.534	2735.18
469.906	2763.43
470.278	2796.88
470.65	2817.89
471.022	2865.57
471.394	2931.79
471.766	2930.43
472.138	2957.1
472.51	2992.35
472.882	3060.6
473.253	3044.55
473.625	3053.82
473.997	3213.59
474.369	3174.27
474.74	3210.88
475.112	3250.2
475.484	3310.99
475.855	3380.14
476.227	3388.05
476.598	3469.85
476.97	3494.26
477.341	3528.38
477.713	3599.79
478.084	3623.52
478.455	3701.94
478.827	3708.26
479.198	3830.29
479.569	3834.59
479.94	3899.9
480.311	3946.68
480.682	4022.83
481.053	4095.6
481.424	4109.84
481.795	4157.97
482.166	4207.91
482.537	4249.27
482.908	4292.88
483.279	4360.45
483.65	4425.76
484.021	4489.49
484.391	4570.61
484.762	4575.81
485.133	4646.32
485.503	4673.44
485.874	4789.59
486.244	4807.9
486.615	4876.14
486.985	4917.72
487.356	4988.46
487.726	4995.69
488.097	5125.63
488.467	5110.49
488.837	5217.15
489.207	5240.43
489.578	5331.72
489.948	5323.59
490.318	5417.82
490.688	5454.43
491.058	5458.05
491.428	5597.71
491.798	5582.34
492.168	5686.07
492.538	5724.03
492.908	5754.31
493.278	5787.76
493.648	5819.62
494.017	5888.55
494.387	5917.25
494.757	5960.18
495.126	6071.37
495.496	6040.63
495.866	6079.95
496.235	6118.14
496.605	6124.92
496.974	6218.93
497.344	6225.71
497.713	6244.92
498.082	6290.57
498.452	6306.39
498.821	6321.3
499.19	6371.47
499.559	6405.14
499.928	6441.3
500.298	6399.49
500.667	6500.28
501.036	6492.15
501.405	6554.74
501.774	6528.3
502.143	6561.07
502.512	6586.61
502.88	6690.78
503.249	6644.01
503.618	6725.59
503.987	6731.91
504.356	6728.52
504.724	6730.33
505.093	6782.76
505.462	6754.06
505.83	6840.61
506.199	6898.01
506.567	6930.1
506.936	6899.14
507.304	6971
507.672	6945.02
508.041	7020.49
508.409	6985.01
508.777	7113.15
509.145	7045.8
509.514	7059.36
509.882	7103.88
510.25	7123.54
510.618	7173.26
510.986	7195.4
511.354	7201.73
511.722	7231.56
512.09	7238.11
512.458	7206.03
512.826	7313.37
513.193	7333.71
513.561	7245.12
513.929	7357.89
514.297	7403.08
514.664	7368.51
515.032	7356.76
515.4	7387.94
515.767	7390.43
516.135	7463.42
516.502	7394.04
516.869	7483.08
517.237	7490.76
517.604	7433.59
517.972	7551.1
518.339	7533.7
518.706	7521.5
519.073	7485.11
519.44	7574.83
519.808	7559.91
520.175	7580.93
520.542	7614.38
520.909	7620.03
521.276	7672.23
521.643	7672.68
522.009	7718.33
522.376	7707.48
522.743	7735.28
523.11	7736.86
523.477	7798.78
523.843	7737.31
524.21	7852.79
524.577	7829.06
524.943	7863.18
525.31	7846.23
525.676	7940.7
526.043	7926.68
526.409	7919.23
526.776	7975.5
527.142	7923.29
527.508	7996.96
527.874	7991.54
528.241	8052.56
528.607	8019.34
528.973	8061.14
529.339	8002.39
529.705	8060.24
530.071	8085.32
530.437	8101.82
530.803	8092.1
531.169	8119
531.535	8087.36
531.901	8132.78
532.267	8060.01
532.632	8120.35
532.998	8068.6
533.364	8120.58
533.73	8071.99
534.095	8122.84
534.461	8064.99
534.826	8097.3
535.192	8161.25
535.557	8133.91
535.923	8064.99
536.288	8118.09
536.653	8147.24
537.019	8107.7
537.384	8126.23
537.749	8124.19
538.114	8097.53
538.479	8031.77
538.845	8087.58
539.21	8054.14
539.575	8071.09
539.94	8057.08
540.305	8099.79
540.67	8033.57
541.034	7996.96
541.399	8062.5
541.764	7991.54
542.129	7980.69
542.494	8031.31
542.858	8009.62
543.223	8014.14
543.587	8020.69
543.952	7975.5
544.316	8045.55
544.681	7956.51
545.045	7981.82
545.41	8018.66
545.774	8016.4
546.138	7984.99
546.503	7914.26
546.867	7954.03
547.231	7976.17
547.595	7923.29
547.959	7927.14
548.324	7940.47
548.688	7882.62
549.052	7888.49
549.416	7895.5
549.779	7817.08
550.143	7880.36
550.507	7937.31
550.871	7879
551.235	7837.87
551.599	7899.57
551.962	7841.71
552.326	7901.83
552.689	7853.24
553.053	7831.09
553.417	7781.6
553.78	7972.78
554.143	7790.87
554.507	7817.08
554.87	7854.6
555.234	7872.45
555.597	7817.99
555.96	7824.99
556.323	7872.67
556.686	7845.56
557.05	7838.1
557.413	7839
557.776	7821.6
558.139	7892.56
558.502	7807.82
558.865	7902.96
559.228	7904.76
559.59	7900.02
559.953	7889.17
560.316	7914.48
560.679	7950.19
561.041	7945.67
561.404	7923.75
561.767	8008.49
562.129	7944.08
562.492	7966.46
562.854	7940.7
563.217	7954.25
563.579	7986.57
563.941	7980.92
564.304	8030.18
564.666	8105.44
565.028	8029.96
565.39	8013.91
565.753	8110.86
566.115	8120.13
566.477	8104.08
566.839	8087.81
567.201	8139.79
567.563	8172.78
567.925	8179.33
568.287	8144.08
568.648	8138.43
569.01	8253.68
569.372	8288.26
569.734	8252.78
570.095	8268.37
570.457	8278.31
570.819	8343.17
571.18	8287.35
571.542	8386.33
571.903	8405.09
572.265	8370.29
572.626	8377.97
572.987	8435.15
573.349	8397.86
573.71	8464.3
574.071	8409.84
574.432	8471.75
574.794	8511.75
575.155	8540.91
575.516	8526.67
575.877	8571.19
576.238	8585.2
576.599	8642.82
576.96	8597.85
577.32	8636.04
577.681	8725.99
578.042	8690.96
578.403	8666.33
578.763	8726.89
579.124	8710.62
579.485	8717.4
579.845	8774.35
580.206	8747.45
580.566	8812.54
580.927	8772.76
581.287	8819.54
581.648	8838.52
582.008	8848.02
582.368	8874
582.728	8969.14
583.089	8924.4
583.449	8893.89
583.809	8920.1
584.169	8968.24
584.529	8971.4
584.889	9017.95
585.249	9023.6
585.609	8988.58
585.969	9064.06
586.329	9023.83
586.688	8997.62
587.048	9028.58
587.408	9055.47
587.768	9055.02
588.127	9076.03
588.487	9140.21
588.846	9152.41
589.206	9088.24
589.565	9118.52
589.925	9242.36
590.284	9190.83
590.643	9240.77
591.003	9252.53
591.362	9269.25
591.721	9242.36
592.08	9221.34
592.44	9287.55
592.799	9226.99
593.158	9267.21
593.517	9266.08
593.876	9276.93
594.235	9266.31
594.593	9296.37
594.952	9373.43
595.311	9246.65
595.67	9330.26
596.029	9404.84
596.387	9332.75
596.746	9353.09
597.104	9384.05
597.463	9318.06
597.822	9404.84
598.18	9390.83
598.538	9353.99
598.897	9448
599.255	9341.34
599.613	9503.14
599.972	9430.6
600.33	9442.12
600.688	9406.65
601.046	9438.51
601.404	9469.69
601.762	9463.82
602.12	9430.6
602.478	9520.99
602.836	9471.95
603.194	9422.24
603.552	9478.96
603.91	9413.65
604.268	9497.26
604.625	9468.79
604.983	9514.67
605.341	9530.71
605.698	9529.81
606.056	9582.46
606.413	9580.43
606.771	9567.77
607.128	9568.67
607.485	9529.58
607.843	9538.85
608.2	9597.83
608.557	9611.16
608.914	9607.54
609.272	9568.9
609.629	9650.03
609.986	9722.34
610.343	9621.1
610.7	9713.53
611.057	9682.57
611.414	9659.29
611.771	9704.49
612.127	9704.94
612.484	9716.02
612.841	9700.2
613.198	9679.63
613.554	9670.14
613.911	9797.6
614.267	9698.16
614.624	9713.53
614.98	9781.55
615.337	9770.25
615.693	9780.87
616.05	9800.99
616.406	9820.42
616.762	9822.91
617.118	9819.74
617.475	9846.86
617.831	9825.62
618.187	9821.78
618.543	9866.52
618.899	9932.28
619.255	9860.64
619.611	9840.53
619.967	9928.44
620.323	9914.88
620.678	9882.34
621.034	9825.62
621.39	9890.47
621.746	9810.48
622.101	9975.22
622.457	9850.02
622.812	9904.03
623.168	9898.61
623.523	9864.03
623.879	9951.72
624.234	9925.5
624.589	9927.76
624.945	9876.92
625.3	9938.38
625.655	9902
626.01	9884.15
626.365	9912.62
626.72	9836.01
627.075	9922.34
627.43	9894.54
627.785	9803.7
628.14	9891.15
628.495	9901.77
628.85	9817.26
629.205	9845.96
629.559	9880.76
629.914	9828.33
630.269	9839.85
630.623	9790.36
630.978	9827.2
631.332	9769.57
631.687	9869.68
632.041	9801.89
632.396	9882.11
632.75	9774.77
633.104	9762.12
633.459	9750.59
633.813	9739.29
634.167	9737.48
634.521	9752.4
634.875	9788.33
635.229	9719.86
635.583	9684.38
635.937	9666.98
636.291	9708.56
636.645	9672.4
636.999	9601.89
637.352	9637.83
637.706	9652.29
638.06	9608.9
638.413	9571.61
638.767	9616.58
639.121	9617.49
639.474	9593.53
639.828	9499.3
640.181	9497.49
640.534	9528.68
640.888	9566.64
641.241	9469.92
641.594	9493.2
641.947	9493.65
642.301	9533.65
642.654	9514.89
643.007	9479.86
643.36	9457.49
643.713	9479.64
644.066	9522.35
644.419	9408.23
644.771	9333.88
645.124	9334.56
645.477	9308.79
645.83	9241
646.182	9176.37
646.535	9152.64
646.888	9115.58
647.24	9117.16
647.593	9142.47
647.945	9154.22
648.298	9118.07
648.65	9095.69
649.002	9113.77
649.355	9130.27
649.707	9135.69
650.059	9172.98
650.411	9275.58
650.763	9241.9
651.115	9364.84
651.467	9353.31
651.819	9329.81
652.171	9341.11
652.523	9288.91
652.875	9279.42
653.227	9243.94
653.578	9347.21
653.93	9331.62
654.282	9287.1
654.633	9295.69
654.985	9248.46
655.337	9316.93
655.688	9207.1
656.039	9331.17
656.391	9265.86
656.742	9302.02
657.094	9305.86
657.445	9402.8
657.796	9270.15
658.147	9329.13
658.498	9298.17
658.849	9325.97
659.2	9340.66
659.551	9275.35
659.902	9281.22
660.253	9284.39
660.604	9363.93
660.955	9293.65
661.306	9259.76
661.656	9339.08
662.007	9299.76
662.358	9352.41
662.708	9354.22
663.059	9318.96
663.409	9323.48
663.76	9337.95
664.11	9259.3
664.461	9310.38
664.811	9325.29
665.161	9294.11
665.511	9329.13
665.862	9375.69
666.212	9303.37
666.562	9349.02
666.912	9344.5
667.262	9322.35
667.612	9332.97
667.962	9358.51
668.312	9321.22
668.662	9368.45
669.011	9374.78
669.361	9263.37
669.711	9293.43
670.06	9301.34
670.41	9266.76
670.76	9224.73
671.109	9269.7
671.459	9205.97
671.808	9257.04
672.157	9229.93
672.507	9293.2
672.856	9205.97
673.205	9287.1
673.554	9316.03
673.904	9235.58
674.253	9240.77
674.602	9191.06
674.951	9131.4
675.3	9028.12
675.649	9194.67
675.998	9186.31
676.346	9241.9
676.695	9183.83
677.044	9159.87
677.393	9181.57
677.741	9117.16
678.09	9111.74
678.438	9125.97
678.787	9144.05
679.135	9090.95
679.484	9062.47
679.832	9092.98
680.181	9075.81
680.529	9048.24
680.877	9043.04
681.225	9008.69
681.573	9098.63
681.922	9021.34
682.27	8977.96
682.618	8978.41
682.966	8874.91
683.314	8926.66
683.661	8920.1
684.009	8889.14
684.357	8895.02
684.705	8859.99
685.053	8833.78
685.4	8896.6
685.748	8856.38
686.095	8866.09
686.443	8798.07
686.79	8720.11
687.138	8714.46
687.485	8749.04
687.832	8624.07
688.18	8714.01
688.527	8663.84
688.874	8622.26
689.221	8632.65
689.568	8532.54
689.915	8579.55
690.262	8585.88
690.609	8527.57
690.956	8473.11
691.303	8435.37
691.65	8427.46
691.997	8422.26
692.344	8335.94
692.69	8323.96
693.037	8338.42
693.383	8289.39
693.73	8231.76
694.077	8285.77
694.423	8270.18
694.769	8200.12
695.116	8213.68
695.462	8236.28
695.808	8143.85
696.155	8153.57
696.501	8086.45
696.847	8071.54
697.193	7984.99
697.539	8008.94
697.885	7979.56
698.231	7939.11
698.577	7927.14
698.923	7933.24
699.269	7841.26
699.614	7792
699.96	7835.61
700.306	7793.58
700.651	7775.28
700.997	7730.31
701.342	7701.38
701.688	7698.44
702.033	7621.61
702.379	7613.25
702.724	7594.04
703.069	7595.17
703.415	7436.75
703.76	7504.32
704.105	7493.7
704.45	7512.46
704.795	7440.14
705.14	7410.54
705.485	7452.12
705.83	7419.13
706.175	7366.02
706.52	7340.03
706.865	7311.56
707.209	7333.03
707.554	7319.02
707.899	7252.35
708.243	7259.81
708.588	7225.46
708.932	7196.99
709.277	7208.29
709.621	7120.38
709.966	7172.13
710.31	7108.85
710.654	7094.62
710.998	7092.36
711.342	7097.78
711.687	7049.87
712.031	7007.84
712.375	7008.52
712.719	7053.26
713.063	7049.87
713.407	7014.62
713.75	6982.53
714.094	6999.48
714.438	6933.94
714.782	6982.75
715.125	6904.79
715.469	6889.2
715.812	6926.26
716.156	6848.07
716.499	6891.23
716.843	6838.58
717.186	6855.53
717.53	6855.75
717.873	6869.31
718.216	6789.76
718.559	6794.51
718.902	6726.26
719.246	6807.84
719.589	6738.24
719.932	6768.3
720.275	6703.21
720.617	6724.23
720.96	6758.81
721.303	6729.88
721.646	6681.52
721.989	6648.98
722.331	6701.86
722.674	6677
723.016	6692.59
723.359	6688.98
723.701	6718.13
724.044	6695.53
724.386	6609.88
724.729	6683.78
725.071	6588.41
725.413	6657.34
725.755	6606.49
726.097	6613.27
726.439	6594.74
726.782	6615.31
727.124	6633.16
727.465	6632.48
727.807	6634.06
728.149	6585.02
728.491	6549.32
728.833	6542.99
729.175	6563.1
729.516	6573.27
729.858	6530.34
730.199	6585.93
730.541	6559.04
730.882	6574.86
731.224	6571.47
731.565	6540.96
731.906	6557.45
732.248	6533.95
732.589	6514.52
732.93	6514.07
733.271	6500.06
733.612	6528.08
733.953	6545.48
734.294	6473.16
734.635	6517.68
734.976	6510.68
735.317	6555.87
735.658	6465.48
735.999	6505.03
736.339	6478.59
736.68	6568.08
737.021	6513.61
737.361	6514.07
737.702	6535.99
738.042	6466.38
738.383	6551.35
738.723	6528.98
739.063	6561.07
739.404	6589.77
739.744	6541.18
740.084	6547.74
740.424	6602.65
740.764	6560.17
741.104	6564.69
741.444	6582.99
741.784	6589.77
742.124	6576.89
742.464	6571.47
742.804	6571.01
743.143	6628.19
743.483	6650.79
743.823	6624.35
744.162	6686.26
744.502	6671.35
744.841	6710.9
745.181	6785.25
745.52	6732.59
745.86	6753.38
746.199	6842.42
746.538	6812.14
746.877	6925.81
747.216	6890.55
747.556	6926.03
747.895	6946.82
748.234	6964.68
748.573	7028.63
748.911	7039.93
749.25	7111.34
749.589	7121.96
749.928	7198.57
750.267	7252.35
750.605	7374.38
750.944	7399.69
751.283	7401.73
751.621	7524.43
751.96	7526.24
752.298	7621.16
752.636	7672.91
752.975	7786.12
753.313	7797.2
753.651	7901.37
753.989	7991.54
754.327	8055.49
754.666	8183.4
755.004	8268.14
755.342	8416.16
755.679	8405.99
756.017	8541.58
756.355	8664.52
756.693	8751.52
757.031	8752.88
757.368	8957.84
757.706	9063.15
758.044	9088.69
758.381	9299.08
758.719	9404.16
759.056	9605.06
759.394	9613.65
759.731	9723.25
760.068	9805.5
760.405	9938.61
760.743	10130.02
761.08	10169.79
761.417	10288.2
761.754	10391.25
762.091	10533.85
762.428	10734.52
762.765	10731.36
763.102	10900.62
763.438	11078.92
763.775	11164.11
764.112	11194.39
764.449	11434.84
764.785	11449.98
765.122	11598
765.458	11614.04
765.795	11841.38
766.131	11965.45
766.467	12063.07
766.804	12184.43
767.14	12208.83
767.476	12332.44
767.812	12424.42
768.148	12579.9
768.485	12565.88
768.821	12665.54
769.157	12808.59
769.492	12965.65
769.828	13035.7
770.164	12970.17
770.5	13139.65
770.836	13141.69
771.171	13116.15
771.507	13337.39
771.842	13264.85
772.178	13462.81
772.513	13460.78
772.849	13608.79
773.184	13487.89
773.519	13737.38
773.855	13703.26
774.19	13736.93
774.525	13785.51
774.86	13816.02
775.195	13830.03
775.53	13851.27
775.865	13932.4
776.2	13907.54
776.535	13851.73
776.87	13964.04
777.205	14008.11
777.539	14000.65
777.874	14057.37
778.209	14055.34
778.543	14027.09
778.878	14061.21
779.212	14114.09
779.547	14126.52
779.881	14169.01
780.215	14049.69
780.55	14159.29
780.884	14103.92
781.218	14087.2
781.552	14093.08
781.886	14123.13
782.22	14067.09
782.554	14071.38
782.888	14049.01
783.222	14020.08
783.556	14021.89
783.889	13950.25
784.223	13959.75
784.557	13950.03
784.89	13999.29
785.224	13955.45
785.557	13976.69
785.891	13888.56
786.224	13887.21
786.558	13963.81
786.891	13823.25
787.224	13862.35
787.557	13880.43
787.891	13878.62
788.224	13877.04
788.557	13918.17
788.89	13847.88
789.223	13864.16
789.556	13748.9
789.888	13697.15
790.221	13675.01
790.554	13653.31
790.887	13560.89
791.219	13535.58
791.552	13527.44
791.884	13500.1
792.217	13575.8
792.549	13440.21
792.882	13446.77
793.214	13425.97
793.546	13399.76
793.879	13335.81
794.211	13338.07
794.543	13376.71
794.875	13362.02
795.207	13381.91
795.539	13365.64
795.871	13193.89
796.203	13161.57
796.535	13211.52
796.867	13127.45
797.198	13090.84
797.53	13087.23
797.862	12991.86
798.193	13052.43
798.525	12962.48
798.856	13047.45
799.188	12844.97
799.519	12858.76
799.85	12800.45
800.182	12749.38
800.513	12811.53
800.844	12741.02
801.175	12819.66
801.506	12815.6
801.837	12683.85
802.168	12634.58
802.499	12651.76
802.83	12609.05
803.161	12536.05
803.491	12539.44
803.822	12519.33
804.153	12474.14
804.483	12367.25
804.814	12390.97
805.145	12440.24
805.475	12350.75
805.805	12314.14
806.136	12324.53
806.466	12317.76
806.796	12256.97
807.126	12177.42
807.457	12115.5
807.787	12192.79
808.117	12111.88
808.447	12124.09
808.777	12199.34
809.107	12049.51
809.436	12081.6
809.766	12021.49
810.096	11972.68
810.426	11992.34
810.755	11935.62
811.085	11964.09
811.414	11925.45
811.744	11826.02
812.073	11793.48
812.403	11814.72
812.732	11757.54
813.061	11850.42
813.39	11713.03
813.719	11695.4
814.049	11808.62
814.378	11675.74
814.707	11595.74
815.036	11694.49
815.365	11592.35
815.693	11490.21
816.022	11533.82
816.351	11531.34
816.68	11439.59
817.008	11459.7
817.337	11392.58
817.665	11448.85
817.994	11420.15
818.322	11325.24
818.651	11330.66
818.979	11274.84
819.307	11344
819.636	11315.75
819.964	11281.17
820.292	11313.94
820.62	11175.64
820.948	11263.09
821.276	11293.38
821.604	11194.85
821.932	11243.66
822.259	11270.33
822.587	11232.36
822.915	11196.65
823.243	11170.89
823.57	11186.03
823.898	11274.62
824.225	11201.4
824.553	11203.21
824.88	11235.98
825.207	11220.61
825.535	11169.31
825.862	11219.7
826.189	11189.42
826.516	11256.31
826.843	11312.58
827.17	11187.84
827.497	11311
827.824	11266.03
828.151	11288.63
828.478	11232.81
828.805	11264
829.131	11276.88
829.458	11294.51
829.785	11166.6
830.111	11222.19
830.438	11261.06
830.764	11218.8
831.09	11348.06
831.417	11168.63
831.743	11286.82
832.069	11202.53
832.395	11227.84
832.722	11270.1
833.048	11171.57
833.374	11203.21
833.7	11141.97
834.026	11120.27
834.351	11228.74
834.677	11184.68
835.003	11153.49
835.329	11084.34
835.654	11094.74
835.98	11077.79
836.306	11057.22
836.631	11075.98
836.956	11060.16
837.282	11084.34
837.607	11059.48
837.932	10979.26
838.258	10995.98
838.583	10995.08
838.908	10936.32
839.233	10908.53
839.558	10929.77
839.883	10904.01
840.208	10847.74
840.533	10793.5
840.858	10831.47
841.182	10860.39
841.507	10881.63
841.832	10733.39
842.156	10756.44
842.481	10702.66
842.805	10754.41
843.13	10712.6
843.454	10700.62
843.778	10643.9
844.103	10611.59
844.427	10593.96
844.751	10584.69
845.075	10513.96
845.399	10495.66
845.723	10393.96
846.047	10496.33
846.371	10386.28
846.695	10433.28
847.019	10299.05
847.343	10320.29
847.666	10264.25
847.99	10194.65
848.313	10165.95
848.637	10112.16
848.96	10119.39
849.284	10141.54
849.607	9996.01
849.931	9931.15
850.254	9893.41
850.577	9855.22
850.9	9786.97
851.223	9753.08
851.546	9751.5
851.869	9686.86
852.192	9748.78
852.515	9669.01
852.838	9616.81
853.161	9578.84
853.483	9551.73
853.806	9536.36
854.129	9476.47
854.451	9517.38
854.774	9500.2
855.096	9409.36
855.419	9408.23
855.741	9403.71
856.063	9326.87
856.385	9252.53
856.708	9326.65
857.03	9275.8
857.352	9222.7
857.674	9140.66
857.996	9171.62
858.318	9116.26
858.64	9164.17
858.961	9105.41
859.283	8994.23
859.605	9017.73
859.926	9090.27
860.248	8993.1
860.57	9005.53
860.891	8949.26
861.212	8943.61
861.534	8905.87
861.855	8917.62
862.176	8879.43
862.498	8907.9
862.819	8938.64
863.14	8875.36
863.461	8832.88
863.782	8863.61
864.103	8835.81
864.424	8827.68
864.745	8726.21
865.065	8741.58
865.386	8716.27
865.707	8765.76
866.027	8677.4
866.348	8697.06
866.668	8767.11
866.989	8649.38
867.309	8583.84
867.63	8631.07
867.95	8664.07
868.27	8533.67
868.59	8621.81
868.91	8529.83
869.23	8564.18
869.55	8498.87
869.87	8597.4
870.19	8490.06
870.51	8544.3
870.83	8537.52
871.15	8467.69
871.469	8442.38
871.789	8405.54
872.109	8434.69
872.428	8357.41
872.748	8483.51
873.067	8447.57
873.386	8412.1
873.706	8386.56
874.025	8382.49
874.344	8258.88
874.663	8311.08
874.982	8304.08
875.301	8315.15
875.62	8307.24
875.939	8269.5
876.258	8298.2
876.577	8216.62
876.896	8266.56
877.214	8221.14
877.533	8240.35
877.852	8218.65
878.17	8179.33
878.489	8163.97
878.807	8165.55
879.125	8176.85
879.444	8130.29
879.762	8086.68
880.08	8103.4
880.398	8024.08
880.716	8086.68
881.034	8054.36
881.352	8071.99
881.67	8090.52
881.988	8062.27
882.306	7966.46
882.624	7950.19
882.941	7919.9
883.259	7942.5
883.577	7877.42
883.894	7871.09
884.212	7865.22
884.529	7842.62
884.846	7879
885.164	7822.73
885.481	7764.2
885.798	7814.14
886.115	7703.41
886.432	7714.26
886.75	7778.89
887.067	7741.38
887.383	7749.29
887.7	7654.83
888.017	7726.01
888.334	7647.6
888.651	7650.08
888.967	7614.83
889.284	7529.41
889.6	7577.77
889.917	7511.55
890.233	7527.82
890.55	7461.39
890.866	7490.31
891.182	7483.53
891.498	7435.62
891.815	7385.23
892.131	7361.95
892.447	7363.08
892.763	7314.27
893.079	7317.21
893.395	7334.16
893.71	7311.33
894.026	7262.07
894.342	7178.23
894.657	7176.87
894.973	7122.86
895.289	7187.04
895.604	7160.6
895.92	7119.7
896.235	7079.7
896.55	7080.38
896.865	7011.45
897.181	6980.27
897.496	6966.71
897.811	6981.4
898.126	6954.28
898.441	6934.85
898.756	6911.12
899.071	6879.71
899.386	6894.39
899.7	6854.85
900.015	6774.85
900.33	6735.53
900.644	6688.3
900.959	6721.97
901.273	6720.61
901.588	6663.44
901.902	6634.74
902.216	6616.89
902.531	6645.59
902.845	6586.83
903.159	6540.51
903.473	6529.21
903.787	6504.8
904.101	6483.78
904.415	6503.44
904.729	6444.24
905.042	6433.39
905.356	6373.28
905.67	6396.33
905.984	6361.3
906.297	6396.33
906.611	6267.52
906.924	6308.42
907.237	6259.84
907.551	6239.04
907.864	6209.89
908.177	6246.95
908.491	6130.8
908.804	6111.82
909.117	6129.67
909.43	6076.79
909.743	6105.04
910.056	6077.47
910.368	6009.9
910.681	6036.11
910.994	6029.33
911.307	5941.43
911.619	5937.81
911.932	5925.38
912.244	5905.27
912.557	5849.68
912.869	5821.43
913.181	5795.89
913.494	5784.59
913.806	5731.26
914.118	5738.04
914.43	5700.08
914.742	5694.65
915.054	5718.83
915.366	5629.34
915.678	5656.24
915.99	5628.89
916.302	5549.8
916.613	5578.05
916.925	5515
917.236	5534.66
917.548	5469.35
917.859	5475.22
918.171	5431.83
918.482	5397.49
918.794	5379.63
919.105	5395.45
919.416	5361.55
919.727	5332.63
920.038	5345.28
920.349	5270.71
920.66	5265.51
920.971	5245.4
921.282	5221.9
921.593	5167.66
921.903	5181.9
922.214	5168.34
922.525	5103.03
922.835	5112.07
923.146	5082.24
923.456	5099.41
923.767	5016.7
924.077	5039.98
924.387	4996.14
924.697	5001.34
925.008	5029.59
925.318	4950.27
925.628	4914.33
925.938	4901.23
926.248	4908.01
926.558	4901
926.867	4868.46
927.177	4840.89
927.487	4825.3
927.796	4798.4
928.106	4785.3
928.416	4703.72
928.725	4759.31
929.034	4722.25
929.344	4750.04
929.653	4690.61
929.962	4654.91
930.271	4601.35
930.581	4681.35
930.89	4594.34
931.199	4591.63
931.508	4537.62
931.817	4591.86
932.125	4513.44
932.434	4533.33
932.743	4491.97
933.051	4506.66
933.36	4457.85
933.669	4448.36
933.977	4423.95
934.286	4431.63
934.594	4433.67
934.902	4374.91
935.21	4353.22
935.519	4336.27
935.827	4361.13
936.135	4327.23
936.443	4302.15
936.751	4238.87
937.059	4303.95
937.367	4267.12
937.674	4247.91
937.982	4224.63
938.29	4169.27
938.597	4179.44
938.905	4164.3
939.213	4145.99
939.52	4122.26
939.827	4146.67
940.135	4118.2
940.442	4100.34
940.749	4053.57
941.056	4056.73
941.363	4009.95
941.67	4063.73
941.977	3989.61
942.284	3946.68
942.591	3946.22
942.898	3934.47
943.205	3929.05
943.511	3896.96
943.818	3876.62
944.125	3883.4
944.431	3865.1
944.738	3829.16
945.044	3804.31
945.35	3814.7
945.657	3782.61
945.963	3740.58
946.269	3777.19
946.575	3753.46
946.881	3727.92
947.187	3707.59
947.493	3670.3
947.799	3652.67
948.105	3632.33
948.41	3629.85
948.716	3615.84
949.022	3628.27
949.327	3615.61
949.633	3576.74
949.938	3561.83
950.244	3586.23
950.549	3508.5
950.854	3529.29
951.16	3517.31
951.465	3516.63
951.77	3511.66
952.075	3428.27
952.38	3458.78
952.685	3427.14
952.99	3439.8
953.294	3436.41
953.599	3372.45
953.904	3350.31
954.209	3322.74
954.513	3345.56
954.818	3341.95
955.122	3310.76
955.426	3307.14
955.731	3326.35
956.035	3261.95
956.339	3270.99
956.643	3275.73
956.948	3262.17
957.252	3226.02
957.556	3228.73
957.86	3185.57
958.163	3182.63
958.467	3174.49
958.771	3163.19
959.075	3164.55
959.378	3139.69
959.682	3148.96
959.985	3134.04
960.289	3107.15
960.592	3117.09
960.896	3075.74
961.199	3025.57
961.502	3068.05
961.805	3036.87
962.108	3021.73
962.411	2998.45
962.714	2995.97
963.017	2978.79
963.32	2998.23
963.623	2978.11
963.926	2961.39
964.228	2935.4
964.531	2939.24
964.833	2917.78
965.136	2902.41
965.438	2865.57
965.741	2892.47
966.043	2863.09
966.345	2845.69
966.648	2824.45
966.95	2842.3
967.252	2847.04
967.554	2793.94
967.856	2755.29
968.158	2749.42
968.46	2765.01
968.761	2776.09
969.063	2721.62
969.365	2718.23
969.666	2734.28
969.968	2666.26
970.269	2725.01
970.571	2723.66
970.872	2675.07
971.174	2670.55
971.475	2668.97
971.776	2626.71
972.077	2615.86
972.378	2631.68
972.679	2626.71
972.98	2604.56
973.281	2598.01
973.582	2576.09
973.883	2564.34
974.183	2518.01
974.484	2547.84
974.785	2535.87
975.085	2563.44
975.386	2487.51
975.686	2492.7
975.986	2472.36
976.287	2492.7
976.587	2446.15
976.887	2461.74
977.187	2427.17
977.487	2443.44
977.787	2446.6
978.087	2421.07
978.387	2406.15
978.687	2385.36
978.987	2381.97
979.286	2393.95
979.586	2380.84
979.885	2361.18
980.185	2330.22
980.484	2292.71
980.784	2293.61
981.083	2304.23
981.382	2302.65
981.682	2279.83
981.981	2282.54
982.28	2269.43
982.579	2306.04
982.878	2252.26
983.177	2257.45
983.475	2242.77
983.774	2230.79
984.073	2221.3
984.372	2204.35
984.67	2181.75
984.969	2208.87
985.267	2189.43
985.566	2186.72
985.864	2150.34
986.162	2147.18
986.461	2143.56
986.759	2121.41
987.057	2095.2
987.355	2088.19
987.653	2112.6
987.951	2110.57
988.249	2125.25
988.547	2042.77
988.844	2048.42
989.142	2065.82
989.44	2041.42
989.737	2039.83
990.035	2038.25
990.332	2014.52
990.63	2017.01
990.927	1976.33
991.224	2003.22
991.521	1997.8
991.819	1945.15
992.116	1974.98
992.413	1976.11
992.71	1976.11
993.006	1946.28
993.303	1944.24
993.6	1929.33
993.897	1904.24
994.193	1911.93
994.49	1915.32
994.787	1870.12
995.083	1888.88
995.379	1846.39
995.676	1874.41
995.972	1840.74
996.268	1814.53
996.565	1821.31
996.861	1821.99
997.157	1805.72
997.453	1810.91
997.749	1805.94
998.044	1783.57
998.34	1780.63
998.636	1754.64
998.932	1762.1
999.227	1757.81
999.523	1748.77
999.818	1737.02
1000.114	1727.07
1000.409	1727.75
1000.704	1719.84
1001	1730.91
1001.295	1704.93
1001.59	1691.14
1001.885	1645.27
1002.18	1696.34
1002.475	1646.62
1002.77	1630.8
1003.065	1646.17
1003.359	1621.31
1003.654	1649.79
1003.949	1637.81
1004.243	1621.77
1004.538	1578.6
1004.832	1590.81
1005.127	1582.44
1005.421	1591.03
1005.715	1555.78
1006.009	1568.66
1006.304	1566.63
1006.598	1567.76
1006.892	1522.78
1007.186	1490.47
1007.48	1506.06
1007.773	1519.17
1008.067	1479.85
1008.361	1483.92
1008.655	1499.96
1008.948	1458.61
1009.242	1454.31
1009.535	1478.27
1009.829	1427.19
1010.122	1468.77
1010.415	1455.89
1010.708	1428.1
1011.001	1422
1011.295	1410.47
1011.588	1410.47
1011.881	1397.14
1012.173	1413.41
1012.466	1388.1
1012.759	1365.27
1013.052	1340.64
1013.344	1362.79
1013.637	1333.41
1013.93	1343.81
1014.222	1298.38
1014.514	1331.6
1014.807	1322.79
1015.099	1284.15
1015.391	1296.12
1015.683	1291.83
1015.976	1273.53
1016.268	1290.47
1016.56	1245.05
1016.851	1246.18
1017.143	1264.94
1017.435	1234.43
1017.727	1224.04
1018.018	1261.32
1018.31	1234.2
1018.602	1230.82
1018.893	1202.34
1019.185	1205.96
1019.476	1187.65
1019.767	1216.58
1020.058	1208.22
1020.35	1202.12
1020.641	1159.86
1020.932	1185.84
1021.223	1173.42
1021.514	1148.11
1021.804	1135.45
1022.095	1143.13
1022.386	1137.71
1022.677	1128.22
1022.967	1116.02
1023.258	1102
1023.548	1109.24
1023.839	1099.75
1024.129	1070.14
1024.419	1078.28
1024.709	1073.53
1025	1079.63
1025.29	1071.72
1025.58	1055.45
1025.87	1054.55
1026.16	1035.11
1026.449	1002.8
1026.739	1041.67
1027.029	1017.04
1027.319	1013.87
1027.608	1026.53
1027.898	1028.56
1028.187	1005.74
1028.477	997.83
1028.766	973.42
1029.055	996.02
1029.344	1005.06
1029.634	977.04
1029.923	962.57
1030.212	952.18
1030.501	971.39
1030.79	932.07
1031.078	923.25
1031.367	953.99
1031.656	928.45
1031.945	923.25
1032.233	926.64
1032.522	915.57
1032.81	913.54
1033.099	909.92
1033.387	910.6
1033.675	902.24
1033.963	891.84
1034.251	912.18
1034.54	885.74
1034.828	890.94
1035.116	845.06
1035.403	860.2
1035.691	865.4
1035.979	853.2
1036.267	855.91
1036.554	837.83
1036.842	831.73
1037.129	833.54
1037.417	819.3
1037.704	814.55
1037.992	790.83
1038.279	801.67
1038.566	834.44
1038.853	834.44
1039.14	834.44
