Data from hue_150_FLMS001491_00086.txt Node
Date: Tue Feb 07 16:54:39 GMT 2017
User: dcchb
Spectrometer: FLMS00149
Trigger mode: 0
Integration Time (sec): 2.000000E-2
Scans to average: 10
Electric dark correction enabled: true
Nonlinearity correction enabled: false
Boxcar width: 0
XAxis mode: Wavelengths
Number of Pixels in Spectrum: 2048
>>>>>Begin Spectral Data<<<<<
341.393	-17.44
341.776	-17.44
342.16	-17.44
342.543	-63.32
342.927	-56.31
343.31	-55.86
343.693	-62.87
344.077	-88.85
344.46	-65.35
344.843	-52.24
345.226	-52.92
345.61	-26.71
345.993	-38.01
346.376	10.58
346.759	8.77
347.142	20.52
347.525	41.31
347.908	70.46
348.291	70.01
348.674	93.97
349.057	127.19
349.44	132.84
349.823	132.38
350.206	160.18
350.588	190.46
350.971	210.35
351.354	218.26
351.737	236.79
352.119	252.61
352.502	255.77
352.884	266.17
353.267	288.99
353.65	281.76
354.032	291.7
354.414	298.48
354.797	327.41
355.179	332.83
355.562	300.29
355.944	332.6
356.326	325.15
356.709	332.38
357.091	335.09
357.473	344.58
357.855	335.77
358.238	334.41
358.62	336.67
359.002	352.26
359.384	332.83
359.766	315.66
360.148	350.91
360.53	348.65
360.912	333.96
361.294	325.82
361.676	322.44
362.057	329.67
362.439	356.78
362.821	342.55
363.203	329.44
363.584	322.66
363.966	315.43
364.348	311.59
364.729	326.28
365.111	315.43
365.493	315.66
365.874	314.53
366.256	330.57
366.637	305.26
367.019	304.81
367.4	304.81
367.781	301.64
368.163	317.46
368.544	308.2
368.925	319.5
369.306	321.53
369.688	301.19
370.069	307.75
370.45	314.75
370.831	323.34
371.212	313.4
371.593	304.36
371.974	321.98
372.355	321.76
372.736	307.97
373.117	321.76
373.498	310.91
373.879	328.54
374.26	331.25
374.641	320.63
375.021	305.03
375.402	310.68
375.783	315.43
376.163	317.24
376.544	313.17
376.925	344.13
377.305	321.08
377.686	330.34
378.066	337.8
378.447	344.36
378.827	352.04
379.208	330.8
379.588	333.28
379.968	319.05
380.349	347.97
380.729	330.12
381.109	368.31
381.489	324.69
381.87	342.55
382.25	348.2
382.63	341.19
383.01	341.42
383.39	342.1
383.77	348.65
384.15	336.45
384.53	332.15
384.91	368.08
385.29	352.72
385.67	339.61
386.049	347.97
386.429	366.05
386.809	362.66
387.189	363.79
387.568	353.62
387.948	361.3
388.328	361.53
388.707	374.64
389.087	343.9
389.466	359.72
389.846	365.37
390.225	383
390.605	372.15
390.984	361.3
391.363	371.7
391.743	380.74
392.122	368.08
392.501	386.84
392.881	376.9
393.26	369.67
393.639	386.39
394.018	368.08
394.397	359.95
394.776	401.53
395.155	386.84
395.534	384.58
395.913	399.27
396.292	401.3
396.671	393.62
397.05	375.77
397.429	392.49
397.808	379.61
398.186	394.3
398.565	392.04
398.944	421.42
399.323	394.07
399.701	404.92
400.08	411.25
400.458	390
400.837	420.96
401.215	425.03
401.594	432.26
401.972	406.73
402.351	414.18
402.729	394.75
403.107	411.92
403.486	426.84
403.864	428.65
404.242	443.34
404.62	455.54
404.999	436.1
405.377	428.42
405.755	436.78
406.133	441.98
406.511	459.15
406.889	422.55
407.267	453.51
407.645	455.76
408.023	444.92
408.401	453.96
408.779	446.5
409.156	462.09
409.534	448.08
409.912	473.84
410.29	487.4
410.667	449.21
411.045	479.04
411.422	484.24
411.8	486.27
412.178	493.5
412.555	485.59
412.933	507.74
413.31	498.25
413.687	515.2
414.065	510
414.442	508.42
414.819	499.83
415.197	535.31
415.574	515.88
415.951	520.85
416.328	541.64
416.705	505.71
417.082	525.37
417.46	530.57
417.837	545.48
418.214	551.58
418.591	531.92
418.967	530.79
419.344	519.04
419.721	551.81
420.098	547.29
420.475	582.09
420.852	554.52
421.228	571.02
421.605	557.91
421.982	571.02
422.358	585.7
422.735	559.26
423.111	613.73
423.488	598.81
423.864	575.54
424.241	592.71
424.617	597.91
424.994	614.4
425.37	618.7
425.746	600.39
426.123	621.86
426.499	628.64
426.875	620.05
427.251	621.18
427.627	629.55
428.003	634.97
428.379	634.74
428.756	646.04
429.132	678.81
429.507	667.74
429.883	683.1
430.259	667.28
430.635	670.45
431.011	700.96
431.387	685.36
431.763	706.38
432.138	703.67
432.514	731.01
432.89	697.79
433.265	737.11
433.641	737.79
434.016	725.59
434.392	723.78
434.767	740.28
435.143	761.75
435.518	753.61
435.894	763.78
436.269	776.43
436.644	787.73
437.02	784.8
437.395	787.28
437.77	804.46
438.145	814.85
438.52	806.94
438.895	825.7
439.271	838.13
439.646	835.19
440.021	863.44
440.395	865.47
440.77	851.01
441.145	848.3
441.52	879.93
441.895	877.67
442.27	881.97
442.645	867.05
443.019	902.31
443.394	895.3
443.769	912.48
444.143	922.87
444.518	932.14
444.892	933.49
445.267	929.42
445.641	933.27
446.016	931.46
446.39	922.19
446.764	936.2
447.139	966.26
447.513	966.03
447.887	967.84
448.262	975.53
448.636	978.24
449.01	975.75
449.384	992.25
449.758	1004.23
450.132	999.71
450.506	1031.57
450.88	1005.81
451.254	1019.37
451.628	1011.68
452.002	1051
452.376	1043.32
452.75	1078.57
453.123	1053.72
453.497	1093.04
453.871	1109.76
454.244	1088.97
454.618	1155.18
454.992	1125.58
455.365	1125.8
455.739	1160.15
456.112	1161.51
456.486	1206.03
456.859	1187.72
457.232	1196.54
457.606	1224.78
457.979	1199.25
458.352	1270.88
458.725	1269.53
459.099	1270.66
459.472	1265.24
459.845	1323.31
460.218	1340.04
460.591	1350.43
460.964	1363.54
461.337	1373.03
461.71	1389.75
462.083	1384.78
462.456	1417.77
462.829	1419.36
463.201	1466.59
463.574	1467.26
463.947	1509.97
464.32	1535.96
464.692	1540.48
465.065	1572.35
465.438	1592.01
465.81	1591.1
466.183	1625.9
466.555	1638.11
466.928	1633.36
467.3	1688.05
467.672	1711.78
468.045	1731.89
468.417	1742.06
468.789	1784.54
469.161	1813.7
469.534	1858.44
469.906	1876.52
470.278	1907.7
470.65	1946.57
471.022	1964.43
471.394	2026.12
471.766	2067.02
472.138	2088.72
472.51	2128.04
472.882	2181.14
473.253	2208.71
473.625	2257.98
473.997	2306.34
474.369	2323.29
474.74	2360.57
475.112	2454.36
475.484	2484.64
475.855	2530.96
476.227	2583.84
476.598	2669.49
476.97	2742.94
477.341	2775.48
477.713	2868.36
478.084	2875.14
478.455	2970.28
478.827	3062.48
479.198	3128.69
479.569	3153.32
479.94	3275.13
480.311	3374.78
480.682	3454.56
481.053	3584.72
481.424	3663.82
481.795	3761.44
482.166	3815.45
482.537	3937.71
482.908	4059.51
483.279	4109.45
483.65	4248.43
484.021	4320.75
484.391	4429.9
484.762	4512.83
485.133	4614.98
485.503	4762.32
485.874	4855.42
486.244	4988.98
486.615	5126.6
486.985	5211.8
487.356	5369.76
487.726	5486.37
488.097	5634.39
488.467	5635.29
488.837	5867.6
489.207	5970.87
489.578	6177.2
489.948	6289.06
490.318	6425.78
490.688	6462.16
491.058	6605.21
491.428	6794.13
491.798	6881.36
492.168	7143.27
492.538	7154.12
492.908	7321.35
493.278	7475.02
493.648	7524.05
494.017	7728.57
494.387	7896.47
494.757	7974.89
495.126	8063.7
495.496	8188.89
495.866	8296.24
496.235	8387.53
496.605	8521.99
496.974	8591.14
497.344	8798.6
497.713	8878.37
498.082	9008.31
498.452	9054.86
498.821	9169.21
499.19	9232.03
499.559	9407.17
499.928	9483.32
500.298	9611.23
500.667	9676.31
501.036	9798.34
501.405	9971.22
501.774	9970.99
502.143	10087.83
502.512	10142.74
502.88	10249.86
503.249	10280.14
503.618	10458.44
503.987	10447.59
504.356	10579.34
504.724	10677.64
505.093	10697.76
505.462	10669.28
505.83	10839.67
506.199	10917.64
506.567	11078.08
506.936	11088.25
507.304	11210.51
507.672	11269.49
508.041	11253
508.409	11447.79
508.777	11520.33
509.145	11554.46
509.514	11563.72
509.882	11683.72
510.25	11615.25
510.618	11763.94
510.986	11761.91
511.354	11847.1
511.722	11980.43
512.09	12108.79
512.458	12096.36
512.826	12176.81
513.193	12176.59
513.561	12113.99
513.929	12262.46
514.297	12393.98
514.664	12484.83
515.032	12452.06
515.4	12500.87
515.767	12502
516.135	12551.27
516.502	12433.98
516.869	12729.11
517.237	12700.19
517.604	12670.13
517.972	12767.31
518.339	12878.04
518.706	12831.26
519.073	12772.96
519.44	12849.79
519.808	12975.89
520.175	12969.33
520.542	13090.01
520.909	13057.47
521.276	13098.82
521.643	13069.44
522.009	13226.5
522.376	13299.95
522.743	13223.34
523.11	13326.84
523.477	13385.14
523.843	13420.62
524.21	13451.13
524.577	13543.56
524.943	13597.11
525.31	13551.47
525.676	13616.55
526.043	13640.95
526.409	13647.28
526.776	13806.83
527.142	13734.96
527.508	13760.27
527.874	13867.16
528.241	13890.89
528.607	13757.11
528.973	13951.46
529.339	13917.11
529.705	13914.39
530.071	13909.2
530.437	13948.07
530.803	13972.25
531.169	13852.7
531.535	13878.24
531.901	13895.41
532.267	13955.75
532.632	13857.45
532.998	13952.36
533.364	14027.61
533.73	13978.12
534.095	14011.34
534.461	13897.45
534.826	13938.57
535.192	13922.3
535.557	14030.32
535.923	13931.57
536.288	13899.71
536.653	13885.69
537.019	13757.56
537.384	13828.75
537.749	13864.45
538.114	13837.56
538.479	13740.84
538.845	13773.15
539.21	13715.3
539.575	13725.92
539.94	13647.96
540.305	13737.9
540.67	13590.11
541.034	13642.08
541.399	13641.63
541.764	13599.15
542.129	13584.01
542.494	13499.72
542.858	13506.72
543.223	13450.9
543.587	13508.75
543.952	13476.89
544.316	13433.28
544.681	13392.6
545.045	13437.34
545.41	13413.84
545.774	13361.41
546.138	13343.34
546.503	13268.54
546.867	13166.62
547.231	13284.81
547.595	13161.65
547.959	13173.4
548.324	13144.92
548.688	13082.78
549.052	13052.27
549.416	13026.51
549.779	13014.76
550.143	13013.17
550.507	13093.4
550.871	13049.78
551.235	13005.04
551.599	12946.96
551.962	12956.91
552.326	12987.64
552.689	13026.96
553.053	12854.99
553.417	12928.88
553.78	12987.19
554.143	12859.28
554.507	12829.68
554.87	12876.91
555.234	12878.04
555.597	12735.22
555.96	12819.96
556.323	12796.68
556.686	12814.76
557.05	12823.58
557.413	12767.53
557.776	12791.71
558.139	12777.25
558.502	12773.86
558.865	12736.12
559.228	12808.66
559.59	12876.91
559.953	12774.54
560.316	12843.69
560.679	12832.16
561.041	12815.67
561.404	12807.76
561.767	12857.47
562.129	12728.44
562.492	12927.75
562.854	12862.44
563.217	12879.84
563.579	12822.67
563.941	12986.28
564.304	12943.8
564.666	12996.23
565.028	13016.11
565.39	12902.9
565.753	13110.12
566.115	12991.03
566.477	12999.84
566.839	13087.98
567.201	13054.3
567.563	13007.53
567.925	13102.44
568.287	13002.33
568.648	13035.55
569.01	13054.08
569.372	13141.53
569.734	13097.01
570.095	13145.83
570.457	13112.16
570.819	13238.03
571.18	13083.91
571.542	13211.14
571.903	13217.69
572.265	13295.65
572.626	13253.85
572.987	13258.82
573.349	13270.34
573.71	13335.2
574.071	13358.48
574.432	13316.9
574.794	13395.76
575.155	13410.23
575.516	13358.25
575.877	13403
576.238	13375.43
576.599	13402.54
576.96	13353.73
577.32	13362.32
577.681	13370.45
578.042	13438.25
578.403	13459.94
578.763	13414.75
579.124	13398.93
579.485	13501.98
579.845	13484.8
580.206	13432.6
580.566	13394.63
580.927	13480.73
581.287	13475.31
581.648	13406.61
582.008	13559.15
582.368	13473.5
582.728	13461.75
583.089	13495.87
583.449	13428.08
583.809	13435.99
584.169	13445.03
584.529	13280.06
584.889	13507.85
585.249	13377.23
585.609	13375.88
585.969	13380.4
586.329	13429.21
586.688	13384.92
587.048	13340.17
587.408	13409.32
587.768	13332.94
588.127	13310.12
588.487	13259.04
588.846	13365.48
589.206	13306.95
589.565	13270.34
589.925	13346.73
590.284	13266.5
590.643	13227.18
591.003	13288.65
591.362	13380.62
591.721	13295.88
592.08	13308.76
592.44	13278.03
592.799	13255.2
593.158	13191.93
593.517	13282.77
593.876	13278.25
594.235	13156.22
594.593	13297.69
594.952	13212.72
595.311	13258.82
595.67	13195.54
596.029	13332.71
596.387	13331.81
596.746	13350.12
597.104	13200.06
597.463	13197.35
597.822	13274.41
598.18	13247.29
598.538	13217.46
598.897	13246.39
599.255	13145.15
599.613	13306.73
599.972	13206.62
600.33	13213.62
600.688	13135.88
601.046	13175.88
601.404	13255.43
601.762	13168.42
602.12	13243.45
602.478	13308.53
602.836	13336.56
603.194	13157.13
603.552	13110.12
603.91	13205.26
604.268	13206.16
604.625	13148.09
604.983	13214.75
605.341	13141.53
605.698	13298.37
606.056	13253.17
606.413	13290.23
606.771	13239.38
607.128	13259.72
607.485	13233.28
607.843	13217.69
608.2	13268.08
608.557	13264.24
608.914	13335.65
609.272	13350.79
609.629	13297.69
609.986	13400.51
610.343	13287.52
610.7	13388.98
611.057	13373.62
611.414	13381.75
611.771	13350.79
612.127	13421.75
612.484	13422.43
612.841	13421.53
613.198	13300.4
613.554	13406.38
613.911	13483.44
614.267	13452.26
614.624	13379.27
614.98	13449.77
615.337	13550.79
615.693	13468.98
616.05	13506.27
616.406	13605.7
616.762	13540.39
617.118	13501.07
617.475	13508.75
617.831	13578.58
618.187	13568.41
618.543	13581.97
618.899	13591.69
619.255	13648.19
619.611	13644.57
619.967	13654.97
620.323	13659.71
620.678	13630.56
621.034	13540.62
621.39	13666.72
621.746	13537.23
622.101	13741.07
622.457	13557.57
622.812	13641.86
623.168	13662.88
623.523	13628.3
623.879	13659.26
624.234	13618.81
624.589	13667.85
624.945	13675.3
625.3	13709.65
625.655	13582.2
626.01	13649.32
626.365	13656.1
626.72	13590.11
627.075	13604.35
627.43	13640.05
627.785	13625.36
628.14	13621.07
628.495	13673.27
628.85	13525.03
629.205	13529.32
629.559	13634.18
629.914	13518.02
630.269	13592.14
630.623	13569.54
630.978	13495.2
631.332	13640.5
631.687	13602.54
632.041	13555.08
632.396	13498.59
632.75	13467.85
633.104	13480.73
633.459	13358.48
633.813	13515.31
634.167	13428.98
634.521	13410.9
634.875	13412.26
635.229	13350.34
635.583	13356.44
635.937	13363.22
636.291	13317.8
636.645	13316.67
636.999	13280.51
637.352	13287.07
637.706	13303.79
638.06	13269.67
638.413	13191.48
638.767	13207.07
639.121	13219.95
639.474	13075.77
639.828	13113.51
640.181	13138.14
640.534	13215.88
640.888	13147.41
641.241	13062.21
641.594	13166.17
641.947	13162.78
642.301	13084.81
642.654	13060.86
643.007	13152.15
643.36	13071.93
643.713	13085.49
644.066	13164.36
644.419	13097.47
644.771	12895.44
645.124	12892.27
645.477	12864.48
645.83	12759.4
646.182	12698.15
646.535	12614.77
646.888	12633.3
647.24	12584.49
647.593	12594.43
647.945	12638.72
648.298	12570.02
648.65	12611.15
649.002	12535.67
649.355	12656.8
649.707	12569.57
650.059	12685.73
650.411	12820.41
650.763	12727.53
651.115	12959.84
651.467	12909.22
651.819	12951.03
652.171	12887.98
652.523	12750.13
652.875	12835.33
653.227	12810.24
653.578	12886.4
653.93	12826.51
654.282	12704.03
654.633	12757.14
654.985	12846.85
655.337	12761.2
655.688	12794.2
656.039	12874.2
656.391	12714.65
656.742	12819.96
657.094	12746.29
657.445	12789.68
657.796	12751.71
658.147	12791.49
658.498	12829.68
658.849	12814.31
659.2	12802.11
659.551	12748.77
659.902	12825.84
660.253	12771.6
660.604	12877.81
660.955	12769.79
661.306	12843.69
661.656	12774.54
662.007	12859.73
662.358	12881.43
662.708	12797.81
663.059	12807.08
663.409	12753.07
663.76	12859.05
664.11	12899.51
664.461	12819.06
664.811	12847.08
665.161	12843.91
665.511	12835.33
665.862	12856.12
666.212	12930.01
666.562	12791.26
666.912	12892.95
667.262	12804.59
667.612	12806.63
667.962	12903.8
668.312	12775.44
668.662	12918.04
669.011	12890.24
669.361	12753.75
669.711	12846.17
670.06	12888.88
670.41	12801.2
670.76	12765.95
671.109	12803.69
671.459	12698.61
671.808	12776.34
672.157	12822.22
672.507	12722.11
672.856	12763.92
673.205	12772.96
673.554	12748.55
673.904	12732.05
674.253	12770.92
674.602	12836
674.951	12487.09
675.3	12514.43
675.649	12650.02
675.998	12737.93
676.346	12636.24
676.695	12733.63
677.044	12554.66
677.393	12605.73
677.741	12727.31
678.09	12564.15
678.438	12550.36
678.787	12585.16
679.135	12610.25
679.484	12499.06
679.832	12549.68
680.181	12490.48
680.529	12530.93
680.877	12412.74
681.225	12462.23
681.573	12502.91
681.922	12400.31
682.27	12441.89
682.618	12414.55
682.966	12362.8
683.314	12435.56
683.661	12299.3
684.009	12266.53
684.357	12212.07
684.705	12207.32
685.053	12209.58
685.4	12212.52
685.748	12152.41
686.095	12102.46
686.443	12109.7
686.79	12036.7
687.138	12091.62
687.485	11982.69
687.832	12059.3
688.18	11980.89
688.527	11969.36
688.874	11899.53
689.221	11854.56
689.568	11829.48
689.915	11830.16
690.262	11849.82
690.609	11777.73
690.956	11812.08
691.303	11757.84
691.65	11644.4
691.997	11584.96
692.344	11520.33
692.69	11568.02
693.037	11465.42
693.383	11475.59
693.73	11470.84
694.077	11476.94
694.423	11320.34
694.769	11339.77
695.116	11308.13
695.462	11259.32
695.808	11230.4
696.155	11249.61
696.501	11197.63
696.847	11158.76
697.193	11061.59
697.539	11130.29
697.885	10987.01
698.231	11020.01
698.577	10953.79
698.923	10924.64
699.269	10904.53
699.614	10812.55
699.96	10822.5
700.306	10767.58
700.651	10792.67
700.997	10687.59
701.342	10624.76
701.688	10615.95
702.033	10549.96
702.379	10561.04
702.724	10531.88
703.069	10539.79
703.415	10387.93
703.76	10452.79
704.105	10429.74
704.45	10390.87
704.795	10341.83
705.14	10288.05
705.485	10266.81
705.83	10202.18
706.175	10185.68
706.52	10120.82
706.865	10060.94
707.209	10102.52
707.554	10115.4
707.899	9992.01
708.243	10044.89
708.588	9996.76
708.932	9985.23
709.277	9916.08
709.621	9989.07
709.966	9893.93
710.31	9893.03
710.654	9787.5
710.998	9888.96
711.342	9829.3
711.687	9801.96
712.031	9769.87
712.375	9747.27
712.719	9700.27
713.063	9646.94
713.407	9700.95
713.75	9682.19
714.094	9591.57
714.438	9626.15
714.782	9585.69
715.125	9545.47
715.469	9592.25
715.812	9524
716.156	9493.72
716.499	9531.01
716.843	9492.14
717.186	9430.67
717.53	9458.24
717.873	9473.61
718.216	9480.39
718.559	9426.15
718.902	9322.65
719.246	9409.43
719.589	9343.67
719.932	9287.62
720.275	9296.89
720.617	9272.93
720.96	9250.56
721.303	9231.81
721.646	9285.36
721.989	9205.37
722.331	9247.85
722.674	9262.54
723.016	9233.61
723.359	9185.93
723.701	9246.95
724.044	9140.73
724.386	9108.19
724.729	9143.45
725.071	9135.54
725.413	9138.7
725.755	9088.08
726.097	9117.46
726.439	8964.24
726.782	9051.47
727.124	9117.23
727.465	8985.71
727.807	9071.36
728.149	8986.61
728.491	9037.91
728.833	9024.81
729.175	8961.76
729.516	8996.33
729.858	9015.09
730.199	8996.56
730.541	9032.71
730.882	8984.58
731.224	9046.27
731.565	8938.71
731.906	8969.67
732.248	9007.63
732.589	8922.43
732.93	8988.87
733.271	8955.43
733.612	8947.07
733.953	8969.67
734.294	8902.77
734.635	8944.58
734.976	9015.99
735.317	8951.59
735.658	8964.24
735.999	9015.54
736.339	8956.56
736.68	9013.05
737.021	8996.78
737.361	8927.41
737.702	9030.23
738.042	8999.72
738.383	9051.25
738.723	8968.76
739.063	8947.97
739.404	9017.57
739.744	8985.26
740.084	8981.87
740.424	9007.86
740.764	8993.85
741.104	9067.52
741.444	8990.68
741.784	9004.24
742.124	9108.64
742.464	9051.25
742.804	9049.66
743.143	9082.43
743.483	9129.66
743.823	9127.85
744.162	9198.36
744.502	9125.37
744.841	9110
745.181	9225.03
745.52	9257.79
745.86	9271.13
746.199	9244.91
746.538	9325.14
746.877	9445.81
747.216	9405.59
747.556	9446.49
747.895	9451.69
748.234	9507.05
748.573	9558.8
748.911	9588.41
749.25	9679.7
749.589	9688.74
749.928	9815.74
750.267	9847.16
750.605	9826.14
750.944	9908.62
751.283	9993.82
751.621	10182.06
751.96	10174.38
752.298	10265.22
752.636	10376.63
752.975	10394.71
753.313	10487.14
753.651	10641.49
753.989	10707.47
754.327	10787.7
754.666	10840.58
755.004	11001.48
755.342	11172.55
755.679	11176.39
756.017	11264.07
756.355	11448.92
756.693	11586.55
757.031	11649.14
757.368	11822.02
757.706	11994.44
758.044	12012.75
758.381	12244.38
758.719	12336.13
759.056	12428.78
759.394	12595.33
759.731	12653.41
760.068	12905.61
760.405	12953.52
760.743	13101.53
761.08	13250.23
761.417	13411.58
761.754	13594.18
762.091	13758.92
762.428	13875.07
762.765	13982.19
763.102	14174.95
763.438	14302.86
763.775	14421.95
764.112	14578.33
764.449	14843.86
764.785	14962.5
765.122	14997.3
765.458	15106.68
765.795	15278.43
766.131	15481.13
766.467	15583.5
766.804	15694.69
767.14	15853.1
767.476	16025.3
767.812	16094.22
768.148	16268.68
768.485	16244.28
768.821	16434.55
769.157	16459.19
769.492	16569.69
769.828	16795.67
770.164	16768.56
770.5	16979.62
770.836	17035.22
771.171	17115.89
771.507	17125.61
771.842	17159.73
772.178	17309.33
772.513	17423.68
772.849	17483.57
773.184	17516.79
773.519	17672.94
773.855	17688.53
774.19	17678.59
774.525	17837.68
774.86	17912.93
775.195	17891.46
775.53	17986.15
775.865	17961.29
776.2	17941.63
776.535	17994.74
776.87	18087.62
777.205	18000.39
777.539	17952.71
777.874	18248.52
778.209	18077.22
778.543	18132.14
778.878	18173.04
779.212	18264.56
779.547	18253.49
779.881	18290.78
780.215	18231.12
780.55	18290.1
780.884	18286.26
781.218	18365.8
781.552	18333.49
781.886	18375.29
782.22	18377.1
782.554	18322.19
782.888	18110.89
783.222	18240.38
783.556	18124.23
783.889	18255.3
784.223	18132.14
784.557	18161.29
784.89	18173.94
785.224	18141.4
785.557	18090.33
785.891	18048.75
786.224	18056.43
786.558	18082.87
786.891	17862.76
787.224	17973.5
787.557	17856.66
787.891	18028.41
788.224	17955.64
788.557	17906.83
788.89	18050.1
789.223	17921.29
789.556	17748.19
789.888	17813.27
790.221	17875.19
790.554	17646.73
790.887	17775.31
791.219	17597.46
791.552	17579.83
791.884	17684.46
792.217	17566.5
792.549	17471.81
792.882	17486.5
793.214	17356.79
793.546	17463
793.879	17370.57
794.211	17319.5
794.543	17336.22
794.875	17233.63
795.207	17343.46
795.539	17246.74
795.871	17176
796.203	17122.22
796.535	17012.84
796.867	17022.33
797.198	16900.76
797.53	17023.69
797.862	16856.24
798.193	16948.21
798.525	16825.05
798.856	16827.54
799.188	16670.25
799.519	16643.81
799.85	16583.48
800.182	16564.95
800.513	16617.37
800.844	16524.49
801.175	16609.92
801.506	16545.74
801.837	16487.89
802.168	16453.31
802.499	16396.81
802.83	16324.95
803.161	16280.89
803.491	16449.02
803.822	16281.79
804.153	16177.61
804.483	16069.14
804.814	15994.57
805.145	16080.66
805.475	16102.13
805.805	15989.37
806.136	15943.27
806.466	16011.29
806.796	15880.22
807.126	15926.77
807.457	15797.51
807.787	15789.6
808.117	15752.54
808.447	15705.08
808.777	15649.94
809.107	15632.99
809.436	15564.97
809.766	15646.78
810.096	15550.96
810.426	15467.8
810.755	15534.24
811.085	15557.74
811.414	15554.58
811.744	15337.18
812.073	15348.03
812.403	15346.22
812.732	15268.26
813.061	15234.13
813.39	15216.73
813.719	15243.4
814.049	15244.98
814.378	15162.72
814.707	15063.06
815.036	15157.75
815.365	15071.88
815.693	14906.91
816.022	15067.58
816.351	14905.1
816.68	14856.52
817.008	14943.29
817.337	14766.35
817.665	14644.09
817.994	14728.61
818.322	14759.34
818.651	14717.31
818.979	14668.95
819.307	14636.41
819.636	14724.09
819.964	14588.73
820.292	14669.4
820.62	14564.77
820.948	14576.75
821.276	14650.42
821.604	14548.05
821.932	14557.31
822.259	14533.81
822.587	14493.14
822.915	14463.08
823.243	14521.84
823.57	14447.04
823.898	14533.13
824.225	14438.45
824.553	14488.16
824.88	14528.39
825.207	14565
825.535	14460.37
825.862	14620.14
826.189	14456.98
826.516	14636.41
826.843	14562.74
827.17	14524.1
827.497	14593.47
827.824	14541.72
828.151	14509.63
828.478	14594.38
828.805	14629.18
829.131	14582.63
829.458	14527.03
829.785	14420.6
830.111	14588.27
830.438	14601.83
830.764	14611.55
831.09	14532
831.417	14519.58
831.743	14546.92
832.069	14576.52
832.395	14446.13
832.722	14457.66
833.048	14490.42
833.374	14534.26
833.7	14449.07
834.026	14502.18
834.351	14462.63
834.677	14385.12
835.003	14441.39
835.329	14435.74
835.654	14440.26
835.98	14318
836.306	14425.12
836.631	14341.73
836.956	14337.43
837.282	14345.57
837.607	14326.13
837.932	14303.99
838.258	14223.99
838.583	14279.81
838.908	14139.7
839.233	14222.18
839.558	14159.81
839.883	14139.47
840.208	14075.29
840.533	14052.47
840.858	14061.51
841.182	13987.84
841.507	14024.67
841.832	13927.05
842.156	13945.13
842.481	13972.7
842.805	13958.91
843.13	13908.74
843.454	13962.75
843.778	13820.61
844.103	13792.14
844.427	13736.55
844.751	13747.62
845.075	13694.06
845.399	13647.96
845.723	13537.91
846.047	13646.83
846.371	13469.89
846.695	13475.99
847.019	13334.07
847.343	13349.21
847.666	13251.81
847.99	13261.3
848.313	13284.81
848.637	13112.61
848.96	13087.3
849.284	13103.12
849.607	12952.39
849.931	12964.36
850.254	12828.32
850.577	12782.9
850.9	12737.7
851.223	12677.59
851.546	12604.15
851.869	12585.16
852.192	12688.44
852.515	12482.34
852.838	12490.02
853.161	12469.91
853.483	12362.57
853.806	12377.49
854.129	12305.62
854.451	12219.3
854.774	12180.43
855.096	12176.81
855.419	12133.65
855.741	12112.18
856.063	12020.43
856.385	12027.66
856.708	11952.86
857.03	11988.79
857.352	12020.43
857.674	11861.34
857.996	11917.61
858.318	11777.5
858.64	11712.42
858.961	11769.37
859.283	11625.87
859.605	11694.34
859.926	11720.55
860.248	11607.11
860.57	11632.19
860.891	11568.47
861.212	11518.98
861.534	11527.34
861.855	11539.09
862.176	11505.64
862.498	11489.6
862.819	11444.63
863.14	11377.74
863.461	11367.12
863.782	11361.69
864.103	11360.56
864.424	11298.64
864.745	11312.88
865.065	11236.05
865.386	11228.36
865.707	11256.84
866.027	11232.66
866.348	11181.81
866.668	11184.75
866.989	11166.22
867.309	11123.05
867.63	11125.77
867.95	11071.08
868.27	11050.51
868.59	11130.51
868.91	10939.33
869.23	11059.78
869.55	10901.59
869.87	10998.54
870.19	10949.73
870.51	10941.14
870.83	10935.94
871.15	10878.77
871.469	10898.88
871.789	10900.46
872.109	10879.45
872.428	10800.35
872.748	10895.04
873.067	10800.35
873.386	10816.85
873.706	10853.68
874.025	10735.95
874.344	10685.33
874.663	10688.72
874.982	10676.06
875.301	10726.68
875.62	10752.9
875.939	10666.57
876.258	10677.42
876.577	10582.05
876.896	10641.49
877.214	10556.29
877.533	10565.78
877.852	10548.15
878.17	10558.32
878.489	10525.56
878.807	10511.55
879.125	10532.34
879.444	10477.42
879.762	10488.72
880.08	10442.17
880.398	10352.91
880.716	10377.31
881.034	10415.73
881.352	10380.25
881.67	10328.73
881.988	10320.36
882.306	10286.01
882.624	10312
882.941	10225.23
883.259	10173.7
883.577	10178.67
883.894	10187.03
884.212	10108.17
884.529	10157.43
884.846	10080.82
885.164	10083.53
885.481	10091.9
885.798	10067.94
886.115	9964.67
886.432	10012.58
886.75	9887.83
887.067	9899.58
887.383	9914.5
887.7	9963.76
888.017	9880.6
888.334	9873.82
888.651	9731.45
888.967	9784.56
889.284	9803.77
889.6	9735.29
889.917	9705.69
890.233	9710.66
890.55	9634.05
890.866	9592.7
891.182	9611
891.498	9588.41
891.815	9541.4
892.131	9521.74
892.447	9466.83
892.763	9425.47
893.079	9391.35
893.395	9381.63
893.71	9304.35
894.026	9338.92
894.342	9368.75
894.657	9278.81
894.973	9212.37
895.289	9195.2
895.604	9226.83
895.92	9130.34
896.235	9097.12
896.55	9104.58
896.865	9077.01
897.181	9048.76
897.496	9074.97
897.811	8959.27
898.126	8931.02
898.441	8886.96
898.756	8898.03
899.071	8835.21
899.386	8832.27
899.7	8778.26
900.015	8799.05
900.33	8668.43
900.644	8658.26
900.959	8627.98
901.273	8614.65
901.588	8652.16
901.902	8580.07
902.216	8571.48
902.531	8481.99
902.845	8478.6
903.159	8438.61
903.473	8367.87
903.787	8345.95
904.101	8247.88
904.415	8269.8
904.729	8293.75
905.042	8197.48
905.356	8218.95
905.67	8205.62
905.984	8200.42
906.297	8082.46
906.611	8080.65
906.924	8053.98
907.237	8048.79
907.551	7980.99
907.864	7970.6
908.177	7955.45
908.491	7960.2
908.804	7879.98
909.117	7869.81
909.43	7742.35
909.743	7741.9
910.056	7705.52
910.368	7730.6
910.681	7740.55
910.994	7665.74
911.307	7594.33
911.619	7568.35
911.932	7553.43
912.244	7506.88
912.557	7452.42
912.869	7450.38
913.181	7440.21
913.494	7370.84
913.806	7321.35
914.118	7330.16
914.43	7276.83
914.742	7178.75
915.054	7258.3
915.366	7181.69
915.678	7155.25
915.99	7182.37
916.302	7084.52
916.613	7033.67
916.925	7064.86
917.236	7045.65
917.548	6972.88
917.859	7012.2
918.171	6976.27
918.482	6905.99
918.794	6895.37
919.105	6843.39
919.416	6795.49
919.727	6820.12
920.038	6816.28
920.349	6774.24
920.66	6744.87
920.971	6754.36
921.282	6704.87
921.593	6667.58
921.903	6637.07
922.214	6582.61
922.525	6564.76
922.835	6571.99
923.146	6504.65
923.456	6503.29
923.767	6482.5
924.077	6497.87
924.387	6392.78
924.697	6377.87
925.008	6362.5
925.318	6328.83
925.628	6343.97
925.938	6289.51
926.248	6257.65
926.558	6168.16
926.867	6219.46
927.177	6189.63
927.487	6172.22
927.796	6118.21
928.106	6085
928.416	6075.73
928.725	6053.36
929.034	6011.32
929.344	6011.32
929.653	6040.48
929.962	5929.52
930.271	5925.68
930.581	5907.15
930.89	5866.47
931.199	5838.67
931.508	5821.5
931.817	5814.72
932.125	5814.72
932.434	5776.98
932.743	5732.91
933.051	5716.19
933.36	5710.99
933.669	5674.84
933.977	5663.31
934.286	5611.56
934.594	5621.96
934.902	5562.52
935.21	5547.61
935.519	5495.18
935.827	5510.77
936.135	5465.8
936.443	5469.87
936.751	5427.16
937.059	5440.94
937.367	5364.34
937.674	5428.74
937.982	5364.11
938.29	5345.13
938.597	5282.3
938.905	5240.5
939.213	5239.37
939.52	5190.33
939.827	5216.54
940.135	5146.49
940.442	5162.08
940.749	5170.44
941.056	5173.15
941.363	5092.71
941.67	5110.78
941.977	5056.77
942.284	4965.02
942.591	4999.83
942.898	5005.02
943.205	5003.67
943.511	4923.22
943.818	4911.01
944.125	4906.27
944.431	4899.94
944.738	4882.99
945.044	4834.86
945.35	4822.43
945.657	4788.76
945.963	4748.31
946.269	4732.26
946.575	4724.35
946.881	4702.43
947.187	4678.48
947.493	4676.9
947.799	4677.35
948.105	4649.1
948.41	4649.78
948.716	4613.4
949.022	4550.57
949.327	4584.92
949.633	4498.6
949.938	4525.71
950.244	4545.6
950.549	4469.9
950.854	4459.73
951.16	4458.37
951.465	4389.9
951.77	4416.56
952.075	4392.84
952.38	4383.8
952.685	4389.22
952.99	4324.14
953.294	4311.48
953.599	4257.7
953.904	4309.45
954.209	4269.22
954.513	4277.13
954.818	4225.38
955.122	4234.42
955.426	4196.23
955.731	4182.45
956.035	4166.85
956.339	4114.65
956.643	4131.37
956.948	4118.27
957.252	4089.12
957.556	4027.87
957.86	4061.77
958.163	4027.42
958.467	4022.22
958.771	3999.85
959.075	3964.37
959.378	3975.22
959.682	3951.49
959.985	3940.64
960.289	3890.48
960.592	3950.81
960.896	3900.19
961.199	3876.01
961.502	3894.54
961.805	3823.59
962.108	3789.24
962.411	3781.55
962.714	3807.54
963.017	3770.03
963.32	3813.64
963.623	3733.87
963.926	3743.36
964.228	3705.17
964.531	3681.67
964.833	3702.23
965.136	3661.56
965.438	3659.07
965.741	3618.62
966.043	3588.56
966.345	3586.3
966.648	3610.03
966.95	3553.08
967.252	3534.55
967.554	3481.22
967.856	3494.1
968.158	3469.02
968.46	3496.14
968.761	3499.53
969.063	3469.24
969.365	3439.19
969.666	3422.92
969.968	3382.92
970.269	3383.37
970.571	3390.15
970.872	3397.38
971.174	3342.92
971.475	3325.97
971.776	3342.02
972.077	3286.2
972.378	3268.57
972.679	3279.65
972.98	3281.23
973.281	3237.39
973.582	3223.6
973.883	3239.87
974.183	3198.52
974.484	3191.06
974.785	3183.15
975.085	3162.81
975.386	3173.66
975.686	3121.01
975.986	3107.22
976.287	3104.28
976.587	3125.3
976.887	3092.98
977.187	3099.76
977.487	3019.99
977.787	3041.46
978.087	3004.62
978.387	3042.36
978.687	3027.9
978.987	2964.4
979.286	2954.91
979.586	2935.93
979.885	2945.87
980.185	2934.12
980.484	2899.54
980.784	2882.14
981.083	2876.72
981.382	2914.01
981.682	2873.55
981.981	2877.85
982.28	2850.73
982.579	2805.31
982.878	2822.71
983.177	2800.11
983.475	2819.54
983.774	2770.96
984.073	2760.11
984.372	2718.98
984.67	2756.27
984.969	2735.48
985.267	2714.01
985.566	2712.2
985.864	2712.88
986.162	2653.67
986.461	2676.95
986.759	2671.07
987.057	2664.52
987.355	2651.19
987.653	2622.26
987.951	2596.5
988.249	2594.24
988.547	2576.39
988.844	2553.56
989.142	2561.25
989.44	2544.07
989.737	2538.2
990.035	2517.18
990.332	2525.77
990.63	2514.47
990.927	2481.47
991.224	2473.34
991.521	2500.91
991.819	2441.02
992.116	2457.52
992.413	2449.61
992.71	2423.17
993.006	2444.64
993.303	2409.61
993.6	2385.88
993.897	2369.16
994.193	2359.67
994.49	2363.51
994.787	2369.61
995.083	2326.45
995.379	2300.91
995.676	2323.96
995.972	2312.89
996.268	2298.2
996.565	2302.04
996.861	2283.06
997.157	2227.02
997.453	2271.08
997.749	2268.37
998.044	2234.48
998.34	2218.88
998.636	2221.82
998.932	2204.87
999.227	2164.19
999.523	2169.17
999.818	2148.38
1000.114	2137.53
1000.409	2130.07
1000.704	2134.36
1001	2095.04
1001.295	2102.5
1001.59	2077.42
1001.885	2057.98
1002.18	2059.56
1002.475	2026.12
1002.77	2055.5
1003.065	2030.86
1003.359	2007.14
1003.654	1972.56
1003.949	2035.84
1004.243	1977.98
1004.538	1978.89
1004.832	1954.48
1005.127	1966.91
1005.421	1948.15
1005.715	1919.46
1006.009	1922.84
1006.304	1897.76
1006.598	1901.38
1006.892	1898.44
1007.186	1867.48
1007.48	1902.73
1007.773	1882.85
1008.067	1855.28
1008.361	1825.9
1008.655	1856.18
1008.948	1814.83
1009.242	1812.11
1009.535	1800.36
1009.829	1789.74
1010.122	1751.55
1010.415	1795.16
1010.708	1766.01
1011.001	1754.49
1011.295	1742.28
1011.588	1704.09
1011.881	1716.07
1012.173	1685.56
1012.466	1733.92
1012.759	1696.41
1013.052	1665
1013.344	1674.94
1013.637	1639.69
1013.93	1661.83
1014.222	1611.44
1014.514	1620.71
1014.807	1610.76
1015.099	1620.71
1015.391	1598.79
1015.683	1575.28
1015.976	1606.92
1016.268	1566.7
1016.56	1560.14
1016.851	1552.69
1017.143	1548.62
1017.435	1532.8
1017.727	1497.77
1018.018	1511.33
1018.31	1481.5
1018.602	1493.93
1018.893	1468.85
1019.185	1481.27
1019.476	1472.24
1019.767	1465.46
1020.058	1448.73
1020.35	1441.73
1020.641	1433.82
1020.932	1439.92
1021.223	1418.68
1021.514	1395.4
1021.804	1392.24
1022.095	1358.34
1022.386	1375.97
1022.677	1381.62
1022.967	1397.21
1023.258	1328.74
1023.548	1303.43
1023.839	1319.92
1024.129	1334.84
1024.419	1323.09
1024.709	1301.84
1025	1298.68
1025.29	1301.62
1025.58	1252.58
1025.87	1267.27
1026.16	1258.46
1026.449	1283.99
1026.739	1246.7
1027.029	1246.48
1027.319	1246.25
1027.608	1226.14
1027.898	1256.42
1028.187	1222.3
1028.477	1185.69
1028.766	1182.75
1029.055	1191.11
1029.344	1168.74
1029.634	1179.36
1029.923	1185.92
1030.212	1152.02
1030.501	1135.97
1030.79	1136.42
1031.078	1134.39
1031.367	1128.52
1031.656	1131
1031.945	1109.98
1032.233	1104.79
1032.522	1089.42
1032.81	1091.68
1033.099	1082.64
1033.387	1057.33
1033.675	1085.35
1033.963	1051.91
1034.251	1082.87
1034.54	1041.29
1034.828	1047.39
1035.116	1044.45
1035.403	1031.79
1035.691	1018.01
1035.979	1023.43
1036.267	1033.38
1036.554	992.02
1036.842	996.54
1037.129	975.98
1037.417	968.52
1037.704	966.94
1037.992	978.01
1038.279	981.63
1038.566	945.7
1038.853	945.7
1039.14	945.7
