Data from hue_110_FLMS001491_00098.txt Node
Date: Tue Feb 07 17:02:05 GMT 2017
User: dcchb
Spectrometer: FLMS00149
Trigger mode: 0
Integration Time (sec): 2.000000E-2
Scans to average: 10
Electric dark correction enabled: true
Nonlinearity correction enabled: false
Boxcar width: 0
XAxis mode: Wavelengths
Number of Pixels in Spectrum: 2048
>>>>>Begin Spectral Data<<<<<
341.393	-6.2
341.776	-6.2
342.16	-6.2
342.543	-59.08
342.927	-88.68
343.31	-54.79
343.693	-65.41
344.077	-79.42
344.46	-75.35
344.843	-37.84
345.226	-38.52
345.61	-38.29
345.993	-22.92
346.376	-3.49
346.759	13.46
347.142	-3.04
347.525	46.23
347.908	60.46
348.291	74.48
348.674	107.24
349.057	117.19
349.44	133
349.823	133.46
350.206	152.89
350.588	183.85
350.971	204.87
351.354	198.31
351.737	239.22
352.119	252.32
352.502	248.93
352.884	272.44
353.267	280.8
353.65	294.13
354.032	323.28
354.414	302.94
354.797	326.67
355.179	327.12
355.562	329.61
355.944	340.91
356.326	332.32
356.709	324.41
357.091	330.51
357.473	333.45
357.855	322.6
358.238	343.17
358.62	342.27
359.002	336.16
359.384	364.41
359.766	354.24
360.148	349.27
360.53	335.94
360.912	356.28
361.294	314.92
361.676	335.03
362.057	330.06
362.439	329.38
362.821	332.77
363.203	327.8
363.584	324.41
363.966	322.83
364.348	312.66
364.729	313.11
365.111	338.42
365.493	335.94
365.874	328.48
366.256	331.87
366.637	310.18
367.019	306.79
367.4	321.02
367.781	315.15
368.163	323.51
368.544	321.02
368.925	301.59
369.306	327.58
369.688	316.5
370.069	317.41
370.45	317.86
370.831	307.46
371.212	304.3
371.593	293.9
371.974	307.46
372.355	293
372.736	307.69
373.117	330.51
373.498	314.02
373.879	314.47
374.26	336.84
374.641	313.11
375.021	311.53
375.402	330.97
375.783	322.38
376.163	338.2
376.544	320.57
376.925	300.23
377.305	337.29
377.686	307.46
378.066	333.68
378.447	329.16
378.827	319.44
379.208	342.27
379.588	341.81
379.968	350.4
380.349	328.25
380.729	341.36
381.109	327.58
381.489	355.37
381.87	353.34
382.25	357.18
382.63	362.15
383.01	338.2
383.39	332.55
383.77	344.52
384.15	345.65
384.53	321.93
384.91	346.78
385.29	343.62
385.67	346.33
386.049	340.01
386.429	349.5
386.809	345.43
387.189	368.25
387.568	349.95
387.948	344.98
388.328	337.97
388.707	371.64
389.087	368.48
389.466	375.03
389.846	387.01
390.225	367.8
390.605	356.95
390.984	375.26
391.363	376.39
391.743	367.35
392.122	379.33
392.501	376.84
392.881	377.29
393.26	391.98
393.639	365.99
394.018	392.89
394.397	370.29
394.776	372.55
395.155	408.7
395.534	383.62
395.913	389.27
396.292	386.56
396.671	409.16
397.05	405.54
397.429	398.31
397.808	398.76
398.186	375.26
398.565	395.37
398.944	414.13
399.323	387.91
399.701	429.95
400.08	401.92
400.458	413.22
400.837	407.8
401.215	417.29
401.594	391.08
401.972	396.5
402.351	414.35
402.729	406.44
403.107	430.62
403.486	442.15
403.864	427.01
404.242	424.52
404.62	454.35
404.999	438.76
405.377	432.66
405.755	449.38
406.133	441.25
406.511	415.03
406.889	450.06
407.267	445.77
407.645	461.13
408.023	447.8
408.401	470.62
408.779	470.17
409.156	457.06
409.534	469.27
409.912	481.02
410.29	461.58
410.667	472.66
411.045	471.98
411.422	491.64
411.8	482.15
412.178	501.58
412.555	502.03
412.933	505.42
413.31	493.67
413.687	480.11
414.065	493.22
414.442	514.69
414.819	505.42
415.197	525.54
415.574	510.85
415.951	523.5
416.328	526.67
416.705	510.85
417.082	539.32
417.46	509.27
417.837	568.25
418.214	545.65
418.591	540.68
418.967	555.37
419.344	542.49
419.721	544.97
420.098	551.53
420.475	563.5
420.852	537.51
421.228	554.91
421.605	568.47
421.982	582.48
422.358	556.95
422.735	576.16
423.111	551.07
423.488	556.27
423.864	602.37
424.241	599.89
424.617	605.08
424.994	586.33
425.37	576.84
425.746	615.48
426.123	627
426.499	611.64
426.875	629.94
427.251	638.53
427.627	632.43
428.003	636.72
428.379	646.66
428.756	640.34
429.132	659.77
429.507	653.44
429.883	663.16
430.259	693.22
430.635	651.18
431.011	687.57
431.387	685.53
431.763	693.67
432.138	708.81
432.514	723.72
432.89	712.88
433.265	712.2
433.641	721.46
434.016	735.02
434.392	748.58
434.767	749.03
435.143	742.25
435.518	753.33
435.894	760.79
436.269	768.47
436.644	778.41
437.02	780.9
437.395	785.64
437.77	814.57
438.145	812.08
438.52	792.42
438.895	816.83
439.271	806.89
439.646	845.3
440.021	842.14
440.395	831.29
440.77	857.73
441.145	862.7
441.52	878.97
441.895	842.59
442.27	869.26
442.645	883.95
443.019	871.52
443.394	873.32
443.769	888.47
444.143	867
444.518	885.08
444.892	909.26
445.267	905.64
445.641	890.5
446.016	928.92
446.39	932.08
446.764	934.34
447.139	928.01
447.513	923.72
447.887	948.35
448.262	925.3
448.636	972.3
449.01	970.72
449.384	967.56
449.758	1015.47
450.132	989.25
450.506	1020.44
450.88	1000.33
451.254	995.81
451.628	1017.05
452.002	1006.65
452.376	1046.43
452.75	1052.3
453.123	1023.83
453.497	1067.9
453.871	1056.82
454.244	1081
454.618	1081.45
454.992	1114.67
455.365	1110.61
455.739	1135.24
456.112	1139.08
456.486	1179.31
456.859	1145.63
457.232	1181.79
457.606	1185.86
457.979	1166.42
458.352	1221.34
458.725	1233.09
459.099	1248.23
459.472	1268.57
459.845	1272.64
460.218	1279.19
460.591	1265.18
460.964	1284.16
461.337	1356.93
461.71	1365.74
462.083	1370.03
462.456	1365.29
462.829	1418.39
463.201	1421.56
463.574	1428.56
463.947	1437.83
464.32	1455.46
464.692	1522.35
465.065	1510.14
465.438	1544.72
465.81	1557.37
466.183	1547.21
466.555	1582.23
466.928	1631.5
467.3	1610.03
467.672	1654.55
468.045	1726.41
468.417	1735.45
468.789	1765.28
469.161	1776.13
469.534	1791.72
469.906	1838.04
470.278	1852.28
470.65	1876.91
471.022	1902.68
471.394	1956.69
471.766	2001.88
472.138	2024.03
472.51	2105.38
472.882	2106.96
473.253	2138.38
473.625	2217.24
473.997	2255.21
474.369	2261.31
474.74	2301.08
475.112	2375.21
475.484	2406.39
475.855	2507.18
476.227	2504.47
476.598	2600.96
476.97	2671.24
477.341	2722.32
477.713	2795.31
478.084	2852.03
478.455	2937.23
478.827	2964.34
479.198	3101.51
479.569	3148.07
479.94	3273.94
480.311	3326.37
480.682	3422.41
481.053	3534.72
481.424	3641.16
481.795	3725.9
482.166	3785.79
482.537	3876.18
482.908	3995.28
483.279	4084.31
483.65	4179.45
484.021	4301.03
484.391	4403.63
484.762	4459.9
485.133	4554.58
485.503	4703.28
485.874	4875.03
486.244	4990.28
486.615	5107.56
486.985	5194.57
487.356	5348.24
487.726	5485.41
488.097	5616.25
488.467	5659.87
488.837	5834.55
489.207	5987.31
489.578	6161.1
489.948	6328.77
490.318	6400.64
490.688	6529.67
491.058	6694.19
491.428	6817.35
491.798	6963.56
492.168	7151.35
492.538	7262.54
492.908	7406.71
493.278	7516.77
493.648	7604.45
494.017	7799.92
494.387	7983.65
494.757	8068.84
495.126	8234.03
495.496	8299.57
495.866	8442.84
496.235	8538.21
496.605	8668.15
496.974	8790.63
497.344	8975.26
497.713	9047.57
498.082	9182.03
498.452	9312.65
498.821	9420.22
499.19	9548.12
499.559	9625.64
499.928	9721
500.298	9919.19
500.667	10033.76
501.036	10035.8
501.405	10184.49
501.774	10243.7
502.143	10387.2
502.512	10455.45
502.88	10603.46
503.249	10588.55
503.618	10789.45
503.987	10778.37
504.356	10929.56
504.724	11002.55
505.093	11093.39
505.462	11183.56
505.83	11228.98
506.199	11319.6
506.567	11469.88
506.936	11515.53
507.304	11664.45
507.672	11730.67
508.041	11839.14
508.409	11820.38
508.777	11956.42
509.145	12026.7
509.514	11995.29
509.882	12116.19
510.25	12229.18
510.618	12296.53
510.986	12341.95
511.354	12466.47
511.722	12501.49
512.09	12676.86
512.458	12647.7
512.826	12653.13
513.193	12760.92
513.561	12752.33
513.929	12974.7
514.297	12947.36
514.664	13079.78
515.032	13061.03
515.4	13150.97
515.767	13226.9
516.135	13271.19
516.502	13160.91
516.869	13355.48
517.237	13387.35
517.604	13332.66
517.972	13530.84
518.339	13557.74
518.706	13601.35
519.073	13592.76
519.44	13646.77
519.808	13771.74
520.175	13739.43
520.542	13810.39
520.909	13898.29
521.276	13881.8
521.643	13946.65
522.009	14039.76
522.376	14040.21
522.743	14061.9
523.11	14151.17
523.477	14197.49
523.843	14305.97
524.21	14498.73
524.577	14425.06
524.943	14511.16
525.31	14485.62
525.676	14649.69
526.043	14562.46
526.409	14597.26
526.776	14725.39
527.142	14674.54
527.508	14723.36
527.874	14745.95
528.241	14873.63
528.607	14735.56
528.973	14930.36
529.339	14872.5
529.705	14918.38
530.071	15013.97
530.437	15003.35
530.803	14935.78
531.169	14979.39
531.535	14914.09
531.901	14909.11
532.267	14991.37
532.632	14993.86
532.998	14968.77
533.364	15056.45
533.73	15058.71
534.095	15102.78
534.461	15139.16
534.826	15095.55
535.192	15077.24
535.557	15234.53
535.923	15085.15
536.288	15114.98
536.653	15055.55
537.019	14969.68
537.384	15074.31
537.749	15111.82
538.114	14997.25
538.479	14994.31
538.845	14959.06
539.21	14842.9
539.575	14953.18
539.94	14939.85
540.305	14987.98
540.67	14895.33
541.034	14892.84
541.399	14885.16
541.764	14836.12
542.129	14785.5
542.494	14775.78
542.858	14856.01
543.223	14710.02
543.587	14796.57
543.952	14644.71
544.316	14691.04
544.681	14650.14
545.045	14649.91
545.41	14669.12
545.774	14624.15
546.138	14533.08
546.503	14587.77
546.867	14462.57
547.231	14610.59
547.595	14556.13
547.959	14532.85
548.324	14478.84
548.688	14381.22
549.052	14437.26
549.416	14425.28
549.779	14373.99
550.143	14390.48
550.507	14316.59
550.871	14389.81
551.235	14323.82
551.599	14326.08
551.962	14286.08
552.326	14291.28
552.689	14330.6
553.053	14210.15
553.417	14207.89
553.78	14418.05
554.143	14217.83
554.507	14213.09
554.87	14288.79
555.234	14299.19
555.597	14213.09
555.96	14234.1
556.323	14263.03
556.686	14115.91
557.05	14108.46
557.413	14165.4
557.776	14191.39
558.139	14195.23
558.502	14216.02
558.865	14153.43
559.228	14174.9
559.59	14235.23
559.953	14163.6
560.316	14216.7
560.679	14269.58
561.041	14298.06
561.404	14312.75
561.767	14290.15
562.129	14262.8
562.492	14392.74
562.854	14285.4
563.217	14229.81
563.579	14275.46
563.941	14339.64
564.304	14331.05
564.666	14413.31
565.028	14384.38
565.39	14406.08
565.753	14432.74
566.115	14518.16
566.477	14507.32
566.839	14467.09
567.201	14577.82
567.563	14498.95
567.925	14565.39
568.287	14500.31
568.648	14597.26
569.01	14688.33
569.372	14670.7
569.734	14635.45
570.095	14604.04
570.457	14699.4
570.819	14656.69
571.18	14668.67
571.542	14719.97
571.903	14717.03
572.265	14771.26
572.626	14829.57
572.987	14839.06
573.349	14855.78
573.71	14823.24
574.071	14748.21
574.432	14771.72
574.794	14976.46
575.155	14944.37
575.516	14827.99
575.877	14885.39
576.238	14902.56
576.599	14919.28
576.96	14860.3
577.32	14885.61
577.681	14955.89
578.042	15036.79
578.403	14921.54
578.763	15007.64
579.124	15013.97
579.485	15096
579.845	14985.72
580.206	14953.86
580.566	15037.25
580.927	15013.97
581.287	15090.35
581.648	15012.61
582.008	15004.03
582.368	14949.34
582.728	14941.66
583.089	15059.62
583.449	15030.01
583.809	15079.28
584.169	14978.94
584.529	14988.21
584.889	15053.97
585.249	14957.7
585.609	14859.85
585.969	14937.81
586.329	14924.25
586.688	15054.42
587.048	14930.13
587.408	14852.17
587.768	14798.16
588.127	14844.48
588.487	14874.76
588.846	14886.29
589.206	14792.51
589.565	14778.72
589.925	14920.86
590.284	14875.67
590.643	14857.14
591.003	14837.7
591.362	14854.65
591.721	14832.96
592.08	14819.4
592.44	14826.63
592.799	14805.61
593.158	14753.19
593.517	14848.1
593.876	14804.71
594.235	14757.71
594.593	14762.9
594.952	14801.09
595.311	14662.11
595.67	14750.02
596.029	14893.07
596.387	14806.52
596.746	14797.48
597.104	14734.65
597.463	14667.09
597.822	14882.67
598.18	14748.67
598.538	14703.24
598.897	14850.36
599.255	14642.68
599.613	14934.65
599.972	14821.21
600.33	14726.07
600.688	14724.49
601.046	14709.12
601.404	14807.2
601.762	14778.95
602.12	14813.3
602.478	14797.25
602.836	14812.39
603.194	14765.16
603.552	14707.76
603.91	14721.77
604.268	14792.73
604.625	14763.13
604.983	14859.17
605.341	14715.45
605.698	14801.77
606.056	14748.21
606.413	14833.18
606.771	14857.82
607.128	14886.29
607.485	14853.97
607.843	14837.48
608.2	14844.71
608.557	14897.36
608.914	14797.48
609.272	14899.85
609.629	14973.52
609.986	14925.16
610.343	14875.67
610.7	15044.25
611.057	15058.49
611.414	14956.12
611.771	14926.06
612.127	15037.92
612.484	14965.38
612.841	15061.88
613.198	14885.16
613.554	14926.06
613.911	15032.27
614.267	15036.34
614.624	14944.82
614.98	15048.54
615.337	15074.98
615.693	15076.34
616.05	15127.86
616.406	15147.3
616.762	15077.47
617.118	15121.54
617.475	15062.56
617.831	15095.55
618.187	15181.42
618.543	15182.78
618.899	15211.03
619.255	15227.75
619.611	15210.8
619.967	15310.68
620.323	15387.97
620.678	15172.38
621.034	15207.86
621.39	15234.08
621.746	15235.21
622.101	15433.17
622.457	15239.73
622.812	15269.33
623.168	15382.1
623.523	15286.96
623.879	15337.35
624.234	15255.32
624.589	15246.96
624.945	15327.63
625.3	15277.24
625.655	15331.25
626.01	15296.67
626.365	15227.3
626.72	15270.91
627.075	15185.94
627.43	15239.95
627.785	15190.91
628.14	15288.99
628.495	15261.65
628.85	15290.8
629.205	15203.12
629.559	15275.21
629.914	15132.61
630.269	15153.85
630.623	15119.96
630.978	15116.11
631.332	15128.54
631.687	15181.87
632.041	15155.21
632.396	15190.91
632.75	15069.79
633.104	15028.21
633.459	15041.31
633.813	14980.3
634.167	14991.6
634.521	15062.56
634.875	15121.09
635.229	14900.98
635.583	14909.57
635.937	14990.47
636.291	14931.26
636.645	14964.71
636.999	14934.42
637.352	14914.54
637.706	14859.4
638.06	14941.66
638.413	14895.33
638.767	14764.71
639.121	14848.55
639.474	14761.77
639.828	14739.85
640.181	14783.02
640.534	14802
640.888	14687.65
641.241	14689.91
641.594	14720.19
641.947	14749.12
642.301	14630.7
642.654	14703.7
643.007	14690.59
643.36	14625.05
643.713	14618.05
644.066	14542.57
644.419	14517.71
644.771	14521.78
645.124	14424.15
645.477	14352.29
645.83	14269.58
646.182	14267.55
646.535	14173.09
646.888	14244.72
647.24	14175.8
647.593	14200.43
647.945	14208.57
648.298	14096.03
648.65	14079.08
649.002	14093.77
649.355	14203.6
649.707	14144.84
650.059	14228.45
650.411	14337.15
650.763	14407.66
651.115	14494.89
651.467	14458.73
651.819	14481.78
652.171	14524.26
652.523	14455.79
652.875	14405.17
653.227	14384.83
653.578	14491.05
653.93	14367.88
654.282	14384.16
654.633	14465.28
654.985	14491.05
655.337	14398.17
655.688	14402.91
656.039	14464.15
656.391	14387.32
656.742	14360.43
657.094	14433.19
657.445	14442.46
657.796	14402.91
658.147	14476.81
658.498	14366.98
658.849	14427.54
659.2	14383.03
659.551	14468.45
659.902	14494.21
660.253	14404.95
660.604	14465.51
660.955	14344.83
661.306	14468.45
661.656	14346.19
662.007	14438.39
662.358	14485.17
662.708	14448.79
663.059	14439.52
663.409	14351.39
663.76	14444.27
664.11	14453.98
664.461	14489.69
664.811	14380.09
665.161	14445.85
665.511	14435
665.862	14428.45
666.212	14477.49
666.562	14502.12
666.912	14537.82
667.262	14476.81
667.612	14538.28
667.962	14573.53
668.312	14566.3
668.662	14527.43
669.011	14459.63
669.361	14546.19
669.711	14442.69
670.06	14416.47
670.41	14392.07
670.76	14466.41
671.109	14471.16
671.459	14363.59
671.808	14342.35
672.157	14435
672.507	14372.63
672.856	14308
673.205	14363.59
673.554	14322.91
673.904	14373.99
674.253	14381.9
674.602	14349.13
674.951	14223.26
675.3	14113.2
675.649	14308.45
675.998	14286.31
676.346	14246.08
676.695	14350.94
677.044	14172.64
677.393	14271.16
677.741	14231.84
678.09	14140.32
678.438	14173.99
678.787	14204.05
679.135	14127.67
679.484	14009.48
679.832	14172.86
680.181	14036.37
680.529	14054.9
680.877	14086.99
681.225	14001.11
681.573	14092.41
681.922	13937.61
682.27	13984.84
682.618	13941.68
682.966	13934
683.314	13916.6
683.661	13801.12
684.009	13817.62
684.357	13752.99
684.705	13728.81
685.053	13719.31
685.4	13698.07
685.748	13591.86
686.095	13641.35
686.443	13575.14
686.79	13605.65
687.138	13619.66
687.485	13540.56
687.832	13498.98
688.18	13525.42
688.527	13424.86
688.874	13386.89
689.221	13416.72
689.568	13320.68
689.915	13301.47
690.262	13255.6
690.609	13286.11
690.956	13214.69
691.303	13192.1
691.65	13111.42
691.997	13111.65
692.344	13025.32
692.69	12985.32
693.037	13046.79
693.383	12839.11
693.73	12963.18
694.077	12806.57
694.423	12852.44
694.769	12764.99
695.116	12730.87
695.462	12731.09
695.808	12620.59
696.155	12693.13
696.501	12539.01
696.847	12515.28
697.193	12472.79
697.539	12545.33
697.885	12418.56
698.231	12321.84
698.577	12355.51
698.923	12264.89
699.269	12242.74
699.614	12224.44
699.96	12146.25
700.306	12117.32
700.651	12115.74
700.997	12065.8
701.342	11973.15
701.688	11977.89
702.033	11929.53
702.379	11914.16
702.724	11868.97
703.069	11870.78
703.415	11697.67
703.76	11710.33
704.105	11724.11
704.45	11782.87
704.795	11572.93
705.14	11549.2
705.485	11514.85
705.83	11535.19
706.175	11530.67
706.52	11437.11
706.865	11425.36
707.209	11383.78
707.554	11276.44
707.899	11365.93
708.243	11172.94
708.588	11162.77
708.932	11165.94
709.277	11146.05
709.621	11195.09
709.966	11031.02
710.31	11121.64
710.654	10976.11
710.998	11081.87
711.342	11005.94
711.687	10938.82
712.031	10964.58
712.375	10851.37
712.719	10902.89
713.063	10883.91
713.407	10898.6
713.75	10809.33
714.094	10749.67
714.438	10766.4
714.782	10800.75
715.125	10623.35
715.469	10681.2
715.812	10668.1
716.156	10674.87
716.499	10602.56
716.843	10661.32
717.186	10609.79
717.53	10626.97
717.873	10603.69
718.216	10604.82
718.559	10541.09
718.902	10469
719.246	10471.04
719.589	10454.32
719.932	10417.48
720.275	10470.59
720.617	10451.6
720.96	10414.54
721.303	10481.66
721.646	10449.57
721.989	10367.54
722.331	10408.89
722.674	10471.49
723.016	10377.93
723.359	10405.5
723.701	10428.33
724.044	10305.39
724.386	10274.66
724.729	10341.1
725.071	10335.67
725.413	10231.95
725.755	10270.59
726.097	10221.33
726.439	10157.15
726.782	10169.8
727.124	10196.02
727.465	10144.95
727.807	10209.12
728.149	10168
728.491	10159.18
728.833	10197.15
729.175	10159.63
729.516	10185.62
729.858	10159.41
730.199	10198.95
730.541	10119.64
730.882	10091.84
731.224	10126.64
731.565	10090.48
731.906	10118.51
732.248	10158.05
732.589	10087.55
732.93	10082.35
733.271	10182.91
733.612	10189.24
733.953	10111.27
734.294	10100.2
734.635	10120.09
734.976	10118.28
735.317	10164.83
735.658	10141.33
735.999	10067.43
736.339	10111.27
736.68	10118.05
737.021	10127.54
737.361	10073.31
737.702	10168.45
738.042	10027.43
738.383	10159.18
738.723	10143.14
739.063	10119.86
739.404	10129.13
739.744	10111.27
740.084	10132.06
740.424	10143.14
740.764	10131.39
741.104	10194.66
741.444	10153.53
741.784	10155.79
742.124	10220.88
742.464	10269.46
742.804	10275.56
743.143	10226.3
743.483	10288.9
743.823	10229.69
744.162	10239.63
744.502	10313.08
744.841	10347.88
745.181	10361.21
745.52	10365.28
745.86	10421.55
746.199	10421.1
746.538	10514.88
746.877	10606.63
747.216	10598.94
747.556	10653.41
747.895	10692.73
748.234	10705.61
748.573	10733.18
748.911	10821.99
749.25	10894.3
749.589	11002.32
749.928	10996.22
750.267	11143.79
750.605	11164.58
750.944	11212.04
751.283	11291.36
751.621	11408.87
751.96	11479.83
752.298	11513.72
752.636	11663.1
752.975	11705.81
753.313	11800.49
753.651	11941.73
753.989	11987.61
754.327	12038.45
754.666	12056.53
755.004	12232.35
755.342	12461.49
755.679	12545.79
756.017	12525.67
756.355	12777.64
756.693	12859.22
757.031	13078.88
757.368	13170.18
757.706	13202.94
758.044	13326.78
758.381	13585.08
758.719	13659.2
759.056	13804.28
759.394	13995.01
759.731	14165.63
760.068	14216.93
760.405	14419.18
760.743	14442.46
761.08	14630.48
761.417	14755.22
761.754	15008.77
762.091	15106.62
762.428	15300.74
762.765	15414.41
763.102	15528.08
763.438	15668.87
763.775	15728.3
764.112	16047.84
764.449	16107.73
764.785	16352.47
765.122	16333.48
765.458	16349.3
765.795	16635.62
766.131	16750.2
766.467	16888.04
766.804	16962.84
767.14	17162.84
767.476	17307.24
767.812	17302.5
768.148	17461.59
768.485	17538.65
768.821	17587.69
769.157	17680.57
769.492	17704.29
769.828	17873.56
770.164	17859.32
770.5	17933.44
770.836	18182.02
771.171	18148.12
771.507	18237.39
771.842	18303.37
772.178	18471.51
772.513	18452.07
772.849	18485.29
773.184	18543.59
773.519	18682.12
773.855	18716.47
774.19	18673.99
774.525	18706.08
774.86	18933.19
775.195	18864.04
775.53	18926.18
775.865	18918.05
776.2	18915.79
776.535	18857.71
776.87	18992.85
777.205	18890.7
777.539	19063.81
777.874	19060.42
778.209	18918.27
778.543	19134.54
778.878	18960.76
779.212	19086.4
779.547	19030.81
779.881	19118.72
780.215	19081.43
780.55	19063.35
780.884	19007.08
781.218	18969.8
781.552	19081.89
781.886	18943.81
782.22	19097.25
782.554	19052.96
782.888	18923.92
783.222	18831.04
783.556	18929.12
783.889	18937.71
784.223	18775.45
784.557	18799.86
784.89	18878.27
785.224	18725.28
785.557	18713.31
785.891	18721.22
786.224	18784.04
786.558	18758.5
786.891	18565.74
787.224	18470.38
787.557	18622.91
787.891	18524.84
788.224	18572.75
788.557	18542.92
788.89	18490.94
789.223	18583.59
789.556	18397.38
789.888	18349.02
790.221	18360.77
790.554	18119.42
790.887	18202.59
791.219	18269.25
791.552	18118.07
791.884	18104.51
792.217	18080.33
792.549	17996.49
792.882	17981.35
793.214	17896.83
793.546	17995.59
793.879	17869.94
794.211	17789.94
794.543	17834.23
794.875	17823.39
795.207	17851.18
795.539	17750.39
795.871	17770.96
796.203	17546.33
796.535	17550.4
796.867	17427.01
797.198	17462.72
797.53	17523.73
797.862	17360.57
798.193	17457.75
798.525	17271.31
798.856	17317.64
799.188	17253.91
799.519	17136.85
799.85	16998.55
800.182	17187.7
800.513	17100.24
800.844	16849.4
801.175	17022.73
801.506	17071.99
801.837	16937.99
802.168	16959.68
802.499	16789.06
802.83	16810.76
803.161	16729.18
803.491	16680.14
803.822	16647.6
804.153	16597.66
804.483	16516.3
804.814	16497.77
805.145	16526.25
805.475	16435.85
805.805	16439.24
806.136	16439.02
806.466	16398.34
806.796	16279.25
807.126	16208.06
807.457	16246.25
807.787	16228.4
808.117	16132.13
808.447	16050.78
808.777	16161.74
809.107	15971.68
809.436	16002.64
809.766	15977.11
810.096	15872.48
810.426	15869.54
810.755	15808.98
811.085	15813.95
811.414	15814.85
811.744	15779.37
812.073	15719.26
812.403	15729.43
812.732	15580.73
813.061	15617.12
813.39	15500.74
813.719	15540.51
814.049	15578.02
814.378	15458.25
814.707	15467.52
815.036	15354.07
815.365	15338.93
815.693	15249.67
816.022	15293.51
816.351	15227.3
816.68	15111.82
817.008	15128.99
817.337	15117.7
817.665	15086.51
817.994	15055.1
818.322	14990.69
818.651	14935.33
818.979	14990.69
819.307	15010.13
819.636	14900.07
819.964	14786.86
820.292	14945.72
820.62	14925.38
820.948	14828.66
821.276	14895.78
821.604	14800.19
821.932	14887.65
822.259	14920.64
822.587	14770.81
822.915	14840.87
823.243	14866.18
823.57	14724.26
823.898	14775.78
824.225	14829.12
824.553	14780.08
824.88	14813.75
825.207	14810.81
825.535	14813.75
825.862	14819.85
826.189	14766.97
826.516	14903.69
826.843	14919.96
827.17	14854.88
827.497	14907.53
827.824	14914.99
828.151	14921.09
828.478	14842.45
828.805	14867.08
829.131	14864.6
829.458	14876.12
829.785	14776.69
830.111	14769.23
830.438	14927.87
830.764	14849.45
831.09	14880.19
831.417	14800.64
831.743	14859.62
832.069	14801.09
832.395	14818.49
832.722	14824.82
833.048	14781.43
833.374	14831.83
833.7	14707.54
834.026	14660.76
834.351	14799.06
834.677	14687.42
835.003	14726.52
835.329	14707.31
835.654	14730.59
835.98	14612.62
836.306	14572.4
836.631	14573.53
836.956	14634.77
837.282	14653.3
837.607	14523.81
837.932	14542.57
838.258	14577.6
838.583	14660.31
838.908	14415.79
839.233	14328.34
839.558	14407.66
839.883	14308.9
840.208	14257.15
840.533	14318.17
840.858	14308.23
841.182	14322.01
841.507	14242.69
841.832	14278.4
842.156	14214.22
842.481	14155.69
842.805	14142.35
843.13	14100.1
843.454	14118.4
843.778	14046.09
844.103	13998.86
844.427	13959.99
844.751	14012.41
845.075	13958.18
845.399	13873.89
845.723	13785.08
846.047	13908.24
846.371	13730.61
846.695	13724.96
847.019	13621.69
847.343	13540.34
847.666	13594.35
847.99	13409.72
848.313	13466.21
848.637	13376.05
848.96	13325.88
849.284	13355.48
849.607	13171.53
849.931	13168.14
850.254	13108.71
850.577	13025.55
850.9	12885.66
851.223	12999.56
851.546	12921.14
851.869	12770.19
852.192	12903.74
852.515	12692.45
852.838	12609.51
853.161	12731.32
853.483	12664.65
853.806	12539.01
854.129	12557.99
854.451	12461.72
854.774	12388.5
855.096	12361.84
855.419	12323.87
855.741	12280.48
856.063	12315.06
856.385	12160.71
856.708	12194.83
857.03	12088.4
857.352	12214.5
857.674	12063.99
857.996	12070.32
858.318	12023.99
858.64	11994.39
858.961	11929.98
859.283	11856.09
859.605	11850.66
859.926	11873.04
860.248	11796.65
860.57	11746.48
860.891	11848.4
861.212	11734.28
861.534	11726.37
861.855	11663.55
862.176	11725.92
862.498	11636.88
862.819	11684.79
863.14	11598.24
863.461	11546.94
863.782	11580.16
864.103	11525.93
864.424	11537
864.745	11503.33
865.065	11469.66
865.386	11340.62
865.707	11375.2
866.027	11390.79
866.348	11433.72
866.668	11384.69
866.989	11348.08
867.309	11238.02
867.63	11322.99
867.95	11281.41
868.27	11221.98
868.59	11230.34
868.91	11231.92
869.23	11183.79
869.55	11138.82
869.87	11224.69
870.19	11180.17
870.51	11162.32
870.83	11096.11
871.15	11081.42
871.469	11045.26
871.789	11096.78
872.109	11084.36
872.428	10957.35
872.748	11010.69
873.067	10978.6
873.386	11010.01
873.706	10990.57
874.025	10884.59
874.344	10904.25
874.663	10888.65
874.982	10900.41
875.301	10868.32
875.62	10809.33
875.939	10817.24
876.258	10850.69
876.577	10779.28
876.896	10779.5
877.214	10715.78
877.533	10750.58
877.852	10733.18
878.17	10714.65
878.489	10708.09
878.807	10639.62
879.125	10652.28
879.444	10672.16
879.762	10685.72
880.08	10634.88
880.398	10547.42
880.716	10553.3
881.034	10566.63
881.352	10544.03
881.67	10459.74
881.988	10488.89
882.306	10425.39
882.624	10429.91
882.941	10301.78
883.259	10384.94
883.577	10370.7
883.894	10342.23
884.212	10344.94
884.529	10251.83
884.846	10263.13
885.164	10263.13
885.481	10182.46
885.798	10168
886.115	10046.87
886.432	10125.28
886.75	10100.2
887.067	10091.39
887.383	10052.29
887.7	10054.55
888.017	10036.02
888.334	9971.62
888.651	10018.85
888.967	9981.79
889.284	9918.28
889.6	9876.93
889.917	9787.89
890.233	9802.58
890.55	9818.17
890.866	9802.13
891.182	9826.08
891.498	9761.68
891.815	9678.06
892.131	9662.25
892.447	9669.25
892.763	9594.23
893.079	9535.02
893.395	9564.85
893.71	9520.33
894.026	9489.82
894.342	9423.83
894.657	9431.74
894.973	9411.63
895.289	9347
895.604	9363.5
895.92	9278.53
896.235	9238.75
896.55	9153.78
896.865	9081.47
897.181	9193.56
897.496	9192.2
897.811	9175.71
898.126	9079.21
898.441	9021.81
898.756	8991.76
899.071	8970.06
899.386	8973.22
899.7	8915.37
900.015	8876.5
900.33	8822.04
900.644	8815.49
900.959	8861.36
901.273	8821.14
901.588	8716.73
901.902	8685.1
902.216	8669.73
902.531	8660.69
902.845	8621.14
903.159	8546.57
903.473	8538.21
903.787	8530.07
904.101	8474.03
904.415	8470.41
904.729	8425.89
905.042	8383.18
905.356	8317.2
905.67	8346.57
905.984	8379.79
906.297	8279.01
906.611	8208.72
906.924	8286.46
907.237	8221.15
907.551	8157.2
907.864	8069.75
908.177	8145
908.491	8127.6
908.804	8020.71
909.117	7985.91
909.43	7950.65
909.743	7937.77
910.056	7907.04
910.368	7813.71
910.681	7826.59
910.994	7763.76
911.307	7790.66
911.619	7692.35
911.932	7721.96
912.244	7694.84
912.557	7639.02
912.869	7574.39
913.181	7536.88
913.494	7520.38
913.806	7510.21
914.118	7502.3
914.43	7410.1
914.742	7425.69
915.054	7359.71
915.366	7346.6
915.678	7305.02
915.99	7232.48
916.302	7192.93
916.613	7242.2
916.925	7182.09
917.236	7155.65
917.548	7168.75
917.859	7104.57
918.171	7113.16
918.482	7064.8
918.794	7041.07
919.105	6994.75
919.416	6975.76
919.727	6933.5
920.038	6900.51
920.349	6855.31
920.66	6785.94
920.971	6820.96
921.282	6805.82
921.593	6716.33
921.903	6718.82
922.214	6663.23
922.525	6733.96
922.835	6682.66
923.146	6586.62
923.456	6606.96
923.767	6510.46
924.077	6584.13
924.387	6499.17
924.697	6490.13
925.008	6391.37
925.318	6450.13
925.628	6511.82
925.938	6347.08
926.248	6337.59
926.558	6346.17
926.867	6288.1
927.177	6285.39
927.487	6242.9
927.796	6239.96
928.106	6186.86
928.416	6163.13
928.725	6194.77
929.034	6093.3
929.344	6126.07
929.653	6152.73
929.962	6067.09
930.271	6042.91
930.581	5982.79
930.89	5912.06
931.199	5938.73
931.508	5960.65
931.817	5926.07
932.125	5887.2
932.434	5870.26
932.743	5802.91
933.051	5813.76
933.36	5795
933.669	5754.33
933.977	5697.83
934.286	5705.97
934.594	5678.4
934.902	5671.84
935.21	5598.85
935.519	5547.55
935.827	5572.86
936.135	5524.05
936.443	5492.41
936.751	5536.25
937.059	5520.89
937.367	5449.93
937.674	5458.97
937.982	5435.69
938.29	5384.84
938.597	5376.26
938.905	5387.56
939.213	5330.16
939.52	5325.86
939.827	5309.14
940.135	5245.86
940.442	5244.51
940.749	5192.98
941.056	5261.91
941.363	5174.23
941.67	5185.3
941.977	5147.11
942.284	5086.32
942.591	5090.16
942.898	5101.24
943.205	5072.08
943.511	5049.49
943.818	5061.69
944.125	4958.19
944.431	5007.45
944.738	4956.15
945.044	4937.4
945.35	4913.9
945.657	4886.55
945.963	4847.91
946.269	4795.26
946.575	4811.53
946.881	4816.95
947.187	4783.28
947.493	4753.45
947.799	4695.82
948.105	4723.84
948.41	4642.26
948.716	4681.59
949.022	4686.33
949.327	4678.65
949.633	4621.25
949.938	4608.14
950.244	4603.4
950.549	4550.29
950.854	4513.45
951.16	4549.16
951.465	4471.65
951.77	4470.52
952.075	4443.4
952.38	4400.46
952.685	4416.73
952.99	4376.74
953.294	4381.03
953.599	4334.7
953.904	4355.49
954.209	4321.6
954.513	4296.51
954.818	4240.24
955.122	4283.86
955.426	4250.64
955.731	4231.43
956.035	4210.41
956.339	4181.49
956.643	4215.16
956.948	4127.7
957.252	4116.18
957.556	4120.92
957.86	4109.4
958.163	4122.5
958.467	4072.34
958.771	4064.2
959.075	4003.41
959.378	3996.41
959.682	4021.94
959.985	3995.95
960.289	3965.45
960.592	3958.44
960.896	3950.98
961.199	3927.03
961.502	3915.05
961.805	3912.11
962.108	3846.13
962.411	3837.99
962.714	3796.41
963.017	3828.73
963.32	3789.86
963.623	3778.56
963.926	3769.29
964.228	3767.03
964.531	3711.44
964.833	3707.6
965.136	3664.89
965.438	3629.41
965.741	3661.27
966.043	3691.78
966.345	3631.44
966.648	3633.25
966.95	3612.01
967.252	3591.67
967.554	3560.03
967.856	3516.42
968.158	3515.97
968.46	3530.43
968.761	3489.75
969.063	3474.16
969.365	3502.86
969.666	3436.65
969.968	3466.93
970.269	3442.97
970.571	3389.19
970.872	3406.82
971.174	3403.65
971.475	3367.95
971.776	3341.06
972.077	3364.33
972.378	3321.4
972.679	3319.59
972.98	3301.06
973.281	3307.61
973.582	3308.74
973.883	3273.26
974.183	3230.78
974.484	3235.97
974.785	3188.97
975.085	3203.88
975.386	3185.58
975.686	3199.82
975.986	3155.3
976.287	3167.73
976.587	3129.54
976.887	3129.31
977.187	3116.43
977.487	3118.69
977.787	3092.02
978.087	3056.32
978.387	3056.54
978.687	3049.99
978.987	3026.49
979.286	2993.72
979.586	3001.63
979.885	3002.76
980.185	2976.77
980.484	2981.07
980.784	2954.63
981.083	2948.3
981.382	2925.02
981.682	2901.97
981.981	2895.64
982.28	2886.38
982.579	2866.72
982.878	2861.75
983.177	2821.52
983.475	2843.22
983.774	2774.52
984.073	2821.3
984.372	2762.77
984.67	2801.86
984.969	2795.76
985.267	2749.43
985.566	2723.67
985.864	2760.73
986.162	2726.84
986.461	2701.75
986.759	2649.32
987.057	2687.74
987.355	2668.76
987.653	2671.24
987.951	2601.64
988.249	2623.56
988.547	2601.41
988.844	2607.29
989.142	2619.72
989.44	2606.61
989.737	2560.29
990.035	2586.73
990.332	2571.81
990.63	2555.31
990.927	2549.21
991.224	2523.22
991.521	2486.62
991.819	2487.52
992.116	2484.13
992.413	2468.08
992.71	2461.53
993.006	2466.73
993.303	2433.28
993.6	2407.07
993.897	2399.61
994.193	2411.59
994.49	2412.49
994.787	2381.08
995.083	2376.34
995.379	2328.88
995.676	2340.18
995.972	2309.9
996.268	2332.27
996.565	2300.18
996.861	2281.65
997.157	2290.24
997.453	2258.15
997.749	2276.45
998.044	2248.66
998.34	2231.25
998.636	2215.89
998.932	2245.49
999.227	2214.98
999.523	2196
999.818	2179.05
1000.114	2150.35
1000.409	2174.76
1000.704	2165.49
1001	2133.86
1001.295	2120.75
1001.59	2148.32
1001.885	2089.56
1002.18	2105.16
1002.475	2086.4
1002.77	2054.08
1003.065	2036.91
1003.359	2033.75
1003.654	2021.77
1003.949	2035.78
1004.243	2030.13
1004.538	1965.73
1004.832	1988.1
1005.127	1991.49
1005.421	1957.59
1005.715	1949.45
1006.009	1938.61
1006.304	1942.67
1006.598	1914.2
1006.892	1878.5
1007.186	1874.43
1007.48	1880.08
1007.773	1914.43
1008.067	1839.17
1008.361	1860.87
1008.655	1837.59
1008.948	1864.94
1009.242	1821.77
1009.535	1812.06
1009.829	1767.99
1010.122	1789.68
1010.415	1784.71
1010.708	1780.87
1011.001	1760.53
1011.295	1754.88
1011.588	1759.85
1011.881	1749.69
1012.173	1728.67
1012.466	1730.25
1012.759	1725.28
1013.052	1707.65
1013.344	1706.75
1013.637	1696.81
1013.93	1686.18
1014.222	1655
1014.514	1626.75
1014.807	1606.64
1015.099	1610.03
1015.391	1624.49
1015.683	1630.14
1015.976	1621.1
1016.268	1567.32
1016.56	1575.23
1016.851	1579.97
1017.143	1557.83
1017.435	1575.9
1017.727	1547.66
1018.018	1538.84
1018.31	1550.82
1018.602	1508.34
1018.893	1524.83
1019.185	1498.84
1019.476	1497.71
1019.767	1473.99
1020.058	1458.17
1020.35	1466.08
1020.641	1467.89
1020.932	1412.52
1021.223	1424.27
1021.514	1434.44
1021.804	1419.3
1022.095	1403.03
1022.386	1369.81
1022.677	1381.56
1022.967	1366.64
1023.258	1346.53
1023.548	1359.64
1023.839	1359.87
1024.129	1339.98
1024.419	1296.36
1024.709	1329.58
1025	1308.57
1025.29	1309.47
1025.58	1300.88
1025.87	1293.43
1026.16	1259.08
1026.449	1285.52
1026.739	1246.65
1027.029	1292.52
1027.319	1259.3
1027.608	1217.04
1027.898	1241.22
1028.187	1209.13
1028.477	1198.74
1028.766	1200.55
1029.055	1170.94
1029.344	1212.52
1029.634	1198.06
1029.923	1165.07
1030.212	1164.84
1030.501	1159.64
1030.79	1155.8
1031.078	1126.43
1031.367	1154.22
1031.656	1129.59
1031.945	1142.02
1032.233	1110.38
1032.522	1106.31
1032.81	1092.08
1033.099	1087.33
1033.387	1073.55
1033.675	1077.61
1033.963	1091.85
1034.251	1070.16
1034.54	1054.11
1034.828	1032.64
1035.116	1069.03
1035.403	1018.63
1035.691	1032.64
1035.979	1017.73
1036.267	1043.26
1036.554	997.39
1036.842	1018.41
1037.129	1013.21
1037.417	964.62
1037.704	970.95
1037.992	980.89
1038.279	971.63
1038.566	975.02
1038.853	975.02
1039.14	975.02
