Data from hue_150_FLMS001491_00018.txt Node
Date: Tue Feb 07 16:53:42 GMT 2017
User: dcchb
Spectrometer: FLMS00149
Trigger mode: 0
Integration Time (sec): 2.000000E-2
Scans to average: 10
Electric dark correction enabled: true
Nonlinearity correction enabled: false
Boxcar width: 0
XAxis mode: Wavelengths
Number of Pixels in Spectrum: 2048
>>>>>Begin Spectral Data<<<<<
341.393	-13.97
341.776	-13.97
342.16	-13.97
342.543	-57.81
342.927	-42.67
343.31	-72.5
343.693	-82.44
344.077	-63.23
344.46	-93.74
344.843	-42.89
345.226	-34.31
345.61	-23.69
345.993	-21.65
346.376	0.72
346.759	21.28
347.142	20.83
347.525	28.97
347.908	60.15
348.291	105.12
348.674	92.92
349.057	104.45
349.44	128.17
349.823	139.47
350.206	144.9
350.588	208.85
350.971	228.06
351.354	215.18
351.737	237.78
352.119	253.6
352.502	267.15
352.884	274.16
353.267	272.58
353.65	280.04
354.032	301.28
354.414	318
354.797	308.73
355.179	320.94
355.562	333.82
355.944	329.53
356.326	341.05
356.709	330.43
357.091	343.54
357.473	328.4
357.855	344.67
358.238	345.57
358.62	352.12
359.002	333.59
359.384	345.57
359.766	320.49
360.148	318.9
360.53	320.94
360.912	332.01
361.294	321.84
361.676	318.45
362.057	312.8
362.439	345.12
362.821	340.37
363.203	330.43
363.584	329.53
363.966	326.14
364.348	322.52
364.729	333.14
365.111	317.77
365.493	308.51
365.874	323.42
366.256	317.77
366.637	304.67
367.019	317.32
367.4	308.28
367.781	315.74
368.163	323.88
368.544	322.29
368.925	329.07
369.306	305.57
369.688	316.42
370.069	317.77
370.45	306.93
370.831	319.58
371.212	333.14
371.593	331.11
371.974	293.37
372.355	332.24
372.736	350.32
373.117	313.03
373.498	302.86
373.879	299.47
374.26	317.32
374.641	318.9
375.021	308.73
375.402	307.38
375.783	322.52
376.163	349.86
376.544	350.77
376.925	324.78
377.305	340.82
377.686	331.79
378.066	326.14
378.447	351.45
378.827	325.23
379.208	329.3
379.588	334.72
379.968	349.41
380.349	325.23
380.729	349.19
381.109	346.25
381.489	353.48
381.87	333.82
382.25	356.64
382.63	362.07
383.01	336.76
383.39	348.96
383.77	357.32
384.15	356.42
384.53	360.03
384.91	352.8
385.29	347.38
385.67	366.36
386.049	363.65
386.429	374.95
386.809	353.48
387.189	355.74
387.568	378.56
387.948	365.46
388.328	376.53
388.707	357.77
389.087	369.07
389.466	377.66
389.846	360.26
390.225	369.98
390.605	366.36
390.984	392.12
391.363	372.91
391.743	393.48
392.122	391.44
392.501	387.38
392.881	395.96
393.26	392.57
393.639	388.05
394.018	373.59
394.397	380.37
394.776	370.43
395.155	400.48
395.534	375.17
395.913	388.51
396.292	402.29
396.671	403.42
397.05	408.39
397.429	399.81
397.808	398.68
398.186	386.02
398.565	416.08
398.944	398
399.323	414.04
399.701	415.85
400.08	424.66
400.458	421.27
400.837	416.08
401.215	412.23
401.594	422.18
401.972	407.26
402.351	426.7
402.729	438.22
403.107	424.21
403.486	433.48
403.864	438.9
404.242	443.19
404.62	436.42
404.999	433.93
405.377	466.7
405.755	452.91
406.133	448.39
406.511	426.7
406.889	447.71
407.267	454.72
407.645	464.89
408.023	470.09
408.401	474.38
408.779	483.87
409.156	451.56
409.534	458.34
409.912	478.45
410.29	488.62
410.667	460.82
411.045	487.26
411.422	485.91
411.8	472.12
412.178	493.59
412.555	493.36
412.933	519.35
413.31	512.8
413.687	515.96
414.065	518.45
414.442	510.09
414.819	529.29
415.197	511.67
415.574	533.59
415.951	529.75
416.328	532.01
416.705	543.3
417.082	534.04
417.46	540.37
417.837	562.74
418.214	554.83
418.591	568.39
418.967	548.28
419.344	582.17
419.721	556.64
420.098	567.03
420.475	577.43
420.852	579.46
421.228	593.93
421.605	569.07
421.982	574.72
422.358	582.4
422.735	610.87
423.111	612
423.488	605.45
423.864	613.59
424.241	632.57
424.617	605.45
424.994	604.32
425.37	622.4
425.746	633.25
426.123	624.43
426.499	631.21
426.875	626.24
427.251	658.33
427.627	679.35
428.003	673.7
428.379	662.17
428.756	676.63
429.132	684.32
429.507	692
429.883	677.99
430.259	717.31
430.635	693.36
431.011	708.72
431.387	723.64
431.763	740.14
432.138	747.82
432.514	736.29
432.89	748.72
433.265	749.85
433.641	757.08
434.016	752.56
434.392	761.6
434.767	786.01
435.143	793.24
435.518	788.04
435.894	817.65
436.269	823.75
436.644	817.65
437.02	835.05
437.395	847.48
437.77	845.44
438.145	849.06
438.52	856.29
438.895	864.88
439.271	865.33
439.646	869.4
440.021	879.12
440.395	903.97
440.77	897.87
441.145	892.45
441.52	912.56
441.895	947.59
442.27	920.24
442.645	946.23
443.019	931.77
443.394	934.93
443.769	964.54
444.143	945.78
444.518	943.29
444.892	963.63
445.267	982.62
445.641	983.97
446.016	983.07
446.39	982.39
446.764	983.07
447.139	988.26
447.513	1010.86
447.887	1020.81
448.262	1033.69
448.636	1028.72
449.01	1073.23
449.384	1041.82
449.758	1045.21
450.132	1074.59
450.506	1097.87
450.88	1075.27
451.254	1056.96
451.628	1089.28
452.002	1125.44
452.376	1131.99
452.75	1129.05
453.123	1154.59
453.497	1127.7
453.871	1174.47
454.244	1193.01
454.618	1202.72
454.992	1211.99
455.365	1231.65
455.739	1200.24
456.112	1255.6
456.486	1272.33
456.859	1251.53
457.232	1285.66
457.606	1288.37
457.979	1321.59
458.352	1339.44
458.725	1386.9
459.099	1350.06
459.472	1373.34
459.845	1379.22
460.218	1417.18
460.591	1436.16
460.964	1410.85
461.337	1456.73
461.71	1506.9
462.083	1497.4
462.456	1553.22
462.829	1559.55
463.201	1527.91
463.574	1560.23
463.947	1562.94
464.32	1571.53
464.692	1601.13
465.065	1709.38
465.438	1672.77
465.81	1714.35
466.183	1720
466.555	1762.93
466.928	1779.2
467.3	1786.44
467.672	1810.39
468.045	1880.9
468.417	1867.56
468.789	1878.64
469.161	1930.16
469.534	1952.99
469.906	2007.67
470.278	2052.42
470.65	2070.95
471.022	2105.75
471.394	2166.77
471.766	2202.02
472.138	2236.37
472.51	2273.43
472.882	2350.26
473.253	2396.14
473.625	2396.59
473.997	2436.59
474.369	2493.08
474.74	2570.37
475.112	2628.22
475.484	2670.03
475.855	2758.61
476.227	2803.81
476.598	2865.5
476.97	2947.08
477.341	3031.15
477.713	3072.73
478.084	3140.75
478.455	3255.55
478.827	3276.57
479.198	3420.29
479.569	3430.69
479.94	3611.92
480.311	3650.34
480.682	3716.33
481.053	3851.47
481.424	3942.99
481.795	4054.63
482.166	4133.49
482.537	4243.09
482.908	4298.23
483.279	4426.37
483.65	4564.89
484.021	4695.06
484.391	4806.24
484.762	4918.33
485.133	4989.06
485.503	5127.37
485.874	5213.92
486.244	5372.56
486.615	5553.79
486.985	5626.79
487.356	5823.17
487.726	5893.22
488.097	6090.05
488.467	6170.05
488.837	6335.92
489.207	6402.81
489.578	6618.63
489.948	6764.61
490.318	6888.22
490.688	6941.1
491.058	7157.14
491.428	7301.32
491.798	7481.2
492.168	7645.72
492.538	7706.51
492.908	7899.27
493.278	8084.8
493.648	8096.1
494.017	8305.13
494.387	8464.45
494.757	8478.01
495.126	8702.64
495.496	8788.74
495.866	8956.87
496.235	9050.88
496.605	9214.26
496.974	9268.05
497.344	9453.58
497.713	9554.14
498.082	9699.22
498.452	9830.97
498.821	9875.49
499.19	10002.94
499.559	10135.14
499.928	10237.29
500.298	10317.74
500.667	10458.52
501.036	10503.5
501.405	10624.4
501.774	10675.24
502.143	10857.38
502.512	10833.88
502.88	11003.82
503.249	11015.8
503.618	11145.06
503.987	11274.77
504.356	11328.56
504.724	11445.17
505.093	11523.81
505.462	11509.57
505.83	11694.88
506.199	11748.21
506.567	11904.59
506.936	11943.46
507.304	12131.47
507.672	12050.12
508.041	12192.26
508.409	12246.5
508.777	12389.32
509.145	12413.05
509.514	12417.34
509.882	12496.44
510.25	12604.23
510.618	12653.72
510.986	12696.43
511.354	12829.54
511.722	12846.71
512.09	13019.36
512.458	12953.6
512.826	13019.59
513.193	13092.35
513.561	13186.59
513.929	13272.46
514.297	13371.44
514.664	13311.1
515.032	13459.8
515.4	13450.31
515.767	13462.06
516.135	13510.65
516.502	13460.03
516.869	13642.62
517.237	13543.64
517.604	13541.16
517.972	13698.89
518.339	13814.59
518.706	13798.32
519.073	13815.27
519.44	13824.76
519.808	13944.76
520.175	13981.14
520.542	14114.93
520.909	14032.67
521.276	14072.89
521.643	14163.74
522.009	14225.66
522.376	14251.42
522.743	14285.32
523.11	14379.33
523.477	14429.49
523.843	14456.84
524.21	14621.58
524.577	14632.43
524.943	14619.77
525.31	14765.53
525.676	14753.55
526.043	14728.24
526.409	14737.73
526.776	14791.74
527.142	14793.78
527.508	14871.52
527.874	14866.77
528.241	14855.02
528.607	14875.36
528.973	14869.71
529.339	14880.78
529.705	15031.74
530.071	15006.88
530.437	15048.46
530.803	15101.79
531.169	15073.77
531.535	15019.99
531.901	15090.72
532.267	15031.29
532.632	14985.64
532.998	15007.11
533.364	15095.24
533.73	15122.13
534.095	15211.17
534.461	14970.04
534.826	15085.75
535.192	15049.36
535.557	15185.86
535.923	14996.03
536.288	15061.34
536.653	15122.81
537.019	14994.9
537.384	14954.9
537.749	14947.22
538.114	14933.89
538.479	14908.35
538.845	15007.78
539.21	14834.23
539.575	14869.93
539.94	14815.47
540.305	14837.39
540.67	14820.22
541.034	14738.41
541.399	14781.57
541.764	14794
542.129	14739.09
542.494	14715.81
542.858	14662.71
543.223	14645.31
543.587	14590.39
543.952	14580.9
544.316	14544.74
544.681	14516.27
545.045	14515.37
545.41	14528.93
545.774	14525.76
546.138	14434.24
546.503	14457.29
546.867	14372.32
547.231	14378.87
547.595	14350.63
547.959	14340.46
548.324	14248.03
548.688	14246.67
549.052	14342.72
549.416	14284.86
549.779	14216.39
550.143	14152.44
550.507	14167.35
550.871	14059.33
551.235	14123.96
551.599	14184.08
551.962	14031.09
552.326	14068.82
552.689	14014.82
553.053	13912.67
553.417	13999.9
553.78	14119.67
554.143	13984.31
554.507	14002.84
554.87	13963.52
555.234	14183.17
555.597	13914.48
555.96	13932.78
556.323	13924.65
556.686	13922.16
557.05	13970.52
557.413	13850.53
557.776	13811.43
558.139	13961.94
558.502	13859.34
558.865	13803.52
559.228	14013.46
559.59	13986.79
559.953	13970.3
560.316	14063.63
560.679	13918.32
561.041	14105.21
561.404	13965.78
561.767	13990.86
562.129	14001.03
562.492	14079.22
562.854	14064.31
563.217	14077.64
563.579	14038.09
563.941	14058.66
564.304	14135.49
564.666	14124.19
565.028	14169.61
565.39	14107.92
565.753	14203.28
566.115	14131.42
566.477	14133.46
566.839	14257.75
567.201	14290.06
567.563	14214.13
567.925	14288.25
568.287	14237.63
568.648	14304.3
569.01	14364.86
569.372	14391.53
569.734	14395.14
570.095	14313.79
570.457	14463.16
570.819	14472.43
571.18	14431.75
571.542	14485.76
571.903	14413.67
572.265	14489.38
572.626	14475.59
572.987	14513.56
573.349	14489.83
573.71	14530.51
574.071	14580.45
574.432	14542.03
574.794	14559.66
575.155	14612.77
575.516	14494.58
575.877	14536.61
576.238	14644.4
576.599	14590.39
576.96	14631.52
577.32	14690.73
577.681	14702.71
578.042	14733.44
578.403	14655.93
578.763	14726.66
579.124	14679.2
579.485	14723.05
579.845	14743.84
580.206	14640.56
580.566	14622.48
580.927	14773.67
581.287	14698.64
581.648	14664.06
582.008	14742.93
582.368	14723.27
582.728	14697.51
583.089	14692.09
583.449	14739.32
583.809	14728.47
584.169	14648.47
584.529	14671.07
584.889	14748.36
585.249	14613.44
585.609	14629.26
585.969	14713.33
586.329	14582.48
586.688	14621.8
587.048	14626.78
587.408	14561.47
587.768	14564.86
588.127	14621.58
588.487	14474.69
588.846	14657.06
589.206	14517.63
589.565	14526.89
589.925	14548.59
590.284	14619.77
590.643	14525.99
591.003	14530.28
591.362	14517.63
591.721	14530.73
592.08	14467.91
592.44	14540.45
592.799	14571.18
593.158	14441.7
593.517	14500.45
593.876	14532.54
594.235	14388.36
594.593	14443.05
594.952	14554.69
595.311	14498.19
595.67	14541.81
596.029	14460.68
596.387	14497.97
596.746	14558.08
597.104	14391.75
597.463	14449.38
597.822	14370.51
598.18	14409.38
598.538	14482.6
598.897	14497.29
599.255	14413
599.613	14567.34
599.972	14460.45
600.33	14518.98
600.688	14427.23
601.046	14462.26
601.404	14565.08
601.762	14481.92
602.12	14568.02
602.478	14472.66
602.836	14558.08
603.194	14489.83
603.552	14485.99
603.91	14490.28
604.268	14490.96
604.625	14398.53
604.983	14542.03
605.341	14462.49
605.698	14476.27
606.056	14438.76
606.413	14429.04
606.771	14532.99
607.128	14500.68
607.485	14446.22
607.843	14507.23
608.2	14563.28
608.557	14580.22
608.914	14521.47
609.272	14542.71
609.629	14565.76
609.986	14628.58
610.343	14628.81
610.7	14690.73
611.057	14705.87
611.414	14625.19
611.771	14638.53
612.127	14678.07
612.484	14646.89
612.841	14727.34
613.198	14632.65
613.554	14683.27
613.911	14760.33
614.267	14645.31
614.624	14702.93
614.98	14801.24
615.337	14785.42
615.693	14800.78
616.05	14737.28
616.406	14873.32
616.762	14817.73
617.118	14787
617.475	14824.29
617.831	14857.28
618.187	14880.56
618.543	14868.35
618.899	14921.46
619.255	14871.74
619.611	14903.15
619.967	14940.67
620.323	14930.05
620.678	14919.88
621.034	14890.5
621.39	14886.88
621.746	14860.44
622.101	15015.01
622.457	14845.3
622.812	14968.24
623.168	14926.88
623.523	14984.51
623.879	15074
624.234	14816.38
624.589	15029.25
624.945	15025.41
625.3	14943.83
625.655	14966.43
626.01	14976.6
626.365	14936.15
626.72	14942.7
627.075	14919.88
627.43	14931.85
627.785	14913.1
628.14	14917.39
628.495	14900.22
628.85	14907
629.205	14753.1
629.559	14898.63
629.914	14825.42
630.269	14832.42
630.623	14723.72
630.978	14766.43
631.332	14796.26
631.687	14896.15
632.041	14751.74
632.396	14776.83
632.75	14717.4
633.104	14738.86
633.459	14632.2
633.813	14648.92
634.167	14690.05
634.521	14615.25
634.875	14704.74
635.229	14624.74
635.583	14525.31
635.937	14485.54
636.291	14535.03
636.645	14484.63
636.999	14484.18
637.352	14476.95
637.706	14481.02
638.06	14531.19
638.413	14478.08
638.767	14462.03
639.121	14399.44
639.474	14344.98
639.828	14429.04
640.181	14427.46
640.534	14327.35
640.888	14368.93
641.241	14300.46
641.594	14295.71
641.947	14370.96
642.301	14301.14
642.654	14325.09
643.007	14329.61
643.36	14257.52
643.713	14299.1
644.066	14293
644.419	14266.11
644.771	14128.26
645.124	13991.54
645.477	13980.92
645.83	13886
646.182	13819.79
646.535	13827.7
646.888	13814.82
647.24	13714.03
647.593	13804.65
647.945	13749.51
648.298	13648.27
648.65	13669.51
649.002	13660.02
649.355	13716.97
649.707	13776.86
650.059	13820.24
650.411	14013.01
650.763	14025.89
651.115	14124.87
651.467	14151.08
651.819	14030.63
652.171	14122.38
652.523	14025.66
652.875	14086.23
653.227	14040.13
653.578	14147.24
653.93	14052.78
654.282	13957.87
654.633	13997.41
654.985	13976.4
655.337	13972.78
655.688	13969.39
656.039	14039
656.391	13982.73
656.742	13980.92
657.094	13999
657.445	14043.06
657.796	13873.58
658.147	13999.9
658.498	13938.43
658.849	13970.07
659.2	13993.35
659.551	13991.54
659.902	14056.62
660.253	14032.22
660.604	14063.18
660.955	14064.53
661.306	14124.64
661.656	14065.44
662.007	14110.18
662.358	14083.74
662.708	14035.15
663.059	13990.41
663.409	14029.73
663.76	14080.58
664.11	14084.87
664.461	14011.88
664.811	14060.69
665.161	14080.58
665.511	14012.33
665.862	14037.41
666.212	14133.46
666.562	14041.26
666.912	14015.04
667.262	14006.45
667.612	13960.35
667.962	14031.54
668.312	13942.27
668.662	13977.98
669.011	13989.28
669.361	14002.61
669.711	13982.73
670.06	14008.26
670.41	14005.32
670.76	13947.02
671.109	14059.33
671.459	13999.22
671.808	13929.85
672.157	13961.71
672.507	13934.82
672.856	13976.62
673.205	13982.73
673.554	13849.62
673.904	13861.6
674.253	13968.26
674.602	13884.42
674.951	13591.32
675.3	13688.95
675.649	13834.71
675.998	13775.27
676.346	13823.63
676.695	13805.33
677.044	13797.19
677.393	13704.99
677.741	13810.07
678.09	13653.24
678.438	13797.87
678.787	13723.3
679.135	13709.51
679.484	13638.33
679.832	13659.57
680.181	13607.37
680.529	13647.59
680.877	13536.86
681.225	13448.73
681.573	13648.95
681.922	13468.39
682.27	13559.23
682.618	13542.06
682.966	13476.98
683.314	13460.71
683.661	13395.62
684.009	13316.08
684.357	13377.54
684.705	13321.73
685.053	13265.68
685.4	13277.43
685.748	13213.71
686.095	13161.73
686.443	13202.63
686.79	13243.54
687.138	13056.65
687.485	13106.82
687.832	13116.76
688.18	13159.02
688.527	13001.28
688.874	13039.47
689.221	12983.88
689.568	13039.7
689.915	12891.91
690.262	12893.26
690.609	12841.96
690.956	12746.15
691.303	12773.27
691.65	12698.69
691.997	12695.98
692.344	12687.62
692.69	12534.85
693.037	12538.92
693.383	12463.22
693.73	12550.45
694.077	12441.75
694.423	12406.72
694.769	12364.01
695.116	12309.1
695.462	12248.76
695.808	12241.08
696.155	12215.77
696.501	12152.27
696.847	12066.62
697.193	12061.42
697.539	12083.34
697.885	11984.36
698.231	11887.64
698.577	11920.18
698.923	11916.57
699.269	11837.25
699.614	11759.51
699.96	11738.04
700.306	11773.74
700.651	11697.81
700.997	11628.66
701.342	11658.04
701.688	11628.89
702.033	11550.7
702.379	11508.44
702.724	11446.97
703.069	11442.91
703.415	11386.18
703.76	11386.41
704.105	11363.36
704.45	11273.19
704.795	11188
705.14	11185.28
705.485	11188.22
705.83	11171.73
706.175	11141.67
706.52	11086.98
706.865	11065.06
707.209	11020.77
707.554	10923.37
707.899	10937.61
708.243	10866.65
708.588	10928.79
708.932	10788.23
709.277	10784.39
709.621	10802.47
709.966	10659.42
710.31	10781.68
710.654	10750.04
710.998	10641.57
711.342	10618.75
711.687	10616.49
712.031	10578.07
712.375	10555.47
712.719	10513.89
713.063	10522.93
713.407	10552.31
713.75	10497.39
714.094	10492.65
714.438	10471.41
714.782	10422.37
715.125	10393.67
715.469	10413.55
715.812	10398.64
716.156	10280.22
716.499	10310.73
716.843	10335.82
717.186	10208.59
717.53	10358.41
717.873	10273.9
718.216	10270.28
718.559	10218.53
718.902	10157.97
719.246	10167.46
719.589	10070.74
719.932	10130.17
720.275	10081.81
720.617	10023.51
720.96	10039.33
721.303	10053.56
721.646	10061.92
721.989	9952.55
722.331	9983.28
722.674	10003.62
723.016	9978.31
723.359	9899.9
723.701	10014.02
724.044	9927.46
724.386	9895.6
724.729	9960.91
725.071	9915.26
725.413	9951.19
725.755	9942.83
726.097	9844.76
726.439	9856.05
726.782	9818.54
727.124	9941.25
727.465	9873.68
727.807	9849.73
728.149	9796.85
728.491	9852.66
728.833	9887.24
729.175	9781.25
729.516	9830.52
729.858	9752.55
730.199	9829.16
730.541	9830.52
730.882	9729.5
731.224	9815.6
731.565	9657.64
731.906	9792.78
732.248	9739.9
732.589	9703.52
732.93	9671.43
733.271	9835.94
733.612	9740.58
733.953	9776.06
734.294	9724.31
734.635	9620.58
734.976	9762.72
735.317	9662.84
735.658	9680.24
735.999	9714.59
736.339	9676.85
736.68	9688.83
737.021	9710.3
737.361	9681.37
737.702	9717.53
738.042	9722.5
738.383	9687.25
738.723	9677.75
739.063	9694.25
739.404	9838.2
739.744	9672.1
740.084	9760.69
740.424	9703.74
740.764	9771.08
741.104	9793.46
741.444	9818.54
741.784	9756.85
742.124	9860.57
742.464	9852.89
742.804	9834.13
743.143	9849.95
743.483	9863.29
743.823	9788.94
744.162	9916.39
744.502	9965.88
744.841	9900.12
745.181	10016.5
745.52	9950.29
745.86	9989.16
746.199	10019.44
746.538	10112.32
746.877	10159.1
747.216	10171.53
747.556	10205.65
747.895	10289.94
748.234	10315.03
748.573	10335.14
748.911	10397.28
749.25	10487.45
749.589	10430.95
749.928	10574.91
750.267	10668.01
750.605	10711.63
750.944	10767.44
751.283	10802.24
751.621	10923.82
751.96	10920.66
752.298	11055.8
752.636	11114.78
752.975	11216.47
753.313	11266.86
753.651	11446.52
753.989	11500.76
754.327	11523.58
754.666	11637.25
755.004	11855.1
755.342	11959.5
755.679	12112.27
756.017	12194.52
756.355	12362.2
756.693	12374.86
757.031	12586.15
757.368	12625.93
757.706	12838.12
758.044	13041.28
758.381	13092.35
758.719	13260.94
759.056	13422.51
759.394	13505.9
759.731	13735.5
760.068	13796.74
760.405	14000.13
760.743	14135.04
761.08	14301.36
761.417	14445.54
761.754	14606.44
762.091	14753.78
762.428	14934.11
762.765	15012.08
763.102	15175.46
763.438	15314.67
763.775	15459.3
764.112	15621.55
764.449	15843.69
764.785	15963.01
765.122	16030.58
765.458	16141.31
765.795	16395.77
766.131	16546.05
766.467	16594.86
766.804	16721.64
767.14	16841.86
767.476	17147.39
767.812	17126.37
768.148	17278.46
768.485	17386.7
768.821	17480.26
769.157	17644.1
769.492	17786.47
769.828	17933.36
770.164	17955.73
770.5	18070.75
770.836	18176.51
771.171	18209.28
771.507	18411.99
771.842	18400.91
772.178	18532.89
772.513	18549.84
772.849	18645.43
773.184	18756.16
773.519	18860.11
773.855	18905.76
774.19	18893.33
774.525	18928.81
774.86	19046.77
775.195	19112.76
775.53	19099.43
775.865	19164.28
776.2	19057.39
776.535	19136.04
776.87	19213.1
777.205	19253.77
777.539	19275.92
777.874	19466.88
778.209	19278.86
778.543	19328.12
778.878	19372.41
779.212	19462.58
779.547	19353.88
779.881	19472.3
780.215	19492.19
780.55	19490.38
780.884	19524.5
781.218	19476.82
781.552	19486.99
781.886	19461.9
782.22	19506.65
782.554	19423.26
782.888	19287.22
783.222	19381.45
783.556	19349.14
783.889	19333.09
784.223	19281.57
784.557	19336.03
784.89	19306.2
785.224	19288.12
785.557	19179.2
785.891	19189.59
786.224	19213.32
786.558	19213.1
786.891	19106.66
787.224	19132.42
787.557	19187.33
787.891	19150.05
788.224	19194.57
788.557	19113.44
788.89	19111.86
789.223	19090.16
789.556	18957.96
789.888	18973.78
790.221	18955.93
790.554	18849.04
790.887	18888.81
791.219	18881.81
791.552	18825.54
791.884	18704.41
792.217	18798.19
792.549	18570.85
792.882	18566.56
793.214	18627.58
793.546	18623.28
793.879	18437.75
794.211	18411.76
794.543	18557.07
794.875	18416.06
795.207	18581.02
795.539	18398.2
795.871	18396.39
796.203	18202.95
796.535	18263.29
796.867	18141.71
797.198	18160.92
797.53	18200.92
797.862	18072.11
798.193	18200.92
798.525	18039.57
798.856	18051.77
799.188	17861.49
799.519	17882.74
799.85	17706.24
800.182	17815.39
800.513	17682.29
800.844	17626.02
801.175	17700.59
801.506	17720.71
801.837	17483.88
802.168	17553.71
802.499	17423.31
802.83	17524.1
803.161	17408.4
803.491	17345.12
803.822	17410.66
804.153	17389.87
804.483	17239.14
804.814	17115.3
805.145	17214.73
805.475	17065.81
805.805	17061.06
806.136	17042.98
806.466	17073.27
806.796	17083.21
807.126	16871.01
807.457	16879.37
807.787	16942.42
808.117	16786.04
808.447	16803.44
808.777	16753.27
809.107	16629.21
809.436	16648.42
809.766	16643.45
810.096	16614.97
810.426	16487.29
810.755	16489.33
811.085	16589.66
811.414	16433.73
811.744	16304.7
812.073	16362.55
812.403	16330.01
812.732	16316.9
813.061	16224.47
813.39	16200.97
813.719	16193.51
814.049	16257.92
814.378	16182.67
814.707	16142.22
815.036	16106.74
815.365	16008.44
815.693	15814.99
816.022	15911.94
816.351	15783.36
816.68	15872.39
817.008	15912.17
817.337	15769.12
817.665	15723.02
817.994	15714.21
818.322	15788.78
818.651	15604.6
818.979	15544.94
819.307	15779.97
819.636	15623.13
819.964	15536.58
820.292	15583.36
820.62	15589.24
820.948	15571.38
821.276	15564.6
821.604	15494.32
821.932	15508.34
822.259	15639.41
822.587	15557.15
822.915	15405.06
823.243	15560.54
823.57	15440.31
823.898	15533.42
824.225	15429.24
824.553	15472.18
824.88	15572.97
825.207	15642.34
825.535	15553.98
825.862	15572.74
826.189	15482.12
826.516	15631.27
826.843	15584.04
827.17	15610.48
827.497	15518.05
827.824	15518.96
828.151	15642.34
828.478	15540.42
828.805	15589.91
829.131	15467.21
829.458	15492.06
829.785	15472.4
830.111	15469.01
830.438	15576.13
830.764	15577.03
831.09	15526.19
831.417	15482.57
831.743	15617.26
832.069	15449.58
832.395	15433.31
832.722	15505.4
833.048	15436.02
833.374	15396.25
833.7	15401.45
834.026	15436.25
834.351	15405.96
834.677	15367.32
835.003	15463.36
835.329	15370.49
835.654	15326.19
835.98	15296.59
836.306	15399.86
836.631	15290.71
836.956	15400.54
837.282	15363.93
837.607	15197.61
837.932	15176.14
838.258	15223.14
838.583	15240.55
838.908	15121.68
839.233	15166.2
839.558	15052.53
839.883	14983.15
840.208	14994.22
840.533	14944.06
840.858	14996.48
841.182	14988.12
841.507	14904.51
841.832	14865.19
842.156	14878.07
842.481	14942.02
842.805	14877.17
843.13	14859.54
843.454	14741.12
843.778	14723.27
844.103	14657.96
844.427	14665.42
844.751	14635.36
845.075	14610.28
845.399	14580.45
845.723	14500.68
846.047	14513.56
846.371	14384.52
846.695	14349.27
847.019	14301.59
847.343	14255.03
847.666	14135.04
847.99	14140.69
848.313	14137.52
848.637	13980.24
848.96	13942.27
849.284	13907.93
849.607	13840.36
849.931	13780.47
850.254	13746.8
850.577	13691.43
850.9	13622.28
851.223	13594.04
851.546	13563.08
851.869	13346.13
852.192	13455.06
852.515	13278.11
852.838	13248.73
853.161	13227.49
853.483	13141.84
853.806	13192.24
854.129	13092.35
854.451	13116.53
854.774	12979.36
855.096	12947.27
855.419	12986.14
855.741	13016.2
856.063	12819.37
856.385	12869.53
856.708	12726.49
857.03	12782.31
857.352	12792.93
857.674	12705.7
857.996	12631.35
858.318	12582.54
858.64	12554.06
858.961	12482.2
859.283	12503.22
859.605	12367.63
859.926	12519.49
860.248	12382.99
860.57	12386.61
860.891	12362.43
861.212	12279.27
861.534	12235.88
861.855	12236.78
862.176	12305.03
862.498	12190
862.819	12230.68
863.14	12153.62
863.461	12160.4
863.782	12131.93
864.103	12061.87
864.424	12059.39
864.745	12054.64
865.065	11980.97
865.386	11954.53
865.707	11910.24
866.027	11945.72
866.348	11905.72
866.668	11992.04
866.989	11902.1
867.309	11749.11
867.63	11914.08
867.95	11776.91
868.27	11728.1
868.59	11818.04
868.91	11747.76
869.23	11787.53
869.55	11671.15
869.87	11754.76
870.19	11635.67
870.51	11671.6
870.83	11657.59
871.15	11632.96
871.469	11644.48
871.789	11594.09
872.109	11527.65
872.428	11503.24
872.748	11552.73
873.067	11425.5
873.386	11550.25
873.706	11519.97
874.025	11324.94
874.344	11411.27
874.663	11413.53
874.982	11355.9
875.301	11387.31
875.62	11340.31
875.939	11291.95
876.258	11368.78
876.577	11289.01
876.896	11296.92
877.214	11203.14
877.533	11236.58
877.852	11229.35
878.17	11212.18
878.489	11195.91
878.807	11232.29
879.125	11184.16
879.444	11199.3
879.762	11136.02
880.08	11106.87
880.398	11008.34
880.716	11128.79
881.034	10984.61
881.352	11107.55
881.67	10994.56
881.988	10985.52
882.306	10987.55
882.624	10858.29
882.941	10865.29
883.259	10846.54
883.577	10853.54
883.894	10854.22
884.212	10845.41
884.529	10822.13
884.846	10755.92
885.164	10752.08
885.481	10705.52
885.798	10680.89
886.115	10578.07
886.432	10620.33
886.75	10584.85
887.067	10567.22
887.383	10532.19
887.7	10557.28
888.017	10513.21
888.334	10524.96
888.651	10480.9
888.967	10436.6
889.284	10416.04
889.6	10340.11
889.917	10198.42
890.233	10342.14
890.55	10320.22
890.866	10230.28
891.182	10283.61
891.498	10217.63
891.815	10197.74
892.131	10120.91
892.447	10099.89
892.763	10001.81
893.079	10037.07
893.395	9964.07
893.71	9952.78
894.026	9954.36
894.342	9984.64
894.657	9779.9
894.973	9774.25
895.289	9831.42
895.604	9770.86
895.92	9714.14
896.235	9655.61
896.55	9670.75
896.865	9652.9
897.181	9589.85
897.496	9609.06
897.811	9564.54
898.126	9523.86
898.441	9477.53
898.756	9394.82
899.071	9429.17
899.386	9417.2
899.7	9372
900.015	9295.17
900.33	9211.55
900.644	9285.22
900.959	9231.21
901.273	9179.91
901.588	9170.42
901.902	9104.44
902.216	9097.43
902.531	9080.26
902.845	9000.26
903.159	8983.08
903.473	8944.44
903.787	8848.62
904.101	8789.42
904.415	8830.09
904.729	8855.4
905.042	8757.1
905.356	8732.24
905.67	8683.66
905.984	8652.02
906.297	8619.48
906.611	8633.49
906.924	8618.12
907.237	8547.39
907.551	8560.04
907.864	8495.19
908.177	8414.96
908.491	8433.49
908.804	8379.94
909.117	8341.97
909.43	8233.95
909.743	8265.59
910.056	8244.57
910.368	8200.05
910.681	8174.74
910.994	8172.93
911.307	8119.83
911.619	8051.13
911.932	8038.25
912.244	7990.34
912.557	7940.85
912.869	7936.56
913.181	7961.41
913.494	7861.76
913.806	7874.86
914.118	7781.08
914.43	7705.6
914.742	7719.39
915.054	7688.65
915.366	7686.39
915.678	7670.58
915.99	7576.79
916.302	7591.71
916.613	7502.9
916.925	7520.75
917.236	7469
917.548	7436.01
917.859	7477.36
918.171	7332.28
918.482	7331.38
918.794	7342.45
919.105	7337.25
919.416	7191.49
919.727	7280.08
920.038	7245.28
920.349	7163.02
920.66	7171.38
920.971	7144.94
921.282	7151.04
921.593	7032.85
921.903	7015
922.214	6998.28
922.525	6962.8
922.835	6967.54
923.146	6899.75
923.456	6917.15
923.767	6874.21
924.077	6846.87
924.387	6774.78
924.697	6779.75
925.008	6710.83
925.318	6735.68
925.628	6734.78
925.938	6685.29
926.248	6636.25
926.558	6623.37
926.867	6631.28
927.177	6587.67
927.487	6537.27
927.796	6509.02
928.106	6391.74
928.416	6398.97
928.725	6428.8
929.034	6362.13
929.344	6328.69
929.653	6314.68
929.962	6288.46
930.271	6278.52
930.581	6247.11
930.89	6179.09
931.199	6142.03
931.508	6184.06
931.817	6184.06
932.125	6108.81
932.434	6136.38
932.743	6108.81
933.051	6018.19
933.36	5955.14
933.669	5979.09
933.977	5998.98
934.286	5938.87
934.594	5907.68
934.902	5893.22
935.21	5872.66
935.519	5836.27
935.827	5817.74
936.135	5814.13
936.443	5740
936.751	5735.71
937.059	5724.41
937.367	5749.5
937.674	5690.97
937.982	5695.94
938.29	5635.6
938.597	5622.27
938.905	5574.13
939.213	5556.51
939.52	5532.55
939.827	5542.95
940.135	5471.76
940.442	5484.87
940.749	5455.27
941.056	5402.16
941.363	5424.31
941.67	5404.87
941.977	5344.08
942.284	5351.54
942.591	5344.31
942.898	5287.13
943.205	5243.52
943.511	5276.29
943.818	5254.59
944.125	5210.07
944.431	5171.66
944.738	5164.43
945.044	5094.37
945.35	5073.58
945.657	5090.08
945.963	5083.07
946.269	5039.91
946.575	5023.41
946.881	4948.61
947.187	4978.89
947.493	4954.71
947.799	4992.68
948.105	4913.59
948.41	4905.22
948.716	4881.27
949.022	4874.72
949.327	4826.36
949.633	4757.21
949.938	4797.88
950.244	4765.57
950.549	4730.99
950.854	4750.88
951.16	4722.18
951.465	4698.22
951.77	4692.57
952.075	4646.47
952.38	4619.58
952.685	4627.49
952.99	4596.53
953.294	4539.13
953.599	4538.68
953.904	4523.09
954.209	4493.26
954.513	4519.25
954.818	4460.49
955.122	4470.89
955.426	4494.39
955.731	4416.88
956.035	4374.16
956.339	4379.59
956.643	4345.46
956.948	4324.9
957.252	4331
957.556	4308.86
957.86	4271.79
958.163	4247.16
958.467	4277.22
958.771	4190.67
959.075	4184.11
959.378	4192.7
959.682	4185.24
959.985	4176.88
960.289	4118.8
960.592	4130.56
960.896	4099.82
961.199	4098.69
961.502	4078.58
961.805	4061.86
962.108	4020.5
962.411	4046.94
962.714	4003.78
963.017	3995.19
963.32	3985.25
963.623	3973.05
963.926	3954.74
964.228	3888.98
964.531	3906.83
964.833	3902.76
965.136	3863.22
965.438	3836.33
965.741	3884.69
966.043	3785.93
966.345	3800.39
966.648	3796.33
966.95	3778.02
967.252	3744.8
967.554	3688.08
967.856	3707.97
968.158	3681.98
968.46	3686.95
968.761	3682.43
969.063	3623.68
969.365	3620.74
969.666	3647.63
969.968	3563.79
970.269	3588.87
970.571	3597.24
970.872	3580.74
971.174	3516.79
971.475	3534.19
971.776	3510.23
972.077	3496.22
972.378	3491.25
972.679	3471.82
972.98	3446.73
973.281	3419.16
973.582	3471.14
973.883	3440.63
974.183	3389.78
974.484	3381.87
974.785	3359.28
975.085	3362.67
975.386	3371.25
975.686	3321.31
975.986	3291.26
976.287	3291.03
976.587	3233.4
976.887	3251.03
977.187	3256
977.487	3230.69
977.787	3215.78
978.087	3239.73
978.387	3144.14
978.687	3140.3
978.987	3138.72
979.286	3112.95
979.586	3151.15
979.885	3060.75
980.185	3089.23
980.484	3047.65
980.784	3031.6
981.083	3036.8
981.382	3051.94
981.682	3026.63
981.981	3023.69
982.28	3020.3
982.579	2972.85
982.878	3002
983.177	2948.21
983.475	2955.22
983.774	2939.17
984.073	2880.64
984.372	2899.63
984.67	2886.52
984.969	2880.87
985.267	2877.48
985.566	2859.63
985.864	2822.34
986.162	2830.93
986.461	2827.09
986.759	2782.79
987.057	2788.44
987.355	2774.66
987.653	2764.49
987.951	2776.01
988.249	2755.45
988.547	2740.99
988.844	2728.33
989.142	2703.47
989.44	2684.49
989.737	2683.81
990.035	2679.97
990.332	2690.37
990.63	2646.75
990.927	2667.77
991.224	2630.93
991.521	2617.83
991.819	2594.55
992.116	2579.86
992.413	2569.01
992.71	2548.9
993.006	2578.73
993.303	2535.12
993.6	2519.07
993.897	2529.92
994.193	2470.03
994.49	2495.34
994.787	2498.51
995.083	2438.62
995.379	2470.94
995.676	2425.97
995.972	2441.33
996.268	2414.44
996.565	2409.7
996.861	2367.21
997.157	2344.16
997.453	2389.81
997.749	2358.4
998.044	2369.92
998.34	2348.68
998.636	2333.31
998.932	2304.39
999.227	2290.83
999.523	2291.06
999.818	2263.26
1000.114	2228.46
1000.409	2254.22
1000.704	2209.02
1001	2239.53
1001.295	2251.73
1001.59	2170.38
1001.885	2186.88
1002.18	2181.68
1002.475	2156.14
1002.77	2135.35
1003.065	2137.16
1003.359	2155.24
1003.654	2138.74
1003.949	2118.18
1004.243	2092.64
1004.538	2057.62
1004.832	2055.81
1005.127	2050.61
1005.421	2080.67
1005.715	2072.08
1006.009	2031.18
1006.304	1995.24
1006.598	1979.88
1006.892	1999.09
1007.186	1958.63
1007.48	1971.97
1007.773	1939.88
1008.067	1963.83
1008.361	1955.7
1008.655	1923.38
1008.948	1918.18
1009.242	1889.94
1009.535	1869.82
1009.829	1873.21
1010.122	1878.86
1010.415	1863.27
1010.708	1855.81
1011.001	1833.67
1011.295	1824.85
1011.588	1799.09
1011.881	1806.32
1012.173	1779.2
1012.466	1801.35
1012.759	1770.17
1013.052	1758.87
1013.344	1716.38
1013.637	1755.7
1013.93	1740.56
1014.222	1720.9
1014.514	1722.03
1014.807	1736.72
1015.099	1651.98
1015.391	1696.04
1015.683	1680
1015.976	1618.53
1016.268	1674.12
1016.56	1645.65
1016.851	1620.79
1017.143	1623.05
1017.435	1598.87
1017.727	1601.58
1018.018	1582.83
1018.31	1597.74
1018.602	1567.68
1018.893	1551.41
1019.185	1557.74
1019.476	1503.96
1019.767	1542.37
1020.058	1526.1
1020.35	1515.03
1020.641	1490.4
1020.932	1468.48
1021.223	1473.45
1021.514	1477.07
1021.804	1459.44
1022.095	1421.47
1022.386	1447.91
1022.677	1416.95
1022.967	1433
1023.258	1423.96
1023.548	1391.42
1023.839	1412.89
1024.129	1381.25
1024.419	1404.53
1024.709	1359.55
1025	1381.93
1025.29	1347.8
1025.58	1323.4
1025.87	1334.92
1026.16	1331.76
1026.449	1294.7
1026.739	1321.59
1027.029	1299.22
1027.319	1298.99
1027.608	1300.57
1027.898	1282.27
1028.187	1268.94
1028.477	1276.17
1028.766	1229.84
1029.055	1245.43
1029.344	1244.3
1029.634	1253.12
1029.923	1216.73
1030.212	1205.43
1030.501	1225.32
1030.79	1192.55
1031.078	1165.44
1031.367	1176.06
1031.656	1176.06
1031.945	1150.97
1032.233	1163.63
1032.522	1152.55
1032.81	1123.18
1033.099	1124.53
1033.387	1111.2
1033.675	1107.81
1033.963	1112.78
1034.251	1105.1
1034.54	1088.38
1034.828	1100.8
1035.116	1069.62
1035.403	1064.65
1035.691	1068.49
1035.979	1051.77
1036.267	1056.74
1036.554	1028.04
1036.842	1040.92
1037.129	1028.26
1037.417	1014.7
1037.704	1014.48
1037.992	1004.31
1038.279	1025.78
1038.566	999.79
1038.853	999.79
1039.14	999.79
