Data from hue_310_FLMS001491_81.txt Node
Date: Mon Feb 06 15:50:19 GMT 2017
User: dcchb
Spectrometer: FLMS00149
Trigger mode: 0
Integration Time (sec): 2.000000E-2
Scans to average: 10
Electric dark correction enabled: true
Nonlinearity correction enabled: false
Boxcar width: 0
XAxis mode: Wavelengths
Number of Pixels in Spectrum: 2048
>>>>>Begin Spectral Data<<<<<
341.393	-5.01
341.776	-5.01
342.16	-5.01
342.543	-57.22
342.927	-52.7
343.31	-64.45
343.693	-61.96
344.077	-50.66
344.46	-62.19
344.843	-51.57
345.226	-50.44
345.61	-48.18
345.993	-22.41
346.376	-5.92
346.759	9.45
347.142	33.4
347.525	40.63
347.908	59.39
348.291	69.56
348.674	82.67
349.057	122.67
349.44	128.54
349.823	132.16
350.206	168.77
350.588	206.73
350.971	224.36
351.354	234.3
351.737	242.89
352.119	255.54
352.502	265.94
352.884	287.86
353.267	287.86
353.65	268.2
354.032	285.6
354.414	298.93
354.797	307.97
355.179	309.78
355.562	349.1
355.944	316.33
356.326	325.15
356.709	328.99
357.091	323.56
357.473	347.07
357.855	349.55
358.238	317.92
358.62	322.66
359.002	337.12
359.384	342.1
359.766	346.62
360.148	347.52
360.53	333.51
360.912	334.41
361.294	340.51
361.676	341.42
362.057	340.29
362.439	342.55
362.821	305.26
363.203	327.63
363.584	331.02
363.966	310.01
364.348	337.35
364.729	335.32
365.111	320.18
365.493	314.07
365.874	315.66
366.256	309.33
366.637	314.75
367.019	309.1
367.4	301.64
367.781	321.98
368.163	316.79
368.544	336.67
368.925	299.16
369.306	306.84
369.688	309.33
370.069	324.24
370.45	324.02
370.831	297.12
371.212	310.91
371.593	332.15
371.974	316.11
372.355	324.69
372.736	323.34
373.117	322.89
373.498	326.95
373.879	320.63
374.26	321.98
374.641	316.79
375.021	321.53
375.402	311.59
375.783	324.47
376.163	322.21
376.544	315.43
376.925	337.35
377.305	334.64
377.686	344.36
378.066	345.49
378.447	354.98
378.827	326.73
379.208	318.59
379.588	344.58
379.968	341.64
380.349	343.45
380.729	349.55
381.109	359.5
381.489	353.39
381.87	361.53
382.25	346.16
382.63	347.97
383.01	355.43
383.39	346.62
383.77	357.46
384.15	369.67
384.53	363.56
384.91	358.14
385.29	372.6
385.67	364.47
386.049	366.95
386.429	339.84
386.809	358.37
387.189	352.94
387.568	356.33
387.948	353.85
388.328	360.17
388.707	352.49
389.087	381.42
389.466	362.66
389.846	380.06
390.225	383.45
390.605	388.42
390.984	366.95
391.363	368.99
391.743	371.93
392.122	384.13
392.501	378.48
392.881	423.22
393.26	381.19
393.639	385.71
394.018	388.65
394.397	412.38
394.776	363.56
395.155	382.09
395.534	403.11
395.913	403.79
396.292	402.21
396.671	391.36
397.05	392.04
397.429	398.14
397.808	399.27
398.186	414.86
398.565	401.53
398.944	413.96
399.323	401.75
399.701	426.61
400.08	427.29
400.458	419.38
400.837	425.71
401.215	424.58
401.594	423.68
401.972	423
402.351	432.26
402.729	405.82
403.107	426.16
403.486	438.59
403.864	431.81
404.242	435.65
404.62	454.86
404.999	450.12
405.377	479.95
405.755	448.31
406.133	479.72
406.511	467.06
406.889	463
407.267	464.35
407.645	467.74
408.023	490.11
408.401	467.52
408.779	503.45
409.156	518.36
409.534	500.74
409.912	524.46
410.29	515.2
410.667	514.75
411.045	528.53
411.422	525.14
411.8	541.41
412.178	544.35
412.555	553.62
412.933	557.23
413.31	563.78
413.687	598.81
414.065	610.79
414.442	580.96
414.819	601.3
415.197	594.52
415.574	615.53
415.951	623.9
416.328	637.23
416.705	636.78
417.082	635.42
417.46	663.67
417.837	671.8
418.214	654.63
418.591	678.36
418.967	679.71
419.344	694.18
419.721	690.56
420.098	693.72
420.475	709.09
420.852	713.61
421.228	724.46
421.605	732.14
421.982	750.22
422.358	759.94
422.735	756.55
423.111	754.06
423.488	788.64
423.864	780.73
424.241	803.55
424.617	818.69
424.994	827.05
425.37	801.97
425.746	811.01
426.123	824.57
426.499	852.14
426.875	840.39
427.251	869.77
427.627	872.93
428.003	872.25
428.379	876.32
428.756	906.6
429.132	916.54
429.507	923.78
429.883	937.33
430.259	956.77
430.635	947.05
431.011	970.78
431.387	994.06
431.763	1016.2
432.138	1013.94
432.514	1029.31
432.89	1055.98
433.265	1038.8
433.641	1037.44
434.016	1043.09
434.392	1069.53
434.767	1103.66
435.143	1086.48
435.518	1084.22
435.894	1130.32
436.269	1162.19
436.644	1138.68
437.02	1162.64
437.395	1161.06
437.77	1159.7
438.145	1193.6
438.52	1183.2
438.895	1205.58
439.271	1207.61
439.646	1232.69
440.021	1236.99
440.395	1279.7
440.77	1221.62
441.145	1248.29
441.52	1281.28
441.895	1277.66
442.27	1248.51
442.645	1295.74
443.019	1305.46
443.394	1294.39
443.769	1318.57
444.143	1326.48
444.518	1321.73
444.892	1344.33
445.267	1342.07
445.641	1332.58
446.016	1337.1
446.39	1385.91
446.764	1348.62
447.139	1352.92
447.513	1357.66
447.887	1362.41
448.262	1374.61
448.636	1380.03
449.01	1362.41
449.384	1392.01
449.758	1410.77
450.132	1448.96
450.506	1432.01
450.88	1439.92
451.254	1424.78
451.628	1456.42
452.002	1444.21
452.376	1456.87
452.75	1429.75
453.123	1470.65
453.497	1479.01
453.871	1497.77
454.244	1512.69
454.618	1518.11
454.992	1532.8
455.365	1516.3
455.739	1558.11
456.112	1570.31
456.486	1530.31
456.859	1582.51
457.232	1612.12
457.606	1575.28
457.979	1601.72
458.352	1628.62
458.725	1635.85
459.099	1634.49
459.472	1686.92
459.845	1649.18
460.218	1680.14
460.591	1698.44
460.964	1702.96
461.337	1728.5
461.71	1762.17
462.083	1766.46
462.456	1777.54
462.829	1757.88
463.201	1793.58
463.574	1782.51
463.947	1815.73
464.32	1863.41
464.692	1876.97
465.065	1874.26
465.438	1915.61
465.81	1879
466.183	1894.37
466.555	1946.35
466.928	1975.05
467.3	1934.14
467.672	1972.34
468.045	1985.22
468.417	2011.2
468.789	2020.47
469.161	2025.22
469.534	2065.44
469.906	2089.39
470.278	2101.82
470.65	2148.83
471.022	2153.35
471.394	2177.98
471.766	2193.35
472.138	2190.63
472.51	2250.52
472.882	2251.2
473.253	2260.46
473.625	2335.49
473.997	2323.74
474.369	2355.83
474.74	2319.44
475.112	2407.8
475.484	2405.32
475.855	2447.58
476.227	2467.92
476.598	2482.38
476.97	2505.88
477.341	2570.96
477.713	2587.01
478.084	2613
478.455	2658.64
478.827	2669.04
479.198	2725.99
479.569	2707.01
479.94	2799.66
480.311	2737.29
480.682	2821.8
481.053	2898.41
481.424	2897.28
481.795	2915.59
482.166	2985.42
482.537	2975.7
482.908	3035.58
483.279	3073.32
483.65	3081.68
484.021	3190.16
484.391	3177.28
484.762	3161.68
485.133	3175.02
485.503	3201.68
485.874	3235.35
486.244	3349.47
486.615	3367.1
486.985	3345.63
487.356	3434.9
487.726	3416.82
488.097	3490.04
488.467	3508.57
488.837	3532.52
489.207	3563.93
489.578	3649.58
489.948	3624.04
490.318	3672.86
490.688	3685.51
491.058	3744.27
491.428	3773.19
491.798	3822.91
492.168	3844.83
492.538	3850.25
492.908	3915.79
493.278	3967.08
493.648	3973.64
494.017	3972.28
494.387	4000.76
494.757	4019.74
495.126	4038.27
495.496	4048.66
495.866	4109.68
496.235	4078.27
496.605	4103.35
496.974	4190.58
497.344	4184.48
497.713	4233.52
498.082	4248.21
498.452	4317.13
498.821	4284.36
499.19	4296.34
499.559	4337.92
499.928	4330.69
500.298	4328.21
500.667	4395.1
501.036	4372.05
501.405	4430.8
501.774	4430.58
502.143	4419.28
502.512	4463.34
502.88	4489.33
503.249	4501.99
503.618	4512.38
503.987	4555.32
504.356	4579.5
504.724	4633.06
505.093	4592.38
505.462	4584.24
505.83	4562.1
506.199	4697.46
506.567	4702.88
506.936	4692.49
507.304	4707.86
507.672	4743.79
508.041	4753.05
508.409	4797.8
508.777	4758.02
509.145	4792.37
509.514	4838.25
509.882	4818.59
510.25	4819.04
510.618	4873.95
510.986	4863.56
511.354	4939.04
511.722	4952.37
512.09	4938.13
512.458	4930.68
512.826	4951.69
513.193	5017.23
513.561	5040.05
513.929	5007.28
514.297	5077.11
514.664	5087.06
515.032	5049.09
515.4	5130.22
515.767	5069.88
516.135	5162.76
516.502	5106.72
516.869	5206.37
517.237	5163.66
517.604	5167.96
517.972	5209.76
518.339	5244.57
518.706	5193.49
519.073	5234.4
519.44	5252.02
519.808	5283.66
520.175	5353.49
520.542	5344.22
520.909	5395.75
521.276	5345.35
521.643	5386.03
522.009	5399.59
522.376	5419.7
522.743	5472.36
523.11	5478.91
523.477	5525.46
523.843	5495.41
524.21	5530.89
524.577	5631.45
524.943	5625.12
525.31	5658.11
525.676	5675.06
526.043	5685.01
526.409	5771.56
526.776	5767.26
527.142	5774.04
527.508	5808.39
527.874	5845.91
528.241	5866.24
528.607	5921.16
528.973	5931.55
529.339	5903.53
529.705	6002.74
530.071	6046.58
530.437	6008.16
530.803	6050.87
531.169	6118.44
531.535	6084.77
531.901	6106.01
532.267	6104.2
532.632	6142.85
532.998	6236.63
533.364	6224.2
533.73	6216.97
534.095	6248.61
534.461	6280.92
534.826	6352.78
535.192	6385.33
535.557	6452.9
535.923	6407.47
536.288	6431.88
536.653	6503.52
537.019	6475.95
537.384	6530.63
537.749	6541.03
538.114	6611.08
538.479	6561.37
538.845	6621.03
539.21	6594.13
539.575	6669.39
539.94	6687.69
540.305	6755.71
540.67	6700.12
541.034	6746.9
541.399	6807.24
541.764	6873.45
542.129	6827.57
542.494	6920.23
542.858	6866.44
543.223	6919.32
543.587	6950.96
543.952	6985.54
544.316	6994.12
544.681	7023.5
545.045	7021.47
545.41	7148.47
545.774	7088.58
546.138	7126.1
546.503	7098.08
546.867	7117.51
547.231	7283.16
547.595	7259.43
547.959	7299.43
548.324	7322.48
548.688	7279.31
549.052	7315.02
549.416	7354.34
549.779	7316.6
550.143	7363.15
550.507	7415.81
550.871	7416.94
551.235	7429.37
551.599	7507.56
551.962	7547.1
552.326	7534.9
552.689	7593.66
553.053	7626.65
553.417	7614.9
553.78	7759.75
554.143	7621.23
554.507	7643.82
554.87	7692.41
555.234	7743.71
555.597	7698.29
555.96	7749.13
556.323	7837.04
556.686	7811.73
557.05	7902.35
557.413	7850.82
557.776	7875.23
558.139	7956.13
558.502	7961.78
558.865	8002.46
559.228	7977.37
559.59	8011.5
559.953	8026.87
560.316	8115.68
560.679	8070.93
561.041	8100.08
561.404	8159.74
561.767	8142.79
562.129	8224.83
562.492	8290.81
562.854	8227.09
563.217	8270.93
563.579	8305.05
563.941	8285.62
564.304	8354.31
564.666	8392.51
565.028	8421.88
565.39	8402.22
565.753	8485.38
566.115	8506.85
566.477	8521.54
566.839	8534.2
567.201	8607.19
567.563	8558.38
567.925	8646.06
568.287	8641.99
568.648	8730.35
569.01	8801.08
569.372	8781.87
569.734	8800.63
570.095	8804.25
570.457	8871.14
570.819	8879.05
571.18	8974.18
571.542	8990.68
571.903	8983
572.265	9063
572.626	9145.71
572.987	9090.11
573.349	9189.77
573.71	9277.23
574.071	9299.6
574.432	9426.6
574.794	9464.57
575.155	9451.46
575.516	9535.3
575.877	9641.06
576.238	9673.83
576.599	9788.4
576.96	9854.16
577.32	9912.69
577.681	10084.44
578.042	10047.6
578.403	10174.38
578.763	10218.67
579.124	10343.64
579.485	10476.29
579.845	10664.99
580.206	10705.89
580.566	10844.42
580.927	10959.22
581.287	11137.07
581.648	11229.94
582.008	11455.7
582.368	11552.65
582.728	11730.95
583.089	11815.24
583.449	11988.57
583.809	12224.95
584.169	12399.63
584.529	12601.21
584.889	12835.1
585.249	12966.62
585.609	13130.01
585.969	13437.8
586.329	13566.15
586.688	13780.84
587.048	14088.17
587.408	14256.76
587.768	14535.39
588.127	14724.77
588.487	15007.25
588.846	15412.89
589.206	15493.79
589.565	15722.03
589.925	16079.31
590.284	16430.94
590.643	16612.63
591.003	17024.82
591.362	17216.91
591.721	17557.01
592.08	17828.64
592.44	18184.11
592.799	18453.26
593.158	18590.43
593.517	19035.39
593.876	19385.44
594.235	19562.61
594.593	19941.13
594.952	20305.86
595.311	20508.34
595.67	20952.85
596.029	21288.21
596.387	21660.63
596.746	21939.95
597.104	22140.62
597.463	22385.13
597.822	22797.78
598.18	23132.23
598.538	23372.22
598.897	23797.75
599.255	23903.96
599.613	24507.11
599.972	24686.09
600.33	25069.58
600.688	25302.34
601.046	25587.76
601.404	25967.86
601.762	26238.14
602.12	26617.11
602.478	26948.85
602.836	27189.07
603.194	27384.32
603.552	27652.34
603.91	27924.87
604.268	28139.56
604.625	28353.56
604.983	28889.59
605.341	28957.39
605.698	29327.55
606.056	29659.74
606.413	29835.56
606.771	30197.36
607.128	30457.24
607.485	30574.07
607.843	30764.12
608.2	31202.3
608.557	31485.01
608.914	31581.05
609.272	31984.88
609.629	32162.05
609.986	32567.01
610.343	32527.69
610.7	32937.85
611.057	33125.19
611.414	33278.86
611.771	33586.87
612.127	33850.82
612.484	33981.66
612.841	34262.33
613.198	34253.75
613.554	34503.91
613.911	34679.72
614.267	34995.65
614.624	35150.9
614.98	35314.51
615.337	35686.7
615.693	35635.63
616.05	35935.06
616.406	36053.02
616.762	36090.53
617.118	36323.3
617.475	36460.47
617.831	36721.48
618.187	36808.03
618.543	36976.84
618.899	37319.65
619.255	37411.86
619.611	37464.28
619.967	37573.43
620.323	37768.91
620.678	37770.49
621.034	37875.8
621.39	37837.83
621.746	37910.6
622.101	38582.22
622.457	38388.78
622.812	38592.62
623.168	38708.09
623.523	38757.13
623.879	38934.98
624.234	38811.37
624.589	38988.54
624.945	39161.87
625.3	39266.5
625.655	39284.8
626.01	39322.54
626.365	39521.4
626.72	39513.72
627.075	39641.4
627.43	39691.34
627.785	39693.15
628.14	39805.01
628.495	39878.46
628.85	39880.04
629.205	39919.59
629.559	40178.34
629.914	39962.3
630.269	40153.48
630.623	40158.9
630.978	40065.12
631.332	40351.89
631.687	40431.21
632.041	40188.05
632.396	40352.34
632.75	40242.97
633.104	40274.6
633.459	40334.49
633.813	40228.73
634.167	40397.09
634.521	40273.02
634.875	40433.02
635.229	40424.66
635.583	40350.99
635.937	40289.52
636.291	40215.85
636.645	40389.18
636.999	40306.02
637.352	40434.37
637.706	40251.55
638.06	40320.93
638.413	40446.35
638.767	40286.58
639.121	40401.16
639.474	40202.52
639.828	40259.69
640.181	40240.26
640.534	40257.2
640.888	40097.21
641.241	40146.02
641.594	40211.1
641.947	40300.37
642.301	40247.03
642.654	40234.83
643.007	40260.59
643.36	40246.36
643.713	40097.66
644.066	40363.19
644.419	40105.8
644.771	39927.27
645.124	39538.58
645.477	39469.43
645.83	39273.5
646.182	39249.77
646.535	39080.29
646.888	38986.73
647.24	38978.14
647.593	39062.21
647.945	39070.57
648.298	38871.25
648.65	38872.38
649.002	38828.54
649.355	38918.71
649.707	38953.28
650.059	38976.79
650.411	39284.57
650.763	39472.82
651.115	39816.99
651.467	39749.65
651.819	39781.96
652.171	39751.23
652.523	39597.56
652.875	39647.05
653.227	39438.02
653.578	39800.27
653.93	39581.29
654.282	39516.66
654.633	39501.97
654.985	39525.7
655.337	39492.25
655.688	39668.29
656.039	39651.12
656.391	39350.79
656.742	39497
657.094	39362.09
657.445	39584.45
657.796	39551.91
658.147	39434.63
658.498	39427.4
658.849	39527.51
659.2	39413.16
659.551	39308.75
659.902	39565.7
660.253	39535.87
660.604	39516.88
660.955	39264.91
661.306	39371.8
661.656	39316.21
662.007	39347.62
662.358	39331.8
662.708	39252.71
663.059	39452.03
663.409	39016.78
663.76	39413.38
664.11	39413.61
664.461	39409.54
664.811	39342.88
665.161	39290.22
665.511	39180.62
665.862	39327.96
666.212	39431.01
666.562	39438.02
666.912	39322.09
667.262	39176.1
667.612	39205.48
667.962	39197.35
668.312	39188.31
668.662	39329.32
669.011	39426.27
669.361	39221.07
669.711	39135.2
670.06	39092.49
670.41	38930.69
670.76	39060.17
671.109	39171.36
671.459	39110.12
671.808	39082.77
672.157	39063.79
672.507	38848.65
672.856	39004.58
673.205	38998.03
673.554	39096.78
673.904	39028.76
674.253	39144.01
674.602	39002.77
674.951	38359.63
675.3	38228.78
675.649	38868.99
675.998	38755.55
676.346	38771.82
676.695	38854.76
677.044	38596.68
677.393	38696.12
677.741	38805.94
678.09	38706.06
678.438	38610.92
678.787	38703.8
679.135	38748.32
679.484	38480.75
679.832	38542.22
680.181	38396.91
680.529	38477.14
680.877	38430.81
681.225	38258.39
681.573	38640.07
681.922	38375.45
682.27	38311.72
682.618	38158.28
682.966	38257.03
683.314	38110.59
683.661	38042.8
684.009	37783.14
684.357	37806.2
684.705	37871.73
685.053	37830.15
685.4	37805.52
685.748	37668.12
686.095	37796.25
686.443	37374.79
686.79	37438.75
687.138	37587.22
687.485	37550.83
687.832	37335.7
688.18	37270.84
688.527	37241.69
688.874	37257.51
689.221	37129.15
689.568	36907.69
689.915	36911.08
690.262	36936.84
690.609	36783.17
690.956	36622.72
691.303	36626.11
691.65	36513.57
691.997	36486.46
692.344	36281.72
692.69	36281.49
693.037	36309.29
693.383	36167.82
693.73	36212.79
694.077	36054.6
694.423	35956.75
694.769	35913.82
695.116	35762.86
695.462	35654.61
695.808	35540.27
696.155	35580.94
696.501	35414.62
696.847	35454.62
697.193	35106.38
697.539	35208.3
697.885	34994.07
698.231	34913.62
698.577	34962.65
698.923	34893.28
699.269	34677.69
699.614	34611.25
699.96	34479.5
700.306	34628.43
700.651	34286.97
700.997	34380.97
701.342	34268.89
701.688	34359.51
702.033	34076.35
702.379	34070.7
702.724	34066.63
703.069	34098.72
703.415	33685.17
703.76	33590.26
704.105	33693.99
704.45	33639.98
704.795	33357.27
705.14	33461.9
705.485	33270.95
705.83	33207.9
706.175	33381.9
706.52	33129.03
706.865	33020.56
707.209	33054.68
707.554	32913.67
707.899	32881.35
708.243	32709.83
708.588	32696.05
708.932	32486.11
709.277	32546.22
709.621	32365.66
709.966	32370.41
710.31	32316.4
710.654	32024.2
710.998	32162.73
711.342	32186.68
711.687	32090.64
712.031	31882.06
712.375	31827.14
712.719	31824.43
713.063	31645.91
713.407	31881.83
713.75	31607.71
714.094	31589.64
714.438	31689.75
714.782	31536.76
715.125	31360.26
715.469	31402.52
715.812	31285.91
716.156	31153.71
716.499	31226.48
716.843	31232.13
717.186	30966.38
717.53	31064.45
717.873	31138.8
718.216	30946.71
718.559	30898.35
718.902	30638.7
719.246	30703.33
719.589	30726.38
719.932	30607.74
720.275	30467.41
720.617	30477.12
720.96	30565.93
721.303	30410.23
721.646	30379.05
721.989	30245.49
722.331	30443.45
722.674	30270.57
723.016	30246.62
723.359	30208.43
723.701	30136.57
724.044	29930.7
724.386	29771.38
724.729	29950.13
725.071	29824.48
725.413	29875.56
725.755	29836.69
726.097	29626.52
726.439	29485.51
726.782	29498.17
727.124	29586.3
727.465	29485.96
727.807	29341.56
728.149	29355.34
728.491	29347.66
728.833	29404.61
729.175	29225.86
729.516	29128.68
729.858	29151.51
730.199	29196.03
730.541	29178.17
730.882	29178.85
731.224	28997.84
731.565	29017.5
731.906	29021.57
732.248	28980.66
732.589	28723.27
732.93	28781.35
733.271	28771.63
733.612	28754
733.953	28782.93
734.294	28679.43
734.635	28512.65
734.976	28701.12
735.317	28421.58
735.658	28387.01
735.999	28529.83
736.339	28333.45
736.68	28429.27
737.021	28291.87
737.361	28178.65
737.702	28407.35
738.042	28264.75
738.383	28199.67
738.723	28223.62
739.063	27938.43
739.404	28130.74
739.744	28064.3
740.084	28030.41
740.424	28062.27
740.764	27982.27
741.104	28043.51
741.444	27704.77
741.784	27741.6
742.124	27702.28
742.464	27767.36
742.804	27566.46
743.143	27661.15
743.483	27602.85
743.823	27560.81
744.162	27462.51
744.502	27544.32
744.841	27362.63
745.181	27575.96
745.52	27293.7
745.86	27423.19
746.199	27338.67
746.538	27116.53
746.877	27333.25
747.216	27211.67
747.556	27105.91
747.895	27099.58
748.234	27026.37
748.573	26951.57
748.911	26985.91
749.25	26820.72
749.589	26840.83
749.928	26831.12
750.267	26808.52
750.605	26740.5
750.944	26660.5
751.283	26649.43
751.621	26674.28
751.96	26370.11
752.298	26457.34
752.636	26383.44
752.975	26211.47
753.313	26211.7
753.651	26335.08
753.989	26116.33
754.327	25966.28
754.666	25996.11
755.004	26018.93
755.342	25879.05
755.679	26001.08
756.017	25736.91
756.355	25758.6
756.693	25832.95
757.031	25675.21
757.368	25586.86
757.706	25590.7
758.044	25541.43
758.381	25547.53
758.719	25430.7
759.056	25309.35
759.394	25223.48
759.731	25133.76
760.068	25187.77
760.405	25088.56
760.743	25005.18
761.08	24934.9
761.417	24825.29
761.754	24817.38
762.091	24744.17
762.428	24698.74
762.765	24474.34
763.102	24624.39
763.438	24377.17
763.775	24315.93
764.112	24284.97
764.449	24317.74
764.785	24172.88
765.122	23961.81
765.458	23982.15
765.795	23908.93
766.131	23837.07
766.467	23798.43
766.804	23698.32
767.14	23505.78
767.476	23563.18
767.812	23419.68
768.148	23442.28
768.485	23280.02
768.821	23148.95
769.157	23056.75
769.492	23079.58
769.828	23038.9
770.164	22778.12
770.5	22748.74
770.836	22821.73
771.171	22659.02
771.507	22541.74
771.842	22444.34
772.178	22444.79
772.513	22406.15
772.849	22155.99
773.184	22242.99
773.519	22292.7
773.855	22047.51
774.19	22068.53
774.525	21913.05
774.86	21789.44
775.195	21749.22
775.53	21745.15
775.865	21695.43
776.2	21520.75
776.535	21459.73
776.87	21359.17
777.205	21302.67
777.539	21153.98
777.874	21209.34
778.209	21104.26
778.543	20958.73
778.878	20823.82
779.212	20907.88
779.547	20752.86
779.881	20786.76
780.215	20548.12
780.55	20632.86
780.884	20491.17
781.218	20425.18
781.552	20474.45
781.886	20331.63
782.22	20201.91
782.554	20165.08
782.888	20011.86
783.222	19811.87
783.556	19784.97
783.889	19730.74
784.223	19601.7
784.557	19597.86
784.89	19561.25
785.224	19504.76
785.557	19412.78
785.891	19416.85
786.224	19245.1
786.558	19309.51
786.891	19040.13
787.224	19037.2
787.557	18999.23
787.891	19009.4
788.224	18939.57
788.557	18895.73
788.89	18848.5
789.223	18803.98
789.556	18526.48
789.888	18566.02
790.221	18577.32
790.554	18342.53
790.887	18380.94
791.219	18367.38
791.552	18289.19
791.884	18157.22
792.217	18286.03
792.549	18044.45
792.882	17988.86
793.214	17920.16
793.546	17844.69
793.879	17818.92
794.211	17788.19
794.543	17702.99
794.875	17676.1
795.207	17722.43
795.539	17592.26
795.871	17608.99
796.203	17356.79
796.535	17302.55
796.867	17284.93
797.198	17281.31
797.53	17248.09
797.862	17129.9
798.193	17136.46
798.525	17006.29
798.856	17096.01
799.188	16928.78
799.519	16821.66
799.85	16753.19
800.182	16708.44
800.513	16794.77
800.844	16536.92
801.175	16644.49
801.506	16628.22
801.837	16469.36
802.168	16486.3
802.499	16422.8
802.83	16343.93
803.161	16224.39
803.491	16193.88
803.822	16265.74
804.153	16141
804.483	16059.2
804.814	16000.21
805.145	15989.14
805.475	15977.62
805.805	15878.86
806.136	15933.1
806.466	15868.69
806.796	15824.85
807.126	15784.63
807.457	15690.17
807.787	15694.69
808.117	15635.93
808.447	15500.79
808.777	15648.59
809.107	15508.48
809.436	15476.16
809.766	15441.59
810.096	15432.55
810.426	15273
810.755	15330.85
811.085	15304.87
811.414	15229.61
811.744	15116.4
812.073	15100.8
812.403	15084.31
812.732	14985.1
813.061	15034.36
813.39	14949.17
813.719	14885.44
814.049	14885.22
814.378	14811.09
814.707	14810.42
815.036	14832.11
815.365	14701.04
815.693	14559.12
816.022	14683.41
816.351	14527.03
816.68	14510.54
817.008	14526.13
817.337	14357.55
817.665	14335.63
817.994	14442.52
818.322	14369.52
818.651	14269.41
818.979	14237.55
819.307	14303.99
819.636	14299.92
819.964	14140.38
820.292	14207.04
820.62	14129.3
820.948	14215.4
821.276	14155.52
821.604	14122.75
821.932	14135.63
822.259	14064.9
822.587	14135.86
822.915	14068.74
823.243	14123.43
823.57	14063.32
823.898	14097.89
824.225	14005.92
824.553	14046.59
824.88	14067.84
825.207	14050.66
825.535	13990.78
825.862	14201.84
826.189	14054.05
826.516	14088.63
826.843	14083.88
827.17	14146.03
827.497	14087.5
827.824	14152.58
828.151	14137.44
828.478	14087.27
828.805	14012.92
829.131	13937.44
829.458	14004.79
829.785	13907.84
830.111	14074.62
830.438	14107.84
830.764	14070.77
831.09	13963.21
831.417	13909.65
831.743	14027.16
832.069	14016.99
832.395	13956.2
832.722	14023.32
833.048	14049.53
833.374	13943.32
833.7	13897.22
834.026	13846.37
834.351	13895.41
834.677	13871.46
835.003	13854.06
835.329	13870.33
835.654	13859.25
835.98	13759.14
836.306	13801.85
836.631	13735.87
836.956	13789.65
837.282	13678.92
837.607	13722.08
837.932	13658.58
838.258	13700.61
838.583	13749.88
838.908	13452.49
839.233	13591.92
839.558	13548.98
839.883	13503.56
840.208	13522.31
840.533	13470.56
840.858	13442.77
841.182	13414.52
841.507	13402.54
841.832	13289.1
842.156	13368.19
842.481	13411.81
842.805	13267.86
843.13	13256.56
843.454	13217.01
843.778	13172.49
844.103	13231.02
844.427	13128.65
844.751	13089.1
845.075	13148.99
845.399	12974.08
845.723	12991.03
846.047	12984.93
846.371	12889.79
846.695	12877.13
847.019	12742.22
847.343	12716.46
847.666	12633.98
847.99	12580.64
848.313	12506.07
848.637	12424.26
848.96	12505.39
849.284	12499.29
849.607	12326.19
849.931	12305.17
850.254	12273.99
850.577	12195.34
850.9	12134.78
851.223	12100.2
851.546	12030.6
851.869	12007.1
852.192	12093.88
852.515	11914.67
852.838	11904.73
853.161	11810.27
853.483	11754.9
853.806	11733.43
854.129	11725.3
854.451	11649.59
854.774	11678.29
855.096	11575.02
855.419	11537.96
855.741	11552.2
856.063	11466.1
856.385	11464.97
856.708	11455.02
857.03	11363.73
857.352	11380.22
857.674	11293.9
857.996	11326.67
858.318	11208.02
858.64	11207.57
858.961	11196.73
859.283	11179.78
859.605	11099.1
859.926	11128.48
860.248	11100.46
860.57	11081.47
860.891	10998.99
861.212	10907.69
861.534	10925.77
861.855	10945.66
862.176	10984.3
862.498	10873.34
862.819	10875.15
863.14	10806.45
863.461	10819.33
863.782	10759.9
864.103	10761.48
864.424	10736.62
864.745	10761.48
865.065	10664.08
865.386	10627.93
865.707	10643.29
866.027	10655.27
866.348	10625.89
866.668	10655.04
866.989	10509.06
867.309	10572.11
867.63	10555.16
867.95	10515.16
868.27	10484.43
868.59	10485.78
868.91	10417.76
869.23	10474.03
869.55	10391.55
869.87	10529.85
870.19	10401.27
870.51	10364.66
870.83	10411.44
871.15	10309.52
871.469	10329.18
871.789	10329.86
872.109	10373.24
872.428	10300.93
872.748	10267.03
873.067	10292.34
873.386	10255.28
873.706	10270.42
874.025	10172.12
874.344	10118.11
874.663	10198.11
874.982	10188.84
875.301	10129.86
875.62	10161.27
875.939	10003.08
876.258	10062.52
876.577	10098.9
876.896	10054.83
877.214	9923.76
877.533	10046.47
877.852	10036.3
878.17	9999.24
878.489	9949.75
878.807	9964.67
879.125	9918.34
879.444	9905.91
879.762	9938.23
880.08	9896.19
880.398	9883.99
880.716	9881.96
881.034	9775.07
881.352	9837.21
881.67	9826.59
881.988	9797.67
882.306	9779.14
882.624	9718.8
882.941	9684.67
883.259	9725.35
883.577	9641.29
883.894	9630.21
884.212	9652.13
884.529	9605.13
884.846	9600.16
885.164	9554.51
885.481	9542.31
885.798	9618.01
886.115	9456.43
886.432	9488.97
886.75	9471.57
887.067	9433.38
887.383	9423.21
887.7	9423.21
888.017	9258.02
888.334	9379.37
888.651	9317
888.967	9290.56
889.284	9255.99
889.6	9232.48
889.917	9203.78
890.233	9182.99
890.55	9162.43
890.866	9181.41
891.182	9107.51
891.498	9096.22
891.815	9073.84
892.131	9030.23
892.447	8968.31
892.763	8935.99
893.079	8908.65
893.395	8864.36
893.71	8848.54
894.026	8861.65
894.342	8871.81
894.657	8772.61
894.973	8681.76
895.289	8747.75
895.604	8719.28
895.92	8627.53
896.235	8605.38
896.55	8658.26
896.865	8641.99
897.181	8548.21
897.496	8569.22
897.811	8494.88
898.126	8508.66
898.441	8468.66
898.756	8437.25
899.071	8349.57
899.386	8434.99
899.7	8313.86
900.015	8289.91
900.33	8253.3
900.644	8155.45
900.959	8315.22
901.273	8260.31
901.588	8161.1
901.902	8197.26
902.216	8126.07
902.531	8086.52
902.845	8091.04
903.159	8041.33
903.473	7970.37
903.787	7931.5
904.101	7892.41
904.415	7909.35
904.729	7872.97
905.042	7812.86
905.356	7825.51
905.67	7799.75
905.984	7733.54
906.297	7771.73
906.611	7701.45
906.924	7661.68
907.237	7678.85
907.551	7595.01
907.864	7554.56
908.177	7570.15
908.491	7530.38
908.804	7547.78
909.117	7453.77
909.43	7396.37
909.743	7341.69
910.056	7382.14
910.368	7287.9
910.681	7313.66
910.994	7260.56
911.307	7225.08
911.619	7169.26
911.932	7148.7
912.244	7125.87
912.557	7103.95
912.869	7059.43
913.181	7110.28
913.494	7063.05
913.806	7021.24
914.118	7004.29
914.43	6939.21
914.742	6950.28
915.054	6935.14
915.366	6838.2
915.678	6866.67
915.99	6817.63
916.302	6721.81
916.613	6773.11
916.925	6707.35
917.236	6750.97
917.548	6701.7
917.859	6641.14
918.171	6630.29
918.482	6633.23
918.794	6588.94
919.105	6567.24
919.416	6534.7
919.727	6504.87
920.038	6434.82
920.349	6424.87
920.66	6393.69
920.971	6348.49
921.282	6398.89
921.593	6309.85
921.903	6266.91
922.214	6277.98
922.525	6238.44
922.835	6256.06
923.146	6181.26
923.456	6163.86
923.767	6173.81
924.077	6151.89
924.387	6124.54
924.697	6119.34
925.008	6072.57
925.318	6018.1
925.628	6023.08
925.938	6014.94
926.248	5912.12
926.558	5884.55
926.867	5872.35
927.177	5850.2
927.487	5855.62
927.796	5856.98
928.106	5798
928.416	5755.51
928.725	5787.6
929.034	5709.86
929.344	5724.55
929.653	5706.93
929.962	5646.36
930.271	5666.7
930.581	5584.44
930.89	5606.14
931.199	5538.34
931.508	5490.66
931.817	5533.6
932.125	5500.15
932.434	5489.53
932.743	5455.86
933.051	5401.62
933.36	5407.5
933.669	5354.17
933.977	5356.2
934.286	5381.96
934.594	5300.61
934.902	5223.55
935.21	5269.2
935.519	5242.53
935.827	5202.53
936.135	5127.73
936.443	5170.67
936.751	5123.21
937.059	5099.94
937.367	5092.25
937.674	5119.82
937.982	5039.83
938.29	5042.31
938.597	5001.63
938.905	5003.44
939.213	4939.71
939.52	4929.55
939.827	4994.63
940.135	4951.47
940.442	4887.96
940.749	4862.43
941.056	4868.3
941.363	4860.62
941.67	4791.47
941.977	4788.76
942.284	4755.76
942.591	4790.11
942.898	4680.96
943.205	4718.03
943.511	4668.99
943.818	4686.61
944.125	4600.29
944.431	4600.74
944.738	4652.49
945.044	4619.72
945.35	4603.9
945.657	4515.77
945.963	4501.99
946.269	4499.95
946.575	4489.11
946.881	4430.12
947.187	4444.59
947.493	4437.58
947.799	4412.5
948.105	4360.29
948.41	4373.18
948.716	4385.83
949.022	4345.15
949.327	4323.91
949.633	4282.1
949.938	4309.22
950.244	4234.42
950.549	4216.12
950.854	4196.68
951.16	4210.02
951.465	4174.99
951.77	4119.62
952.075	4155.33
952.38	4142.9
952.685	4118.49
952.99	4066.29
953.294	4113.3
953.599	4082.56
953.904	4047.08
954.209	4033.3
954.513	4015.67
954.818	3955.33
955.122	3946.75
955.426	3980.42
955.731	3926.41
956.035	3907.2
956.339	3906.97
956.643	3854.09
956.948	3837.14
957.252	3866.52
957.556	3866.52
957.86	3842.57
958.163	3801.89
958.467	3785.39
958.771	3744.04
959.075	3726.87
959.378	3730.71
959.682	3737.26
959.985	3678.28
960.289	3695
960.592	3656.58
960.896	3655
961.199	3623.37
961.502	3630.6
961.805	3573.87
962.108	3581.33
962.411	3565.51
962.714	3575.68
963.017	3565.74
963.32	3531.16
963.623	3550.15
963.926	3490.26
964.228	3456.36
964.531	3479.64
964.833	3491.39
965.136	3469.02
965.438	3434.9
965.741	3447.1
966.043	3360.77
966.345	3420.88
966.648	3361.45
966.95	3349.47
967.252	3328.01
967.554	3370.04
967.856	3312.19
968.158	3274.22
968.46	3246.2
968.761	3305.63
969.063	3209.82
969.365	3196.71
969.666	3234
969.968	3201.23
970.269	3187.44
970.571	3189.48
970.872	3166.65
971.174	3165.98
971.475	3154
971.776	3128.46
972.077	3134.34
972.378	3127.56
972.679	3125.07
972.98	3096.37
973.281	3044.62
973.582	3056.6
973.883	3015.25
974.183	3020.9
974.484	3044.17
974.785	2994.68
975.085	2995.13
975.386	3036.49
975.686	2975.92
975.986	2951.97
976.287	2899.54
976.587	2909.71
976.887	2888.24
977.187	2884.63
977.487	2856.61
977.787	2858.41
978.087	2841.69
978.387	2841.24
978.687	2847.79
978.987	2777.51
979.286	2796.04
979.586	2808.02
979.885	2778.87
980.185	2792.43
980.484	2746.33
980.784	2766.66
981.083	2711.98
981.382	2736.38
981.682	2732.09
981.981	2708.14
982.28	2656.84
982.579	2669.49
982.878	2713.11
983.177	2628.82
983.475	2626.78
983.774	2638.53
984.073	2587.23
984.372	2589.72
984.67	2620
984.969	2616.84
985.267	2592.21
985.566	2528.25
985.864	2557.63
986.162	2556.27
986.461	2520.57
986.759	2525.54
987.057	2503.17
987.355	2488.93
987.653	2527.35
987.951	2470.4
988.249	2464.75
988.547	2481.93
988.844	2428.37
989.142	2434.92
989.44	2428.37
989.737	2427.01
990.035	2371.19
990.332	2366.45
990.63	2363.74
990.927	2340.69
991.224	2362.38
991.521	2358.09
991.819	2328.26
992.116	2307.69
992.413	2314.93
992.71	2320.12
993.006	2294.13
993.303	2269.73
993.6	2275.83
993.897	2242.16
994.193	2247.58
994.49	2247.36
994.787	2231.09
995.083	2193.57
995.379	2239.45
995.676	2216.85
995.972	2199
996.268	2181.6
996.565	2182.95
996.861	2186.57
997.157	2117.42
997.453	2123.52
997.749	2111.54
998.044	2110.41
998.34	2087.81
998.636	2056.85
998.932	2098.21
999.227	2060.02
999.523	2069.96
999.818	2074.93
1000.114	2044.2
1000.409	2018.89
1000.704	2033.8
1001	1991.32
1001.295	1990.64
1001.59	1988.38
1001.885	1981.6
1002.18	1968.04
1002.475	1969.62
1002.77	1940.7
1003.065	1958.78
1003.359	1920.13
1003.654	1911.77
1003.949	1893.02
1004.243	1884.2
1004.538	1893.47
1004.832	1848.5
1005.127	1847.59
1005.421	1830.87
1005.715	1841.04
1006.009	1865.67
1006.304	1816.63
1006.598	1814.6
1006.892	1807.82
1007.186	1794.71
1007.48	1788.39
1007.773	1780.02
1008.067	1780.93
1008.361	1741.15
1008.655	1757.2
1008.948	1729.4
1009.242	1734.83
1009.535	1698.67
1009.829	1716.3
1010.122	1689.86
1010.415	1672.91
1010.708	1656.64
1011.001	1716.75
1011.295	1662.96
1011.588	1637.88
1011.881	1643.53
1012.173	1622.29
1012.466	1622.97
1012.759	1625
1013.052	1627.26
1013.344	1602.63
1013.637	1607.82
1013.93	1542.97
1014.222	1574.38
1014.514	1581.61
1014.807	1541.84
1015.099	1545
1015.391	1527.15
1015.683	1514.95
1015.976	1525.12
1016.268	1485.57
1016.56	1494.83
1016.851	1494.61
1017.143	1462.52
1017.435	1470.43
1017.727	1458.45
1018.018	1454.16
1018.31	1448.96
1018.602	1433.14
1018.893	1453.93
1019.185	1439.02
1019.476	1417.32
1019.767	1373.93
1020.058	1364.44
1020.35	1387.27
1020.641	1385.01
1020.932	1389.3
1021.223	1362.41
1021.514	1354.5
1021.804	1340.26
1022.095	1331.22
1022.386	1331
1022.677	1324.67
1022.967	1307.72
1023.258	1277.89
1023.548	1289.42
1023.839	1271.34
1024.129	1297.1
1024.419	1273.37
1024.709	1246.25
1025	1259.59
1025.29	1233.15
1025.58	1245.12
1025.87	1235.18
1026.16	1228.4
1026.449	1199.02
1026.739	1202.86
1027.029	1219.59
1027.319	1202.19
1027.608	1205.8
1027.898	1187.5
1028.187	1154.96
1028.477	1143.43
1028.766	1153.37
1029.055	1151.34
1029.344	1133.49
1029.634	1134.62
1029.923	1118.57
1030.212	1096.65
1030.501	1108.4
1030.79	1110.66
1031.078	1096.65
1031.367	1089.65
1031.656	1090.1
1031.945	1050.1
1032.233	1065.24
1032.522	1043.77
1032.81	1024.56
1033.099	1022.98
1033.387	1041.06
1033.675	1039.03
1033.963	1018.91
1034.251	991.57
1034.54	1018.46
1034.828	993.83
1035.116	988.63
1035.403	980.72
1035.691	986.15
1035.979	961.51
1036.267	992.7
1036.554	970.55
1036.842	948.18
1037.129	958.35
1037.417	960.84
1037.704	958.8
1037.992	909.99
1038.279	946.37
1038.566	904.34
1038.853	904.34
1039.14	904.34
