Data from hue_250_FLMS001491_00092.txt Node
Date: Tue Feb 07 16:01:45 GMT 2017
User: dcchb
Spectrometer: FLMS00149
Trigger mode: 0
Integration Time (sec): 2.000000E-2
Scans to average: 10
Electric dark correction enabled: true
Nonlinearity correction enabled: false
Boxcar width: 0
XAxis mode: Wavelengths
Number of Pixels in Spectrum: 2048
>>>>>Begin Spectral Data<<<<<
341.393	-11.58
341.776	-11.58
342.16	-11.58
342.543	-62.65
342.927	-63.11
343.31	-72.37
343.693	-81.18
344.077	-65.82
344.46	-48.19
344.843	-57
345.226	-28.53
345.61	-36.21
345.993	-15.65
346.376	5.82
346.759	4.69
347.142	7.85
347.525	41.75
347.908	57.12
348.291	74.74
348.674	99.6
349.057	113.39
349.44	141.41
349.823	143.22
350.206	164.46
350.588	177.11
350.971	203.78
351.354	231.8
351.737	228.19
352.119	234.06
352.502	249.43
352.884	243.33
353.267	283.55
353.65	286.26
354.032	298.47
354.414	302.99
354.797	300.5
355.179	301.18
355.562	290.11
355.944	296.66
356.326	320.39
356.709	333.04
357.091	314.51
357.473	327.84
357.855	335.08
358.238	324.23
358.62	335.3
359.002	326.26
359.384	302.31
359.766	328.07
360.148	325.81
360.53	319.94
360.912	325.36
361.294	308.86
361.676	311.12
362.057	314.29
362.439	311.35
362.821	332.59
363.203	312.93
363.584	308.18
363.966	316.09
364.348	312.03
364.729	314.74
365.111	292.82
365.493	284
365.874	296.21
366.256	301.18
366.637	317
367.019	290.33
367.4	297.11
367.781	297.11
368.163	295.98
368.544	277.9
368.925	306.83
369.306	303.21
369.688	292.14
370.069	325.58
370.45	298.01
370.831	310.22
371.212	312.93
371.593	305.02
371.974	301.86
372.355	309.77
372.736	296.43
373.117	311.57
373.498	291.24
373.879	324
374.26	303.66
374.641	324.68
375.021	309.99
375.402	304.12
375.783	296.43
376.163	319.03
376.544	305.7
376.925	321.07
377.305	321.97
377.686	323.1
378.066	310.67
378.447	300.73
378.827	326.49
379.208	299.14
379.588	277.9
379.968	312.93
380.349	325.13
380.729	302.31
381.109	317.22
381.489	323.32
381.87	328.52
382.25	304.57
382.63	334.17
383.01	307.28
383.39	342.99
383.77	321.29
384.15	332.36
384.53	332.14
384.91	354.51
385.29	317.9
385.67	342.31
386.049	354.96
386.429	341.18
386.809	333.49
387.189	334.62
387.568	345.47
387.948	333.72
388.328	368.75
388.707	340.5
389.087	348.86
389.466	343.21
389.846	330.78
390.225	361.06
390.605	349.31
390.984	359.26
391.363	352.02
391.743	355.64
392.122	361.29
392.501	353.61
392.881	374.62
393.26	375.3
393.639	370.56
394.018	372.14
394.397	372.82
394.776	399.71
395.155	378.92
395.534	379.14
395.913	363.1
396.292	398.8
396.671	382.53
397.05	367.39
397.429	383.89
397.808	368.07
398.186	379.82
398.565	389.54
398.944	376.2
399.323	387.73
399.701	404.45
400.08	399.03
400.458	398.35
400.837	395.19
401.215	389.99
401.594	408.07
401.972	406.03
402.351	397
402.729	399.26
403.107	405.13
403.486	427.5
403.864	417.56
404.242	417.56
404.62	424.34
404.999	436.77
405.377	413.27
405.755	416.66
406.133	427.05
406.511	452.59
406.889	441.29
407.267	448.75
407.645	448.07
408.023	434.73
408.401	443.55
408.779	467.95
409.156	468.86
409.534	472.25
409.912	466.6
410.29	469.08
410.667	489.65
411.045	500.5
411.422	498.46
411.8	503.66
412.178	491.46
412.555	504.11
412.933	516.09
413.31	538.46
413.687	562.41
414.065	532.36
414.442	538.91
414.819	563.09
415.197	579.14
415.574	554.05
415.951	555.41
416.328	573.26
416.705	588.18
417.082	596.09
417.46	594.5
417.837	613.94
418.214	594.73
418.591	601.28
418.967	610.77
419.344	629.53
419.721	644.45
420.098	631.79
420.475	637.67
420.852	665.01
421.228	674.95
421.605	676.08
421.982	667.5
422.358	673.82
422.735	711.34
423.111	703.43
423.488	688.06
423.864	696.2
424.241	728.96
424.617	718.57
424.994	740.04
425.37	757.89
425.746	752.47
426.123	770.54
426.499	771.45
426.875	810.77
427.251	807.15
427.627	859.13
428.003	814.16
428.379	839.02
428.756	850.54
429.132	846.25
429.507	849.86
429.883	831.11
430.259	868.4
430.635	875.17
431.011	871.78
431.387	895.06
431.763	921.73
432.138	938
432.514	936.19
432.89	956.98
433.265	968.05
433.641	993.36
434.016	998.79
434.392	992.69
434.767	1001.95
435.143	1020.03
435.518	1035.85
435.894	1089.63
436.269	1092.12
436.644	1098.9
437.02	1137.99
437.395	1144.32
437.77	1155.62
438.145	1161.95
438.52	1183.64
438.895	1204.43
439.271	1194.49
439.646	1220.7
440.021	1240.14
440.395	1239.91
440.77	1245.56
441.145	1260.93
441.52	1278.78
441.895	1299.57
442.27	1333.02
442.645	1301.83
443.019	1352.22
443.394	1347.25
443.769	1340.7
444.143	1360.36
444.518	1365.56
444.892	1381.83
445.267	1380.25
445.641	1392.22
446.016	1396.29
446.39	1416.4
446.764	1416.86
447.139	1453.01
447.513	1448.04
447.887	1446.23
448.262	1436.74
448.636	1445.56
449.01	1523.52
449.384	1528.94
449.758	1500.02
450.132	1526.46
450.506	1537.3
450.88	1546.12
451.254	1552.67
451.628	1581.14
452.002	1569.62
452.376	1603.52
452.75	1603.74
453.123	1617.98
453.497	1656.4
453.871	1632.44
454.244	1686.68
454.618	1698.43
454.992	1716.28
455.365	1698.66
455.739	1747.24
456.112	1739.11
456.486	1777.07
456.859	1767.81
457.232	1821.82
457.606	1805.09
457.979	1839.67
458.352	1876.73
458.725	1914.24
459.099	1890.06
459.472	1942.04
459.845	1958.76
460.218	1951.98
460.591	2003.73
460.964	1984.98
461.337	2024.3
461.71	2025.2
462.083	2046.67
462.456	2046.9
462.829	2096.16
463.201	2117.63
463.574	2164.63
463.947	2133.22
464.32	2200.34
464.692	2226.1
465.065	2223.84
465.438	2257.06
465.81	2281.01
466.183	2348.81
466.555	2359.43
466.928	2347.23
467.3	2363.05
467.672	2416.38
468.045	2469.71
468.417	2426.55
468.789	2482.36
469.161	2509.71
469.534	2519.65
469.906	2598.97
470.278	2616.6
470.65	2594.68
471.022	2670.16
471.394	2705.41
471.766	2710.61
472.138	2750.15
472.51	2795.8
472.882	2834.22
473.253	2897.72
473.625	2918.51
473.997	2959.64
474.369	2975.46
474.74	2995.34
475.112	3085.29
475.484	3100.65
475.855	3142.91
476.227	3152.85
476.598	3208.67
476.97	3264.94
477.341	3300.42
477.713	3346.75
478.084	3431.27
478.455	3466.29
478.827	3442.56
479.198	3582
479.569	3550.36
479.94	3675.55
480.311	3681.2
480.682	3753.97
481.053	3805.72
481.424	3872.16
481.795	3897.02
482.166	3952.61
482.537	3958.26
482.908	4059.5
483.279	4082.55
483.65	4141.76
484.021	4179.04
484.391	4254.97
484.762	4347.4
485.133	4325.25
485.503	4380.62
485.874	4455.19
486.244	4519.15
486.615	4610.9
486.985	4623.55
487.356	4666.71
487.726	4686.83
488.097	4793.72
488.467	4778.35
488.837	4860.15
489.207	4943.99
489.578	4974.5
489.948	5049.53
490.318	5076.42
490.688	5061.73
491.058	5152.12
491.428	5239.35
491.798	5286.13
492.168	5360.48
492.538	5352.8
492.908	5390.99
493.278	5446.81
493.648	5469.63
494.017	5530.42
494.387	5570.42
494.757	5595.95
495.126	5670.53
495.496	5640.25
495.866	5753.01
496.235	5748.27
496.605	5744.88
496.974	5787.59
497.344	5813.8
497.713	5884.53
498.082	5895.83
498.452	5994.81
498.821	5953.69
499.19	5935.15
499.559	6048.37
499.928	6057.86
500.298	6061.25
500.667	6124.08
501.036	6083.85
501.405	6138.09
501.774	6160.01
502.143	6175.83
502.512	6231.87
502.88	6259.44
503.249	6272.32
503.618	6284.75
503.987	6294.24
504.356	6317.07
504.724	6327.69
505.093	6342.15
505.462	6379.89
505.83	6442.26
506.199	6470.06
506.567	6527
506.936	6543.5
507.304	6569.71
507.672	6549.15
508.041	6626.89
508.409	6653.33
508.777	6663.5
509.145	6671.63
509.514	6658.75
509.882	6693.33
510.25	6717.28
510.618	6767.45
510.986	6757.73
511.354	6733.1
511.722	6780.78
512.09	6856.26
512.458	6847.22
512.826	6893.77
513.193	6863.49
513.561	6886.99
513.929	6888.12
514.297	6953.43
514.664	6978.52
515.032	6982.81
515.4	7035.92
515.767	7018.06
516.135	7032.3
516.502	6956.14
516.869	7073.2
517.237	7070.04
517.604	7014
517.972	7052.87
518.339	7110.72
518.706	7076.14
519.073	7102.36
519.44	7130.6
519.808	7183.26
520.175	7132.41
520.542	7229.81
520.909	7242.69
521.276	7198.85
521.643	7275.68
522.009	7269.13
522.376	7313.65
522.743	7326.53
523.11	7281.33
523.477	7430.03
523.843	7339.64
524.21	7475.23
524.577	7442.23
524.943	7423.93
525.31	7499.63
525.676	7511.16
526.043	7553.64
526.409	7568.11
526.776	7580.54
527.142	7553.87
527.508	7564.94
527.874	7597.48
528.241	7605.85
528.607	7616.69
528.973	7641.55
529.339	7622.34
529.705	7663.7
530.071	7718.84
530.437	7691.49
530.803	7749.12
531.169	7693.3
531.535	7708.44
531.901	7619.63
532.267	7706.86
532.632	7744.82
532.998	7721.1
533.364	7677.48
533.73	7679.52
534.095	7759.29
534.461	7693.98
534.826	7726.97
535.192	7793.86
535.557	7785.5
535.923	7660.08
536.288	7680.19
536.653	7743.69
537.019	7646.07
537.384	7674.09
537.749	7699.18
538.114	7735.33
538.479	7698.27
538.845	7730.36
539.21	7656.47
539.575	7669.12
539.94	7692.17
540.305	7666.63
540.67	7680.42
541.034	7626.64
541.399	7615.11
541.764	7691.72
542.129	7647.88
542.494	7668.67
542.858	7597.03
543.223	7630.7
543.587	7679.97
543.952	7631.83
544.316	7659.63
544.681	7665.05
545.045	7613.75
545.41	7631.16
545.774	7632.06
546.138	7590.03
546.503	7649.69
546.867	7524.72
547.231	7603.13
547.595	7606.3
547.959	7573.3
548.324	7579.18
548.688	7606.07
549.052	7552.29
549.416	7547.77
549.779	7534.66
550.143	7512.06
550.507	7513.64
550.871	7538.5
551.235	7498.5
551.599	7569.91
551.962	7514.77
552.326	7492.18
552.689	7519.29
553.053	7463.7
553.417	7513.42
553.78	7611.04
554.143	7522.23
554.507	7527.88
554.87	7495.57
555.234	7564.94
555.597	7427.09
555.96	7505.51
556.323	7542.8
556.686	7515.9
557.05	7535.79
557.413	7477.04
557.776	7513.87
558.139	7565.85
558.502	7504.6
558.865	7558.39
559.228	7584.83
559.59	7581.89
559.953	7583.25
560.316	7606.07
560.679	7593.87
561.041	7600.2
561.404	7622.79
561.767	7691.04
562.129	7610.36
562.492	7622.34
562.854	7621.21
563.217	7671.83
563.579	7664.83
563.941	7688.78
564.304	7719.51
564.666	7734.2
565.028	7765.62
565.39	7791.6
565.753	7759.97
566.115	7836.35
566.477	7785.05
566.839	7807.42
567.201	7864.6
567.563	7857.82
567.925	7891.26
568.287	7879.96
568.648	7884.71
569.01	7954.76
569.372	7933.75
569.734	7985.27
570.095	7987.76
570.457	8033.63
570.819	8050.13
571.18	7973.07
571.542	8040.86
571.903	8073.63
572.265	8107.07
572.626	8100.3
572.987	8145.72
573.349	8140.52
573.71	8165.15
574.071	8189.33
574.432	8169.9
574.794	8257.81
575.155	8230.01
575.516	8186.39
575.877	8294.64
576.238	8284.92
576.599	8291.02
576.96	8307.75
577.32	8271.82
577.681	8396.78
578.042	8388.42
578.403	8358.14
578.763	8319.95
579.124	8424.35
579.485	8406.95
579.845	8392.94
580.206	8455.99
580.566	8449.21
580.927	8409.89
581.287	8423.68
581.648	8432.94
582.008	8474.97
582.368	8549.32
582.728	8507.29
583.089	8535.76
583.449	8539.61
583.809	8554.97
584.169	8591.58
584.529	8554.97
584.889	8630.23
585.249	8583.22
585.609	8554.29
585.969	8624.12
586.329	8596.78
586.688	8666.83
587.048	8716.32
587.408	8646.95
587.768	8618.7
588.127	8675.42
588.487	8689.66
588.846	8775.08
589.206	8748.41
589.565	8708.87
589.925	8737.34
590.284	8749.54
590.643	8782.31
591.003	8814.4
591.362	8799.03
591.721	8799.94
592.08	8780.5
592.44	8812.37
592.799	8824.34
593.158	8800.84
593.517	8893.04
593.876	8844.68
594.235	8784.8
594.593	8808.3
594.952	8869.31
595.311	8832.71
595.67	8822.54
596.029	8923.78
596.387	8910.67
596.746	8910.44
597.104	8906.15
597.463	8905.25
597.822	8871.35
598.18	8865.02
598.538	8824.8
598.897	8970.78
599.255	8835.64
599.613	8992.7
599.972	8868.86
600.33	8956.32
600.688	8861.18
601.046	8990.44
601.404	9008.75
601.762	8984.11
602.12	9006.94
602.478	9005.58
602.836	9001.06
603.194	8967.39
603.552	8996.54
603.91	8969.43
604.268	8980.27
604.625	9039.03
604.983	9047.84
605.341	9070.44
605.698	8997.9
606.056	9024.79
606.413	9057.33
606.771	9041.51
607.128	9051.46
607.485	8990.22
607.843	9027.73
608.2	9077.67
608.557	9106.14
608.914	9123.32
609.272	9104.79
609.629	9093.49
609.986	9136.2
610.343	9114.28
610.7	9148.86
611.057	9156.54
611.414	9178.91
611.771	9225.01
612.127	9212.13
612.484	9203.77
612.841	9192.7
613.198	9158.8
613.554	9183.88
613.911	9242.19
614.267	9177.56
614.624	9170.1
614.98	9252.58
615.337	9209.87
615.693	9272.69
616.05	9265.24
616.406	9318.34
616.762	9274.5
617.118	9271.56
617.475	9261.17
617.831	9298.91
618.187	9240.83
618.543	9317.44
618.899	9334.84
619.255	9361.05
619.611	9305.24
619.967	9343.43
620.323	9331.22
620.678	9331.9
621.034	9298.68
621.39	9317.21
621.746	9379.81
622.101	9410.54
622.457	9331.9
622.812	9365.57
623.168	9380.26
623.523	9427.94
623.879	9376.42
624.234	9338.91
624.589	9446.02
624.945	9392.24
625.3	9387.49
625.655	9410.32
626.01	9367.83
626.365	9381.62
626.72	9388.85
627.075	9343.43
627.43	9370.09
627.785	9343.88
628.14	9385.91
628.495	9338.91
628.85	9269.76
629.205	9330.32
629.559	9498.45
629.914	9327.83
630.269	9361.28
630.623	9260.04
630.978	9249.87
631.332	9344.1
631.687	9313.6
632.041	9254.62
632.396	9277.89
632.75	9280.6
633.104	9297.1
633.459	9188.85
633.813	9195.18
634.167	9229.98
634.521	9211.23
634.875	9148.18
635.229	9135.75
635.583	9178.23
635.937	9145.01
636.291	9143.66
636.645	9133.71
636.999	9119.25
637.352	9142.75
637.706	9012.81
638.06	9143.88
638.413	9044.9
638.767	9073.38
639.121	9064.56
639.474	9029.54
639.828	9000.16
640.181	9048.07
640.534	8937.11
640.888	8987.28
641.241	8956.09
641.594	8938.01
641.947	8949.99
642.301	8966.71
642.654	8922.19
643.007	8988.86
643.36	8898.24
643.713	8832.25
644.066	8943.21
644.419	8898.92
644.771	8841.74
645.124	8792.03
645.477	8775.53
645.83	8688.3
646.182	8666.16
646.535	8697.57
646.888	8622.77
647.24	8614.41
647.593	8656.89
647.945	8608.3
648.298	8591.13
648.65	8568.98
649.002	8546.39
649.355	8562.43
649.707	8608.76
650.059	8661.64
650.411	8759.94
650.763	8688.53
651.115	8761.52
651.467	8799.26
651.819	8796.55
652.171	8788.64
652.523	8727.4
652.875	8810.33
653.227	8742.76
653.578	8783.67
653.93	8807.62
654.282	8747.06
654.633	8735.98
654.985	8700.96
655.337	8813.27
655.688	8789.77
656.039	8812.59
656.391	8662.54
656.742	8723.33
657.094	8737.11
657.445	8759.94
657.796	8750
658.147	8768.07
658.498	8735.31
658.849	8771.24
659.2	8778.02
659.551	8747.28
659.902	8744.57
660.253	8754.06
660.604	8763.78
660.955	8707.29
661.306	8785.02
661.656	8765.81
662.007	8752.48
662.358	8702.31
662.708	8726.49
663.059	8790.9
663.409	8725.59
663.76	8753.16
664.11	8746.61
664.461	8769.88
664.811	8743.22
665.161	8781.41
665.511	8743.67
665.862	8753.39
666.212	8743.89
666.562	8796.55
666.912	8753.61
667.262	8754.29
667.612	8693.05
667.962	8771.24
668.312	8690.11
668.662	8819.37
669.011	8808.98
669.361	8757
669.711	8737.34
670.06	8718.81
670.41	8682.65
670.76	8670.45
671.109	8752.03
671.459	8740.05
671.808	8674.52
672.157	8748.64
672.507	8635.65
672.856	8702.09
673.205	8684.46
673.554	8681.07
673.904	8686.72
674.253	8667.29
674.602	8700.96
674.951	8568.31
675.3	8492.38
675.649	8635.65
675.998	8635.65
676.346	8578.02
676.695	8587.51
677.044	8567.4
677.393	8573.96
677.741	8600.62
678.09	8547.74
678.438	8548.87
678.787	8576.67
679.135	8588.19
679.484	8477.46
679.832	8539.15
680.181	8460.29
680.529	8515.88
680.877	8430.46
681.225	8422.55
681.573	8551.58
681.922	8422.77
682.27	8423.22
682.618	8448.99
682.966	8443.11
683.314	8342.55
683.661	8406.5
684.009	8287.86
684.357	8306.84
684.705	8309.78
685.053	8302.55
685.4	8288.54
685.748	8239.05
686.095	8279.27
686.443	8217.13
686.79	8251.7
687.138	8237.47
687.485	8209.9
687.832	8185.94
688.18	8204.93
688.527	8093.52
688.874	8080.41
689.221	8076.12
689.568	8089.67
689.915	8032.5
690.262	8049.45
690.609	7998.38
690.956	7977.36
691.303	7935.1
691.65	7971.94
691.997	7893.52
692.344	7821.66
692.69	7802
693.037	7845.84
693.383	7741.43
693.73	7801.09
694.077	7752.06
694.423	7702.79
694.769	7658.27
695.116	7656.69
695.462	7727.42
695.808	7656.69
696.155	7675.45
696.501	7576.47
696.847	7570.37
697.193	7570.59
697.539	7492.18
697.885	7474.55
698.231	7463.25
698.577	7404.95
698.923	7380.54
699.269	7377.6
699.614	7307.55
699.96	7301.9
700.306	7322.24
700.651	7312.97
700.997	7287.21
701.342	7243.59
701.688	7197.72
702.033	7172.86
702.379	7219.19
702.724	7170.38
703.069	7110.94
703.415	7084.28
703.76	7065.75
704.105	7086.31
704.45	7027.1
704.795	6999.08
705.14	6981.23
705.485	6989.59
705.83	6956.37
706.175	6962.92
706.52	6943.49
706.865	6860.55
707.209	6887.22
707.554	6877.05
707.899	6896.71
708.243	6812.42
708.588	6809.93
708.932	6744.62
709.277	6814.23
709.621	6765.42
709.966	6722.03
710.31	6735.81
710.654	6655.14
710.998	6691.07
711.342	6644.51
711.687	6651.29
712.031	6658.53
712.375	6605.19
712.719	6604.74
713.063	6603.61
713.407	6583.05
713.75	6568.13
714.094	6557.96
714.438	6546.21
714.782	6555.93
715.125	6485.2
715.469	6557.96
715.812	6415.82
716.156	6475.93
716.499	6436.61
716.843	6430.06
717.186	6438.42
717.53	6469.38
717.873	6432.09
718.216	6480.68
718.559	6413.11
718.902	6354.13
719.246	6344.86
719.589	6401.13
719.932	6290.4
720.275	6320.23
720.617	6313.68
720.96	6366.33
721.303	6327.01
721.646	6324.3
721.989	6291.98
722.331	6298.99
722.674	6237.07
723.016	6289.04
723.359	6247.46
723.701	6263.06
724.044	6220.57
724.386	6245.43
724.729	6219.44
725.071	6224.64
725.413	6201.59
725.755	6179.89
726.097	6135.6
726.439	6216.5
726.782	6180.35
727.124	6193.45
727.465	6148.48
727.807	6197.97
728.149	6187.13
728.491	6218.54
728.833	6151.19
729.175	6184.87
729.516	6107.58
729.858	6102.38
730.199	6124.08
730.541	6106.68
730.882	6118.65
731.224	6141.48
731.565	6087.24
731.906	6156.39
732.248	6132.89
732.589	6085.66
732.93	6106.9
733.271	6123.4
733.612	6117.75
733.953	6192.78
734.294	6036.85
734.635	6116.84
734.976	6152.32
735.317	6087.47
735.658	6078.88
735.999	6139.9
736.339	6065.55
736.68	6135.38
737.021	6108.48
737.361	6059.9
737.702	6100.35
738.042	6138.09
738.383	6078.88
738.723	6126.11
739.063	6071.2
739.404	6136.51
739.744	6111.42
740.084	6128.37
740.424	6114.36
740.764	6125.43
741.104	6190.52
741.444	6150.29
741.784	6197.07
742.124	6117.3
742.464	6126.11
742.804	6181.02
743.143	6194.13
743.483	6194.81
743.823	6170.4
744.162	6157.97
744.502	6252.66
744.841	6236.84
745.181	6293.79
745.52	6265.32
745.86	6340.12
746.199	6370.85
746.538	6303.51
746.877	6435.71
747.216	6354.8
747.556	6429.38
747.895	6481.58
748.234	6490.17
748.573	6545.53
748.911	6564.97
749.25	6622.37
749.589	6615.36
749.928	6624.18
750.267	6740.78
750.605	6749.6
750.944	6823.72
751.283	6785.53
751.621	6910.95
751.96	6918.18
752.298	7001.79
752.636	7113.2
752.975	7082.24
753.313	7161.11
753.651	7225.74
753.989	7288.57
754.327	7373.08
754.666	7431.39
755.004	7561.55
755.342	7649.69
755.679	7733.3
756.017	7772.39
756.355	7829.12
756.693	7935.33
757.031	8001.32
757.368	8106.85
757.706	8185.94
758.044	8272.72
758.381	8400.4
758.719	8489.66
759.056	8573.73
759.394	8659.6
759.731	8646.27
760.068	8848.75
760.405	8912.7
760.743	8959.93
761.08	9170.78
761.417	9238.34
761.754	9298.23
762.091	9439.24
762.428	9418.9
762.765	9587.94
763.102	9705.9
763.438	9833.13
763.775	9842.85
764.112	9973.01
764.449	10066.8
764.785	10201.94
765.122	10245.32
765.458	10299.11
765.795	10463.62
766.131	10554.24
766.467	10641.02
766.804	10605.99
767.14	10762.37
767.476	10834.69
767.812	10929.37
768.148	10965.08
768.485	11062.93
768.821	11064.74
769.157	11182.25
769.492	11227.22
769.828	11273.09
770.164	11314.9
770.5	11466.31
770.836	11468.34
771.171	11495.23
771.507	11535.01
771.842	11526.87
772.178	11711.05
772.513	11779.29
772.849	11673.76
773.184	11734.78
773.519	11804.15
773.855	11745.4
774.19	11850.03
774.525	11838.95
774.86	11946.97
775.195	12014.77
775.53	11920.31
775.865	11958.5
776.2	12046.86
776.535	11980.87
776.87	12038.27
777.205	12077.37
777.539	12026.97
777.874	12156.01
778.209	12027.65
778.543	12016.8
778.878	12052.96
779.212	12096.57
779.547	12098.38
779.881	12119.17
780.215	12167.76
780.55	12156.69
780.884	12117.59
781.218	12121.88
781.552	12174.99
781.886	12127.99
782.22	12110.81
782.554	12049.57
782.888	11995.11
783.222	12012.51
783.556	11962.57
783.889	11981.1
784.223	11890.48
784.557	11916.69
784.89	11966.18
785.224	11887.31
785.557	11884.38
785.891	11891.83
786.224	11877.6
786.558	11926.64
786.891	11845.73
787.224	11753.98
787.557	11787.88
787.891	11759.63
788.224	11816.36
788.557	11777.03
788.89	11789.24
789.223	11790.82
789.556	11708.79
789.888	11644.61
790.221	11687.77
790.554	11653.65
790.887	11705.62
791.219	11649.81
791.552	11598.28
791.884	11504.95
792.217	11513.77
792.549	11450.94
792.882	11542.46
793.214	11452.52
793.546	11491.84
793.879	11486.42
794.211	11315.8
794.543	11393.77
794.875	11339.76
795.207	11338.63
795.539	11430.6
795.871	11308.12
796.203	11255.01
796.535	11188.12
796.867	11154.9
797.198	11181.12
797.53	11095.7
797.862	11066.32
798.193	11154.9
798.525	11064.96
798.856	11032.65
799.188	11008.02
799.519	10951.52
799.85	10888.7
800.182	11002.59
800.513	10955.36
800.844	10877.17
801.175	10858.42
801.506	10934.12
801.837	10754.46
802.168	10852.77
802.499	10742.94
802.83	10733.9
803.161	10622.04
803.491	10682.6
803.822	10691.87
804.153	10580.91
804.483	10614.58
804.814	10525.99
805.145	10548.82
805.475	10553.79
805.805	10499.55
806.136	10577.07
806.466	10559.21
806.796	10445.77
807.126	10384.53
807.457	10316.51
807.787	10448.26
808.117	10394.02
808.447	10279.9
808.777	10333.68
809.107	10344.76
809.436	10245.78
809.766	10238.77
810.096	10197.42
810.426	10128.72
810.755	10148.15
811.085	10258.66
811.414	10102.73
811.744	10027.48
812.073	10014.14
812.403	10053.92
812.732	10046.46
813.061	10000.36
813.39	10027.02
813.719	9922.85
814.049	10040.81
814.378	9912
814.707	9922.85
815.036	9879.23
815.365	9836.52
815.693	9818.89
816.022	9837.65
816.351	9823.87
816.68	9783.42
817.008	9791.78
817.337	9690.08
817.665	9607.37
817.994	9776.18
818.322	9677.66
818.651	9689.41
818.979	9573.48
819.307	9618.22
819.636	9634.49
819.964	9557.66
820.292	9609.86
820.62	9568.28
820.948	9573.7
821.276	9562.4
821.604	9599.92
821.932	9517.43
822.259	9602.18
822.587	9482.63
822.915	9576.19
823.243	9552.23
823.57	9499.81
823.898	9486.47
824.225	9522.63
824.553	9543.2
824.88	9516.3
825.207	9586.36
825.535	9512.69
825.862	9584.55
826.189	9471.56
826.516	9637.88
826.843	9552.91
827.17	9598.34
827.497	9566.92
827.824	9536.64
828.151	9597.21
828.478	9593.82
828.805	9554.04
829.131	9533.48
829.458	9562.63
829.785	9480.6
830.111	9502.52
830.438	9576.87
830.764	9579.35
831.09	9568.28
831.417	9532.12
831.743	9600.6
832.069	9573.93
832.395	9489.86
832.722	9477.43
833.048	9579.35
833.374	9536.87
833.7	9469.07
834.026	9540.48
834.351	9509.52
834.677	9506.59
835.003	9458.68
835.329	9466.59
835.654	9453.03
835.98	9387.95
836.306	9435.63
836.631	9396.31
836.956	9417.77
837.282	9428.62
837.607	9368.06
837.932	9319.25
838.258	9341.84
838.583	9350.21
838.908	9265.69
839.233	9294.84
839.558	9298
839.883	9274.05
840.208	9229.98
840.533	9230.89
840.858	9223.43
841.182	9259.81
841.507	9245.58
841.832	9163.54
842.156	9231.79
842.481	9164
842.805	9145.24
843.13	9153.38
843.454	9105.01
843.778	9026.82
844.103	9032.93
844.427	9034.06
844.751	9004.68
845.075	9065.47
845.399	8957.45
845.723	8909.77
846.047	8974.4
846.371	8899.14
846.695	8928.75
847.019	8791.8
847.343	8791.35
847.666	8793.16
847.99	8720.62
848.313	8671.81
848.637	8612.82
848.96	8560.85
849.284	8576.44
849.607	8512.04
849.931	8572.15
850.254	8451.92
850.577	8429.33
850.9	8350.01
851.223	8322.21
851.546	8326.96
851.869	8274.08
852.192	8276.34
852.515	8197.02
852.838	8256.9
853.161	8187.07
853.483	8211.25
853.806	8114.08
854.129	8161.99
854.451	8061.43
854.774	8048.09
855.096	8022.56
855.419	8019.39
855.741	7998.83
856.063	7935.33
856.385	7938.27
856.708	7868.21
857.03	7898.94
857.352	7921.77
857.674	7813.98
857.996	7851.71
858.318	7775.11
858.64	7763.13
858.961	7759.74
859.283	7701.66
859.605	7693.98
859.926	7675.67
860.248	7687.2
860.57	7693.98
860.891	7663.02
861.212	7591.38
861.534	7560.65
861.855	7548.67
862.176	7614.43
862.498	7621.44
862.819	7531.5
863.14	7509.8
863.461	7489.69
863.782	7489.92
864.103	7536.24
864.424	7472.06
864.745	7434.78
865.065	7470.26
865.386	7475.23
865.707	7418.73
866.027	7416.02
866.348	7438.62
866.668	7437.49
866.989	7375.57
867.309	7297.83
867.63	7325.4
867.95	7340.32
868.27	7322.24
868.59	7285.18
868.91	7244.05
869.23	7338.51
869.55	7217.61
869.87	7345.29
870.19	7231.17
870.51	7300.32
870.83	7300.54
871.15	7212.18
871.469	7161.79
871.789	7193.43
872.109	7202.01
872.428	7185.74
872.748	7198.17
873.067	7182.13
873.386	7194.33
873.706	7188.23
874.025	7132.19
874.344	7080.21
874.663	7150.49
874.982	7133.32
875.301	7090.38
875.62	7066.88
875.939	7043.83
876.258	7031.17
876.577	6988.01
876.896	7025.75
877.214	6974.45
877.533	7089.93
877.852	6985.52
878.17	7026.65
878.489	6969.03
878.807	6987.33
879.125	6959.53
879.444	6968.35
879.762	6861.01
880.08	6981.91
880.398	6874.34
880.716	6893.32
881.034	6840.22
881.352	6826.66
881.67	6891.29
881.988	6798.63
882.306	6842.48
882.624	6801.12
882.941	6755.92
883.259	6724.29
883.577	6798.63
883.894	6747.34
884.212	6718.64
884.529	6698.3
884.846	6684.51
885.164	6643.16
885.481	6659.88
885.798	6656.94
886.115	6574.46
886.432	6657.62
886.75	6596.61
887.067	6589.37
887.383	6559.32
887.7	6613.33
888.017	6504.86
888.334	6546.89
888.651	6531.52
888.967	6523.61
889.284	6423.28
889.6	6463.28
889.917	6400
890.233	6436.16
890.55	6392.77
890.866	6392.09
891.182	6409.49
891.498	6401.13
891.815	6360
892.131	6345.54
892.447	6303.05
892.763	6242.94
893.079	6300.34
893.395	6253.34
893.71	6198.42
894.026	6206.33
894.342	6197.97
894.657	6139.44
894.973	6124.98
895.289	6152.32
895.604	6129.05
895.92	6096.73
896.235	6063.74
896.55	6078.88
896.865	5988.26
897.181	5995.49
897.496	6012.89
897.811	5958.43
898.126	5986.68
898.441	5957.98
898.756	5931.99
899.071	5888.83
899.386	5905.78
899.7	5840.69
900.015	5796.85
900.33	5798.66
900.644	5807.47
900.959	5840.24
901.273	5801.15
901.588	5714.82
901.902	5678.44
902.216	5666.69
902.531	5702.39
902.845	5703.52
903.159	5630.08
903.473	5623.75
903.787	5574.94
904.101	5512.11
904.415	5528.39
904.729	5507.6
905.042	5525
905.356	5455.85
905.67	5482.96
905.984	5461.27
906.297	5510.99
906.611	5376.53
906.924	5440.48
907.237	5365.23
907.551	5355.51
907.864	5346.24
908.177	5313.02
908.491	5328.62
908.804	5299.69
909.117	5228.51
909.43	5247.94
909.743	5223.99
910.056	5206.59
910.368	5196.64
910.681	5149.86
910.994	5169.07
911.307	5111.22
911.619	5030.32
911.932	5090.66
912.244	5013.82
912.557	5003.43
912.869	5030.77
913.181	4943.09
913.494	4974.5
913.806	4931.79
914.118	4906.26
914.43	4844.34
914.742	4856.54
915.054	4870.55
915.366	4840.27
915.678	4796.2
915.99	4815.18
916.302	4754.39
916.613	4772.02
916.925	4765.69
917.236	4762.08
917.548	4713.49
917.859	4721.18
918.171	4690.44
918.482	4676.2
918.794	4683.44
919.105	4645.47
919.416	4603.89
919.727	4573.16
920.038	4573.16
920.349	4531.8
920.66	4531.35
920.971	4532.93
921.282	4530.9
921.593	4499.03
921.903	4479.83
922.214	4427.4
922.525	4428.08
922.835	4423.56
923.146	4426.49
923.456	4361.64
923.767	4330
924.077	4389.43
924.387	4331.36
924.697	4310.56
925.008	4284.8
925.318	4220.17
925.628	4262.66
925.938	4311.47
926.248	4236.67
926.558	4204.13
926.867	4216.78
927.177	4152.38
927.487	4203.45
927.796	4151.7
928.106	4126.84
928.416	4140.17
928.725	4093.17
929.034	4066.73
929.344	4085.71
929.653	4037.13
929.962	4064.47
930.271	3995.32
930.581	3984.02
930.89	3999.84
931.199	3994.87
931.508	3961.42
931.817	3954.87
932.125	3917.13
932.434	3945.15
932.743	3884.14
933.051	3874.42
933.36	3865.38
933.669	3823.8
933.977	3824.7
934.286	3779.51
934.594	3822.67
934.902	3776.79
935.21	3755.32
935.519	3745.61
935.827	3759.84
936.135	3757.36
936.443	3699.28
936.751	3680.75
937.059	3657.7
937.367	3662.9
937.674	3626.51
937.982	3669.9
938.29	3584.48
938.597	3628.1
938.905	3551.94
939.213	3577.7
939.52	3523.69
939.827	3581.09
940.135	3511.04
940.442	3484.82
940.749	3532.05
941.056	3542
941.363	3450.02
941.67	3447.99
941.977	3442.79
942.284	3417.03
942.591	3402.57
942.898	3407.09
943.205	3401.66
943.511	3362.11
943.818	3366.86
944.125	3313.98
944.431	3325.96
944.738	3315.11
945.044	3312.62
945.35	3299.07
945.657	3261.78
945.963	3279.86
946.269	3242.34
946.575	3223.59
946.881	3262.91
947.187	3227.88
947.493	3214.1
947.799	3205.96
948.105	3145.17
948.41	3116.7
948.716	3159.86
949.022	3137.49
949.327	3103.36
949.633	3094.1
949.938	3147.88
950.244	3114.21
950.549	3045.29
950.854	3105.85
951.16	3083.25
951.465	3051.39
951.77	3014.55
952.075	3005.29
952.38	2993.31
952.685	3010.26
952.99	2974.1
953.294	2983.14
953.599	2979.98
953.904	2917.38
954.209	2866.31
954.513	2929.13
954.818	2901.11
955.122	2885.52
955.426	2846.87
955.731	2839.19
956.035	2836.71
956.339	2835.35
956.643	2820.66
956.948	2794.9
957.252	2808.46
957.556	2770.04
957.86	2768.46
958.163	2764.39
958.467	2741.11
958.771	2759.87
959.075	2748.57
959.378	2710.15
959.682	2743.37
959.985	2702.02
960.289	2679.65
960.592	2685.3
960.896	2661.79
961.199	2671.74
961.502	2625.86
961.805	2656.82
962.108	2604.17
962.411	2591.97
962.714	2568.46
963.017	2595.36
963.32	2614.56
963.623	2559.65
963.926	2556.94
964.228	2560.33
964.531	2512.65
964.833	2528.92
965.136	2524.17
965.438	2503.83
965.741	2504.28
966.043	2499.99
966.345	2483.27
966.648	2450.95
966.95	2481.91
967.252	2481.46
967.554	2447.79
967.856	2435.81
968.158	2429.48
968.46	2412.08
968.761	2426.32
969.063	2417.06
969.365	2402.82
969.666	2400.11
969.968	2360.56
970.269	2377.06
970.571	2359.2
970.872	2357.4
971.174	2307.68
971.475	2270.62
971.776	2310.39
972.077	2310.17
972.378	2290.73
972.679	2285.76
972.98	2246.89
973.281	2271.52
973.582	2251.64
973.883	2242.6
974.183	2235.82
974.484	2216.38
974.785	2221.81
975.085	2190.17
975.386	2224.52
975.686	2187.23
975.986	2165.99
976.287	2142.26
976.587	2145.42
976.887	2140.9
977.187	2167.34
977.487	2124.63
977.787	2118.98
978.087	2121.92
978.387	2093
978.687	2079.66
978.987	2085.99
979.286	2043.96
979.586	2069.95
979.885	2059.78
980.185	2060.23
980.484	2039.44
980.784	2031.53
981.083	1987.24
981.382	2033.34
981.682	2005.77
981.981	2015.26
982.28	1968.48
982.579	1968.48
982.878	1974.13
983.177	1953.56
983.475	1973.9
983.774	1941.36
984.073	1937.07
984.372	1944.53
984.67	1921.02
984.969	1933.9
985.267	1946.11
985.566	1883.96
985.864	1897.52
986.162	1878.09
986.461	1856.62
986.759	1867.01
987.057	1864.53
987.355	1862.72
987.653	1864.53
987.951	1827.01
988.249	1841.25
988.547	1806
988.844	1821.59
989.142	1823.85
989.44	1799.22
989.737	1800.57
990.035	1804.19
990.332	1782.27
990.63	1788.6
990.927	1743.63
991.224	1742.72
991.521	1765.32
991.819	1751.99
992.116	1713.8
992.413	1705.89
992.71	1696.85
993.006	1701.82
993.303	1702.27
993.6	1705.21
993.897	1662.5
994.193	1687.36
994.49	1669.05
994.787	1660.69
995.083	1656.62
995.379	1646.45
995.676	1639.45
995.972	1638.32
996.268	1640.35
996.565	1620.01
996.861	1604.2
997.157	1582.5
997.453	1608.94
997.749	1581.6
998.044	1561.71
998.34	1562.61
998.636	1566
998.932	1564.87
999.227	1561.94
999.523	1530.98
999.818	1547.47
1000.114	1543.63
1000.409	1523.52
1000.704	1514.48
1001	1504.08
1001.295	1485.55
1001.59	1455.72
1001.885	1486.01
1002.18	1464.31
1002.475	1495.72
1002.77	1472.67
1003.065	1443.97
1003.359	1446.01
1003.654	1462.96
1003.949	1425.22
1004.243	1440.81
1004.538	1412.79
1004.832	1395.39
1005.127	1422.05
1005.421	1410.53
1005.715	1389.06
1006.009	1380.02
1006.304	1381.38
1006.598	1381.83
1006.892	1352.45
1007.186	1343.64
1007.48	1334.37
1007.773	1354.48
1008.067	1359
1008.361	1317.87
1008.655	1323.75
1008.948	1295.95
1009.242	1286.01
1009.535	1289.4
1009.829	1309.29
1010.122	1292.34
1010.415	1252.11
1010.708	1240.36
1011.001	1252.34
1011.295	1264.99
1011.588	1254.37
1011.881	1239.23
1012.173	1238.78
1012.466	1225.22
1012.759	1187.93
1013.052	1232.45
1013.344	1203.08
1013.637	1219.57
1013.93	1171.44
1014.222	1184.32
1014.514	1206.24
1014.807	1171.21
1015.099	1144.77
1015.391	1170.31
1015.683	1142.74
1015.976	1138.44
1016.268	1165.79
1016.56	1148.39
1016.851	1124.21
1017.143	1146.35
1017.435	1116.52
1017.727	1110.2
1018.018	1104.55
1018.31	1088.73
1018.602	1093.7
1018.893	1071.33
1019.185	1083.08
1019.476	1096.41
1019.767	1105
1020.058	1083.3
1020.35	1072.91
1020.641	1047.83
1020.932	1050.09
1021.223	1039.69
1021.514	1031.55
1021.804	1022.97
1022.095	1006.92
1022.386	1048.05
1022.677	1021.39
1022.967	1000.37
1023.258	994.95
1023.548	995.17
1023.839	987.71
1024.129	964.44
1024.419	975.51
1024.709	996.75
1025	974.16
1025.29	947.04
1025.58	943.42
1025.87	940.94
1026.16	948.85
1026.449	946.13
1026.739	929.64
1027.029	933.03
1027.319	935.29
1027.608	918.11
1027.898	915.17
1028.187	894.38
1028.477	920.82
1028.766	887.83
1029.055	876.53
1029.344	894.61
1029.634	901.84
1029.923	887.15
1030.212	846.47
1030.501	865.23
1030.79	877.43
1031.078	862.75
1031.367	849.86
1031.656	847.83
1031.945	841.05
1032.233	833.59
1032.522	856.42
1032.81	837.44
1033.099	815.29
1033.387	809.41
1033.675	824.33
1033.963	801.96
1034.251	814.16
1034.54	804.67
1034.828	803.99
1035.116	791.11
1035.403	796.53
1035.691	789.08
1035.979	788.62
1036.267	794.72
1036.554	767.61
1036.842	768.74
1037.129	766.7
1037.417	763.77
1037.704	756.08
1037.992	726.48
1038.279	735.29
1038.566	746.14
1038.853	746.14
1039.14	746.14
