Data from hue_120_FLMS001491_00071.txt Node
Date: Tue Feb 07 16:59:57 GMT 2017
User: dcchb
Spectrometer: FLMS00149
Trigger mode: 0
Integration Time (sec): 2.000000E-2
Scans to average: 10
Electric dark correction enabled: true
Nonlinearity correction enabled: false
Boxcar width: 0
XAxis mode: Wavelengths
Number of Pixels in Spectrum: 2048
>>>>>Begin Spectral Data<<<<<
341.393	8.35
341.776	8.35
342.16	8.35
342.543	-56.51
342.927	-69.16
343.31	-63.97
343.693	-81.59
344.077	-59.22
344.46	-60.58
344.843	-59
345.226	-36.17
345.61	-45.21
345.993	-3.86
346.376	4.05
346.759	-2.5
347.142	37.72
347.525	37.05
347.908	48.8
348.291	83.83
348.674	73.66
349.057	126.99
349.44	130.6
349.823	137.38
350.206	153.65
350.588	200.43
350.971	240.88
351.354	245.4
351.737	245.4
352.119	235.46
352.502	265.06
352.884	280.2
353.267	300.32
353.65	304.84
354.032	307.55
354.414	317.49
354.797	312.97
355.179	354.78
355.562	323.82
355.944	316.59
356.326	336.7
356.709	341.9
357.091	350.94
357.473	340.09
357.855	334.89
358.238	336.47
358.62	346.87
359.002	351.62
359.384	364.95
359.766	351.84
360.148	359.75
360.53	336.47
360.912	329.92
361.294	341.9
361.676	357.49
362.057	337.83
362.439	339.41
362.821	330.15
363.203	331.95
363.584	355.68
363.966	326.08
364.348	361.33
364.729	361.33
365.111	322.92
365.493	326.53
365.874	343.48
366.256	318.62
366.637	340.54
367.019	303.93
367.4	326.08
367.781	322.01
368.163	334.67
368.544	304.84
368.925	308.45
369.306	330.37
369.688	321.33
370.069	343.93
370.45	308.23
370.831	327.66
371.212	329.92
371.593	322.01
371.974	320.2
372.355	326.53
372.736	333.31
373.117	306.42
373.498	313.42
373.879	322.01
374.26	319.07
374.641	336.25
375.021	325.18
375.402	345.74
375.783	322.24
376.163	335.12
376.544	317.49
376.925	338.28
377.305	307.1
377.686	342.58
378.066	346.64
378.447	339.86
378.827	348.68
379.208	340.09
379.588	354.1
379.968	325.85
380.349	348.45
380.729	360.2
381.109	339.19
381.489	347.55
381.87	345.06
382.25	345.97
382.63	346.87
383.01	366.98
383.39	350.03
383.77	358.62
384.15	358.17
384.53	334.67
384.91	354.78
385.29	374.67
385.67	350.94
386.049	367.43
386.429	364.27
386.809	372.86
387.189	378.28
387.568	368.79
387.948	372.41
388.328	354.78
388.707	359.75
389.087	379.18
389.466	376.02
389.846	367.66
390.225	377.38
390.605	387.09
390.984	379.18
391.363	373.76
391.743	387.09
392.122	373.08
392.501	394.55
392.881	417.38
393.26	389.58
393.639	390.03
394.018	388
394.397	401.56
394.776	392.97
395.155	392.74
395.534	408.79
395.913	398.85
396.292	411.95
396.671	425.51
397.05	397.49
397.429	411.5
397.808	406.53
398.186	395.46
398.565	408.79
398.944	417.15
399.323	416.25
399.701	423.7
400.08	419.18
400.458	427.55
400.837	435.45
401.215	429.58
401.594	423.03
401.972	430.93
402.351	432.29
402.729	425.29
403.107	428.45
403.486	437.94
403.864	427.32
404.242	429.13
404.62	436.58
404.999	450.82
405.377	446.75
405.755	471.16
406.133	453.53
406.511	436.58
406.889	468.9
407.267	460.54
407.645	460.76
408.023	463.48
408.401	475.45
408.779	473.87
409.156	484.27
409.534	492.85
409.912	463.48
410.29	476.13
410.667	473.87
411.045	494.21
411.422	489.46
411.8	482.23
412.178	509.35
412.555	501.22
412.933	512.74
413.31	515
413.687	519.52
414.065	523.36
414.442	505.96
414.819	522.01
415.197	532.18
415.574	529.24
415.951	530.59
416.328	524.49
416.705	550.71
417.082	545.73
417.46	549.35
417.837	535.11
418.214	562
418.591	575.11
418.967	572.85
419.344	569.69
419.721	533.76
420.098	558.62
420.475	583.02
420.852	561.55
421.228	572.17
421.605	551.38
421.982	581.67
422.358	580.31
422.735	610.82
423.111	587.09
423.488	600.2
423.864	605.62
424.241	633.87
424.617	627.09
424.994	623.7
425.37	638.16
425.746	627.99
426.123	628.22
426.499	639.74
426.875	632.96
427.251	644.49
427.627	645.17
428.003	680.65
428.379	665.28
428.756	656.69
429.132	679.29
429.507	684.49
429.883	667.31
430.259	711.38
430.635	696.69
431.011	692.85
431.387	693.07
431.763	712.96
432.138	719.51
432.514	747.54
432.89	733.07
433.265	755.9
433.641	749.8
434.016	750.02
434.392	773.52
434.767	792.28
435.143	769.46
435.518	810.59
435.894	772.17
436.269	798.16
436.644	808.78
437.02	826.18
437.395	835.44
437.77	826.18
438.145	826.63
438.52	848.1
438.895	851.26
439.271	846.07
439.646	861.43
440.021	852.62
440.395	889.23
440.77	871.83
441.145	885.39
441.52	875.44
441.895	913.18
442.27	894.88
442.645	929.45
443.019	920.87
443.394	932.62
443.769	930.36
444.143	949.11
444.518	948.21
444.892	925.39
445.267	961.32
445.641	946.85
446.016	955.89
446.39	958.83
446.764	976.91
447.139	974.88
447.513	990.02
447.887	990.69
448.262	1010.81
448.636	988.43
449.01	1025.72
449.384	1006.97
449.758	1032.28
450.132	1011.94
450.506	1038.83
450.88	1041.77
451.254	1057.36
451.628	1053.52
452.002	1079.05
452.376	1077.02
452.75	1110.92
453.123	1110.69
453.497	1118.37
453.871	1119.73
454.244	1147.07
454.618	1144.81
454.992	1161.99
455.365	1168.99
455.739	1193.4
456.112	1176.45
456.486	1217.58
456.859	1230.69
457.232	1244.25
457.606	1234.76
457.979	1265.26
458.352	1279.95
458.725	1299.84
459.099	1323.11
459.472	1354.98
459.845	1368.54
460.218	1368.54
460.591	1392.04
460.964	1388.2
461.337	1441.08
461.71	1411.02
462.083	1477.91
462.456	1461.19
462.829	1470.68
463.201	1509.55
463.574	1528.08
463.947	1531.25
464.32	1546.84
464.692	1556.56
465.065	1632.94
465.438	1609.21
465.81	1662.09
466.183	1659.6
466.555	1698.25
466.928	1726.72
467.3	1714.07
467.672	1776.44
468.045	1820.73
468.417	1836.77
468.789	1832.93
469.161	1829.54
469.534	1895.98
469.906	1930.56
470.278	1976.43
470.65	2005.81
471.022	2048.07
471.394	2119.93
471.766	2104.11
472.138	2161.96
472.51	2194.73
472.882	2243.32
473.253	2278.12
473.625	2316.54
473.997	2393.6
474.369	2405.12
474.74	2462.07
475.112	2521.28
475.484	2602.4
475.855	2666.36
476.227	2678.11
476.598	2781.83
476.97	2811.44
477.341	2911.1
477.713	2935.28
478.084	3027.02
478.455	3145.89
478.827	3168.94
479.198	3313.57
479.569	3368.94
479.94	3453.45
480.311	3552.66
480.682	3654.13
481.053	3790.39
481.424	3845.99
481.795	3900.45
482.166	4036.04
482.537	4091.4
482.908	4246.43
483.279	4332.98
483.65	4453.2
484.021	4641.9
484.391	4737.71
484.762	4814.55
485.133	4895.45
485.503	5039.85
485.874	5202.11
486.244	5286.4
486.615	5432.61
486.985	5556.68
487.356	5710.34
487.726	5812.26
488.097	5973.61
488.467	6108.98
488.837	6257.22
489.207	6445.47
489.578	6587.61
489.948	6728.62
490.318	6907.83
490.688	6950.54
491.058	7146.92
491.428	7309.85
491.798	7455.16
492.168	7639.78
492.538	7768.37
492.908	7871.87
493.278	8042.94
493.648	8211.3
494.017	8372.2
494.387	8476.37
494.757	8553.21
495.126	8774.9
495.496	8828.91
495.866	8997.49
496.235	9147.77
496.605	9308.89
496.974	9400.42
497.344	9547.08
497.713	9707.53
498.082	9764.47
498.452	9947.97
498.821	10070.46
499.19	10178.7
499.559	10288.98
499.928	10398.36
500.298	10521.74
500.667	10670.44
501.036	10705.92
501.405	10822.53
501.774	10878.12
502.143	11056.19
502.512	11070.2
502.88	11250.76
503.249	11306.13
503.618	11489.18
503.987	11459.8
504.356	11605.33
504.724	11739.11
505.093	11705.89
505.462	11888.49
505.83	11904.08
506.199	11992.89
506.567	12196.05
506.936	12192.43
507.304	12383.39
507.672	12439.43
508.041	12471.97
508.409	12544.97
508.777	12704.51
509.145	12827.22
509.514	12761.68
509.882	12917.61
510.25	12932.75
510.618	12941.79
510.986	12999.87
511.354	13149.24
511.722	13203.93
512.09	13372.29
512.458	13336.81
512.826	13480.99
513.193	13452.74
513.561	13530.03
513.929	13606.18
514.297	13734.99
514.664	13787.65
515.032	13830.36
515.4	13842.56
515.767	13885.27
516.135	13923.24
516.502	13825.16
516.869	14107.19
517.237	14067.19
517.604	14006.4
517.972	14182.66
518.339	14299.27
518.706	14262.66
519.073	14285.49
519.44	14320.29
519.808	14482.99
520.175	14450.91
520.542	14584.69
520.909	14621.3
521.276	14509.21
521.643	14645.48
522.009	14621.3
522.376	14800.5
522.743	14812.03
523.11	14915.98
523.477	14953.49
523.843	15024
524.21	15051.34
524.577	15147.16
524.943	15227.38
525.31	15113.71
525.676	15329.98
526.043	15287.95
526.409	15257.89
526.776	15335.85
527.142	15440.48
527.508	15382.63
527.874	15491.56
528.241	15418.11
528.607	15460.14
528.973	15648.61
529.339	15518.9
529.705	15584.21
530.071	15653.59
530.437	15681.38
530.803	15616.3
531.169	15678.9
531.535	15690.87
531.901	15511.22
532.267	15630.76
532.632	15714.83
532.998	15726.35
533.364	15773.36
533.73	15745.11
534.095	15729.97
534.461	15667.14
534.826	15649.52
535.192	15710.76
535.557	15746.69
535.923	15652.46
536.288	15732.91
536.653	15693.13
537.019	15561.61
537.384	15584.89
537.749	15549.86
538.114	15499.01
538.479	15559.8
538.845	15574.94
539.21	15450.65
539.575	15465.57
539.94	15476.64
540.305	15488.39
540.67	15521.61
541.034	15438.45
541.399	15435.96
541.764	15409.98
542.129	15387.83
542.494	15357.1
542.858	15299.02
543.223	15255.63
543.587	15343.99
543.952	15217.21
544.316	15235.52
544.681	15116.42
545.045	15169.53
545.41	15133.15
545.774	15206.14
546.138	15074.84
546.503	15110.1
546.867	15062.64
547.231	15087.72
547.595	15022.42
547.959	14924.79
548.324	14980.38
548.688	14897
549.052	14883.66
549.416	14884.79
549.779	14909.65
550.143	14788.98
550.507	14817.68
550.871	14796.43
551.235	14721.41
551.599	14823.78
551.962	14743.33
552.326	14686.61
552.689	14702.88
553.053	14632.37
553.417	14585.82
553.78	14720.05
554.143	14640.05
554.507	14714.4
554.87	14678.47
555.234	14675.31
555.597	14572.03
555.96	14567.96
556.323	14564.12
556.686	14480.06
557.05	14732.93
557.413	14604.35
557.776	14579.72
558.139	14642.76
558.502	14560.06
558.865	14609.32
559.228	14636.89
559.59	14566.83
559.953	14557.8
560.316	14649.77
560.679	14609.77
561.041	14678.02
561.404	14666.49
561.767	14665.59
562.129	14647.06
562.492	14846.15
562.854	14720.28
563.217	14647.96
563.579	14672.82
563.941	14772.48
564.304	14763.67
564.666	14833.95
565.028	14760.05
565.39	14804.34
565.753	14833.95
566.115	14881.4
566.477	14908.75
566.839	14885.02
567.201	14928.18
567.563	14957.56
567.925	15068.29
568.287	14932.93
568.648	15009.53
569.01	15013.15
569.372	15101.28
569.734	15012.02
570.095	15044.56
570.457	15082.53
570.819	15076.43
571.18	15099.48
571.542	15201.85
571.903	15203.65
572.265	15147.84
572.626	15299.02
572.987	15162.98
573.349	15221.05
573.71	15244.1
574.071	15285.91
574.432	15305.57
574.794	15371.11
575.155	15398
575.516	15269.87
575.877	15360.49
576.238	15330.2
576.599	15425.34
576.96	15389.19
577.32	15350.99
577.681	15360.94
578.042	15504.66
578.403	15427.38
578.763	15419.69
579.124	15375.85
579.485	15465.12
579.845	15452.23
580.206	15358
580.566	15388.28
580.927	15402.29
581.287	15388.28
581.648	15440.03
582.008	15461.95
582.368	15414.04
582.728	15401.84
583.089	15405
583.449	15444.78
583.809	15343.76
584.169	15403.2
584.529	15408.17
584.889	15508.73
585.249	15380.15
585.609	15396.64
585.969	15433.7
586.329	15391.9
586.688	15388.28
587.048	15315.52
587.408	15365.01
587.768	15224.22
588.127	15265.12
588.487	15267.16
588.846	15364.55
589.206	15270.77
589.565	15234.84
589.925	15349.41
590.284	15269.41
590.643	15368.62
591.003	15389.19
591.362	15328.62
591.721	15297.66
592.08	15234.16
592.44	15244.1
592.799	15222.41
593.158	15226.48
593.517	15230.32
593.876	15265.35
594.235	15182.64
594.593	15195.97
594.952	15183.32
595.311	15186.03
595.67	15275.74
596.029	15282.3
596.387	15368.17
596.746	15321.62
597.104	15199.59
597.463	15243.88
597.822	15246.59
598.18	15148.74
598.538	15155.97
598.897	15282.52
599.255	15037.1
599.613	15348.06
599.972	15153.26
600.33	15243.65
600.688	15212.69
601.046	15261.73
601.404	15303.09
601.762	15163.65
602.12	15287.95
602.478	15241.84
602.836	15298.11
603.194	15174.73
603.552	15249.3
603.91	15123.88
604.268	15226.03
604.625	15153.49
604.983	15308.74
605.341	15211.56
605.698	15265.35
606.056	15247.95
606.413	15227.61
606.771	15308.96
607.128	15286.59
607.485	15212.47
607.843	15162.3
608.2	15302.86
608.557	15357.77
608.914	15397.32
609.272	15472.12
609.629	15421.05
609.986	15454.72
610.343	15321.16
610.7	15517.77
611.057	15462.63
611.414	15439.13
611.771	15443.65
612.127	15503.76
612.484	15439.35
612.841	15561.38
613.198	15430.77
613.554	15533.14
613.911	15588.73
614.267	15520.03
614.624	15534.04
614.98	15568.39
615.337	15630.76
615.693	15563.87
616.05	15587.6
616.406	15598.67
616.762	15532.01
617.118	15564.77
617.475	15620.14
617.831	15690.19
618.187	15586.24
618.543	15678.44
618.899	15666.01
619.255	15755.28
619.611	15659.91
619.967	15709.63
620.323	15736.97
620.678	15676.41
621.034	15727.03
621.39	15746.46
621.746	15693.13
622.101	15768.61
622.457	15686.13
622.812	15828.5
623.168	15793.24
623.523	15776.07
623.879	15786.24
624.234	15728.61
624.589	15765
624.945	15715.73
625.3	15788.05
625.655	15654.94
626.01	15766.35
626.365	15789.18
626.72	15711.66
627.075	15673.47
627.43	15739.46
627.785	15763.19
628.14	15736.07
628.495	15726.13
628.85	15728.84
629.205	15645
629.559	15713.7
629.914	15674.38
630.269	15609.97
630.623	15662.85
630.978	15634.83
631.332	15653.13
631.687	15600.48
632.041	15591.67
632.396	15673.7
632.75	15568.16
633.104	15482.97
633.459	15574.27
633.813	15479.58
634.167	15535.85
634.521	15470.31
634.875	15490.2
635.229	15464.66
635.583	15382.41
635.937	15360.94
636.291	15413.82
636.645	15350.77
636.999	15308.06
637.352	15328.85
637.706	15265.12
638.06	15350.99
638.413	15278.68
638.767	15228.51
639.121	15307.61
639.474	15154.62
639.828	15129.53
640.181	15181.96
640.534	15232.13
640.888	15119.14
641.241	15098.12
641.594	15137.44
641.947	15157.33
642.301	15177.67
642.654	15122.3
643.007	15103.32
643.36	15027.39
643.713	15086.37
644.066	15158.46
644.419	15069.19
644.771	14893.83
645.124	14826.49
645.477	14838.92
645.83	14758.24
646.182	14655.19
646.535	14642.99
646.888	14620.39
647.24	14494.97
647.593	14604.57
647.945	14562.09
648.298	14416.33
648.65	14457.23
649.002	14448.87
649.355	14507.63
649.707	14518.02
650.059	14614.97
650.411	14746.72
650.763	14739.49
651.115	14971.8
651.467	14875.07
651.819	14823.32
652.171	14827.17
652.523	14818.35
652.875	14809.99
653.227	14762.54
653.578	14840.05
653.93	14882.53
654.282	14838.47
654.633	14759.6
654.985	14802.76
655.337	14821.52
655.688	14921.85
656.039	14862.19
656.391	14857.67
656.742	14823.1
657.094	14849.54
657.445	14850.67
657.796	14830.78
658.147	14884.79
658.498	14768.64
658.849	14849.76
659.2	14807.05
659.551	14752.59
659.902	14776.32
660.253	14765.7
660.604	14794.63
660.955	14823.32
661.306	14901.06
661.656	14817.68
662.007	14837.34
662.358	14843.21
662.708	14804.12
663.059	14826.71
663.409	14783.55
663.76	14880.5
664.11	14866.71
664.461	14888.18
664.811	14925.47
665.161	14859.71
665.511	14840.5
665.862	14825.58
666.212	14909.42
666.562	14923.21
666.912	14863.1
667.262	14818.58
667.612	14866.49
667.962	14910.78
668.312	14850.89
668.662	14960.27
669.011	14813.16
669.361	14768.64
669.711	14900.16
670.06	14819.26
670.41	14798.47
670.76	14836.66
671.109	14879.37
671.459	14790.78
671.808	14766.6
672.157	14828.07
672.507	14659.04
672.856	14717.34
673.205	14753.95
673.554	14715.31
673.904	14702.2
674.253	14775.87
674.602	14719.82
674.951	14478.48
675.3	14407.29
675.649	14639.6
675.998	14599.38
676.346	14677.11
676.695	14646.61
677.044	14566.16
677.393	14565.25
677.741	14626.95
678.09	14595.53
678.438	14462.43
678.787	14611.81
679.135	14558.93
679.484	14544.46
679.832	14495.88
680.181	14480.51
680.529	14484.35
680.877	14435.09
681.225	14469.21
681.573	14417.69
681.922	14334.52
682.27	14294.07
682.618	14286.84
682.966	14273.51
683.314	14225.6
683.661	14306.95
684.009	14131.37
684.357	14136.56
684.705	14140.18
685.053	14035.78
685.4	14089.56
685.748	14077.58
686.095	14027.19
686.443	13929.11
686.79	13929.34
687.138	14085.49
687.485	13895.21
687.832	13940.86
688.18	13862.45
688.527	13819.74
688.874	13739.96
689.221	13664.26
689.568	13798.49
689.915	13700.42
690.262	13615.45
690.609	13583.13
690.956	13589.23
691.303	13560.31
691.65	13522.79
691.997	13407.32
692.344	13312.86
692.69	13428.33
693.037	13315.57
693.383	13260.65
693.73	13294.78
694.077	13153.31
694.423	13189.02
694.769	13100.43
695.116	13050.26
695.462	13076.7
695.808	12999.87
696.155	12950.83
696.501	12956.48
696.847	12877.39
697.193	12814.34
697.539	12772.08
697.885	12690.05
698.231	12683.49
698.577	12575.25
698.923	12555.81
699.269	12572.76
699.614	12494.12
699.96	12436.72
700.306	12412.09
700.651	12362.37
700.997	12334.12
701.342	12377.06
701.688	12326.22
702.033	12138.88
702.379	12207.35
702.724	12142.27
703.069	12142.49
703.415	11989.73
703.76	12000.35
704.105	12022.04
704.45	11967.35
704.795	11898.66
705.14	11797.42
705.485	11856.85
705.83	11834.7
706.175	11784.08
706.52	11735.5
706.865	11685.33
707.209	11644.88
707.554	11640.81
707.899	11705.44
708.243	11509.29
708.588	11509.06
708.932	11443.3
709.277	11381.61
709.621	11490.53
709.966	11370.53
710.31	11447.14
710.654	11338.67
710.998	11323.08
711.342	11303.87
711.687	11303.64
712.031	11209.18
712.375	11175.06
712.719	11236.07
713.063	11180.26
713.407	11245.34
713.75	11148.17
714.094	11123.76
714.438	11093.48
714.782	11078.79
715.125	11048.73
715.469	11118.79
715.812	10997.44
716.156	10940.26
716.499	10936.87
716.843	11013.48
717.186	10895.74
717.53	10990.66
717.873	10990.66
718.216	10870.43
718.559	10830.66
718.902	10860.49
719.246	10800.15
719.589	10807.16
719.932	10674.28
720.275	10749.53
720.617	10698.69
720.96	10647.84
721.303	10788.85
721.646	10670.21
721.989	10683.32
722.331	10758.12
722.674	10708.18
723.016	10607.39
723.359	10663.89
723.701	10658.01
724.044	10580.95
724.386	10584.57
724.729	10615.75
725.071	10617.79
725.413	10577.33
725.755	10644.9
726.097	10438.36
726.439	10502.53
726.782	10470.22
727.124	10544.57
727.465	10488.07
727.807	10508.41
728.149	10481.29
728.491	10416.44
728.833	10461.86
729.175	10475.87
729.516	10450.78
729.858	10442.88
730.199	10418.92
730.541	10339.38
730.882	10392.03
731.224	10460.05
731.565	10380.73
731.906	10453.95
732.248	10416.89
732.589	10387.51
732.93	10274.29
733.271	10330.11
733.612	10387.28
733.953	10399.26
734.294	10389.32
734.635	10403.55
734.976	10400.84
735.317	10371.24
735.658	10328.08
735.999	10309.32
736.339	10405.36
736.68	10346.61
737.021	10305.48
737.361	10281.98
737.702	10406.72
738.042	10348.64
738.383	10314.74
738.723	10348.41
739.063	10281.3
739.404	10375.98
739.744	10364.46
740.084	10281.07
740.424	10283.56
740.764	10375.08
741.104	10388.41
741.444	10351.8
741.784	10351.13
742.124	10369.66
742.464	10439.94
742.804	10450.56
743.143	10495.76
743.483	10534.4
743.823	10468.41
744.162	10523.32
744.502	10590.44
744.841	10554.51
745.181	10576.66
745.52	10594.96
745.86	10694.39
746.199	10688.29
746.538	10785.92
746.877	10770.32
747.216	10838.12
747.556	10815.97
747.895	10942.97
748.234	10965.57
748.573	10950.21
748.911	11049.86
749.25	11090.54
749.589	11132.35
749.928	11281.27
750.267	11336.41
750.605	11353.59
750.944	11460.7
751.283	11547.7
751.621	11562.39
751.96	11605.33
752.298	11686.01
752.636	11857.98
752.975	11954.7
753.313	12037.64
753.651	12246.22
753.989	12167.8
754.327	12336.16
754.666	12388.81
755.004	12556.94
755.342	12773.21
755.679	12856.37
756.017	12799.88
756.355	13088.46
756.693	13245.29
757.031	13322.35
757.368	13423.14
757.706	13551.04
758.044	13670.13
758.381	13925.27
758.719	14090.91
759.056	14243.91
759.394	14378.14
759.731	14412.94
760.068	14551.69
760.405	14792.14
760.743	14876.66
761.08	15185.35
761.417	15231.68
761.754	15477.55
762.091	15563.87
762.428	15761.15
762.765	15807.71
763.102	16105.78
763.438	16235.04
763.775	16310.97
764.112	16570.85
764.449	16703.5
764.785	16900.78
765.122	16926.09
765.458	17129.03
765.795	17216.48
766.131	17423.26
766.467	17563.37
766.804	17661.22
767.14	17732.85
767.476	17853.3
767.812	18030.92
768.148	18230.24
768.485	18264.14
768.821	18331.26
769.157	18450.57
769.492	18665.26
769.828	18746.61
770.164	18674.3
770.5	18837.23
770.836	18977.57
771.171	19028.19
771.507	19084
771.842	19088.75
772.178	19262.53
772.513	19314.51
772.849	19378.91
773.184	19422.75
773.519	19540.04
773.855	19590.21
774.19	19584.33
774.525	19642.18
774.86	19822.29
775.195	19792.69
775.53	19900.48
775.865	19907.03
776.2	19907.26
776.535	19712.46
776.87	19872.91
777.205	19898.45
777.539	19966.69
777.874	19937.09
778.209	19892.12
778.543	19953.13
778.878	19997.43
779.212	20003.75
779.547	20160.36
779.881	20152.45
780.215	19999.23
780.55	20169.85
780.884	20063.87
781.218	20119.68
781.552	20108.84
781.886	20110.42
782.22	20049.63
782.554	20106.8
782.888	19959.69
783.222	19910.87
783.556	19811.44
783.889	19908.39
784.223	19799.69
784.557	19818.22
784.89	19980.48
785.224	19804.44
785.557	19676.98
785.891	19832.01
786.224	19815.51
786.558	19867.26
786.891	19630.66
787.224	19634.5
787.557	19563.54
787.891	19639.92
788.224	19601.05
788.557	19696.64
788.89	19593.82
789.223	19554.5
789.556	19434.73
789.888	19395.18
790.221	19422.75
790.554	19314.96
790.887	19383.88
791.219	19260.5
791.552	19283.77
791.884	19194.28
792.217	19086.49
792.549	19202.19
792.882	19045.36
793.214	18962.2
793.546	19099.14
793.879	18808.76
794.211	18868.64
794.543	18850.11
794.875	18909.55
795.207	18903.44
795.539	18768.08
795.871	18852.37
796.203	18684.01
796.535	18557.46
796.867	18560.4
797.198	18645.82
797.53	18578.03
797.862	18414.64
798.193	18524.02
798.525	18414.19
798.856	18474.3
799.188	18288.32
799.519	18283.12
799.85	18119.28
800.182	18183.01
800.513	18138.49
800.844	18011.94
801.175	17979.63
801.506	17936.92
801.837	17940.98
802.168	17849.23
802.499	17947.31
802.83	17749.12
803.161	17742.34
803.491	17738.73
803.822	17794.09
804.153	17683.36
804.483	17512.75
804.814	17564.27
805.145	17489.24
805.475	17425.97
805.805	17361.34
806.136	17430.71
806.466	17345.97
806.796	17376.03
807.126	17199.99
807.457	17135.13
807.787	17264.84
808.117	17100.55
808.447	17051.06
808.777	17091.29
809.107	17081.34
809.436	16926.09
809.766	16957.05
810.096	16899.43
810.426	16861.01
810.755	16856.94
811.085	16788.25
811.414	16781.92
811.744	16735.59
812.073	16634.12
812.403	16639.55
812.732	16503.28
813.061	16632.09
813.39	16451.08
813.719	16496.5
814.049	16641.36
814.378	16467.35
814.707	16498.08
815.036	16412.89
815.365	16277.75
815.693	16228.49
816.022	16270.52
816.351	16175.38
816.68	16084.53
817.008	16169.73
817.337	16073.69
817.665	16002.95
817.994	16035.72
818.322	16016.97
818.651	16004.31
818.979	15967.48
819.307	16004.76
819.636	15954.59
819.964	15837.99
820.292	15911.88
820.62	15869.17
820.948	15873.69
821.276	15867.14
821.604	15794.15
821.932	15863.52
822.259	15841.83
822.587	15812
822.915	15745.11
823.243	15836.63
823.57	15741.04
823.898	15817.42
824.225	15713.7
824.553	15762.51
824.88	15749.63
825.207	15814.71
825.535	15831.43
825.862	15793.69
826.189	15695.62
826.516	15811.77
826.843	15866.91
827.17	15767.25
827.497	15860.36
827.824	15772.9
828.151	15845.22
828.478	15700.14
828.805	15838.44
829.131	15810.19
829.458	15792.79
829.785	15718.89
830.111	15735.84
830.438	15804.77
830.764	15742.17
831.09	15874.6
831.417	15800.47
831.743	15774.49
832.069	15693.81
832.395	15707.6
832.722	15774.94
833.048	15741.49
833.374	15703.08
833.7	15645.22
834.026	15668.05
834.351	15741.04
834.677	15667.37
835.003	15700.59
835.329	15650.65
835.654	15614.94
835.98	15540.14
836.306	15649.74
836.631	15479.13
836.956	15571.55
837.282	15646.58
837.607	15508.73
837.932	15478.45
838.258	15414.04
838.583	15509.18
838.908	15464.44
839.233	15382.41
839.558	15360.03
839.883	15271.67
840.208	15291.79
840.533	15160.04
840.858	15261.73
841.182	15182.86
841.507	15226.93
841.832	15151.45
842.156	15068.29
842.481	15192.58
842.805	15003.66
843.13	15055.64
843.454	14995.07
843.778	14896.77
844.103	14921.18
844.427	14888.86
844.751	14921.18
845.075	14760.5
845.399	14722.76
845.723	14688.19
846.047	14783.1
846.371	14598.25
846.695	14599.15
847.019	14513.95
847.343	14482.77
847.666	14351.25
847.99	14229.44
848.313	14266.5
848.637	14216.79
848.96	14192.83
849.284	14131.59
849.607	14067.19
849.931	14040.07
850.254	13991.71
850.577	13896.34
850.9	13850.02
851.223	13805.72
851.546	13668.55
851.869	13612.96
852.192	13669.68
852.515	13578.84
852.838	13473.98
853.161	13508.11
853.483	13411.61
853.806	13352.63
854.129	13359.18
854.451	13187.89
854.774	13219.98
855.096	13211.39
855.419	13112.86
855.741	13162.13
856.063	13105.4
856.385	13030.15
856.708	12955.35
857.03	12924.62
857.352	12926.2
857.674	12888.01
857.996	12840.33
858.318	12831.29
858.64	12756.49
858.961	12659.99
859.283	12673.32
859.605	12613.89
859.926	12641.01
860.248	12603.95
860.57	12495.25
860.891	12582.25
861.212	12450.73
861.534	12418.42
861.855	12379.32
862.176	12441.47
862.498	12417.06
862.819	12347.01
863.14	12322.37
863.461	12347.46
863.782	12301.13
864.103	12255.71
864.424	12259.78
864.745	12223.17
865.065	12157.41
865.386	12109.27
865.707	12130.51
866.027	12196.95
866.348	12123.96
866.668	12098.2
866.989	12104.3
867.309	11993.79
867.63	12025.43
867.95	12094.81
868.27	12036.05
868.59	11974.13
868.91	11913.57
869.23	11939.11
869.55	11809.62
869.87	11934.59
870.19	11878.09
870.51	11923.51
870.83	11904.76
871.15	11832.44
871.469	11801.03
871.789	11799.9
872.109	11782.73
872.428	11673.13
872.748	11698.89
873.067	11739.34
873.386	11709.96
873.706	11657.08
874.025	11618.44
874.344	11632.9
874.663	11566.91
874.982	11553.35
875.301	11621.83
875.62	11479.46
875.939	11574.14
876.258	11528.27
876.577	11499.57
876.896	11461.83
877.214	11453.02
877.533	11476.97
877.852	11396.52
878.17	11445.33
878.489	11440.81
878.807	11361.27
879.125	11332.8
879.444	11363.98
879.762	11283.76
880.08	11328.73
880.398	11211.89
880.716	11281.95
881.034	11143.2
881.352	11221.84
881.67	11104.33
881.988	11153.36
882.306	11123.31
882.624	11093.03
882.941	11027.27
883.259	11000.6
883.577	10946.14
883.894	10997.66
884.212	10900.04
884.529	10870.43
884.846	10951.56
885.164	10851.45
885.481	10804.45
885.798	10842.86
886.115	10715.86
886.432	10855.52
886.75	10700.72
887.067	10825.24
887.383	10679.03
887.7	10698.69
888.017	10666.82
888.334	10648.97
888.651	10565.36
888.967	10534.85
889.284	10533.72
889.6	10484.91
889.917	10410.33
890.233	10474.29
890.55	10502.53
890.866	10438.58
891.182	10370.33
891.498	10302.09
891.815	10262.54
892.131	10234.29
892.447	10274.29
892.763	10190.45
893.079	10211.02
893.395	10164.01
893.71	10199.04
894.026	10075.88
894.342	10097.8
894.657	10027.29
894.973	9950.46
895.289	10010.12
895.604	9995.88
895.92	9882.89
896.235	9839.5
896.55	9873.4
896.865	9815.32
897.181	9736.23
897.496	9736
897.811	9691.48
898.126	9690.8
898.441	9640.41
898.756	9592.95
899.071	9577.36
899.386	9580.75
899.7	9479.51
900.015	9415.33
900.33	9378.04
900.644	9343.24
900.959	9374.88
901.273	9334.88
901.588	9302.11
901.902	9223.7
902.216	9188.67
902.531	9178.05
902.845	9131.05
903.159	9102.57
903.473	9111.38
903.787	9018.96
904.101	8982.8
904.415	9006.53
904.729	8925.17
905.042	8858.51
905.356	8877.04
905.67	8847.89
905.984	8874.55
906.297	8773.31
906.611	8656.26
906.924	8741
907.237	8701.68
907.551	8620.78
907.864	8623.04
908.177	8600.89
908.491	8527.45
908.804	8509.14
909.117	8461.23
909.43	8435.02
909.743	8350.73
910.056	8383.49
910.368	8259.2
910.681	8296.49
910.994	8267.57
911.307	8258.53
911.619	8157.06
911.932	8128.36
912.244	8162.94
912.557	8085.87
912.869	8040.9
913.181	7996.61
913.494	7976.5
913.806	7873.23
914.118	7950.06
914.43	7891.76
914.742	7871.19
915.054	7763.17
915.366	7784.19
915.678	7783.51
915.99	7707.58
916.302	7691.99
916.613	7643.17
916.925	7631.65
917.236	7640.69
917.548	7551.65
917.859	7519.79
918.171	7521.6
918.482	7464.2
918.794	7392.56
919.105	7437.08
919.416	7351.66
919.727	7394.14
920.038	7335.16
920.349	7307.14
920.66	7278.21
920.971	7287.7
921.282	7194.82
921.593	7181.72
921.903	7156.41
922.214	7106.92
922.525	7036.86
922.835	7000.71
923.146	7059.91
923.456	6940.37
923.767	6964.1
924.077	6942.63
924.387	6943.53
924.697	6823.76
925.008	6859.92
925.318	6826.93
925.628	6825.57
925.938	6747.61
926.248	6715.97
926.558	6706.25
926.867	6698.57
927.177	6634.84
927.487	6656.08
927.796	6583.54
928.106	6578.8
928.416	6530.89
928.725	6542.19
929.034	6468.52
929.344	6473.94
929.653	6435.52
929.962	6451.12
930.271	6381.29
930.581	6335.86
930.89	6331.12
931.199	6327.28
931.508	6314.85
931.817	6221.07
932.125	6280.72
932.434	6255.41
932.743	6180.61
933.051	6156.66
933.36	6066.49
933.669	6104.68
933.977	6106.04
934.286	6059.71
934.594	6064.46
934.902	5932.71
935.21	6004.12
935.519	5960.96
935.827	5911.47
936.135	5857.23
936.443	5833.28
936.751	5890.9
937.059	5848.65
937.367	5777.46
937.674	5855.65
937.982	5705.15
938.29	5707.41
938.597	5691.59
938.905	5650.68
939.213	5607.52
939.52	5626.96
939.827	5604.81
940.135	5592.83
940.442	5578.37
940.749	5489.33
941.056	5546.73
941.363	5408.43
941.67	5423.12
941.977	5441.42
942.284	5414.31
942.591	5394.87
942.898	5341.99
943.205	5350.81
943.511	5329.11
943.818	5337.02
944.125	5227.87
944.431	5241.66
944.738	5226.06
945.044	5194.2
945.35	5177.02
945.657	5166.86
945.963	5087.08
946.269	5095.22
946.575	5099.51
946.881	5098.61
947.187	5089.57
947.493	5051.15
947.799	5055.9
948.105	4961.89
948.41	4918.73
948.716	5002.11
949.022	4955.11
949.327	4923.25
949.633	4871.04
949.938	4867.2
950.244	4892.96
950.549	4868.78
950.854	4770.26
951.16	4797.6
951.465	4773.65
951.77	4744.72
952.075	4691.61
952.38	4687.09
952.685	4641.45
952.99	4681.67
953.294	4591.73
953.599	4652.07
953.904	4601.45
954.209	4519.42
954.513	4583.82
954.818	4521
955.122	4475.57
955.426	4517.16
955.731	4501.79
956.035	4470.6
956.339	4402.36
956.643	4385.41
956.948	4405.07
957.252	4378.85
957.556	4412.53
957.86	4348.57
958.163	4390.38
958.467	4312.64
958.771	4289.14
959.075	4316.71
959.378	4223.15
959.682	4253.66
959.985	4237.39
960.289	4226.32
960.592	4214.56
960.896	4180.44
961.199	4163.72
961.502	4158.75
961.805	4128.92
962.108	4108.8
962.411	4102.02
962.714	4071.07
963.017	4071.52
963.32	4017.96
963.623	3974.34
963.926	4009.15
964.228	3982.48
964.531	3980.22
964.833	3943.39
965.136	3927.79
965.438	3849.83
965.741	3865.87
966.043	3837.4
966.345	3891.41
966.648	3834.46
966.95	3798.98
967.252	3765.31
967.554	3787.23
967.856	3758.08
968.158	3739.1
968.46	3756.5
968.761	3726.89
969.063	3735.48
969.365	3669.27
969.666	3675.82
969.968	3628.14
970.269	3666.56
970.571	3642.6
970.872	3579.55
971.174	3592.89
971.475	3559.21
971.776	3573
972.077	3537.07
972.378	3522.15
972.679	3523.28
972.98	3524.64
973.281	3481.93
973.582	3474.02
973.883	3453.68
974.183	3431.76
974.484	3463.4
974.785	3425.66
975.085	3379.56
975.386	3387.24
975.686	3302.27
975.986	3321.25
976.287	3317.19
976.587	3325.1
976.887	3318.99
977.187	3273.12
977.487	3272.67
977.787	3234.03
978.087	3243.74
978.387	3232.44
978.687	3232.44
978.987	3219.56
979.286	3177.53
979.586	3138.43
979.885	3151.77
980.185	3142.73
980.484	3128.72
980.784	3095.72
981.083	3087.81
981.382	3099.79
981.682	3093.24
981.981	3090.53
982.28	3059.11
982.579	3015.73
982.878	3032.45
983.177	2992.45
983.475	3017.08
983.774	2974.82
984.073	2952.45
984.372	2936.63
984.67	2953.35
984.969	2910.87
985.267	2921.49
985.566	2916.07
985.864	2888.5
986.162	2872.9
986.461	2842.17
986.759	2839.91
987.057	2831.55
987.355	2807.82
987.653	2798.56
987.951	2789.29
988.249	2790.42
988.547	2730.54
988.844	2737.77
989.142	2742.51
989.44	2700.93
989.737	2722.63
990.035	2702.97
990.332	2685.56
990.63	2688.28
990.927	2631.1
991.224	2682.85
991.521	2660.03
991.819	2668.39
992.116	2642.18
992.413	2613.25
992.71	2571.67
993.006	2565.34
993.303	2578.45
993.6	2567.15
993.897	2550.2
994.193	2548.17
994.49	2523.76
994.787	2497.55
995.083	2499.81
995.379	2495.51
995.676	2468.85
995.972	2451.45
996.268	2469.98
996.565	2410.32
996.861	2433.14
997.157	2407.83
997.453	2392.01
997.749	2396.53
998.044	2365.57
998.34	2351.56
998.636	2338.68
998.932	2319.92
999.227	2335.52
999.523	2343.2
999.818	2298
1000.114	2279.02
1000.409	2284.22
1000.704	2238.35
1001	2254.16
1001.295	2211.91
1001.59	2239.7
1001.885	2225.92
1002.18	2211.45
1002.475	2260.04
1002.77	2166.26
1003.065	2150.89
1003.359	2165.8
1003.654	2140.04
1003.949	2153.6
1004.243	2111.79
1004.538	2115.64
1004.832	2107.5
1005.127	2098.24
1005.421	2079.71
1005.715	2074.96
1006.009	2038.58
1006.304	2055.53
1006.598	2024.11
1006.892	1998.58
1007.186	2010.1
1007.48	1962.19
1007.773	2007.84
1008.067	1966.26
1008.361	1943.44
1008.655	1927.39
1008.948	1920.61
1009.242	1909.77
1009.535	1918.35
1009.829	1871.58
1010.122	1896.21
1010.415	1890.33
1010.708	1875.19
1011.001	1882.2
1011.295	1871.35
1011.588	1845.14
1011.881	1858.47
1012.173	1811.24
1012.466	1796.32
1012.759	1775.76
1013.052	1818.24
1013.344	1771.69
1013.637	1769.43
1013.93	1772.37
1014.222	1741.41
1014.514	1753.39
1014.807	1721.52
1015.099	1713.16
1015.391	1692.82
1015.683	1708.87
1015.976	1686.04
1016.268	1674.97
1016.56	1679.72
1016.851	1660.28
1017.143	1644.91
1017.435	1621.41
1017.727	1664.35
1018.018	1603.11
1018.31	1630.68
1018.602	1587.97
1018.893	1575.76
1019.185	1570.79
1019.476	1561.07
1019.767	1558.81
1020.058	1550
1020.35	1541.64
1020.641	1504.81
1020.932	1490.12
1021.223	1515.43
1021.514	1463.45
1021.804	1485.37
1022.095	1460.51
1022.386	1458.25
1022.677	1423.23
1022.967	1415.54
1023.258	1415.32
1023.548	1428.65
1023.839	1418.03
1024.129	1432.94
1024.419	1393.4
1024.709	1401.53
1025	1378.71
1025.29	1372.15
1025.58	1371.25
1025.87	1361.31
1026.16	1367.18
1026.449	1356.56
1026.739	1312.72
1027.029	1338.26
1027.319	1307.07
1027.608	1299.16
1027.898	1289.44
1028.187	1279.5
1028.477	1287.64
1028.766	1234.76
1029.055	1248.77
1029.344	1256
1029.634	1249.44
1029.923	1226.39
1030.212	1226.17
1030.501	1198.82
1030.79	1211.03
1031.078	1204.02
1031.367	1183.01
1031.656	1191.14
1031.945	1154.08
1032.233	1163.35
1032.522	1165.38
1032.81	1177.81
1033.099	1164.7
1033.387	1141.42
1033.675	1154.76
1033.963	1129.22
1034.251	1130.13
1034.54	1124.7
1034.828	1098.26
1035.116	1127.87
1035.403	1081.31
1035.691	1088.09
1035.979	1075.21
1036.267	1058.94
1036.554	1064.14
1036.842	1044.25
1037.129	1047.42
1037.417	1038.83
1037.704	1025.27
1037.992	1040.18
1038.279	1035.89
1038.566	990.24
1038.853	990.24
1039.14	990.24
