Data from hue_38_FLMS001491_00023.txt Node
Date: Tue Feb 07 17:31:16 GMT 2017
User: dcchb
Spectrometer: FLMS00149
Trigger mode: 0
Integration Time (sec): 2.000000E-2
Scans to average: 10
Electric dark correction enabled: true
Nonlinearity correction enabled: false
Boxcar width: 0
XAxis mode: Wavelengths
Number of Pixels in Spectrum: 2048
>>>>>Begin Spectral Data<<<<<
341.393	-20.85
341.776	-20.85
342.16	-20.85
342.543	-57.68
342.927	-59.04
343.31	-75.99
343.693	-85.93
344.077	-57.23
344.46	-59.04
344.843	-50.45
345.226	-56.78
345.61	-26.72
345.993	-17.23
346.376	-1.41
346.759	-4.58
347.142	31.81
347.525	49.89
347.908	65.48
348.291	80.17
348.674	100.05
349.057	107.96
349.44	115.42
349.823	147.06
350.206	170.33
350.588	208.75
350.971	220.28
351.354	224.57
351.737	245.81
352.119	255.08
352.502	293.27
352.884	272.25
353.267	299.37
353.65	291.46
354.032	298.92
354.414	301.63
354.797	321.07
355.179	344.79
355.562	331.01
355.944	335.53
356.326	324
356.709	340.73
357.091	348.86
357.473	337.56
357.855	341.18
358.238	349.76
358.62	350.22
359.002	335.08
359.384	331.23
359.766	357.45
360.148	353.38
360.53	340.73
360.912	345.7
361.294	340.5
361.676	352.02
362.057	329.43
362.439	358.35
362.821	352.93
363.203	319.26
363.584	330.56
363.966	328.52
364.348	322.65
364.729	334.85
365.111	288.98
365.493	334.17
365.874	354.74
366.256	338.47
366.637	328.52
367.019	311.8
367.4	323.32
367.781	319.48
368.163	314.06
368.544	340.05
368.925	314.51
369.306	306.38
369.688	338.69
370.069	312.25
370.45	295.08
370.831	314.29
371.212	309.09
371.593	344.57
371.974	329.2
372.355	312.7
372.736	303.89
373.117	313.38
373.498	323.32
373.879	335.98
374.26	316.32
374.641	315.19
375.021	310.22
375.402	325.36
375.783	315.64
376.163	330.78
376.544	329.43
376.925	333.04
377.305	316.77
377.686	325.36
378.066	338.47
378.447	334.4
378.827	352.93
379.208	329.43
379.588	340.27
379.968	325.13
380.349	348.41
380.729	361.52
381.109	346.15
381.489	343.89
381.87	312.48
382.25	338.47
382.63	350.89
383.01	366.49
383.39	341.18
383.77	352.02
384.15	352.02
384.53	348.63
384.91	348.41
385.29	369.43
385.67	363.78
386.049	352.93
386.429	366.49
386.809	352.02
387.189	374.17
387.568	353.83
387.948	342.53
388.328	378.01
388.707	376.88
389.087	362.87
389.466	365.36
389.846	367.39
390.225	359.03
390.605	367.39
390.984	384.34
391.363	365.36
391.743	381.4
392.122	391.57
392.501	381.85
392.881	392.02
393.26	400.38
393.639	380.72
394.018	394.74
394.397	389.54
394.776	388.41
395.155	399.93
395.534	394.96
395.913	391.8
396.292	395.41
396.671	399.71
397.05	390.89
397.429	384.57
397.808	389.54
398.186	399.93
398.565	396.09
398.944	393.38
399.323	406.03
399.701	400.38
400.08	414.4
400.458	418.01
400.837	436.77
401.215	418.69
401.594	399.71
401.972	418.69
402.351	431.12
402.729	434.28
403.107	422.98
403.486	391.57
403.864	420.72
404.242	426.82
404.62	419.82
404.999	430.89
405.377	421.18
405.755	434.73
406.133	454.85
406.511	439.71
406.889	456.2
407.267	455.3
407.645	458.01
408.023	443.55
408.401	454.85
408.779	446.71
409.156	455.3
409.534	453.04
409.912	463.43
410.29	480.38
410.667	463.89
411.045	477.45
411.422	460.72
411.8	475.64
412.178	465.47
412.555	484.22
412.933	493.26
413.31	498.69
413.687	489.65
414.065	481.29
414.442	493.04
414.819	508.86
415.197	521.74
415.574	497.56
415.951	509.99
416.328	508.86
416.705	522.87
417.082	513.83
417.46	511.12
417.837	538.23
418.214	534.62
418.591	545.69
418.967	536.88
419.344	520.16
419.721	524.9
420.098	540.95
420.475	562.87
420.852	540.04
421.228	549.08
421.605	561.06
421.982	548.63
422.358	558.8
422.735	553.83
423.111	558.8
423.488	568.29
423.864	581.62
424.241	580.49
424.617	575.97
424.994	593.83
425.37	576.88
425.746	576.65
426.123	606.93
426.499	603.77
426.875	597.22
427.251	601.96
427.627	607.84
428.003	619.59
428.379	632.7
428.756	592.24
429.132	622.98
429.507	662.52
429.883	643.99
430.259	643.99
430.635	634.28
431.011	645.35
431.387	641.51
431.763	667.95
432.138	661.85
432.514	674.28
432.89	658.91
433.265	685.58
433.641	707.72
434.016	685.8
434.392	702.3
434.767	730.55
435.143	706.59
435.518	709.08
435.894	709.53
436.269	743.65
436.644	744.78
437.02	727.83
437.395	726.93
437.77	781.39
438.145	752.69
438.52	760.38
438.895	759.02
439.271	768.28
439.646	768.51
440.021	773.93
440.395	804.22
440.77	767.15
441.145	822.52
441.52	814.61
441.895	806.7
442.27	819.13
442.645	776.42
443.019	841.28
443.394	813.48
443.769	801.28
444.143	843.09
444.518	833.82
444.892	858.68
445.267	850.32
445.641	836.98
446.016	846.93
446.39	834.72
446.764	828.4
447.139	890.09
447.513	873.37
447.887	876.3
448.262	877.66
448.636	891.45
449.01	887.6
449.384	888.28
449.758	903.42
450.132	909.07
450.506	920.37
450.88	918.11
451.254	911.33
451.628	945.68
452.002	938.22
452.376	943.2
452.75	973.48
453.123	983.42
453.497	963.99
453.871	993.36
454.244	992.91
454.618	1007.15
454.992	979.8
455.365	1012.57
455.739	1027.94
456.112	1049.41
456.486	1037.43
456.859	1045.79
457.232	1067.03
457.606	1079.46
457.979	1116.52
458.352	1100.71
458.725	1113.13
459.099	1129.63
459.472	1139.8
459.845	1163.3
460.218	1170.76
460.591	1168.95
460.964	1166.69
461.337	1197.65
461.71	1227.03
462.083	1242.4
462.456	1231.55
462.829	1236.3
463.201	1236.97
463.574	1257.09
463.947	1264.99
464.32	1283.07
464.692	1301.15
465.065	1346.12
465.438	1331.43
465.81	1377.08
466.183	1408.49
466.555	1403.07
466.928	1417.08
467.3	1432.22
467.672	1466.35
468.045	1499.57
468.417	1495.5
468.789	1482.62
469.161	1534.59
469.534	1541.82
469.906	1573.01
470.278	1606.91
470.65	1621.14
471.022	1678.77
471.394	1683.52
471.766	1671.54
472.138	1731.65
472.51	1787.02
472.882	1810.29
473.253	1847.8
473.625	1871.08
473.997	1905.88
474.369	1932.55
474.74	1962.15
475.112	1992.89
475.484	2045.31
475.855	2091.64
476.227	2097.74
476.598	2243.5
476.97	2217.29
477.341	2308.81
477.713	2318.3
478.084	2355.14
478.455	2442.37
478.827	2526.2
479.198	2572.98
479.569	2659.99
479.94	2680.33
480.311	2766.88
480.682	2814.33
481.053	2891.62
481.424	2959.87
481.795	3020.88
482.166	3089.81
482.537	3160.31
482.908	3268.33
483.279	3334.32
483.65	3388.1
484.021	3521.43
484.391	3558.72
484.762	3648.89
485.133	3703.8
485.503	3786.96
485.874	3904.25
486.244	3993.06
486.615	4071.93
486.985	4196.9
487.356	4274.18
487.726	4339.49
488.097	4521.86
488.467	4521.86
488.837	4688.41
489.207	4778.8
489.578	4896.99
489.948	4951.68
490.318	5051.34
490.688	5175.63
491.058	5224.89
491.428	5424.89
491.798	5485
492.168	5607.03
492.538	5686.35
492.908	5837.53
493.278	5970.63
493.648	6072.55
494.017	6096.96
494.387	6215.37
494.757	6338.53
495.126	6394.58
495.496	6475.25
495.866	6587.79
496.235	6638.41
496.605	6781.69
496.974	6914.56
497.344	6912.08
497.713	7079.98
498.082	7138.51
498.452	7271.16
498.821	7343.71
499.19	7367.66
499.559	7471.61
499.928	7616.69
500.298	7743.69
500.667	7792.51
501.036	7884.93
501.405	7986.4
501.774	8056.91
502.143	8125.83
502.512	8147.3
502.88	8204.7
503.249	8354.75
503.618	8396.56
503.987	8526.5
504.356	8594.75
504.724	8688.53
505.093	8751.8
505.462	8860.95
505.83	8897.34
506.199	8977.11
506.567	9009.2
506.936	9066.6
507.304	9231.79
507.672	9279.93
508.041	9419.81
508.409	9465.46
508.777	9535.96
509.145	9586.36
509.514	9614.61
509.882	9679.24
510.25	9723.08
510.618	9780.48
510.986	9873.13
511.354	9956.07
511.722	10115.61
512.09	10249.62
512.458	10245.1
512.826	10304.76
513.193	10331.2
513.561	10417.75
513.929	10513.11
514.297	10605.09
514.664	10676.27
515.032	10746.1
515.4	10823.39
515.767	10801.47
516.135	10915.14
516.502	10897.28
516.869	11092.31
517.237	11147
517.604	11077.62
517.972	11231.29
518.339	11330.49
518.706	11485.74
519.073	11375.46
519.44	11542.01
519.808	11579.53
520.175	11579.75
520.542	11709.24
520.909	11807.32
521.276	11854.77
521.643	11824.72
522.009	11961.21
522.376	12038.5
522.743	12200.75
523.11	12186.06
523.477	12365.27
523.843	12368.88
524.21	12594.87
524.577	12638.93
524.943	12642.55
525.31	12720.96
525.676	12833.05
526.043	12914.63
526.409	13009.77
526.776	13135.42
527.142	13110.56
527.508	13203.21
527.874	13274.85
528.241	13435.52
528.607	13460.38
528.973	13579.7
529.339	13586.7
529.705	13785.12
530.071	13788.28
530.437	13822.18
530.803	13945.34
531.169	13981.27
531.535	14025.34
531.901	14153.24
532.267	14092.91
532.632	14262.39
532.998	14303.52
533.364	14380.13
533.73	14364.99
534.095	14526.57
534.461	14575.83
534.826	14627.81
535.192	14653.8
535.557	14775.6
535.923	14837.75
536.288	14830.74
536.653	14949.61
537.019	14926.78
537.384	15037.97
537.749	15038.42
538.114	15118.42
538.479	15135.82
538.845	15209.26
539.21	15297.62
539.575	15341.69
539.94	15407
540.305	15500.1
540.67	15449.71
541.034	15587.1
541.399	15708.68
541.764	15614.9
542.129	15812.64
542.494	15853.54
542.858	15861
543.223	15895.34
543.587	16048.79
543.952	16061.22
544.316	16056.7
544.681	16145.06
545.045	16136.02
545.41	16295.33
545.774	16330.59
546.138	16370.13
546.503	16473.41
546.867	16483.58
547.231	16588.21
547.595	16717.47
547.959	16623.01
548.324	16824.81
548.688	16812.16
549.052	16916.79
549.416	16942.1
549.779	16920.4
550.143	17013.28
550.507	17134.18
550.871	17222.32
551.235	17199.49
551.599	17288.98
551.962	17377.57
552.326	17465.7
552.689	17465.7
553.053	17390.45
553.417	17445.81
553.78	17663.89
554.143	17595.87
554.507	17689.87
554.87	17799.93
555.234	17956.76
555.597	17786.14
555.96	17934.16
556.323	17999.7
556.686	18111.33
557.05	18147.71
557.413	18272.68
557.776	18234.72
558.139	18369.86
558.502	18445.11
558.865	18438.33
559.228	18575.27
559.59	18688.49
559.953	18686.23
560.316	18937.75
560.679	18830.18
561.041	19000.8
561.404	19048.48
561.767	19107.46
562.129	19093
562.492	19260
562.854	19203.05
563.217	19316.72
563.579	19351.75
563.941	19491.86
564.304	19566.43
564.666	19741.57
565.028	19789.93
565.39	19731.4
565.753	19866.99
566.115	19832.42
566.477	19956.25
566.839	20056.59
567.201	20145.63
567.563	20209.36
567.925	20374.78
568.287	20313.53
568.648	20378.39
569.01	20539.52
569.372	20699.06
569.734	20636.01
570.095	20767.76
570.457	20955.32
570.819	20970.47
571.18	21012.27
571.542	21102.21
571.903	21155.55
572.265	21248.88
572.626	21360.51
572.987	21424.69
573.349	21520.73
573.71	21526.38
574.071	21703.33
574.432	21779.94
574.794	21897.45
575.155	21874.62
575.516	22024.68
575.877	22134.5
576.238	22251.34
576.599	22421.5
576.96	22493.14
577.32	22486.58
577.681	22695.39
578.042	22803.86
578.403	22892.9
578.763	23013.58
579.124	23196.62
579.485	23278.43
579.845	23506.9
580.206	23535.82
580.566	23748.25
580.927	23764.06
581.287	23987.34
581.648	24153.43
582.008	24415.35
582.368	24487.21
582.728	24703.02
583.089	24814.66
583.449	24961.77
583.809	25140.75
584.169	25368.09
584.529	25493.96
584.889	25837.23
585.249	25910
585.609	26016.89
585.969	26387.27
586.329	26428.63
586.688	26606.7
587.048	26733.7
587.408	26965.11
587.768	27228.83
588.127	27411.43
588.487	27651.42
588.846	27978.42
589.206	27938.19
589.565	28121.46
589.925	28457.5
590.284	28585.41
590.643	28842.12
591.003	29109.46
591.362	29349.23
591.721	29472.84
592.08	29659.5
592.44	30009.78
592.799	30140.62
593.158	30296.1
593.517	30537.9
593.876	30763.88
594.235	30843.2
594.593	31208.61
594.952	31526.57
595.311	31511.43
595.67	31720.01
596.029	32083.39
596.387	32305.76
596.746	32492.87
597.104	32565.64
597.463	32669.82
597.822	33044.05
598.18	33066.19
598.538	33253.98
598.897	33634.54
599.255	33585.5
599.613	34214.41
599.972	34113.4
600.33	34409.66
600.688	34467.51
601.046	34734.17
601.404	35037.44
601.762	35025.92
602.12	35354.72
602.478	35349.97
602.836	35585.67
603.194	35592.91
603.552	35888.04
603.91	35868.38
604.268	36279.89
604.625	36111.99
604.983	36582.48
605.341	36477.4
605.698	36724.63
606.056	37007.11
606.413	37024.73
606.771	37250.72
607.128	37476.92
607.485	37349.92
607.843	37572.97
608.2	37969.34
608.557	38033.75
608.914	38045.72
609.272	38143.57
609.629	38476.45
609.986	38619.49
610.343	38496.78
610.7	38857.45
611.057	38972.48
611.414	38973.61
611.771	39186.03
612.127	39436.19
612.484	39397.1
612.841	39612.01
613.198	39503.99
613.554	39727.49
613.911	40064.2
614.267	39938.78
614.624	40086.12
614.98	40300.58
615.337	40479.11
615.693	40400.24
616.05	40532.44
616.406	40831.41
616.762	40627.12
617.118	40644.52
617.475	40792.32
617.831	41072.08
618.187	41044.97
618.543	41202.48
618.899	41461
619.255	41445.63
619.611	41496.25
619.967	41565.4
620.323	41748.45
620.678	41621.22
621.034	41699.64
621.39	41622.35
621.746	41662.35
622.101	42294.42
622.457	42070.93
622.812	42050.36
623.168	42278.83
623.523	42216.23
623.879	42387.98
624.234	42084.03
624.589	42357.7
624.945	42432.27
625.3	42514.31
625.655	42551.82
626.01	42654.64
626.365	42587.98
626.72	42551.37
627.075	42643.12
627.43	42669.1
627.785	42542.55
628.14	42689.44
628.495	42727.18
628.85	42784.81
629.205	42579.16
629.559	42909.1
629.914	42739.16
630.269	42807.18
630.623	42758.37
630.978	42690.57
631.332	42834.75
631.687	42887.86
632.041	42789.33
632.396	43052.37
632.75	42737.35
633.104	42877.46
633.459	42820.74
633.813	42849.44
634.167	42855.31
634.521	42794.75
634.875	42835.2
635.229	42802.21
635.583	42824.81
635.937	42760.18
636.291	42743.45
636.645	42787.97
636.999	42693.51
637.352	42749.33
637.706	42528.09
638.06	42722.66
638.413	42626.39
638.767	42536.9
639.121	42587.3
639.474	42591.59
639.828	42542.33
640.181	42418.49
640.534	42513.18
640.888	42401.99
641.241	42347.53
641.594	42486.51
641.947	42417.36
642.301	42475.44
642.654	42388.21
643.007	42455.1
643.36	42367.42
643.713	42324.25
644.066	42323.35
644.419	42265.27
644.771	42027.54
645.124	41583.93
645.477	41542.35
645.83	41363.15
646.182	41190.27
646.535	41084.74
646.888	41234.79
647.24	40896.04
647.593	41253.55
647.945	40971.3
648.298	40880.9
648.65	40895.82
649.002	40877.51
649.355	41126.09
649.707	41048.81
650.059	41133.33
650.411	41480.21
650.763	41608.57
651.115	41881.78
651.467	41903.7
651.819	41740.54
652.171	41643.14
652.523	41632.52
652.875	41735.8
653.227	41591.84
653.578	41889.46
653.93	41808.56
654.282	41516.37
654.633	41598.4
654.985	41554.56
655.337	41679.07
655.688	41695.12
656.039	41769.47
656.391	41382.13
656.742	41490.15
657.094	41422.36
657.445	41635.68
657.796	41506.65
658.147	41473.88
658.498	41517.27
658.849	41495.35
659.2	41389.59
659.551	41296.03
659.902	41543.26
660.253	41271.63
660.604	41443.6
660.955	41190.05
661.306	41529.02
661.656	41317.73
662.007	41331.74
662.358	41243.6
662.708	41254.45
663.059	41304.62
663.409	40991.86
663.76	41395.69
664.11	41312.3
664.461	41447.67
664.811	41377.39
665.161	41160.9
665.511	41267.33
665.862	41329.48
666.212	41395.47
666.562	41432.98
666.912	41209.03
667.262	41202.7
667.612	41393.21
667.962	41274.34
668.312	41209.48
668.662	41415.13
669.011	41353.66
669.361	41194.11
669.711	41136.71
670.06	41188.24
670.41	41098.52
670.76	41035.25
671.109	41170.39
671.459	41033.67
671.808	40956.15
672.157	41068.47
672.507	40809.04
672.856	40826.89
673.205	40957.96
673.554	41088.58
673.904	40925.87
674.253	41232.08
674.602	41025.98
674.951	40512.1
675.3	40119.11
675.649	40938.3
675.998	40812.88
676.346	40926.55
676.695	40943.27
677.044	40679.55
677.393	40775.82
677.741	40777.18
678.09	40669.83
678.438	40683.39
678.787	40662.15
679.135	40668.93
679.484	40483.85
679.832	40549.61
680.181	40410.18
680.529	40578.76
680.877	40393.68
681.225	40224.65
681.573	40720.23
681.922	40199.79
682.27	40139.23
682.618	40198.89
682.966	40054.26
683.314	40122.28
683.661	39962.51
684.009	39893.36
684.357	39838.44
684.705	39677.09
685.053	39682.74
685.4	39823.3
685.748	39454.95
686.095	39441.84
686.443	39377.21
686.79	39278.46
687.138	39403.88
687.485	39582.63
687.832	39256.99
688.18	39431.68
688.527	38995.08
688.874	39075.3
689.221	39059.71
689.568	38862.2
689.915	38851.35
690.262	38880.5
690.609	38826.95
690.956	38708.3
691.303	38647.06
691.65	38420.63
691.997	38475.32
692.344	38284.36
692.69	38235.77
693.037	38316.45
693.383	37882.11
693.73	38053.18
694.077	37787.42
694.423	37794.43
694.769	37612.97
695.116	37685.96
695.462	37467.21
695.808	37455
696.155	37342.24
696.501	37258.62
696.847	37244.16
697.193	36998.29
697.539	37078.06
697.885	36886.88
698.231	36865.87
698.577	36793.78
698.923	36599.89
699.269	36615.48
699.614	36340.46
699.96	36294.81
700.306	36256.62
700.651	36135.26
700.997	36087.13
701.342	35935.72
701.688	35962.61
702.033	35873.8
702.379	35760.81
702.724	35672.9
703.069	35786.12
703.415	35410.76
703.76	35570.76
704.105	35458.22
704.45	35306.36
704.795	35188.17
705.14	35138.68
705.485	35046.48
705.83	34945.01
706.175	34994.73
706.52	34943.21
706.865	34733.95
707.209	34803.55
707.554	34659.37
707.899	34748.86
708.243	34486.27
708.588	34378.02
708.932	34263
709.277	34131.02
709.621	34187.97
709.966	33987.3
710.31	34043.79
710.654	33708.44
710.998	33852.84
711.342	33872.95
711.687	33680.19
712.031	33543.92
712.375	33451.49
712.719	33599.06
713.063	33497.82
713.407	33515.9
713.75	33380.08
714.094	33343.02
714.438	33153.42
714.782	33275
715.125	33032.3
715.469	33098.73
715.812	32884.05
716.156	32733.77
716.499	32829.36
716.843	32743.49
717.186	32571.06
717.53	32724.51
717.873	32636.37
718.216	32645.86
718.559	32406.1
718.902	32339.43
719.246	32418.3
719.589	32179.66
719.932	32173.33
720.275	32200.9
720.617	32089.5
720.96	31978.54
721.303	32006.56
721.646	32030.51
721.989	31700.8
722.331	31969.05
722.674	31859.67
723.016	31836.85
723.359	31723.4
723.701	31643.63
724.044	31531.77
724.386	31412.45
724.729	31482.51
725.071	31447.25
725.413	31384.88
725.755	31332.23
726.097	31320.02
726.439	31147.6
726.782	31064.21
727.124	31210.87
727.465	31116.64
727.807	30998
728.149	31074.61
728.491	31000.71
728.833	30931.56
729.175	30768.63
729.516	30843.65
729.858	30701.06
730.199	30832.58
730.541	30720.04
730.882	30654.28
731.224	30737.21
731.565	30622.42
731.906	30522.08
732.248	30504.23
732.589	30357.56
732.93	30274.85
733.271	30333.38
733.612	30294.97
733.953	30329.09
734.294	30202.09
734.635	30129.55
734.976	30188.75
735.317	30001.64
735.658	30023.79
735.999	29956.44
736.339	29859.95
736.68	30092.71
737.021	29805.49
737.361	29743.34
737.702	29964.13
738.042	29871.02
738.383	29726.85
738.723	29709.9
739.063	29645.72
739.404	29603.01
739.744	29711.93
740.084	29562.1
740.424	29556.68
740.764	29421.09
741.104	29559.62
741.444	29258.38
741.784	29258.16
742.124	29338.38
742.464	29310.59
742.804	29365.27
743.143	29116.01
743.483	29198.72
743.823	28967.09
744.162	29029.46
744.502	28994.44
744.841	28896.36
745.181	29080.08
745.52	28956.92
745.86	28849.13
746.199	28920.09
746.538	28906.08
746.877	28831.73
747.216	28902.01
747.556	28649.59
747.895	28718.96
748.234	28703.14
748.573	28492.53
748.911	28429.48
749.25	28478.97
749.589	28429.25
749.928	28419.31
750.267	28384.28
750.605	28208.47
750.944	28243.49
751.283	28151.52
751.621	28192.42
751.96	27887.57
752.298	28063.61
752.636	28050.73
752.975	27807.12
753.313	27871.53
753.651	27938.64
753.989	27771.19
754.327	27655.04
754.666	27494.36
755.004	27616.17
755.342	27533.46
755.679	27546.79
756.017	27388.83
756.355	27513.12
756.693	27315.38
757.031	27374.14
757.368	27176.4
757.706	27341.82
758.044	27160.13
758.381	27009.85
758.719	27106.58
759.056	27049.4
759.394	26924.66
759.731	26707.72
760.068	26603.76
760.405	26518.57
760.743	26515.86
761.08	26539.36
761.417	26403.09
761.754	26482.41
762.091	26375.75
762.428	26286.26
762.765	26085.13
763.102	26081.97
763.438	26021.41
763.775	25898.02
764.112	25937.79
764.449	25933.05
764.785	25798.59
765.122	25492.38
765.458	25489.22
765.795	25475.66
766.131	25502.32
766.467	25373.29
766.804	25179.17
767.14	25071.15
767.476	25136.91
767.812	24948.67
768.148	25072.05
768.485	24855.11
768.821	24711.84
769.157	24682.23
769.492	24564.27
769.828	24543.7
770.164	24246.54
770.5	24410.15
770.836	24202.24
771.171	24079.76
771.507	24177.84
771.842	23989.6
772.178	23949.14
772.513	23839.99
772.849	23865.53
773.184	23745.08
773.519	23717.74
773.855	23501.02
774.19	23466.45
774.525	23330.86
774.86	23346.22
775.195	23399.55
775.53	23179
775.865	23130.41
776.2	23006.34
776.535	22840.7
776.87	22797.76
777.205	22704.43
777.539	22574.72
777.874	22717.54
778.209	22346.7
778.543	22402.97
778.878	22258.79
779.212	22284.78
779.547	22214.5
779.881	22230.09
780.215	21985.13
780.55	22032.58
780.884	21826.94
781.218	21787.17
781.552	21760.5
781.886	21744.91
782.22	21689.99
782.554	21452.94
782.888	21311.93
783.222	21192.83
783.556	21152.83
783.889	21035.55
784.223	20909.22
784.557	20916
784.89	20937.47
785.224	20819.06
785.557	20712.39
785.891	20742.9
786.224	20642.56
786.558	20593.3
786.891	20454.55
787.224	20392.85
787.557	20281.9
787.891	20345.4
788.224	20202.8
788.557	20172.52
788.89	20092.97
789.223	20060.66
789.556	20005.75
789.888	19899.76
790.221	19882.36
790.554	19649.14
790.887	19795.58
791.219	19596.04
791.552	19584.29
791.884	19460.22
792.217	19339.55
792.549	19368.25
792.882	19139.1
793.214	19045.09
793.546	19247.57
793.879	18978.65
794.211	18933.68
794.543	19057.75
794.875	18879.9
795.207	18990.86
795.539	18885.1
795.871	18813.91
796.203	18557.42
796.535	18491.43
796.867	18500.25
797.198	18494.15
797.53	18395.62
797.862	18286.02
798.193	18295.28
798.525	18186.36
798.856	18226.13
799.188	17989.53
799.519	17974.39
799.85	17796.09
800.182	17841.06
800.513	17823.88
800.844	17793.37
801.175	17828.18
801.506	17791.34
801.837	17688.07
802.168	17591.57
802.499	17561.74
802.83	17414.63
803.161	17386.6
803.491	17353.61
803.822	17331.92
804.153	17368.53
804.483	17144.35
804.814	17116.33
805.145	17047.18
805.475	17001.98
805.805	16996.11
806.136	16939.84
806.466	16951.14
806.796	16871.82
807.126	16827.75
807.457	16697.58
807.787	16677.47
808.117	16669.79
808.447	16551.6
808.777	16591.6
809.107	16556.8
809.436	16517.25
809.766	16493.07
810.096	16442
810.426	16345.05
810.755	16314.32
811.085	16277.48
811.414	16294.66
811.744	16235
812.073	16126.98
812.403	16117.49
812.732	16004.95
813.061	16020.31
813.39	15877.72
813.719	15905.29
814.049	15934.44
814.378	15987.77
814.707	15845.85
815.036	15794.33
815.365	15738.96
815.693	15545.75
816.022	15615.8
816.351	15593.21
816.68	15475.24
817.008	15556.6
817.337	15331.07
817.665	15253.78
817.994	15326.32
818.322	15445.41
818.651	15263.5
818.979	15118.42
819.307	15359.09
819.636	15216.72
819.964	15081.58
820.292	15171.97
820.62	15138.75
820.948	15082.71
821.276	15170.62
821.604	15157.29
821.932	15069.6
822.259	15039.55
822.587	14950.74
822.915	14994.35
823.243	15081.13
823.57	15033.45
823.898	15044.07
824.225	14997.52
824.553	14983.96
824.88	15034.12
825.207	15049.27
825.535	14964.97
825.862	15104.41
826.189	14948.7
826.516	15059.43
826.843	15087.68
827.17	15027.57
827.497	15073.9
827.824	15032.99
828.151	15009.49
828.478	15014.24
828.805	15103.28
829.131	15049.94
829.458	15061.69
829.785	14865.54
830.111	14938.53
830.438	14994.35
830.764	14975.37
831.09	14988.48
831.417	14890.85
831.743	14995.93
832.069	14957.29
832.395	14840.01
832.722	15004.29
833.048	14864.86
833.374	14890.17
833.7	14849.27
834.026	14855.6
834.351	14791.64
834.677	14865.54
835.003	14843.85
835.329	14734.47
835.654	14838.88
835.98	14706.22
836.306	14794.36
836.631	14685.66
836.956	14722.72
837.282	14634.81
837.607	14630.07
837.932	14541.93
838.258	14641.59
838.583	14593.91
838.908	14466.68
839.233	14483.63
839.558	14482.95
839.883	14402.05
840.208	14430.52
840.533	14365.67
840.858	14393.69
841.182	14397.08
841.507	14363.86
841.832	14176.29
842.156	14265.33
842.481	14236.63
842.805	14237.31
843.13	14199.57
843.454	14155.73
843.778	14028.95
844.103	14052.23
844.427	13947.15
844.751	13960.71
845.075	13965.23
845.399	13837.77
845.723	13826.02
846.047	13862.86
846.371	13794.61
846.695	13746.7
847.019	13634.39
847.343	13664.44
847.666	13551.9
847.99	13471.91
848.313	13394.85
848.637	13417.9
848.96	13407.5
849.284	13360.72
849.607	13196.21
849.931	13221.74
850.254	13069.66
850.577	12927.51
850.9	12988.98
851.223	12947.4
851.546	12880.28
851.869	12806.39
852.192	12815.2
852.515	12759.38
852.838	12641.42
853.161	12720.74
853.483	12638.93
853.806	12581.08
854.129	12495.66
854.451	12551.03
854.774	12423.12
855.096	12276.46
855.419	12344.25
855.741	12335.66
856.063	12286.4
856.385	12255.21
856.708	12226.29
857.03	12240.98
857.352	12118.04
857.674	12110.13
857.996	12049.8
858.318	11989.91
858.64	11973.19
858.961	11991.94
859.283	11944.26
859.605	11781.55
859.926	11939.97
860.248	11843.7
860.57	11811.38
860.891	11835.79
861.212	11681.44
861.534	11666.76
861.855	11717.38
862.176	11690.48
862.498	11599.86
862.819	11671.73
863.14	11607.77
863.461	11571.16
863.782	11549.47
864.103	11566.87
864.424	11475.57
864.745	11532.75
865.065	11408.46
865.386	11400.1
865.707	11364.16
866.027	11405.29
866.348	11461.79
866.668	11348.8
866.989	11319.42
867.309	11249.59
867.63	11294.11
867.95	11217.05
868.27	11189.71
868.59	11183.38
868.91	11223.6
869.23	11183.83
869.55	11152.19
869.87	11197.39
870.19	11082.59
870.51	11164.17
870.83	11153.77
871.15	11090.5
871.469	11081.46
871.789	11036.04
872.109	11042.59
872.428	10925.76
872.748	10989.03
873.067	10989.49
873.386	10991.52
873.706	10910.84
874.025	10937.06
874.344	10840.11
874.663	10923.95
874.982	10853.22
875.301	10858.19
875.62	10860.67
875.939	10742.49
876.258	10807.79
876.577	10757.63
876.896	10810.51
877.214	10735.03
877.533	10736.16
877.852	10643.96
878.17	10665.2
878.489	10653.67
878.807	10680.11
879.125	10616.16
879.444	10663.84
879.762	10622.04
880.08	10584.75
880.398	10448.71
880.716	10552.89
881.034	10510.85
881.352	10551.53
881.67	10518.54
881.988	10482.15
882.306	10406
882.624	10329.16
882.941	10407.35
883.259	10342.95
883.577	10256.85
883.894	10290.07
884.212	10255.95
884.529	10268.83
884.846	10273.35
885.164	10163.52
885.481	10213.69
885.798	10206.68
886.115	10051.43
886.432	10126.46
886.75	10069.51
887.067	10098.44
887.383	9996.06
887.7	10042.17
888.017	9981.38
888.334	10021.6
888.651	9983.86
888.967	9900.93
889.284	9868.16
889.6	9813.02
889.917	9798.33
890.233	9782.06
890.55	9762.85
890.866	9753.59
891.182	9735.51
891.498	9750.42
891.815	9671.55
892.131	9714.26
892.447	9676.53
892.763	9557.43
893.079	9544.55
893.395	9476.76
893.71	9469.75
894.026	9449.19
894.342	9516.3
894.657	9437.66
894.973	9389.08
895.289	9346.82
895.604	9338
895.92	9284.22
896.235	9232.02
896.55	9256.65
896.865	9168.52
897.181	9199.02
897.496	9065.47
897.811	9071.8
898.126	9004.45
898.441	9016.43
898.756	9022.76
899.071	8957.45
899.386	8949.99
899.7	8889.88
900.015	8864.12
900.33	8831.8
900.644	8778.47
900.959	8873.83
901.273	8726.27
901.588	8658.25
901.902	8646.95
902.216	8734.18
902.531	8614.18
902.845	8630.68
903.159	8550.23
903.473	8509.55
903.787	8424.13
904.101	8403.34
904.415	8378.93
904.729	8383.45
905.042	8368.76
905.356	8331.7
905.67	8325.83
905.984	8301.65
906.297	8288.09
906.611	8210.35
906.924	8223.68
907.237	8199.28
907.551	8140.07
907.864	8156.34
908.177	8103.01
908.491	8106.4
908.804	8007.42
909.117	7987.76
909.43	7941.2
909.743	7920.19
910.056	7941.88
910.368	7894.2
910.681	7825.27
910.994	7789.12
911.307	7793.64
911.619	7680.65
911.932	7683.13
912.244	7689.91
912.557	7721.1
912.869	7552.51
913.181	7555.68
913.494	7487.88
913.806	7517.26
914.118	7495.57
914.43	7417.38
914.742	7483.59
915.054	7415.79
915.366	7374.44
915.678	7309.36
915.99	7297.38
916.302	7242.46
916.613	7212.41
916.925	7221.22
917.236	7252.63
917.548	7136.03
917.859	7172.64
918.171	7123.15
918.482	7092.19
918.794	7000.21
919.105	7016.93
919.416	6973.09
919.727	6921.34
920.038	6947.56
920.349	6860.33
920.66	6857.16
920.971	6849.93
921.282	6776.26
921.593	6771.97
921.903	6690.62
922.214	6671.41
922.525	6649.03
922.835	6570.17
923.146	6630.73
923.456	6566.32
923.767	6543.73
924.077	6502.15
924.387	6493.33
924.697	6488.59
925.008	6447.91
925.318	6417.85
925.628	6456.95
925.938	6365.88
926.248	6315.03
926.558	6348.93
926.867	6290.63
927.177	6270.74
927.487	6243.85
927.796	6203.62
928.106	6112.78
928.416	6105.77
928.725	6117.52
929.034	6062.61
929.344	6108.26
929.653	6113.46
929.962	6027.36
930.271	6002.5
930.581	5918.21
930.89	5890.18
931.199	5930.86
931.508	5883.18
931.817	5913.01
932.125	5849.28
932.434	5773.35
932.743	5748.27
933.051	5721.15
933.36	5753.01
933.669	5742.39
933.977	5672.56
934.286	5685.44
934.594	5673.69
934.902	5603.19
935.21	5586.01
935.519	5600.02
935.827	5508.95
936.135	5549.85
936.443	5534.71
936.751	5446.58
937.059	5441.61
937.367	5465.11
937.674	5437.77
937.982	5376.3
938.29	5356.86
938.597	5379.46
938.905	5355.06
939.213	5309.63
939.52	5270.09
939.827	5290.88
940.135	5234.61
940.442	5201.61
940.749	5217.66
941.056	5188.28
941.363	5141.05
941.67	5142.18
941.977	5065.57
942.284	5029.87
942.591	5052.69
942.898	5002.3
943.205	5071.22
943.511	5022.18
943.818	4978.57
944.125	4930.44
944.431	4966.37
944.738	4910.32
945.044	4875.52
945.35	4820.16
945.657	4853.6
945.963	4841.62
946.269	4788.07
946.575	4811.12
946.881	4773.15
947.187	4745.36
947.493	4752.36
947.799	4710.55
948.105	4693.61
948.41	4624
948.716	4593.04
949.022	4625.81
949.327	4579.71
949.633	4582.42
949.938	4565.47
950.244	4568.64
950.549	4524.8
950.854	4491.35
951.16	4450.22
951.465	4503.78
951.77	4450.22
952.075	4403.22
952.38	4371.58
952.685	4361.86
952.99	4340.17
953.294	4336.1
953.599	4322.32
953.904	4304.24
954.209	4228.98
954.513	4263.11
954.818	4212.94
955.122	4229.89
955.426	4177.91
955.731	4191.47
956.035	4159.38
956.339	4176.78
956.643	4129.33
956.948	4121.19
957.252	4103.11
957.556	4080.74
957.86	4051.36
958.163	4048.88
958.467	4048.2
958.771	4009.78
959.075	4004.13
959.378	3991.03
959.682	3994.64
959.985	3948.99
960.289	3946.73
960.592	3938.6
960.896	3883.23
961.199	3905.38
961.502	3866.96
961.805	3835.32
962.108	3818.83
962.411	3805.72
962.714	3780.18
963.017	3784.02
963.32	3753.74
963.623	3724.82
963.926	3720.98
964.228	3726.17
964.531	3703.57
964.833	3710.13
965.136	3668.55
965.438	3603.46
965.741	3596.69
966.043	3626.29
966.345	3638.04
966.648	3581.32
966.95	3556.91
967.252	3575.89
967.554	3567.53
967.856	3555.78
968.158	3481.66
968.46	3484.15
968.761	3493.86
969.063	3464.94
969.365	3462.45
969.666	3433.07
969.968	3431.72
970.269	3384.94
970.571	3402.11
970.872	3371.15
971.174	3334.09
971.475	3340.42
971.776	3325.28
972.077	3342
972.378	3328.22
972.679	3291.83
972.98	3296.81
973.281	3285.73
973.582	3244.83
973.883	3221.78
974.183	3213.64
974.484	3204.15
974.785	3188.33
975.085	3172.06
975.386	3179.52
975.686	3163.7
975.986	3123.93
976.287	3162.12
976.587	3120.54
976.887	3044.61
977.187	3061.33
977.487	3081.44
977.787	3070.37
978.087	3016.14
978.387	3020.66
978.687	3051.39
978.987	3004.61
979.286	2980.2
979.586	2970.71
979.885	2948.57
980.185	2916.03
980.484	2948.11
980.784	2907.66
981.083	2889.81
981.382	2861.34
981.682	2882.13
981.981	2874.67
982.28	2852.52
982.579	2830.83
982.878	2852.07
983.177	2805.97
983.475	2841.68
983.774	2788.12
984.073	2778.4
984.372	2779.08
984.67	2745.18
984.969	2801.9
985.267	2778.18
985.566	2741.34
985.864	2704.28
986.162	2702.47
986.461	2639.42
986.759	2681.91
987.057	2669.25
987.355	2633.77
987.653	2665.18
987.951	2652.98
988.249	2600.78
988.547	2611.63
988.844	2589.93
989.142	2587.67
989.44	2553.1
989.737	2534.57
990.035	2548.58
990.332	2497.28
990.63	2507.45
990.927	2512.19
991.224	2471.74
991.521	2487.56
991.819	2461.35
992.116	2435.81
992.413	2462.7
992.71	2422.25
993.006	2423.16
993.303	2422.25
993.6	2387.9
993.897	2388.36
994.193	2402.14
994.49	2372.76
994.787	2368.24
995.083	2328.24
995.379	2337.74
995.676	2351.07
995.972	2330.05
996.268	2267.23
996.565	2292.09
996.861	2280.79
997.157	2262.48
997.453	2229.26
997.749	2216.61
998.044	2238.08
998.34	2220.68
998.636	2186.78
998.932	2195.14
999.227	2187.23
999.523	2194.69
999.818	2172.32
1000.114	2159.43
1000.409	2141.36
1000.704	2165.99
1001	2155.14
1001.295	2098.19
1001.59	2061.13
1001.885	2071.53
1002.18	2069.04
1002.475	2109.27
1002.77	2026.56
1003.065	2048.93
1003.359	2025.65
1003.654	2009.16
1003.949	2003.05
1004.243	1984.07
1004.538	1988.14
1004.832	2002.15
1005.127	1969.16
1005.421	1949.72
1005.715	1939.33
1006.009	1957.63
1006.304	1950.85
1006.598	1899.78
1006.892	1910.85
1007.186	1910.4
1007.48	1876.28
1007.773	1865.88
1008.067	1867.01
1008.361	1859.78
1008.655	1872.21
1008.948	1842.83
1009.242	1833.34
1009.535	1787.69
1009.829	1791.53
1010.122	1785.43
1010.415	1758.77
1010.708	1741.82
1011.001	1762.38
1011.295	1742.27
1011.588	1716.51
1011.881	1738.2
1012.173	1739.11
1012.466	1724.87
1012.759	1702.27
1013.052	1668.83
1013.344	1662.95
1013.637	1688.26
1013.93	1673.57
1014.222	1645.78
1014.514	1657.3
1014.807	1629.05
1015.099	1606.68
1015.391	1620.47
1015.683	1624.53
1015.976	1619.34
1016.268	1561.26
1016.56	1577.3
1016.851	1563.29
1017.143	1532.56
1017.435	1548.38
1017.727	1522.39
1018.018	1539.34
1018.31	1504.76
1018.602	1512.22
1018.893	1482.16
1019.185	1500.7
1019.476	1458.21
1019.767	1472
1020.058	1448.49
1020.35	1466.8
1020.641	1462.5
1020.932	1476.74
1021.223	1413.92
1021.514	1422.05
1021.804	1409.4
1022.095	1402.84
1022.386	1374.82
1022.677	1392
1022.967	1365.56
1023.258	1365.33
1023.548	1342.51
1023.839	1319.23
1024.129	1346.57
1024.419	1362.62
1024.709	1319.46
1025	1315.39
1025.29	1295.5
1025.58	1296.63
1025.87	1271.55
1026.16	1271.55
1026.449	1290.53
1026.739	1276.75
1027.029	1246.92
1027.319	1258.89
1027.608	1233.81
1027.898	1220.93
1028.187	1232.45
1028.477	1203.3
1028.766	1225.9
1029.055	1218.67
1029.344	1228.16
1029.634	1185.9
1029.923	1172.57
1030.212	1153.13
1030.501	1123.76
1030.79	1127.37
1031.078	1150.42
1031.367	1130.76
1031.656	1112.46
1031.945	1110.2
1032.233	1087.37
1032.522	1102.29
1032.81	1084.89
1033.099	1084.43
1033.387	1088.5
1033.675	1060.25
1033.963	1067.49
1034.251	1104.32
1034.54	1065.9
1034.828	1037.88
1035.116	1036.3
1035.403	1014.38
1035.691	1013.7
1035.979	1011.67
1036.267	997.88
1036.554	1013.7
1036.842	1019.35
1037.129	1005.57
1037.417	1010.99
1037.704	988.62
1037.992	997.43
1038.279	958.11
1038.566	962.18
1038.853	962.18
1039.14	962.18
