Data from hue_250_FLMS001491_00049.txt Node
Date: Tue Feb 07 16:01:02 GMT 2017
User: dcchb
Spectrometer: FLMS00149
Trigger mode: 0
Integration Time (sec): 2.000000E-2
Scans to average: 10
Electric dark correction enabled: true
Nonlinearity correction enabled: false
Boxcar width: 0
XAxis mode: Wavelengths
Number of Pixels in Spectrum: 2048
>>>>>Begin Spectral Data<<<<<
341.393	-9.58
341.776	-9.58
342.16	-9.58
342.543	-58.61
342.927	-46.64
343.31	-67.43
343.693	-52.74
344.077	-71.5
344.46	-70.37
344.843	-32.85
345.226	-50.25
345.61	-20.88
345.993	-22.01
346.376	-19.07
346.759	15.96
347.142	26.13
347.525	29.29
347.908	64.55
348.291	67.03
348.674	89.4
349.057	114.71
349.44	137.76
349.823	121.04
350.206	182.96
350.588	201.27
350.971	207.14
351.354	218.21
351.737	238.55
352.119	249.85
352.502	238.1
352.884	245.11
353.267	265.22
353.65	284.2
354.032	290.76
354.414	288.72
354.797	297.76
355.179	330.08
355.562	311.55
355.944	328.04
356.326	349.51
356.709	334.14
357.091	322.62
357.473	319.45
357.855	333.69
358.238	353.35
358.62	317.65
359.002	332.34
359.384	313.81
359.766	323.97
360.148	334.14
360.53	335.5
360.912	338.44
361.294	307.93
361.676	337.53
362.057	313.58
362.439	332.56
362.821	326.23
363.203	335.73
363.584	332.56
363.966	307.93
364.348	323.07
364.729	331.66
365.111	329.85
365.493	299.12
365.874	315.16
366.256	297.76
366.637	327.59
367.019	313.58
367.4	304.54
367.781	309.29
368.163	324.88
368.544	304.54
368.925	276.07
369.306	324.88
369.688	320.81
370.069	300.7
370.45	302.28
370.831	304.77
371.212	309.51
371.593	329.4
371.974	295.5
372.355	325.56
372.736	315.84
373.117	327.59
373.498	314.71
373.879	303.18
374.26	320.13
374.641	315.84
375.021	313.13
375.402	314.26
375.783	326.69
376.163	321.94
376.544	314.03
376.925	317.2
377.305	300.25
377.686	334.82
378.066	336.63
378.447	325.56
378.827	332.11
379.208	329.17
379.588	337.76
379.968	319.91
380.349	338.21
380.729	320.58
381.109	330.75
381.489	377.76
381.87	339.79
382.25	336.63
382.63	329.17
383.01	317.87
383.39	352.45
383.77	318.55
384.15	326.23
384.53	364.88
384.91	341.38
385.29	355.61
385.67	345.67
386.049	345.67
386.429	342.51
386.809	346.12
387.189	347.48
387.568	346.35
387.948	363.75
388.328	369.62
388.707	357.42
389.087	361.04
389.466	353.35
389.846	374.82
390.225	377.98
390.605	380.02
390.984	348.61
391.363	348.61
391.743	356.52
392.122	369.85
392.501	376.63
392.881	379.34
393.26	381.15
393.639	390.87
394.018	380.7
394.397	377.53
394.776	392.22
395.155	393.13
395.534	389.51
395.913	391.54
396.292	381.37
396.671	390.87
397.05	382.05
397.429	390.41
397.808	400.81
398.186	391.09
398.565	403.29
398.944	391.32
399.323	408.49
399.701	414.37
400.08	400.81
400.458	422.05
400.837	415.72
401.215	410.07
401.594	418.44
401.972	410.07
402.351	406.68
402.729	440.13
403.107	430.64
403.486	437.64
403.864	437.64
404.242	423.63
404.62	441.94
404.999	441.03
405.377	455.5
405.755	468.15
406.133	457.3
406.511	461.37
406.889	467.02
407.267	460.02
407.645	475.16
408.023	472.9
408.401	477.64
408.779	487.59
409.156	479
409.534	489.62
409.912	482.16
410.29	493.24
410.667	535.72
411.045	535.49
411.422	502.73
411.8	532.56
412.178	533.91
412.555	517.64
412.933	555.61
413.31	538.43
413.687	561.03
414.065	550.41
414.442	559
414.819	568.94
415.197	589.5
415.574	588.37
415.951	590.41
416.328	590.63
416.705	611.88
417.082	611.2
417.46	601.71
417.837	628.83
418.214	630.41
418.591	636.06
418.967	648.49
419.344	649.84
419.721	663.4
420.098	651.65
420.475	690.74
420.852	660.24
421.228	683.74
421.605	712.21
421.982	690.97
422.358	697.98
422.735	715.6
423.111	716.51
423.488	741.82
423.864	745.66
424.241	791.53
424.617	776.17
424.994	780.46
425.37	792.21
425.746	771.19
426.123	790.18
426.499	797.41
426.875	829.27
427.251	837.18
427.627	843.73
428.003	877.86
428.379	849.16
428.756	860.23
429.132	885.32
429.507	871.76
429.883	894.58
430.259	908.82
430.635	905.43
431.011	930.29
431.387	947.91
431.763	973.9
432.138	958.76
432.514	972.09
432.89	966.67
433.265	1023.62
433.641	1027.91
434.016	1036.72
434.392	1035.59
434.767	1080.79
435.143	1069.04
435.518	1073.33
435.894	1109.72
436.269	1112.88
436.644	1110.62
437.02	1127.34
437.395	1153.11
437.77	1186.32
438.145	1175.03
438.52	1203.95
438.895	1253.44
439.271	1219.77
439.646	1251.63
440.021	1283.72
440.395	1271.29
440.77	1283.27
441.145	1312.42
441.52	1308.58
441.895	1347
442.27	1338.19
442.645	1363.27
443.019	1391.97
443.394	1374.12
443.769	1377.28
444.143	1375.25
444.518	1421.35
444.892	1419.76
445.267	1401.91
445.641	1434.91
446.016	1419.31
446.39	1464.51
446.764	1476.71
447.139	1442.36
447.513	1482.81
447.887	1492.08
448.262	1490.05
448.636	1517.16
449.01	1520.33
449.384	1529.59
449.758	1557.61
450.132	1549.25
450.506	1583.6
450.88	1567.33
451.254	1563.04
451.628	1615.47
452.002	1628.8
452.376	1641.45
452.75	1671.51
453.123	1673.09
453.497	1699.31
453.871	1691.62
454.244	1707.44
454.618	1722.58
454.992	1767.78
455.365	1746.76
455.739	1765.97
456.112	1834.44
456.486	1815.23
456.859	1815.01
457.232	1860.43
457.606	1846.87
457.979	1884.84
458.352	1901.79
458.725	1936.36
459.099	1935.46
459.472	1980.65
459.845	2005.06
460.218	2010.71
460.591	2040.31
460.964	2052.29
461.337	2097.49
461.71	2086.19
462.083	2115.34
462.456	2134.1
462.829	2164.15
463.201	2178.62
463.574	2194.21
463.947	2199.63
464.32	2258.61
464.692	2290.25
465.065	2276.69
465.438	2335.9
465.81	2357.82
466.183	2360.76
466.555	2408.21
466.928	2410.25
467.3	2448.66
467.672	2486.4
468.045	2500.19
468.417	2488.66
468.789	2533.18
469.161	2554.65
469.534	2581.09
469.906	2647.76
470.278	2662.22
470.65	2668.32
471.022	2706.51
471.394	2728.88
471.766	2825.6
472.138	2808.2
472.51	2893.4
472.882	2882.33
473.253	2965.94
473.625	2971.59
473.997	3033.28
474.369	3035.77
474.74	3075.09
475.112	3109.89
475.484	3150.79
475.855	3216.1
476.227	3249.1
476.598	3287.29
476.97	3297.68
477.341	3415.64
477.713	3453.16
478.084	3438.24
478.455	3519.37
478.827	3574.96
479.198	3683.89
479.569	3676.88
479.94	3734.96
480.311	3721.4
480.682	3831.68
481.053	3883.43
481.424	3926.59
481.795	4008.85
482.166	4022.86
482.537	4051.56
482.908	4129.98
483.279	4183.53
483.65	4287.49
484.021	4294.49
484.391	4383.98
484.762	4435.05
485.133	4426.24
485.503	4485.9
485.874	4548.04
486.244	4599.12
486.615	4693.35
486.985	4712.33
487.356	4773.8
487.726	4845.66
488.097	4959.78
488.467	4920.92
488.837	4970.86
489.207	5077.97
489.578	5112.1
489.948	5130.63
490.318	5205.88
490.688	5223.51
491.058	5304.63
491.428	5334.24
491.798	5381.02
492.168	5495.82
492.538	5510.05
492.908	5541.24
493.278	5607.68
493.648	5621.24
494.017	5663.95
494.387	5701.69
494.757	5754.79
495.126	5817.39
495.496	5840.89
495.866	5867.33
496.235	5900.1
496.605	5943.49
496.974	5974.45
497.344	6052.41
497.713	6016.03
498.082	6041.56
498.452	6110.04
498.821	6143.26
499.19	6119.08
499.559	6194.55
499.928	6257.15
500.298	6290.82
500.667	6299.41
501.036	6307.77
501.405	6430.25
501.774	6336.92
502.143	6395.91
502.512	6481.55
502.88	6468.67
503.249	6463.25
503.618	6486.07
503.987	6508.67
504.356	6592.74
504.724	6590.93
505.093	6574.21
505.462	6650.14
505.83	6650.36
506.199	6692.39
506.567	6715.44
506.936	6749.34
507.304	6821.2
507.672	6774.43
508.041	6817.36
508.409	6845.84
508.777	6897.81
509.145	6902.33
509.514	6923.35
509.882	6973.74
510.25	6970.13
510.618	6990.69
510.986	7016
511.354	7082.21
511.722	7068.66
512.09	7119.95
512.458	7081.54
512.826	7159.95
513.193	7207.86
513.561	7129.67
513.929	7169.22
514.297	7220.29
514.664	7285.83
515.032	7244.02
515.4	7305.94
515.767	7284.02
516.135	7328.31
516.502	7278.14
516.869	7410.79
517.237	7376.44
517.604	7357.24
517.972	7458.25
518.339	7457.8
518.706	7467.74
519.073	7468.42
519.44	7501.19
519.808	7544.35
520.175	7528.3
520.542	7623.9
520.909	7552.26
521.276	7630.68
521.643	7639.71
522.009	7631.13
522.376	7711.12
522.743	7721.97
523.11	7720.62
523.477	7842.19
523.843	7757.45
524.21	7881.97
524.577	7824.12
524.943	7857.56
525.31	7898.69
525.676	7940.05
526.043	7968.52
526.409	7935.98
526.776	8017.56
527.142	7999.48
527.508	8066.14
527.874	8048.74
528.241	8098.01
528.607	8056.43
528.973	8113.83
529.339	8055.97
529.705	8184.56
530.071	8191.56
530.437	8166.93
530.803	8229.76
531.169	8267.72
531.535	8238.79
531.901	8227.27
532.267	8199.93
532.632	8266.82
532.998	8258.91
533.364	8313.82
533.73	8261.17
534.095	8301.39
534.461	8254.39
534.826	8293.71
535.192	8280.6
535.557	8351.33
535.923	8293.93
536.288	8287.15
536.653	8348.85
537.019	8335.97
537.384	8277.66
537.749	8311.79
538.114	8281.28
538.479	8298.23
538.845	8304.33
539.21	8288.74
539.575	8326.48
539.94	8374.61
540.305	8326.02
540.67	8303.88
541.034	8363.54
541.399	8312.92
541.764	8299.58
542.129	8303.88
542.494	8332.13
542.858	8391.11
543.223	8363.09
543.587	8340.71
543.952	8345.23
544.316	8301.39
544.681	8301.84
545.045	8330.09
545.41	8321.5
545.774	8326.02
546.138	8329.64
546.503	8345.68
546.867	8329.87
547.231	8345.23
547.595	8370.09
547.959	8298.68
548.324	8336.19
548.688	8311.56
549.052	8348.85
549.416	8357.66
549.779	8361.05
550.143	8359.02
550.507	8349.3
550.871	8389.98
551.235	8324.67
551.599	8377.55
551.962	8328.06
552.326	8345.68
552.689	8358.57
553.053	8291.9
553.417	8365.12
553.78	8349.75
554.143	8317.89
554.507	8318.57
554.87	8400.37
555.234	8454.16
555.597	8350.43
555.96	8405.57
556.323	8437.21
556.686	8443.76
557.05	8457.55
557.413	8441.95
557.776	8490.77
558.139	8528.73
558.502	8474.49
558.865	8487.38
559.228	8529.41
559.59	8581.16
559.953	8547.49
560.316	8643.98
560.679	8617.09
561.041	8618.45
561.404	8659.57
561.767	8714.04
562.129	8701.83
562.492	8778.89
562.854	8737.76
563.217	8720.36
563.579	8728.95
563.941	8762.4
564.304	8757.43
564.666	8791.77
565.028	8911.32
565.39	8871.32
565.753	8911.32
566.115	8938.21
566.477	8935.73
566.839	8942.28
567.201	9047.13
567.563	9043.75
567.925	9050.52
568.287	9045.78
568.648	9071.09
569.01	9141.82
569.372	9142.5
569.734	9128.94
570.095	9252.33
570.457	9232.67
570.819	9254.14
571.18	9260.24
571.542	9308.37
571.903	9280.8
572.265	9292.78
572.626	9315.38
572.987	9397.41
573.349	9378.65
573.71	9413.68
574.071	9435.37
574.432	9479.21
574.794	9548.82
575.155	9488.93
575.516	9484.86
575.877	9516.28
576.238	9502.04
576.599	9542.94
576.96	9521.47
577.32	9564.41
577.681	9645.31
578.042	9605.31
578.403	9660.45
578.763	9691.41
579.124	9597.18
579.485	9634.69
579.845	9741.13
580.206	9692.32
580.566	9741.81
580.927	9800.34
581.287	9791.3
581.648	9796.49
582.008	9872.2
582.368	9814.57
582.728	9831.52
583.089	9868.81
583.449	9881.46
583.809	9890.73
584.169	9909.71
584.529	9885.08
584.889	9998.07
585.249	9973.44
585.609	9924.85
585.969	9986.32
586.329	9940.22
586.688	10002.82
587.048	10040.78
587.408	9998.75
587.768	9991.52
588.127	9995.81
588.487	10037.17
588.846	10106.32
589.206	10018.18
589.565	10029.93
589.925	10109.93
590.284	10107.45
590.643	10198.74
591.003	10124.17
591.362	10187.22
591.721	10161.91
592.08	10195.13
592.44	10140.21
592.799	10184.73
593.158	10157.84
593.517	10228.35
593.876	10249.59
594.235	10219.08
594.593	10238.97
594.952	10238.06
595.311	10163.94
595.67	10269.48
596.029	10273.77
596.387	10278.06
596.746	10343.6
597.104	10309.47
597.463	10271.74
597.822	10313.77
598.18	10269.25
598.538	10227.67
598.897	10351.51
599.255	10247.56
599.613	10351.51
599.972	10331.85
600.33	10327.33
600.688	10269.25
601.046	10330.27
601.404	10353.09
601.762	10344.28
602.12	10410.26
602.478	10363.26
602.836	10417.95
603.194	10383.82
603.552	10365.97
603.91	10271.74
604.268	10354.22
604.625	10358.06
604.983	10323.71
605.341	10408.68
605.698	10425.86
606.056	10449.36
606.413	10435.57
606.771	10467.66
607.128	10441.22
607.485	10437.15
607.843	10428.34
608.2	10514.67
608.557	10531.62
608.914	10506.98
609.272	10617.04
609.629	10564.16
609.986	10607.55
610.343	10474.89
610.7	10626.53
611.057	10585.63
611.414	10545.17
611.771	10566.64
612.127	10624.49
612.484	10624.95
612.841	10627.88
613.198	10651.16
613.554	10645.51
613.911	10629.69
614.267	10674.21
614.624	10664.72
614.98	10670.82
615.337	10764.6
615.693	10699.75
616.05	10698.62
616.406	10786.07
616.762	10697.49
617.118	10694.1
617.475	10682.57
617.831	10724.83
618.187	10816.58
618.543	10746.3
618.899	10829.24
619.255	10818.39
619.611	10760.99
619.967	10838.05
620.323	10849.57
620.678	10807.09
621.034	10817.71
621.39	10768.67
621.746	10781.55
622.101	10902.23
622.457	10804.83
622.812	10853.87
623.168	10849.35
623.523	10835.11
623.879	10848.67
624.234	10854.55
624.589	10860.65
624.945	10851.61
625.3	10796.92
625.655	10845.05
626.01	10791.04
626.365	10801.44
626.72	10827.2
627.075	10797.37
627.43	10778.16
627.785	10795.34
628.14	10790.59
628.495	10803.7
628.85	10780.2
629.205	10720.54
629.559	10804.38
629.914	10670.37
630.269	10789.24
630.623	10761.21
630.978	10717.83
631.332	10757.15
631.687	10732.06
632.041	10731.16
632.396	10751.5
632.75	10725.28
633.104	10666.98
633.459	10655.68
633.813	10619.75
634.167	10603.93
634.521	10663.36
634.875	10659.97
635.229	10621.78
635.583	10507.89
635.937	10532.97
636.291	10536.81
636.645	10535.01
636.999	10516.25
637.352	10500.66
637.706	10428.57
638.06	10505.4
638.413	10576.59
638.767	10459.75
639.121	10532.97
639.474	10404.84
639.828	10429.7
640.181	10428.79
640.534	10415.91
640.888	10380.66
641.241	10340.43
641.594	10470.37
641.947	10342.47
642.301	10405.52
642.654	10302.92
643.007	10488
643.36	10306.08
643.713	10315.58
644.066	10305.63
644.419	10287.1
644.771	10229.25
645.124	10119.88
645.477	10116.49
645.83	10055.7
646.182	10058.41
646.535	9917.39
646.888	9990.16
647.24	9905.19
647.593	9925.3
647.945	9897.28
648.298	9863.84
648.65	9867.45
649.002	9816.38
649.355	9984.51
649.707	9959.65
650.059	9987
650.411	10052.76
650.763	10133.43
651.115	10208.01
651.467	10171.85
651.819	10147.22
652.171	10164.62
652.523	10123.04
652.875	10179.99
653.227	10034.23
653.578	10175.47
653.93	10132.98
654.282	10146.77
654.633	10068.8
654.985	10063.38
655.337	10115.58
655.688	10102.93
656.039	10154
656.391	10082.36
656.742	10146.99
657.094	10036.26
657.445	10168.69
657.796	10078.97
658.147	10076.94
658.498	10093.89
658.849	10081.91
659.2	10134.11
659.551	10034.23
659.902	10076.03
660.253	10059.76
660.604	10100.67
660.955	10076.71
661.306	10044.85
661.656	10076.03
662.007	10064.28
662.358	10083.72
662.708	10065.64
663.059	10052.98
663.409	10087.11
663.76	10094.34
664.11	10091.63
664.461	10034.68
664.811	10054.57
665.161	10089.59
665.511	10047.79
665.862	10090.05
666.212	10032.42
666.562	10102.02
666.912	10063.61
667.262	10048.46
667.612	10049.82
667.962	10045.53
668.312	10019.54
668.662	10121.91
669.011	10052.08
669.361	10008.47
669.711	10046.43
670.06	10001.01
670.41	10028.58
670.76	9980.67
671.109	10083.94
671.459	9997.62
671.808	9996.71
672.157	10060.67
672.507	9995.58
672.856	9995.81
673.205	9940.9
673.554	9996.71
673.904	9950.61
674.253	10034
674.602	9986.32
674.951	9845.76
675.3	9719.66
675.649	9884.85
675.998	9859.54
676.346	9877.85
676.695	9973.21
677.044	9913.55
677.393	9841.01
677.741	9949.03
678.09	9828.58
678.438	9817.74
678.787	9815.93
679.135	9794.23
679.484	9813.67
679.832	9833.1
680.181	9725.99
680.529	9786.32
680.877	9733.9
681.225	9805.53
681.573	9812.09
681.922	9664.29
682.27	9629.04
682.618	9717.63
682.966	9695.25
683.314	9646.44
683.661	9617.06
684.009	9604.63
684.357	9560.57
684.705	9591.3
685.053	9504.98
685.4	9506.33
685.748	9491.19
686.095	9445.32
686.443	9453.45
686.79	9423.4
687.138	9426.56
687.485	9410.74
687.832	9406.22
688.18	9310.18
688.527	9318.77
688.874	9329.84
689.221	9305.89
689.568	9224.53
689.915	9304.76
690.262	9221.37
690.609	9225.66
690.956	9148.83
691.303	9151.99
691.65	9128.04
691.997	9104.31
692.344	9056.4
692.69	9065.21
693.037	9013.92
693.383	9000.58
693.73	9052.78
694.077	8854.37
694.423	8868.83
694.769	8873.13
695.116	8858.67
695.462	8782.06
695.808	8819.34
696.155	8860.02
696.501	8770.31
696.847	8732.57
697.193	8701.83
697.539	8721.27
697.885	8649.18
698.231	8614.6
698.577	8573.7
698.923	8606.02
699.269	8557.88
699.614	8529.18
699.96	8451.9
700.306	8486.92
700.651	8441.28
700.997	8402.63
701.342	8385.01
701.688	8382.97
702.033	8319.02
702.379	8306.36
702.724	8255.29
703.069	8234.28
703.415	8229.76
703.76	8217.55
704.105	8216.2
704.45	8191.79
704.795	8116.31
705.14	8071.79
705.485	8101.62
705.83	8034.05
706.175	8018.01
706.52	7988.18
706.865	7946.15
707.209	7938.92
707.554	7949.99
707.899	7943.21
708.243	7932.59
708.588	7919.26
708.932	7801.07
709.277	7864.57
709.621	7848.75
709.966	7748.86
710.31	7811.01
710.654	7761.29
710.998	7752.25
711.342	7769.88
711.687	7744.34
712.031	7652.6
712.375	7609.21
712.719	7665.48
713.063	7575.54
713.407	7627.74
713.75	7623.67
714.094	7596.55
714.438	7477.91
714.782	7535.99
715.125	7513.16
715.469	7532.15
715.812	7459.15
716.156	7446.5
716.499	7424.58
716.843	7451.7
717.186	7437.46
717.53	7470.68
717.873	7407.86
718.216	7415.99
718.559	7404.69
718.902	7386.84
719.246	7371.7
719.589	7338.71
719.932	7349.1
720.275	7327.86
720.617	7292.6
720.96	7309.55
721.303	7319.27
721.646	7281.76
721.989	7277.69
722.331	7258.93
722.674	7207.64
723.016	7309.1
723.359	7189.33
723.701	7267.29
724.044	7189.33
724.386	7160.63
724.729	7273.4
725.071	7181.65
725.413	7202.89
725.755	7176
726.097	7168.09
726.439	7156.56
726.782	7089.45
727.124	7198.37
727.465	7114.08
727.807	7130.12
728.149	7097.58
728.491	7098.26
728.833	7147.75
729.175	7090.35
729.516	7093.74
729.858	7122.67
730.199	7075.89
730.541	7113.17
730.882	7031.59
731.224	7091.25
731.565	7060.52
731.906	7080.63
732.248	7115.89
732.589	7042.44
732.93	7076.57
733.271	7096.45
733.612	7019.39
733.953	7038.15
734.294	7090.12
734.635	7030.24
734.976	7032.05
735.317	7043.35
735.658	7043.8
735.999	7051.48
736.339	6992.73
736.68	7049.22
737.021	7012.61
737.361	6960.86
737.702	7018.49
738.042	7013.06
738.383	7002.44
738.723	7001.77
739.063	7016
739.404	6984.82
739.744	7018.71
740.084	7042.89
740.424	7065.49
740.764	7027.98
741.104	7018.94
741.444	7076.79
741.784	7064.14
742.124	7078.6
742.464	7072.5
742.804	7080.18
743.143	7110.24
743.483	7139.16
743.823	7032.95
744.162	7082.67
744.502	7073.63
744.841	7137.13
745.181	7141.87
745.52	7131.03
745.86	7221.42
746.199	7265.71
746.538	7227.52
746.877	7286.05
747.216	7271.81
747.556	7301.19
747.895	7312.04
748.234	7315.2
748.573	7371.02
748.911	7362.43
749.25	7466.84
749.589	7512.03
749.928	7502.32
750.267	7599.04
750.605	7579.38
750.944	7629.77
751.283	7698.92
751.621	7744.8
751.96	7762.87
752.298	7829.54
752.636	7943.21
752.975	7959.48
753.313	7995.86
753.651	8125.35
753.989	8125.58
754.327	8142.07
754.666	8235.86
755.004	8382.52
755.342	8362.86
755.679	8483.76
756.017	8554.94
756.355	8638.11
756.693	8691.44
757.031	8781.15
757.368	8883.52
757.706	8966.23
758.044	9090.3
758.381	9132.78
758.719	9177.98
759.056	9249.84
759.394	9354.47
759.731	9533.68
760.068	9580.23
760.405	9720.79
760.743	9692.77
761.08	9848.7
761.417	9992.19
761.754	10015.25
762.091	10116.94
762.428	10250.27
762.765	10295.01
763.102	10436.93
763.438	10472.18
763.775	10576.81
764.112	10704.04
764.449	10835.56
764.785	10849.35
765.122	10973.64
765.458	10998.04
765.795	11146.51
766.131	11225.16
766.467	11307.19
766.804	11396
767.14	11457.69
767.476	11476.22
767.812	11575.88
768.148	11652.49
768.485	11718.03
768.821	11761.64
769.157	11835.31
769.492	11871.92
769.828	12013.16
770.164	11953.05
770.5	12123.89
770.836	12193.49
771.171	12133.61
771.507	12155.98
771.842	12198.01
772.178	12321.85
772.513	12394.39
772.849	12352.36
773.184	12509.19
773.519	12430.1
773.855	12493.6
774.19	12506.71
774.525	12474.84
774.86	12646.36
775.195	12625.57
775.53	12642.75
775.865	12640.49
776.2	12631.45
776.535	12629.87
776.87	12700.37
777.205	12592.35
777.539	12657.44
777.874	12712.58
778.209	12684.33
778.543	12667.38
778.878	12608.4
779.212	12677.55
779.547	12650.2
779.881	12713.93
780.215	12691.33
780.55	12690.88
780.884	12613.37
781.218	12754.61
781.552	12665.12
781.886	12675.74
782.22	12702.86
782.554	12683.42
782.888	12647.94
783.222	12558.68
783.556	12527.95
783.889	12529.53
784.223	12492.02
784.557	12509.64
784.89	12555.52
785.224	12482.75
785.557	12473.49
785.891	12492.69
786.224	12516.87
786.558	12444.33
786.891	12414.5
787.224	12368.63
787.557	12360.04
787.891	12320.5
788.224	12384.45
788.557	12378.35
788.89	12317.78
789.223	12340.83
789.556	12312.59
789.888	12261.06
790.221	12155.75
790.554	12174.06
790.887	12159.14
791.219	12163.66
791.552	12138.58
791.884	12133.16
792.217	12089.77
792.549	12085.7
792.882	11934.97
793.214	11973.84
793.546	11939.26
793.879	11896.33
794.211	11809.77
794.543	11864.01
794.875	11944.23
795.207	11939.04
795.539	11800.28
795.871	11843.45
796.203	11697.23
796.535	11688.87
796.867	11649.55
797.198	11689.78
797.53	11675.77
797.862	11679.83
798.193	11618.37
798.525	11603.45
798.856	11499.95
799.188	11460.63
799.519	11462.89
799.85	11360.07
800.182	11443.46
800.513	11494.08
800.844	11325.27
801.175	11452.5
801.506	11370.92
801.837	11307.41
802.168	11304.48
802.499	11234.87
802.83	11120.53
803.161	11132.73
803.491	11175.21
803.822	11126.18
804.153	11195.1
804.483	11009.12
804.814	10965.95
805.145	11040.98
805.475	10983.13
805.805	10920.76
806.136	10976.8
806.466	10996.69
806.796	10816.35
807.126	10819.29
807.457	10815.9
807.787	10794.66
808.117	10805.51
808.447	10775.68
808.777	10869.01
809.107	10847.77
809.436	10667.43
809.766	10784.72
810.096	10639.86
810.426	10607.09
810.755	10624.72
811.085	10645.74
811.414	10543.37
811.744	10531.84
812.073	10590.6
812.403	10517.6
812.732	10469.02
813.061	10464.72
813.39	10372.98
813.719	10421.79
814.049	10462.47
814.378	10459.08
814.707	10314.67
815.036	10370.72
815.365	10293.2
815.693	10218.4
816.022	10260.21
816.351	10184.28
816.68	10118.29
817.008	10247.56
817.337	10207.1
817.665	10075.81
817.994	10085.53
818.322	10103.15
818.651	10059.31
818.979	10047.33
819.307	10043.94
819.636	10068.35
819.964	10045.3
820.292	10008.01
820.62	9990.16
820.948	9925.76
821.276	10050.72
821.604	9918.52
821.932	9929.6
822.259	9928.24
822.587	9966.66
822.915	9913.78
823.243	10021.57
823.57	9983.83
823.898	10021.57
824.225	9925.53
824.553	9846.21
824.88	9886.21
825.207	9988.58
825.535	9902.03
825.862	9995.81
826.189	9932.08
826.516	10017.73
826.843	10014.57
827.17	9980.9
827.497	10052.76
827.824	9986.55
828.151	9945.19
828.478	10004.4
828.805	10033.78
829.131	9965.53
829.458	10001.01
829.785	9961.46
830.111	9956.26
830.438	9931.18
830.764	10009.6
831.09	9982.7
831.417	9962.82
831.743	9916.72
832.069	9992.19
832.395	9905.87
832.722	9950.16
833.048	9852.09
833.374	9911.97
833.7	9945.87
834.026	9931.18
834.351	9919.2
834.677	9865.19
835.003	9865.42
835.329	9932.31
835.654	9836.94
835.98	9778.42
836.306	9867.68
836.631	9769.83
836.956	9803.5
837.282	9844.85
837.607	9765.31
837.932	9707
838.258	9757.17
838.583	9767.79
838.908	9639.21
839.233	9778.19
839.558	9743.84
839.883	9634.92
840.208	9633.11
840.533	9613.45
840.858	9662.71
841.182	9633.56
841.507	9622.71
841.832	9555.14
842.156	9528.03
842.481	9563.51
842.805	9510.85
843.13	9614.35
843.454	9492.1
843.778	9408.26
844.103	9471.08
844.427	9432.66
844.751	9380.46
845.075	9443.96
845.399	9376.84
845.723	9263.63
846.047	9349.27
846.371	9267.69
846.695	9290.97
847.019	9182.27
847.343	9137.75
847.666	9087.81
847.99	9034.48
848.313	9026.57
848.637	8995.16
848.96	8974.14
849.284	9000.58
849.607	8885.56
849.931	8845.78
850.254	8802.4
850.577	8809.18
850.9	8789.74
851.223	8689.86
851.546	8686.92
851.869	8664.32
852.192	8642.4
852.515	8578.9
852.838	8575.73
853.161	8559.46
853.483	8565.79
853.806	8488.51
854.129	8458.68
854.451	8451.44
854.774	8380.49
855.096	8373.03
855.419	8383.42
855.741	8364.89
856.063	8295.97
856.385	8236.76
856.708	8266.59
857.03	8200.38
857.352	8217.33
857.674	8150.21
857.996	8188.17
858.318	8110.89
858.64	8106.59
858.961	8160.38
859.283	8044.9
859.605	8041.74
859.926	8123.09
860.248	8037.44
860.57	7991.57
860.891	7992.47
861.212	7949.08
861.534	7900.27
861.855	7912.93
862.176	7855.75
862.498	7917.67
862.819	7900.5
863.14	7888.75
863.461	7810.56
863.782	7818.69
864.103	7762.65
864.424	7800.39
864.745	7781.18
865.065	7746.15
865.386	7734.63
865.707	7752.71
866.027	7685.36
866.348	7696.89
866.668	7739.6
866.989	7736.43
867.309	7663.67
867.63	7646.27
867.95	7621.86
868.27	7585.48
868.59	7632.71
868.91	7662.09
869.23	7617.57
869.55	7623.44
869.87	7673.16
870.19	7610.11
870.51	7632.26
870.83	7675.65
871.15	7559.49
871.469	7546.16
871.789	7547.74
872.109	7501.86
872.428	7516.78
872.748	7535.99
873.067	7543.45
873.386	7470.23
873.706	7468.19
874.025	7484.46
874.344	7373.96
874.663	7443.56
874.982	7432.71
875.301	7385.48
875.62	7382.77
875.939	7388.2
876.258	7441.98
876.577	7303.9
876.896	7270.01
877.214	7284.02
877.533	7323.79
877.852	7253.74
878.17	7304.58
878.489	7284.47
878.807	7277.46
879.125	7267.75
879.444	7229.1
879.762	7149.56
880.08	7250.35
880.398	7202.44
880.716	7180.29
881.034	7165.15
881.352	7156.79
881.67	7150.69
881.988	7102.33
882.306	7146.62
882.624	7104.59
882.941	7065.27
883.259	7082.21
883.577	7009.22
883.894	7067.07
884.212	6980.3
884.529	7019.84
884.846	6973.74
885.164	6992.5
885.481	6922.67
885.798	6955.44
886.115	6908.43
886.432	6902.56
886.75	6833.18
887.067	6828.44
887.383	6835.44
887.7	6839.51
888.017	6827.53
888.334	6820.53
888.651	6817.14
888.967	6787.53
889.284	6798.15
889.6	6711.6
889.917	6640.19
890.233	6706.86
890.55	6637.48
890.866	6623.92
891.182	6630.93
891.498	6621.89
891.815	6608.78
892.131	6634.32
892.447	6551.61
892.763	6520.65
893.079	6548.9
893.395	6486.75
893.71	6568.1
894.026	6471.61
894.342	6495.79
894.657	6453.53
894.973	6406.98
895.289	6401.55
895.604	6421.22
895.92	6318.17
896.235	6353.42
896.55	6305.96
896.865	6295.34
897.181	6306.64
897.496	6295.79
897.811	6210.37
898.126	6230.26
898.441	6213.76
898.756	6216.02
899.071	6165.4
899.386	6120.66
899.7	6081.56
900.015	6040.89
900.33	6046.08
900.644	6053.09
900.959	5965.41
901.273	6029.59
901.588	5980.55
901.902	5908.91
902.216	5940.78
902.531	5920.44
902.845	5914.11
903.159	5838.18
903.473	5822.14
903.787	5795.24
904.101	5753.66
904.415	5799.31
904.729	5731.29
905.042	5741.23
905.356	5708.47
905.67	5697.62
905.984	5742.82
906.297	5639.54
906.611	5622.59
906.924	5588.24
907.237	5622.37
907.551	5591.18
907.864	5598.41
908.177	5543.05
908.491	5523.61
908.804	5517.96
909.117	5433.67
909.43	5434.35
909.743	5438.19
910.056	5452.88
910.368	5403.39
910.681	5406.78
910.994	5345.31
911.307	5364.07
911.619	5275.48
911.932	5333.33
912.244	5275.26
912.557	5260.12
912.869	5202.72
913.181	5198.2
913.494	5167.24
913.806	5136.96
914.118	5169.95
914.43	5120.46
914.742	5126.33
915.054	5086.11
915.366	5047.69
915.678	5051.08
915.99	5029.39
916.302	4989.84
916.613	4917.98
916.925	4917.98
917.236	4941.48
917.548	4919.33
917.859	4917.3
918.171	4882.5
918.482	4878.21
918.794	4840.69
919.105	4837.08
919.416	4796.17
919.727	4815.16
920.038	4757.08
920.349	4715.5
920.66	4706.46
920.971	4741.26
921.282	4705.55
921.593	4747.59
921.903	4673.46
922.214	4649.28
922.525	4618.32
922.835	4628.27
923.146	4527.25
923.456	4554.6
923.767	4550.98
924.077	4501.94
924.387	4506.92
924.697	4499.01
925.008	4473.7
925.318	4449.97
925.628	4438.44
925.938	4442.06
926.248	4397.31
926.558	4412.68
926.867	4433.7
927.177	4378.33
927.487	4328.16
927.796	4286.36
928.106	4339.69
928.416	4281.38
928.725	4283.19
929.034	4241.39
929.344	4244.32
929.653	4232.57
929.962	4225.79
930.271	4173.36
930.581	4170.2
930.89	4140.37
931.199	4134.72
931.508	4111.9
931.817	4140.6
932.125	4110.09
932.434	4101.5
932.743	4032.8
933.051	4063.31
933.36	4033.71
933.669	4019.47
933.977	3965.91
934.286	3993.48
934.594	3978.12
934.902	3935.4
935.21	3931.79
935.519	3922.52
935.827	3907.38
936.135	3850.66
936.443	3856.09
936.751	3873.94
937.059	3851.11
937.367	3826.71
937.674	3819.02
937.982	3831.45
938.29	3799.14
938.597	3794.84
938.905	3724.79
939.213	3738.57
939.52	3683.21
939.827	3726.14
940.135	3680.72
940.442	3650.21
940.749	3659.25
941.056	3670.78
941.363	3605.47
941.67	3634.4
941.977	3590.1
942.284	3500.84
942.591	3541.97
942.898	3548.97
943.205	3558.24
943.511	3537
943.818	3529.31
944.125	3445.25
944.431	3481.18
944.738	3452.25
945.044	3426.72
945.35	3388.53
945.657	3346.72
945.963	3399.6
946.269	3422.2
946.575	3377.45
946.881	3311.92
947.187	3362.09
947.493	3304.24
947.799	3307.4
948.105	3287.06
948.41	3326.83
948.716	3310.79
949.022	3229.89
949.327	3237.57
949.633	3218.81
949.938	3193.96
950.244	3228.3
950.549	3195.54
950.854	3159.61
951.16	3164.35
951.465	3186.95
951.77	3165.93
952.075	3137.91
952.38	3143.56
952.685	3108.99
952.99	3056.33
953.294	3099.95
953.599	3046.16
953.904	3042.1
954.209	3025.82
954.513	3059.72
954.818	3022.66
955.122	2975.66
955.426	2969.55
955.731	2961.42
956.035	2935.21
956.339	2976.33
956.643	2965.04
956.948	2925.26
957.252	2930.69
957.556	2914.19
957.86	2902.66
958.163	2937.24
958.467	2854.98
958.771	2849.78
959.075	2858.15
959.378	2867.18
959.682	2787.41
959.985	2806.85
960.289	2801.2
960.592	2776.57
960.896	2760.52
961.199	2775.89
961.502	2748.32
961.805	2731.59
962.108	2753.97
962.411	2719.62
962.714	2697.02
963.017	2732.5
963.32	2712.61
963.623	2657.02
963.926	2659.73
964.228	2636
964.531	2647.08
964.833	2636.91
965.136	2624.48
965.438	2614.54
965.741	2585.61
966.043	2570.24
966.345	2572.95
966.648	2559.62
966.95	2555.78
967.252	2513.75
967.554	2561.43
967.856	2560.75
968.158	2478.27
968.46	2495.67
968.761	2487.76
969.063	2490.47
969.365	2458.38
969.666	2430.36
969.968	2422.22
970.269	2429.91
970.571	2439.17
970.872	2436.24
971.174	2384.49
971.475	2393.3
971.776	2422.68
972.077	2407.08
972.378	2387.42
972.679	2335.67
972.98	2367.76
973.281	2352.17
973.582	2318.05
973.883	2314.88
974.183	2301.78
974.484	2273.3
974.785	2284.37
975.085	2303.81
975.386	2316.01
975.686	2292.74
975.986	2285.28
976.287	2249.35
976.587	2227.65
976.887	2235.34
977.187	2212.06
977.487	2205.51
977.787	2182.68
978.087	2194.43
978.387	2172.06
978.687	2177.49
978.987	2177.03
979.286	2127.99
979.586	2131.38
979.885	2134.55
980.185	2156.69
980.484	2125.06
980.784	2133.42
981.083	2113.31
981.382	2086.87
981.682	2076.02
981.981	2044.38
982.28	2068.34
982.579	2030.14
982.878	2052.52
983.177	2040.09
983.475	2042.57
983.774	1998.73
984.073	2022.91
984.372	1982.91
984.67	2011.16
984.969	1989.02
985.267	2029.47
985.566	1996.92
985.864	1972.52
986.162	1973.65
986.461	1956.93
986.759	1951.73
987.057	1928
987.355	1926.87
987.653	1882.35
987.951	1884.39
988.249	1897.72
988.547	1911.5
988.844	1869.7
989.142	1878.96
989.44	1896.36
989.737	1859.98
990.035	1859.08
990.332	1863.37
990.63	1857.49
990.927	1810.94
991.224	1817.49
991.521	1793.77
991.819	1820.88
992.116	1805.74
992.413	1794.44
992.71	1782.24
993.006	1772.75
993.303	1761.68
993.6	1744.5
993.897	1743.82
994.193	1728.01
994.49	1756.93
994.787	1753.32
995.083	1710.38
995.379	1719.42
995.676	1685.07
995.972	1688.68
996.268	1655.69
996.565	1679.42
996.861	1682.58
997.157	1653.43
997.453	1668.35
997.749	1669.7
998.044	1652.75
998.34	1606.65
998.636	1631.51
998.932	1616.82
999.227	1598.74
999.523	1583.15
999.818	1591.96
1000.114	1595.13
1000.409	1572.3
1000.704	1543.15
1001	1534.11
1001.295	1565.07
1001.59	1542.02
1001.885	1539.76
1002.18	1516.26
1002.475	1512.64
1002.77	1528.01
1003.065	1495.7
1003.359	1504.28
1003.654	1524.85
1003.949	1479.42
1004.243	1464.96
1004.538	1474.45
1004.832	1442.82
1005.127	1443.72
1005.421	1455.92
1005.715	1420.22
1006.009	1415.02
1006.304	1423.61
1006.598	1387.9
1006.892	1393.32
1007.186	1393.78
1007.48	1381.12
1007.773	1383.83
1008.067	1366.88
1008.361	1378.18
1008.655	1347.68
1008.948	1354.46
1009.242	1358.52
1009.535	1338.86
1009.829	1321.24
1010.122	1320.11
1010.415	1346.77
1010.708	1312.88
1011.001	1298.19
1011.295	1288.47
1011.588	1299.77
1011.881	1273.55
1012.173	1278.07
1012.466	1276.94
1012.759	1260.22
1013.052	1238.07
1013.344	1240.11
1013.637	1276.72
1013.93	1260
1014.222	1218.87
1014.514	1248.92
1014.807	1186.1
1015.099	1212.09
1015.391	1172.99
1015.683	1203.73
1015.976	1178.42
1016.268	1189.71
1016.56	1180
1016.851	1182.48
1017.143	1158.08
1017.435	1184.74
1017.727	1160.11
1018.018	1145.2
1018.31	1128.25
1018.602	1131.64
1018.893	1146.78
1019.185	1113.33
1019.476	1092.99
1019.767	1118.76
1020.058	1127.34
1020.35	1084.86
1020.641	1092.32
1020.932	1097.51
1021.223	1085.31
1021.514	1058.42
1021.804	1037.63
1022.095	1059.32
1022.386	1055.48
1022.677	1035.37
1022.967	1021.58
1023.258	1034.01
1023.548	1028.14
1023.839	1033.33
1024.129	1008.93
1024.419	1007.12
1024.709	997.86
1025	995.14
1025.29	1002.6
1025.58	992.88
1025.87	980
1026.16	968.48
1026.449	952.66
1026.739	971.19
1027.029	972.32
1027.319	919.67
1027.608	952.66
1027.898	972.55
1028.187	932.55
1028.477	920.34
1028.766	911.76
1029.055	883.96
1029.344	919.44
1029.634	911.3
1029.923	873.56
1030.212	900.68
1030.501	909.95
1030.79	907.24
1031.078	885.99
1031.367	868.37
1031.656	885.32
1031.945	877.63
1032.233	870.63
1032.522	856.16
1032.81	856.84
1033.099	833.57
1033.387	867.92
1033.675	859.55
1033.963	828.37
1034.251	830.4
1034.54	833.11
1034.828	792.44
1035.116	799.67
1035.403	801.48
1035.691	803.06
1035.979	803.51
1036.267	807.58
1036.554	784.75
1036.842	794.92
1037.129	787.01
1037.417	775.26
1037.704	773.23
1037.992	783.85
1038.279	768.03
1038.566	758.77
1038.853	758.77
1039.14	758.77
