Data from hue_30_FLMS001491_21.txt Node
Date: Mon Feb 06 15:04:55 GMT 2017
User: dcchb
Spectrometer: FLMS00149
Trigger mode: 0
Integration Time (sec): 2.000000E-2
Scans to average: 10
Electric dark correction enabled: true
Nonlinearity correction enabled: false
Boxcar width: 0
XAxis mode: Wavelengths
Number of Pixels in Spectrum: 2048
>>>>>Begin Spectral Data<<<<<
341.393	-11.78
341.776	-11.78
342.16	-11.78
342.543	-83.42
342.927	-61.95
343.31	-67.82
343.693	-50.42
344.077	-62.4
344.46	-49.29
344.843	-70.31
345.226	-46.81
345.61	-32.57
345.993	-1.16
346.376	-12.46
346.759	3.36
347.142	23.7
347.525	52.63
347.908	46.75
348.291	71.61
348.674	93.3
349.057	101.89
349.44	119.06
349.823	149.12
350.206	164.26
350.588	195.22
350.971	198.38
351.354	226.41
351.737	233.19
352.119	241.55
352.502	261.89
352.884	283.58
353.267	279.06
353.65	299.17
354.032	287.65
354.414	293.98
354.797	306.18
355.179	304.14
355.562	321.09
355.944	321.09
356.326	365.39
356.709	363.58
357.091	368.55
357.473	338.27
357.855	326.52
358.238	352.96
358.62	342.79
359.002	347.08
359.384	357.25
359.766	338.49
360.148	354.99
360.53	326.74
360.912	346.63
361.294	332.62
361.676	339.62
362.057	323.58
362.439	343.69
362.821	308.44
363.203	344.37
363.584	322.22
363.966	324.71
364.348	327.87
364.729	324.48
365.111	322.45
365.493	323.35
365.874	319.29
366.256	327.42
366.637	317.25
367.019	341.88
367.4	317.25
367.781	318.16
368.163	319.06
368.544	328.55
368.925	297.37
369.306	293.98
369.688	299.62
370.069	313.18
370.45	315.67
370.831	288.78
371.212	311.15
371.593	321.55
371.974	313.18
372.355	307.99
372.736	319.06
373.117	284.48
373.498	326.06
373.879	315.67
374.26	314.54
374.641	325.61
375.021	314.09
375.402	332.39
375.783	334.43
376.163	339.17
376.544	352.96
376.925	313.41
377.305	334.65
377.686	332.62
378.066	340.08
378.447	341.43
378.827	345.5
379.208	356.8
379.588	321.32
379.968	343.24
380.349	342.79
380.729	336.46
381.109	349.79
381.489	350.7
381.87	311.6
382.25	340.75
382.63	332.17
383.01	338.72
383.39	320.87
383.77	344.37
384.15	352.96
384.53	333.52
384.91	344.37
385.29	338.95
385.67	353.18
386.049	359.96
386.429	349.57
386.809	355.44
387.189	347.08
387.568	338.27
387.948	359.74
388.328	351.37
388.707	363.13
389.087	376.01
389.466	364.26
389.846	350.7
390.225	359.96
390.605	359.96
390.984	366.74
391.363	366.74
391.743	366.74
392.122	383.46
392.501	378.27
392.881	369
393.26	367.19
393.639	381.66
394.018	373.75
394.397	381.88
394.776	352.96
395.155	375.33
395.534	393.18
395.913	403.35
396.292	400.87
396.671	393.18
397.05	380.75
397.429	387.08
397.808	387.31
398.186	397.7
398.565	406.29
398.944	402.22
399.323	411.26
399.701	386.18
400.08	399.28
400.458	402
400.837	393.18
401.215	419.17
401.594	412.39
401.972	405.38
402.351	403.12
402.729	380.53
403.107	418.94
403.486	413.52
403.864	426.4
404.242	428.44
404.62	409.45
404.999	416.01
405.377	413.29
405.755	416.23
406.133	421.88
406.511	447.42
406.889	435.21
407.267	431.37
407.645	441.32
408.023	428.44
408.401	469.11
408.779	437.47
409.156	438.83
409.534	442.22
409.912	456.23
410.29	436.8
410.667	487.19
411.045	451.94
411.422	449.9
411.8	481.99
412.178	462.78
412.555	449.9
412.933	466.17
413.31	466.63
413.687	472.73
414.065	485.16
414.442	486.06
414.819	484.03
415.197	484.7
415.574	487.87
415.951	493.07
416.328	496
416.705	507.98
417.082	504.37
417.46	504.14
417.837	504.37
418.214	518.83
418.591	541.88
418.967	501.2
419.344	511.14
419.721	511.37
420.098	511.6
420.475	518.15
420.852	532.61
421.228	535.78
421.605	550.92
421.982	547.3
422.358	566.96
422.735	549.34
423.111	526.74
423.488	563.35
423.864	560.63
424.241	562.44
424.617	549.79
424.994	566.74
425.37	555.66
425.746	578.71
426.123	578.26
426.499	591.82
426.875	583.01
427.251	594.08
427.627	601.76
428.003	601.99
428.379	600.86
428.756	616.45
429.132	645.15
429.507	627.3
429.883	623.23
430.259	608.32
430.635	645.15
431.011	644.93
431.387	616
431.763	658.26
432.138	639.73
432.514	646.06
432.89	633.4
433.265	655.32
433.641	656
434.016	659.62
434.392	699.16
434.767	696.68
435.143	672.95
435.518	698.03
435.894	700.29
436.269	711.59
436.644	707.98
437.02	723.12
437.395	720.4
437.77	733.06
438.145	723.34
438.52	719.5
438.895	745.26
439.271	737.81
439.646	746.84
440.021	753.17
440.395	758.82
440.77	766.05
441.145	754.98
441.52	763.34
441.895	773.96
442.27	808.76
442.645	774.87
443.019	779.84
443.394	797.24
443.769	789.1
444.143	782.55
444.518	808.99
444.892	818.26
445.267	836.56
445.641	839.72
446.016	822.55
446.39	826.62
446.764	802.44
447.139	848.09
447.513	850.8
447.887	845.15
448.262	844.7
448.636	858.71
449.01	847.41
449.384	865.26
449.758	875.65
450.132	874.98
450.506	865.26
450.88	865.49
451.254	883.79
451.628	885.82
452.002	913.85
452.376	914.52
452.75	886.95
453.123	924.69
453.497	924.69
453.871	945.71
454.244	944.58
454.618	946.16
454.992	972.15
455.365	967.63
455.739	989.32
456.112	973.96
456.486	974.86
456.859	999.72
457.232	1032.49
457.606	1040.85
457.979	1027.74
458.352	1070
458.725	1050.11
459.099	1060.73
459.472	1080.17
459.845	1056.67
460.218	1114.29
460.591	1092.15
460.964	1091.92
461.337	1120.17
461.71	1149.32
462.083	1163.11
462.456	1179.38
462.829	1204.01
463.201	1198.58
463.574	1174.86
463.947	1201.3
464.32	1229.54
464.692	1236.78
465.065	1266.15
465.438	1290.33
465.81	1297.79
466.183	1304.12
466.555	1330.33
466.928	1321.52
467.3	1357.45
467.672	1363.55
468.045	1381.63
468.417	1390.22
468.789	1420.05
469.161	1426.6
469.534	1441.52
469.906	1445.81
470.278	1477.9
470.65	1498.01
471.022	1531.46
471.394	1586.37
471.766	1591.12
472.138	1604.68
472.51	1648.29
472.882	1635.86
473.253	1702.53
473.625	1713.37
473.997	1729.87
474.369	1759.25
474.74	1800.15
475.112	1815.52
475.484	1900.71
475.855	1909.53
476.227	1945.46
476.598	1971.9
476.97	2015.51
477.341	2032.01
477.713	2077.21
478.084	2104.1
478.455	2155.4
478.827	2173.25
479.198	2276.97
479.569	2254.15
479.94	2357.2
480.311	2386.12
480.682	2457.08
481.053	2521.26
481.424	2566.68
481.795	2601.71
482.166	2651.43
482.537	2689.17
482.908	2790.18
483.279	2810.29
483.65	2869.73
484.021	2930.74
484.391	3005.09
484.762	3026.33
485.133	3081.92
485.503	3136.61
485.874	3229.04
486.244	3297.74
486.615	3342.93
486.985	3406.44
487.356	3524.4
487.726	3518.98
488.097	3615.92
488.467	3596.26
488.837	3734.34
489.207	3800.78
489.578	3844.39
489.948	3933.2
490.318	4011.39
490.688	4007.78
491.058	4101.78
491.428	4199.64
491.798	4259.29
492.168	4339.97
492.538	4385.62
492.908	4443.7
493.278	4511.04
493.648	4514.43
494.017	4628.1
494.387	4676.91
494.757	4756.91
495.126	4817.02
495.496	4889.33
495.866	4839.62
496.235	4983.8
496.605	5041.42
496.974	5080.97
497.344	5129.55
497.713	5185.6
498.082	5205.48
498.452	5316.67
498.821	5339.04
499.19	5382.66
499.559	5387.4
499.928	5508.08
500.298	5516.89
500.667	5550.56
501.036	5586.49
501.405	5635.53
501.774	5643.89
502.143	5735.64
502.512	5791.23
502.88	5841.63
503.249	5910.55
503.618	5879.82
503.987	5954.84
504.356	5953.04
504.724	5987.16
505.093	6067.38
505.462	6096.08
505.83	6096.31
506.199	6226.7
506.567	6221.05
506.936	6270.09
507.304	6351.67
507.672	6361.84
508.041	6368.84
508.409	6423.98
508.777	6464.66
509.145	6535.39
509.514	6539.01
509.882	6572
510.25	6547.37
510.618	6644.77
510.986	6650.19
511.354	6722.73
511.722	6762.51
512.09	6790.3
512.458	6822.62
512.826	6896.97
513.193	6983.52
513.561	6945.78
513.929	6982.39
514.297	6986
514.664	7051.54
515.032	7083.63
515.4	7094.93
515.767	7159.56
516.135	7176.73
516.502	7154.81
516.869	7229.61
517.237	7249.95
517.604	7216.05
517.972	7310.06
518.339	7288.82
518.706	7367.24
519.073	7393.45
519.44	7469.38
519.808	7536.04
520.175	7537.17
520.542	7601.81
520.909	7679.77
521.276	7649.94
521.643	7652.2
522.009	7708.47
522.376	7806.77
522.743	7809.71
523.11	7844.96
523.477	7932.64
523.843	7977.84
524.21	8018.07
524.577	8011.06
524.943	8116.59
525.31	8113.88
525.676	8182.81
526.043	8236.82
526.409	8285.63
526.776	8308.91
527.142	8392.52
527.508	8376.7
527.874	8519.07
528.241	8534.21
528.607	8530.14
528.973	8601.1
529.339	8624.38
529.705	8712.96
530.071	8745.96
530.437	8755.67
530.803	8812.85
531.169	8869.12
531.535	8905.5
531.901	8917.03
532.267	8978.94
532.632	9045.61
532.998	9002.45
533.364	9060.75
533.73	9071.6
534.095	9152.5
534.461	9232.05
534.826	9259.16
535.192	9254.42
535.557	9340.74
535.923	9367.64
536.288	9316.79
536.653	9413.51
537.019	9418.48
537.384	9489.44
537.749	9539.61
538.114	9523.34
538.479	9572.6
538.845	9611.7
539.21	9629.1
539.575	9700.51
539.94	9757
540.305	9784.8
540.67	9839.94
541.034	9830
541.399	9880.62
541.764	9958.58
542.129	9999.93
542.494	10008.97
542.858	10039.26
543.223	10053.04
543.587	10128.52
543.952	10149.08
544.316	10184.79
544.681	10220.04
545.045	10349.98
545.41	10385.01
545.774	10326.71
546.138	10368.29
546.503	10424.33
546.867	10429.53
547.231	10558.11
547.595	10560.82
547.959	10543.88
548.324	10684.89
548.688	10716.53
549.052	10698.45
549.416	10762.4
549.779	10766.69
550.143	10756.98
550.507	10889.85
550.871	10868.84
551.235	10956.52
551.599	10961.49
551.962	11016.41
552.326	11075.39
552.689	11070.42
553.053	11017.08
553.417	11057.99
553.78	11245.1
554.143	11148.61
554.507	11160.58
554.87	11209.62
555.234	11344.53
555.597	11306.57
555.96	11393.34
556.323	11386.34
556.686	11382.27
557.05	11461.59
557.413	11459.11
557.776	11570.06
558.139	11620.01
558.502	11615.26
558.865	11733.67
559.228	11723.96
559.59	11754.69
559.953	11773.67
560.316	11848.93
560.679	11860.68
561.041	11914.69
561.404	11976.15
561.767	12174.57
562.129	11975.93
562.492	12081.24
562.854	12115.81
563.217	12177.28
563.579	12157.17
563.941	12281.68
564.304	12316.94
564.666	12337.73
565.028	12362.36
565.39	12437.38
565.753	12482.81
566.115	12476.48
566.477	12613.88
566.839	12558.96
567.201	12685.06
567.563	12693.88
567.925	12736.81
568.287	12738.17
568.648	12828.11
569.01	12960.31
569.372	12904.04
569.734	12943.81
570.095	13073.98
570.457	13148.55
570.819	13102.68
571.18	13147.2
571.542	13239.17
571.903	13223.8
572.265	13373.41
572.626	13447.75
572.987	13473.52
573.349	13538.15
573.71	13622.89
574.071	13783.56
574.432	13779.95
574.794	13886.61
575.155	13923.22
575.516	14039.6
575.877	14097.23
576.238	14188.53
576.599	14307.62
576.96	14324.57
577.32	14418.35
577.681	14565.24
578.042	14724.56
578.403	14830.99
578.763	14931.56
579.124	15001.39
579.485	15212.23
579.845	15325.9
580.206	15481.15
580.566	15645.66
580.927	15774.92
581.287	15923.62
581.648	16012.21
582.008	16286.78
582.368	16468.01
582.728	16696.03
583.089	16719.76
583.449	16953.65
583.809	17157.26
584.169	17479.96
584.529	17619.62
584.889	17883.57
585.249	18063.23
585.609	18156.1
585.969	18602.65
586.329	18631.57
586.688	18876.31
587.048	19147.94
587.408	19326.92
587.768	19557.88
588.127	19919.9
588.487	20142.94
588.846	20555.82
589.206	20639.66
589.565	20929.36
589.925	21349.92
590.284	21520.31
590.643	21845.05
591.003	22201.65
591.362	22502.88
591.721	22632.6
592.08	22974.06
592.44	23372.46
592.799	23532.69
593.158	23797.76
593.517	24271.65
593.876	24450.18
594.235	24689.49
594.593	25004.06
594.952	25331.28
595.311	25552.29
595.67	25918.61
596.029	26266.63
596.387	26575.09
596.746	26900.28
597.104	27060.05
597.463	27379.82
597.822	27726.02
598.18	27954.49
598.538	28144.99
598.897	28697.97
599.255	28637.18
599.613	29351.97
599.972	29427.22
600.33	29695.24
600.688	29921.9
601.046	30287.99
601.404	30672.16
601.762	30805.72
602.12	31182.2
602.478	31347.4
602.836	31705.35
603.194	31682.98
603.552	32036.19
603.91	32178.56
604.268	32559.79
604.625	32716.63
604.983	33079.78
605.341	33133.11
605.698	33566.77
606.056	33750.27
606.413	34053.54
606.771	34216.47
607.128	34420.76
607.485	34488.56
607.843	34712.73
608.2	35137.35
608.557	35367.4
608.914	35454.41
609.272	35881.51
609.629	35977.33
609.986	36264.33
610.343	36406.02
610.7	36611.44
611.057	36692.57
611.414	37002.16
611.771	36994.48
612.127	37455.48
612.484	37410.06
612.841	37693.67
613.198	37808.7
613.554	37867.22
613.911	38201.91
614.267	38218.63
614.624	38391.28
614.98	38629.46
615.337	38903.36
615.693	38912.17
616.05	39097.7
616.406	39374.3
616.762	39287.3
617.118	39407.3
617.475	39553.28
617.831	39792.6
618.187	39868.3
618.543	40164.11
618.899	40421.51
619.255	40489.08
619.611	40456.31
619.967	40665.34
620.323	40842.29
620.678	40709.18
621.034	40801.16
621.39	40791.67
621.746	40857.65
622.101	41434.59
622.457	41127.93
622.812	41205.89
623.168	41431.88
623.523	41487.69
623.879	41691.3
624.234	41470.29
624.589	41682.72
624.945	41769.95
625.3	41854.01
625.655	41792.55
626.01	41966.55
626.365	42055.36
626.72	42067.11
627.075	41952.31
627.43	42101.01
627.785	42051.3
628.14	42204.96
628.495	42204.96
628.85	42206.77
629.205	42188.47
629.559	42447.22
629.914	42324.73
630.269	42357.5
630.623	42314.34
630.978	42208.81
631.332	42519.31
631.687	42606.99
632.041	42526.99
632.396	42521.34
632.75	42346.65
633.104	42519.31
633.459	42354.79
633.813	42308.69
634.167	42369.03
634.521	42467.1
634.875	42501
635.229	42437.5
635.583	42240.44
635.937	42381
636.291	42285.19
636.645	42215.13
636.999	42243.38
637.352	42499.87
637.706	42160.45
638.06	42394.11
638.413	42444.28
638.767	42281.35
639.121	42341.68
639.474	42118.19
639.828	42202.93
640.181	42230.27
640.534	42295.58
640.888	42099.43
641.241	42087.45
641.594	42171.74
641.947	42225.3
642.301	42087.9
642.654	42164.74
643.007	42117.28
643.36	42192.76
643.713	41982.6
644.066	42216.94
644.419	41830.51
644.771	41664.86
645.124	41311.65
645.477	41219.9
645.83	40986.01
646.182	40942.85
646.535	40906.01
646.888	40868.28
647.24	40620.82
647.593	40920.48
647.945	40890.65
648.298	40683.65
648.65	40612.01
649.002	40646.36
649.355	40646.36
649.707	40705.34
650.059	40866.47
650.411	41370.18
650.763	41230.75
651.115	41653.79
651.467	41561.14
651.819	41613.34
652.171	41547.35
652.523	41365.89
652.875	41341.03
653.227	41146.23
653.578	41479.33
653.93	41446.34
654.282	41240.47
654.633	41104.88
654.985	41265.78
655.337	41230.75
655.688	41390.97
656.039	41494.7
656.391	41129.29
656.742	41188.04
657.094	41179
657.445	41330.41
657.796	41159.79
658.147	41046.58
658.498	41141.49
658.849	41032.34
659.2	41118.44
659.551	40991.89
659.902	41215.16
660.253	41175.16
660.604	41106.69
660.955	40999.57
661.306	41186.91
661.656	40983.07
662.007	40987.82
662.358	40946.24
662.708	41036.18
663.059	41049.29
663.409	40699.69
663.76	40938.1
664.11	41009.97
664.461	40979.01
664.811	40948.95
665.161	40873.25
665.511	40940.82
665.862	40960.48
666.212	40992.57
666.562	41163.41
666.912	40885
667.262	40914.83
667.612	40843.64
667.962	40881.61
668.312	40903.98
668.662	41000.7
669.011	40928.84
669.361	40854.49
669.711	40883.64
670.06	40892.91
670.41	40694.49
670.76	40704.66
671.109	40846.81
671.459	40806.81
671.808	40636.87
672.157	40800.48
672.507	40456.08
672.856	40522.3
673.205	40643.87
673.554	40603.2
673.904	40456.54
674.253	40648.85
674.602	40649.07
674.951	39988.75
675.3	39837.57
675.649	40438.23
675.998	40339.93
676.346	40444.56
676.695	40529.53
677.044	40175.64
677.393	40220.61
677.741	40378.12
678.09	40310.55
678.438	40134.28
678.787	40302.41
679.135	40243.89
679.484	40043.89
679.832	40224.45
680.181	39903.33
680.529	40112.82
680.877	40064.46
681.225	39937.45
681.573	40211.34
681.922	39796.67
682.27	39720.06
682.618	39694.52
682.966	39631.7
683.314	39771.13
683.661	39649.78
684.009	39492.04
684.357	39346.51
684.705	39316.9
685.053	39335.89
685.4	39294.98
685.748	39139.73
686.095	39027.42
686.443	38865.39
686.79	38796.24
687.138	39110.13
687.485	38950.36
687.832	38808.44
688.18	38855.9
688.527	38556.47
688.874	38633.08
689.221	38621.56
689.568	38439.64
689.915	38325.52
690.262	38284.61
690.609	38257.72
690.956	38102.25
691.303	38036.71
691.65	38014.57
691.997	37875.13
692.344	37673.56
692.69	37681.69
693.037	37629.04
693.383	37417.97
693.73	37427.69
694.077	37222.95
694.423	37309.5
694.769	37038.77
695.116	37043.74
695.462	37008.94
695.808	36904.76
696.155	36932.33
696.501	36735.05
696.847	36879.45
697.193	36502.97
697.539	36563.53
697.885	36332.12
698.231	36209.64
698.577	36146.14
698.923	36100.27
699.269	36033.15
699.614	35902.76
699.96	35728.75
700.306	35883.77
700.651	35621.18
700.997	35511.35
701.342	35533.73
701.688	35371.7
702.033	35303.22
702.379	35363.11
702.724	35138.93
703.069	35244.02
703.415	34837.02
703.76	34940.07
704.105	34836.34
704.45	34768.55
704.795	34600.42
705.14	34393.19
705.485	34477.03
705.83	34309.8
706.175	34371.05
706.52	34188.68
706.865	34087.66
707.209	33980.55
707.554	33883.15
707.899	34102.13
708.243	33936.93
708.588	33865.97
708.932	33533.55
709.277	33629.6
709.621	33505.98
709.966	33398.42
710.31	33400
710.654	33230.06
710.998	33328.59
711.342	33219.21
711.687	33094.47
712.031	32994.36
712.375	32817.64
712.719	32939.22
713.063	32832.33
713.407	32930.41
713.75	32671.88
714.094	32726.57
714.438	32514.82
714.782	32598.66
715.125	32478.89
715.469	32440.02
715.812	32281.61
716.156	32091.11
716.499	32260.14
716.843	32173.82
717.186	31935.4
717.53	32230.76
717.873	32085.68
718.216	32008.62
718.559	31907.83
718.902	31641.85
719.246	31819.93
719.589	31677.33
719.932	31629.42
720.275	31518.69
720.617	31458.13
720.96	31431.01
721.303	31473.04
721.646	31388.3
721.989	31162.99
722.331	31232.37
722.674	31181.75
723.016	31215.87
723.359	31197.8
723.701	31115.76
724.044	30957.58
724.386	30783.34
724.729	30898.59
725.071	30848.65
725.413	30818.82
725.755	30798.03
726.097	30721.42
726.439	30409.79
726.782	30650.01
727.124	30677.81
727.465	30513.52
727.807	30494.09
728.149	30308.1
728.491	30337.93
728.833	30432.84
729.175	30334.99
729.516	30140.42
729.858	30107.65
730.199	30103.36
730.541	30120.54
730.882	29954.89
731.224	30220.42
731.565	29986.98
731.906	29928
732.248	29960.77
732.589	29885.97
732.93	29698.17
733.271	29796.7
733.612	29821.56
733.953	29737.72
734.294	29581.57
734.635	29578.86
734.976	29560.78
735.317	29452.98
735.658	29561.45
735.999	29520.55
736.339	29254.34
736.68	29399.42
737.021	29305.64
737.361	29213.21
737.702	29302.7
738.042	29218.41
738.383	29170.96
738.723	29164.18
739.063	29029.26
739.404	29078.98
739.744	29081.24
740.084	28832.66
740.424	29009.83
740.764	28848.7
741.104	28909.95
741.444	28735.49
741.784	28649.84
742.124	28864.98
742.464	28586.34
742.804	28551.09
743.143	28524.42
743.483	28597.86
743.823	28337.76
744.162	28432.67
744.502	28490.07
744.841	28434.7
745.181	28461.82
745.52	28364.2
745.86	28331.88
746.199	28300.7
746.538	28214.82
746.877	28264.09
747.216	28253.69
747.556	28171.21
747.895	28251.66
748.234	28067.48
748.573	27988.16
748.911	27966.92
749.25	27960.14
749.589	27810.31
749.928	27860.71
750.267	27793.59
750.605	27712.69
750.944	27758.79
751.283	27636.08
751.621	27685.8
751.96	27535.07
752.298	27481.28
752.636	27575.29
752.975	27357.44
753.313	27267.5
753.651	27386.82
753.989	27215.08
754.327	27182.76
754.666	27043.1
755.004	27132.37
755.342	27199.26
755.679	27029.54
756.017	26952.71
756.355	27053.5
756.693	26844.01
757.031	26853.95
757.368	26671.13
757.706	26612.15
758.044	26606.05
758.381	26738.7
758.719	26594.53
759.056	26486.51
759.394	26508.43
759.731	26378.94
760.068	26329.67
760.405	26310.92
760.743	26097.14
761.08	26193.41
761.417	26024.82
761.754	25981.66
762.091	25981.21
762.428	25846.75
762.765	25748.45
763.102	25793.42
763.438	25568.11
763.775	25620.99
764.112	25558.17
764.449	25636.81
764.785	25377.61
765.122	25193.66
765.458	25116.15
765.795	25170.84
766.131	25098.75
766.467	25098.97
766.804	24849.04
767.14	24818.08
767.476	24781.02
767.812	24604.75
768.148	24617.18
768.485	24609.04
768.821	24475.94
769.157	24281.82
769.492	24289.5
769.828	24306.9
770.164	24089.06
770.5	24033.24
770.836	23977.65
771.171	23897.42
771.507	23813.58
771.842	23631.21
772.178	23634.15
772.513	23601.16
772.849	23457.21
773.184	23442.52
773.519	23413.37
773.855	23275.07
774.19	23181.96
774.525	23034.62
774.86	23036.65
775.195	23053.38
775.53	22941.74
775.865	22754.63
776.2	22685.7
776.535	22519.83
776.87	22522.09
777.205	22405.48
777.539	22359.16
777.874	22381.98
778.209	22243
778.543	22164.13
778.878	21986.51
779.212	21993.07
779.547	21890.92
779.881	21963.46
780.215	21702.23
780.55	21760.53
780.884	21516.69
781.218	21545.39
781.552	21474.66
781.886	21389.47
782.22	21324.16
782.554	21110.83
782.888	21041.68
783.222	20940.66
783.556	20789.93
783.889	20862.25
784.223	20582.03
784.557	20597.62
784.89	20728.47
785.224	20518.08
785.557	20516.49
785.891	20357.4
786.224	20457.51
786.558	20344.07
786.891	20116.96
787.224	20108.6
787.557	20054.59
787.891	20084.87
788.224	19958.32
788.557	19870.86
788.89	19958.77
789.223	19763.52
789.556	19704.31
789.888	19647.59
790.221	19525.79
790.554	19440.82
790.887	19373.7
791.219	19358.33
791.552	19278.56
791.884	19163.76
792.217	19108.85
792.549	19144.33
792.882	18932.36
793.214	18872.47
793.546	18830.44
793.879	18756.99
794.211	18647.39
794.543	18756.77
794.875	18646.71
795.207	18667.73
795.539	18538.24
795.871	18526.04
796.203	18350.45
796.535	18310.68
796.867	18305.48
797.198	18231.36
797.53	18133.96
797.862	18108.65
798.193	17996.56
798.525	18018.93
798.856	17942.32
799.188	17838.15
799.519	17735.78
799.85	17692.84
800.182	17641.77
800.513	17667.08
800.844	17433.64
801.175	17578.94
801.506	17446.52
801.837	17375.56
802.168	17368.78
802.499	17351.15
802.83	17178.73
803.161	17163.14
803.491	17187.09
803.822	17245.17
804.153	17050.6
804.483	16786.42
804.814	16928.11
805.145	16830.26
805.475	16816.7
805.805	16779.64
806.136	16775.35
806.466	16804.95
806.796	16634.11
807.126	16487.45
807.457	16454.23
807.787	16558.86
808.117	16458.75
808.447	16366.32
808.777	16415.13
809.107	16277.96
809.436	16280.9
809.766	16269.6
810.096	16231.86
810.426	16098.76
810.755	16115.93
811.085	16090.17
811.414	16035.48
811.744	15946.22
812.073	15981.92
812.403	15924.98
812.732	15789.16
813.061	15801.14
813.39	15700.8
813.719	15667.58
814.049	15837.52
814.378	15672.1
814.707	15591.2
815.036	15564.31
815.365	15408.38
815.693	15351.88
816.022	15419
816.351	15354.82
816.68	15337.65
817.008	15328.16
817.337	15105.79
817.665	15049.29
817.994	15112.12
818.322	15129.97
818.651	15067.37
818.979	15015.62
819.307	15090.2
819.636	15087.03
819.964	14923.42
820.292	14963.42
820.62	14930.43
820.948	14821.05
821.276	14839.81
821.604	14872.35
821.932	14869.41
822.259	14928.39
822.587	14881.84
822.915	14794.61
823.243	14842.97
823.57	14774.27
823.898	14847.49
824.225	14747.38
824.553	14716.65
824.88	14794.39
825.207	14793.48
825.535	14784.67
825.862	14784.44
826.189	14704.67
826.516	14771.33
826.843	14797.32
827.17	14795.74
827.497	14785.57
827.824	14786.93
828.151	14780.15
828.478	14700.15
828.805	14737.21
829.131	14777.66
829.458	14736.08
829.785	14638.91
830.111	14704.67
830.438	14774.95
830.764	14735.63
831.09	14749.64
831.417	14663.54
831.743	14659.93
832.069	14743.99
832.395	14660.15
832.722	14721.39
833.048	14655.63
833.374	14654.05
833.7	14548.74
834.026	14579.93
834.351	14558.68
834.677	14554.62
835.003	14631.23
835.329	14612.47
835.654	14546.71
835.98	14529.53
836.306	14451.57
836.631	14458.35
836.956	14495.41
837.282	14428.52
837.607	14323.89
837.932	14425.58
838.258	14264
838.583	14372.02
838.908	14288.86
839.233	14306.94
839.558	14289.31
839.883	14232.59
840.208	14202.08
840.533	14170.45
840.858	14281.86
841.182	14202.99
841.507	14199.15
841.832	14119.15
842.156	14055.2
842.481	14015.2
842.805	13863.11
843.13	14023.78
843.454	13954.18
843.778	13948.08
844.103	13905.14
844.427	13783.34
844.751	13841.87
845.075	13639.84
845.399	13719.61
845.723	13647.07
846.047	13652.04
846.371	13582.67
846.695	13562.78
847.019	13441.88
847.343	13354.42
847.666	13302.9
847.99	13276.23
848.313	13303.8
848.637	13120.53
848.96	13137.48
849.284	13071.94
849.607	13016.8
849.931	12943.81
850.254	12868.79
850.577	12894.77
850.9	12737.49
851.223	12763.93
851.546	12601.45
851.869	12618.17
852.192	12648
852.515	12560.32
852.838	12525.07
853.161	12505.63
853.483	12475.35
853.806	12376.6
854.129	12345.64
854.451	12289.14
854.774	12338.4
855.096	12189.48
855.419	12153.55
855.741	12132.53
856.063	12060.9
856.385	11984.97
856.708	11942.71
857.03	11927.34
857.352	11949.49
857.674	11896.38
857.996	11918.3
858.318	11761.7
858.64	11869.72
858.961	11722.38
859.283	11693.68
859.605	11737.29
859.926	11708.36
860.248	11616.62
860.57	11622.04
860.891	11607.35
861.212	11532.1
861.534	11518.09
861.855	11453.68
862.176	11462.72
862.498	11428.6
862.819	11469.05
863.14	11351.99
863.461	11410.97
863.782	11286.23
864.103	11305.44
864.424	11306.79
864.745	11340.24
865.065	11271.77
865.386	11202.84
865.707	11272.22
866.027	11167.59
866.348	11159.9
866.668	11141.15
866.989	11155.61
867.309	11083.07
867.63	11090.53
867.95	11063.18
868.27	10929.63
868.59	11025.44
868.91	11001.04
869.23	10961.94
869.55	10945.9
869.87	11064.31
870.19	11015.05
870.51	10946.35
870.83	11018.44
871.15	10895.73
871.469	10848.5
871.789	10869.74
872.109	10807.37
872.428	10806.24
872.748	10876.97
873.067	10793.36
873.386	10821.61
873.706	10760.59
874.025	10729.63
874.344	10734.38
874.663	10720.82
874.982	10699.35
875.301	10678.56
875.62	10653.02
875.939	10538.9
876.258	10641.95
876.577	10524.67
876.896	10531.9
877.214	10561.95
877.533	10526.02
877.852	10557.43
878.17	10487.15
878.489	10587.26
878.807	10506.59
879.125	10473.37
879.444	10477.44
879.762	10403.09
880.08	10429.75
880.398	10296.88
880.716	10414.61
881.034	10356.54
881.352	10351.11
881.67	10302.75
881.988	10320.83
882.306	10224.79
882.624	10255.75
882.941	10238.57
883.259	10185.69
883.577	10111.12
883.894	10163.32
884.212	10121.06
884.529	10147.73
884.846	10012.36
885.164	10084.23
885.481	9977.11
885.798	10020.5
886.115	9996.09
886.432	9982.76
886.75	9905.93
887.067	9893.04
887.383	9879.03
887.7	9820.28
888.017	9775.76
888.334	9881.07
888.651	9737.12
888.967	9802.88
889.284	9729.43
889.6	9698.02
889.917	9616.22
890.233	9671.13
890.55	9583.22
890.866	9590.68
891.182	9578.25
891.498	9519.95
891.815	9498.25
892.131	9454.64
892.447	9464.13
892.763	9444.92
893.079	9409.22
893.395	9381.42
893.71	9358.37
894.026	9341.42
894.342	9256.23
894.657	9239.95
894.973	9199.28
895.289	9227.3
895.604	9169.22
895.92	9097.81
896.235	9086.74
896.55	9089.9
896.865	9068.89
897.181	9034.08
897.496	9069.79
897.811	8944.37
898.126	8963.8
898.441	8919.74
898.756	8918.61
899.071	8836.35
899.386	8803.81
899.7	8692.4
900.015	8760.87
900.33	8711.83
900.644	8700.31
900.959	8686.97
901.273	8583.47
901.588	8553.19
901.902	8595
902.216	8589.35
902.531	8487.88
902.845	8489.24
903.159	8467.32
903.473	8347.32
903.787	8391.84
904.101	8351.39
904.415	8250.15
904.729	8283.6
905.042	8265.97
905.356	8212.41
905.67	8159.08
905.984	8239.08
906.297	8089.25
906.611	8062.58
906.924	8078.63
907.237	8024.17
907.551	7984.39
907.864	7979.42
908.177	7952.53
908.491	7941.46
908.804	7861.46
909.117	7823.27
909.43	7822.59
909.743	7755.93
910.056	7797.05
910.368	7694.46
910.681	7647.68
910.994	7617.4
911.307	7593.67
911.619	7518.87
911.932	7600
912.244	7533.33
912.557	7487.68
912.869	7458.76
913.181	7396.39
913.494	7374.69
913.806	7347.35
914.118	7313.45
914.43	7305.77
914.742	7312.77
915.054	7264.41
915.366	7240.69
915.678	7193.68
915.99	7180.12
916.302	7170.63
916.613	7084.53
916.925	7112.33
917.236	7001.82
917.548	7005.89
917.859	7022.16
918.171	6945.1
918.482	6956.4
918.794	6889.28
919.105	6868.04
919.416	6827.14
919.727	6832.79
920.038	6789.62
920.349	6752.56
920.66	6709.85
920.971	6687.25
921.282	6676.41
921.593	6637.09
921.903	6616.29
922.214	6556.41
922.525	6572.45
922.835	6573.81
923.146	6470.54
923.456	6435.06
923.767	6458.78
924.077	6445.9
924.387	6463.3
924.697	6448.62
925.008	6388.5
925.318	6345.12
925.628	6300.6
925.938	6327.94
926.248	6224.21
926.558	6171.33
926.867	6178.34
927.177	6137.89
927.487	6107.16
927.796	6073.48
928.106	6068.96
928.416	6015.86
928.725	5995.97
929.034	6000.72
929.344	6011.34
929.653	6009.53
929.962	5911.45
930.271	5924.56
930.581	5836.65
930.89	5910.78
931.199	5779.71
931.508	5799.14
931.817	5772.7
932.125	5702.42
932.434	5731.35
932.743	5652.48
933.051	5663.1
933.36	5632.14
933.669	5616.32
933.977	5572.03
934.286	5577.45
934.594	5554.85
934.902	5572.25
935.21	5466.27
935.519	5492.71
935.827	5444.12
936.135	5438.25
936.443	5382.66
936.751	5364.35
937.059	5374.97
937.367	5359.38
937.674	5347.63
937.982	5297.46
938.29	5294.07
938.597	5303.34
938.905	5210.91
939.213	5187.86
939.52	5200.06
939.827	5175.2
940.135	5137.92
940.442	5090.69
940.749	5102.66
941.056	5107.86
941.363	5114.64
941.67	5032.61
941.977	5003.46
942.284	4950.8
942.591	4970.24
942.898	4883.69
943.205	4917.36
943.511	4873.52
943.818	4854.31
944.125	4830.58
944.431	4831.26
944.738	4804.37
945.044	4796.68
945.35	4742.22
945.657	4713.52
945.963	4675.78
946.269	4676.46
946.575	4692.05
946.881	4666.06
947.187	4635.1
947.493	4640.75
947.799	4608.21
948.105	4631.49
948.41	4566.41
948.716	4567.76
949.022	4521.89
949.327	4496.8
949.633	4455.67
949.938	4457.93
950.244	4427.65
950.549	4442.11
950.854	4433.98
951.16	4344.26
951.465	4378.16
951.77	4330.03
952.075	4327.77
952.38	4306.98
952.685	4290.03
952.99	4233.98
953.294	4259.29
953.599	4250.71
953.904	4200.09
954.209	4235.79
954.513	4187.21
954.818	4161.44
955.122	4170.71
955.426	4174.33
955.731	4106.08
956.035	4105.85
956.339	4095.46
956.643	4054.1
956.948	4066.08
957.252	4052.97
957.556	4044.84
957.86	3994.44
958.163	4019.3
958.467	3978.4
958.771	3908.57
959.075	3945.18
959.378	3919.87
959.682	3909.93
959.985	3900.43
960.289	3879.87
960.592	3840.55
960.896	3835.58
961.199	3779.76
961.502	3819.08
961.805	3763.71
962.108	3738.18
962.411	3722.36
962.714	3711.96
963.017	3702.02
963.32	3676.49
963.623	3641.23
963.926	3657.5
964.228	3586.77
964.531	3613.44
964.833	3590.39
965.136	3592.87
965.438	3573.89
965.741	3538.18
966.043	3553.32
966.345	3554.91
966.648	3521.46
966.95	3544.74
967.252	3494.12
967.554	3482.37
967.856	3491.86
968.158	3414.12
968.46	3445.53
968.761	3417.06
969.063	3426.55
969.365	3423.16
969.666	3389.94
969.968	3352.2
970.269	3359.88
970.571	3316.04
970.872	3309.26
971.174	3309.72
971.475	3253.22
971.776	3261.81
972.077	3282.15
972.378	3232.43
972.679	3197.63
972.98	3222.71
973.281	3184.75
973.582	3162.6
973.883	3167.8
974.183	3154.69
974.484	3169.83
974.785	3104.75
975.085	3127.57
975.386	3121.7
975.686	3111.3
975.986	3020.91
976.287	3042.38
976.587	3036.28
976.887	3036.5
977.187	2996.96
977.487	3008.93
977.787	2985.88
978.087	2967.8
978.387	2951.98
978.687	2966
978.987	2960.12
979.286	2955.6
979.586	2916.51
979.885	2862.72
980.185	2874.47
980.484	2844.19
980.784	2829.73
981.083	2840.35
981.382	2837.41
981.682	2822.72
981.981	2807.13
982.28	2822.95
982.579	2766.23
982.878	2761.03
983.177	2762.16
983.475	2781.37
983.774	2767.81
984.073	2710.41
984.372	2682.61
984.67	2709.96
984.969	2697.08
985.267	2667.7
985.566	2680.35
985.864	2673.57
986.162	2610.07
986.461	2640.35
986.759	2650.3
987.057	2627.93
987.355	2615.72
987.653	2579.34
987.951	2588.15
988.249	2577.98
988.547	2584.31
988.844	2556.06
989.142	2528.04
989.44	2504.54
989.737	2518.32
990.035	2501.15
990.332	2477.42
990.63	2513.35
990.927	2450.08
991.224	2425.9
991.521	2435.16
991.819	2424.99
992.116	2442.85
992.413	2372.56
992.71	2399.91
993.006	2347.93
993.303	2377.76
993.6	2338.44
993.897	2366.46
994.193	2343.19
994.49	2306.13
994.787	2313.13
995.083	2301.15
995.379	2295.28
995.676	2281.49
995.972	2267.48
996.268	2269.29
996.565	2262.96
996.861	2222.96
997.157	2217.09
997.453	2206.69
997.749	2196.75
998.044	2182.74
998.34	2181.16
998.636	2183.42
998.932	2137.77
999.227	2153.59
999.523	2129.41
999.818	2102.52
1000.114	2088.28
1000.409	2112.68
1000.704	2102.52
1001	2067.26
1001.295	2045.79
1001.59	2042.63
1001.885	2068.39
1002.18	2013.7
1002.475	2022.07
1002.77	1993.14
1003.065	2038.56
1003.359	2019.35
1003.654	1988.17
1003.949	1965.12
1004.243	1944.1
1004.538	1987.49
1004.832	1958.34
1005.127	1928.06
1005.421	1935.74
1005.715	1893.93
1006.009	1888.28
1006.304	1895.29
1006.598	1889.64
1006.892	1866.36
1007.186	1842.86
1007.48	1862.07
1007.773	1880.37
1008.067	1836.31
1008.361	1818.23
1008.655	1823.88
1008.948	1803.77
1009.242	1793.37
1009.535	1798.12
1009.829	1757.44
1010.122	1736.65
1010.415	1792.02
1010.708	1725.12
1011.001	1718.34
1011.295	1732.13
1011.588	1712.92
1011.881	1713.82
1012.173	1704.79
1012.466	1686.93
1012.759	1676.31
1013.052	1672.24
1013.344	1637.44
1013.637	1681.96
1013.93	1644.45
1014.222	1627.27
1014.514	1630.21
1014.807	1596.99
1015.099	1580.72
1015.391	1622.75
1015.683	1577.56
1015.976	1568.97
1016.268	1551.12
1016.56	1529.88
1016.851	1548.86
1017.143	1523.1
1017.435	1521.29
1017.727	1506.82
1018.018	1545.47
1018.31	1495.75
1018.602	1526.26
1018.893	1485.13
1019.185	1450.56
1019.476	1465.47
1019.767	1458.01
1020.058	1444.45
1020.35	1417.34
1020.641	1441.29
1020.932	1401.97
1021.223	1406.71
1021.514	1397.68
1021.804	1369.43
1022.095	1352.93
1022.386	1371.91
1022.677	1373.04
1022.967	1389.31
1023.258	1333.72
1023.548	1343.44
1023.839	1325.36
1024.129	1327.62
1024.419	1315.64
1024.709	1286.27
1025	1281.52
1025.29	1278.13
1025.58	1282.88
1025.87	1247.85
1026.16	1271.58
1026.449	1254.63
1026.739	1237.91
1027.029	1250.79
1027.319	1228.19
1027.608	1230.67
1027.898	1198.13
1028.187	1201.97
1028.477	1175.76
1028.766	1177.12
1029.055	1183.44
1029.344	1166.95
1029.634	1190.9
1029.923	1158.81
1030.212	1122.2
1030.501	1136.67
1030.79	1130.79
1031.078	1120.39
1031.367	1098.02
1031.656	1096.67
1031.945	1120.85
1032.233	1102.32
1032.522	1094.18
1032.81	1062.99
1033.099	1086.27
1033.387	1082.2
1033.675	1060.73
1033.963	1075.42
1034.251	1042.66
1034.54	1020.74
1034.828	1034.07
1035.116	1015.54
1035.403	1043.33
1035.691	1018.25
1035.979	1000.17
1036.267	1035.42
1036.554	996.33
1036.842	971.47
1037.129	985.48
1037.417	970.12
1037.704	971.7
1037.992	974.41
1038.279	952.94
1038.566	939.16
1038.853	939.16
1039.14	939.16
