Data from hue_310_FLMS001491_96.txt Node
Date: Mon Feb 06 15:50:29 GMT 2017
User: dcchb
Spectrometer: FLMS00149
Trigger mode: 0
Integration Time (sec): 2.000000E-2
Scans to average: 10
Electric dark correction enabled: true
Nonlinearity correction enabled: false
Boxcar width: 0
XAxis mode: Wavelengths
Number of Pixels in Spectrum: 2048
>>>>>Begin Spectral Data<<<<<
341.393	-9.01
341.776	-9.01
342.16	-9.01
342.543	-65.51
342.927	-79.52
343.31	-81.1
343.693	-78.16
344.077	-52.17
344.46	-49.91
344.843	-51.04
345.226	-34.55
345.61	-41.1
345.993	-18.73
346.376	-16.69
346.759	9.29
347.142	22.85
347.525	52
347.908	37.32
348.291	84.77
348.674	91.33
349.057	125.9
349.44	119.12
349.823	150.53
350.206	163.19
350.588	194.6
350.971	219.23
351.354	200.93
351.737	240.25
352.119	255.84
352.502	284.99
352.884	296.52
353.267	266.69
353.65	305.1
354.032	288.61
354.414	288.16
354.797	302.17
355.179	329.29
355.562	335.84
355.944	327.25
356.326	349.4
356.709	338.55
357.091	351.21
357.473	336.29
357.855	346.23
358.238	336.74
358.62	333.8
359.002	342.17
359.384	333.58
359.766	334.26
360.148	335.84
360.53	345.33
360.912	336.74
361.294	347.82
361.676	332.67
362.057	327.48
362.439	314.82
362.821	315.27
363.203	325.67
363.584	324.99
363.966	321.6
364.348	322.51
364.729	315.27
365.111	321.83
365.493	311.88
365.874	312.34
366.256	330.87
366.637	320.92
367.019	312.11
367.4	324.99
367.781	328.61
368.163	320.47
368.544	293.35
368.925	318.21
369.306	323.41
369.688	315.73
370.069	328.61
370.45	297.65
370.831	306.01
371.212	302.17
371.593	308.72
371.974	316.18
372.355	314.14
372.736	297.42
373.117	333.35
373.498	324.77
373.879	322.05
374.26	315.27
374.641	332.22
375.021	309.62
375.402	322.05
375.783	323.64
376.163	334.48
376.544	342.84
376.925	330.87
377.305	329.06
377.686	315.73
378.066	332.9
378.447	313.24
378.827	339.45
379.208	315.27
379.588	312.11
379.968	320.7
380.349	368.15
380.729	350.08
381.109	334.93
381.489	342.17
381.87	333.35
382.25	348.27
382.63	325.44
383.01	354.14
383.39	348.72
383.77	343.97
384.15	355.27
384.53	355.27
384.91	330.87
385.29	354.82
385.67	340.36
386.049	354.82
386.429	346.46
386.809	353.47
387.189	347.36
387.568	353.92
387.948	359.57
388.328	383.07
388.707	365.22
389.087	364.31
389.466	352.34
389.846	372.22
390.225	368.38
390.605	360.92
390.984	386.91
391.363	389.17
391.743	358.89
392.122	386.91
392.501	373.13
392.881	388.49
393.26	397.76
393.639	380.58
394.018	376.52
394.397	380.58
394.776	393.01
395.155	390.98
395.534	382.62
395.913	391.2
396.292	391.2
396.671	406.8
397.05	414.48
397.429	396.18
397.808	401.83
398.186	393.46
398.565	396.4
398.944	415.84
399.323	402.05
399.701	413.12
400.08	403.41
400.458	408.15
400.837	423.29
401.215	408.83
401.594	413.58
401.972	412.45
402.351	417.87
402.729	426.68
403.107	441.37
403.486	427.14
403.864	450.86
404.242	423.97
404.62	441.82
404.999	445.89
405.377	452.22
405.755	452.45
406.133	465.1
406.511	441.82
406.889	445.44
407.267	483.18
407.645	477.76
408.023	469.62
408.401	464.42
408.779	477.08
409.156	499.22
409.534	480.47
409.912	503.97
410.29	504.42
410.667	524.76
411.045	511.65
411.422	497.19
411.8	530.41
412.178	525.89
412.555	550.75
412.933	548.49
413.31	575.83
413.687	576.96
414.065	572.89
414.442	592.33
414.819	596.17
415.197	614.02
415.574	597.98
415.951	613.12
416.328	618.09
416.705	625.32
417.082	633.46
417.46	641.14
417.837	626.23
418.214	636.17
418.591	623.97
418.967	659.45
419.344	688.37
419.721	664.42
420.098	679.56
420.475	707.58
420.852	710.29
421.228	684.76
421.605	721.59
421.982	737.18
422.358	725.43
422.735	757.3
423.111	735.15
423.488	754.36
423.864	780.8
424.241	774.47
424.617	790.06
424.994	801.14
425.37	781.48
425.746	795.04
426.123	804.07
426.499	801.82
426.875	835.71
427.251	843.62
427.627	893.79
428.003	854.92
428.379	867.58
428.756	864.41
429.132	891.08
429.507	920
429.883	894.92
430.259	919.55
430.635	903.51
431.011	945.09
431.387	950.74
431.763	953.22
432.138	963.62
432.514	983.96
432.89	982.6
433.265	1016.5
433.641	1014.92
434.016	1028.7
434.392	1060.11
434.767	1044.52
435.143	1053.56
435.518	1053.79
435.894	1068.7
436.269	1089.04
436.644	1096.04
437.02	1113.67
437.395	1104.18
437.77	1140.34
438.145	1163.61
438.52	1158.42
438.895	1176.27
439.271	1178.75
439.646	1189.15
440.021	1201.35
440.395	1202.26
440.77	1203.84
441.145	1199.09
441.52	1228.92
441.895	1202.03
442.27	1214.01
442.645	1254.46
443.019	1240
443.394	1237.06
443.769	1247.45
444.143	1228.24
444.518	1256.27
444.892	1270.73
445.267	1267.57
445.641	1285.19
446.016	1279.09
446.39	1293.33
446.764	1304.85
447.139	1287.9
447.513	1300.11
447.887	1305.76
448.262	1319.99
448.636	1307.11
449.01	1294.23
449.384	1327
449.758	1333.33
450.132	1325.64
450.506	1354.57
450.88	1355.7
451.254	1358.64
451.628	1354.57
452.002	1376.49
452.376	1391.18
452.75	1377.39
453.123	1370.16
453.497	1425.53
453.871	1418.3
454.244	1443.83
454.618	1430.95
454.992	1477.28
455.365	1458.29
455.739	1472.53
456.112	1466.66
456.486	1484.28
456.859	1483.15
457.232	1518.41
457.606	1507.56
457.979	1509.14
458.352	1540.55
458.725	1549.37
459.099	1539.65
459.472	1544.85
459.845	1589.59
460.218	1584.17
460.591	1621.23
460.964	1586.65
461.337	1605.41
461.71	1647.44
462.083	1661.68
462.456	1668.23
462.829	1652.87
463.201	1694.67
463.574	1696.25
463.947	1733.32
464.32	1753.43
464.692	1743.94
465.065	1762.47
465.438	1775.12
465.81	1770.15
466.183	1776.03
466.555	1800.66
466.928	1819.42
467.3	1808.12
467.672	1853.31
468.045	1856.25
468.417	1922.01
468.789	1865.74
469.161	1890.37
469.534	1927.21
469.906	1971.5
470.278	1957.94
470.65	1949.36
471.022	1996.36
471.394	2027.55
471.766	2053.76
472.138	2056.47
472.51	2087.66
472.882	2110.03
473.253	2113.19
473.625	2120.2
473.997	2139.18
474.369	2150.93
474.74	2171.95
475.112	2226.86
475.484	2238.61
475.855	2236.13
476.227	2271.83
476.598	2322.68
476.97	2356.35
477.341	2368.1
477.713	2414.2
478.084	2377.37
478.455	2471.6
478.827	2479.06
479.198	2492.17
479.569	2461.88
479.94	2536.46
480.311	2565.84
480.682	2599.28
481.053	2646.96
481.424	2673.18
481.795	2667.08
482.166	2697.13
482.537	2738.71
482.908	2774.87
483.279	2777.81
483.65	2846.51
484.021	2837.92
484.391	2851.25
484.762	2891.25
485.133	2912.04
485.503	2974.41
485.874	2942.55
486.244	2999.5
486.615	3061.19
486.985	3058.7
487.356	3091.47
487.726	3126.95
488.097	3195.88
488.467	3161.53
488.837	3232.03
489.207	3265.71
489.578	3299.15
489.948	3331.47
490.318	3370.79
490.688	3332.37
491.058	3387.74
491.428	3463.67
491.798	3422.54
492.168	3500.73
492.538	3468.64
492.908	3518.13
493.278	3577.34
493.648	3568.97
494.017	3631.8
494.387	3650.33
494.757	3631.57
495.126	3653.72
495.496	3673.38
495.866	3676.99
496.235	3732.13
496.605	3728.74
496.974	3739.82
497.344	3780.04
497.713	3776.43
498.082	3807.39
498.452	3817.1
498.821	3853.71
499.19	3866.82
499.559	3841.96
499.928	3897.55
500.298	3918.57
500.667	3958.79
501.036	3975.29
501.405	3930.55
501.774	3962.41
502.143	3997.89
502.512	3987.49
502.88	4022.3
503.249	4050.32
503.618	4040.6
503.987	4034.95
504.356	4048.06
504.724	4064.33
505.093	4069.98
505.462	4090.32
505.83	4133.48
506.199	4156.98
506.567	4192.91
506.936	4185.68
507.304	4252.8
507.672	4194.72
508.041	4202.86
508.409	4248.73
508.777	4232.01
509.145	4310.42
509.514	4318.78
509.882	4294.6
510.25	4327.6
510.618	4326.69
510.986	4347.71
511.354	4374.15
511.722	4371.21
512.09	4379.12
512.458	4378.22
512.826	4414.15
513.193	4405.11
513.561	4396.97
513.929	4468.61
514.297	4490.53
514.664	4487.59
515.032	4485.56
515.4	4550.42
515.767	4505.67
516.135	4554.03
516.502	4460.02
516.869	4574.6
517.237	4582.05
517.604	4515.16
517.972	4616.18
518.339	4608.27
518.706	4593.58
519.073	4624.77
519.44	4603.3
519.808	4660.47
520.175	4669.96
520.542	4654.37
520.909	4706.8
521.276	4692.56
521.643	4700.24
522.009	4797.42
522.376	4772.78
522.743	4740.92
523.11	4809.17
523.477	4804.65
523.843	4858.21
524.21	4959.22
524.577	4884.42
524.943	4868.37
525.31	4950.86
525.676	4954.93
526.043	4977.07
526.409	5001.03
526.776	5077.18
527.142	5073.34
527.508	5075.6
527.874	5130.74
528.241	5159.67
528.607	5136.62
528.973	5193.79
529.339	5213
529.705	5237.18
530.071	5276.95
530.437	5281.47
530.803	5297.52
531.169	5307.91
531.535	5309.04
531.901	5331.64
532.267	5382.94
532.632	5410.73
532.998	5431.98
533.364	5450.51
533.73	5489.15
534.095	5500.22
534.461	5492.77
534.826	5501.13
535.192	5565.98
535.557	5606.66
535.923	5599.66
536.288	5623.84
536.653	5632.87
537.019	5674.68
537.384	5639.65
537.749	5667.9
538.114	5698.41
538.479	5728.01
538.845	5739.31
539.21	5745.19
539.575	5765.75
539.94	5814.34
540.305	5890.04
540.67	5855.24
541.034	5883.72
541.399	5907.9
541.764	5978.85
542.129	5924.39
542.494	5973.88
542.858	6015.01
543.223	6018.63
543.587	6092.98
543.952	6091.62
544.316	6127.32
544.681	6108.34
545.045	6157.15
545.41	6227.21
545.774	6208
546.138	6207.1
546.503	6250.03
546.867	6295.91
547.231	6289.35
547.595	6313.31
547.959	6280.54
548.324	6335.91
548.688	6417.03
549.052	6450.71
549.416	6472.4
549.779	6485.51
550.143	6486.64
550.507	6562.57
550.871	6517.37
551.235	6529.8
551.599	6573.19
551.962	6553.3
552.326	6575.9
552.689	6618.61
553.053	6589.23
553.417	6632.17
553.78	6691.15
554.143	6686.18
554.507	6735.44
554.87	6764.37
555.234	6813.41
555.597	6730.7
555.96	6760.98
556.323	6842.33
556.686	6851.15
557.05	6831.26
557.413	6818.83
557.776	6925.72
558.139	6873.29
558.502	6963.23
558.865	6889.56
559.228	6982.67
559.59	6948.32
559.953	6960.98
560.316	7055.21
560.679	7065.83
561.041	7141.76
561.404	7139.95
561.767	7155.77
562.129	7125.04
562.492	7167.07
562.854	7167.3
563.217	7180.18
563.579	7244.81
563.941	7299.05
564.304	7300.63
564.666	7350.12
565.028	7352.38
565.39	7400.06
565.753	7351.7
566.115	7370.68
566.477	7452.26
566.839	7466.05
567.201	7507.18
567.563	7501.3
567.925	7608.87
568.287	7535.88
568.648	7612.03
569.01	7653.61
569.372	7657
569.734	7659.04
570.095	7748.07
570.457	7730.9
570.819	7816.55
571.18	7771.12
571.542	7841.63
571.903	7883.44
572.265	7913.27
572.626	7994.85
572.987	8054.51
573.349	8088.86
573.71	8097.22
574.071	8113.49
574.432	8222.41
574.794	8303.54
575.155	8308.51
575.516	8371.11
575.877	8414.27
576.238	8504.89
576.599	8589.63
576.96	8605.45
577.32	8696.3
577.681	8750.53
578.042	8860.81
578.403	8914.37
578.763	9091.99
579.124	9080.92
579.485	9236.4
579.845	9314.59
580.206	9407.46
580.566	9466.45
580.927	9677.74
581.287	9802.03
581.648	9965.64
582.008	10061.91
582.368	10243.15
582.728	10370.6
583.089	10516.14
583.449	10714.32
583.809	10801.1
584.169	11089.23
584.529	11152.96
584.889	11527.86
585.249	11607.63
585.609	11725.82
585.969	12054.85
586.329	12230.89
586.688	12532.35
587.048	12729.19
587.408	12881.27
587.768	13124.43
588.127	13344.08
588.487	13584.76
588.846	14003.95
589.206	14115.36
589.565	14347.9
589.925	14699.75
590.284	14945.62
590.643	15175.67
591.003	15531.82
591.362	15850.68
591.721	16055.88
592.08	16282.09
592.44	16809.76
592.799	17025.57
593.158	17306.69
593.517	17541.94
593.876	17906.9
594.235	18215.14
594.593	18458.53
594.952	18885.41
595.311	19073.88
595.67	19500.53
596.029	19860.97
596.387	20082.44
596.746	20443.78
597.104	20641.97
597.463	20859.37
597.822	21362.4
598.18	21608.05
598.538	21855.95
598.897	22361.02
599.255	22432.66
599.613	22998.52
599.972	23143.83
600.33	23595.34
600.688	23755.11
601.046	24100.64
601.404	24462.66
601.762	24711.24
602.12	25077.79
602.478	25354.39
602.836	25607.49
603.194	25776.53
603.552	26011.77
603.91	26359.34
604.268	26569.5
604.625	26888.36
604.983	27267.11
605.341	27423.04
605.698	27756.81
606.056	28018.5
606.413	28310.24
606.771	28607.86
607.128	28681.08
607.485	28905.93
607.843	29133.27
608.2	29611.68
608.557	29860.49
608.914	30036.75
609.272	30266.35
609.629	30561.71
609.986	30759.9
610.343	30945.66
610.7	31206.44
611.057	31507.45
611.414	31523.04
611.771	31856.59
612.127	32154.89
612.484	32216.81
612.841	32488.44
613.198	32566.63
613.554	32693.18
613.911	33014.53
614.267	33246.61
614.624	33369.55
614.98	33605.47
615.337	33945.35
615.693	34010.66
616.05	34062.41
616.406	34497.65
616.762	34499.46
617.118	34603.64
617.475	34699.91
617.831	34822.16
618.187	35146.22
618.543	35194.81
618.899	35504.63
619.255	35500.34
619.611	35728.13
619.967	35935.58
620.323	35970.16
620.678	36065.97
621.034	36107.1
621.39	36133.77
621.746	36210.6
622.101	36694.88
622.457	36541.21
622.812	36644.71
623.168	36864.14
623.523	36929.45
623.879	37134.87
624.234	37063.46
624.589	37318.14
624.945	37446.05
625.3	37538.7
625.655	37544.8
626.01	37649.89
626.365	37825.47
626.72	37850.78
627.075	37834.29
627.43	37934.85
627.785	37842.42
628.14	38031.34
628.495	38110.44
628.85	38105.92
629.205	38107.05
629.559	38238.12
629.914	38211.68
630.269	38198.12
630.623	38197.22
630.978	38264.11
631.332	38394.05
631.687	38489.19
632.041	38378.23
632.396	38448.28
632.75	38356.76
633.104	38517.21
633.459	38365.8
633.813	38578.9
634.167	38457.55
634.521	38413.93
634.875	38533.25
635.229	38446.93
635.583	38394.72
635.937	38446.93
636.291	38408.28
636.645	38528.28
636.999	38521.73
637.352	38687.15
637.706	38388.17
638.06	38566.02
638.413	38495.51
638.767	38481.28
639.121	38638.79
639.474	38418
639.828	38366.7
640.181	38304.11
640.534	38488.06
640.888	38491.9
641.241	38305.69
641.594	38448.06
641.947	38543.65
642.301	38502.74
642.654	38498
643.007	38516.3
643.36	38321.51
643.713	38277.89
644.066	38490.99
644.419	38167.39
644.771	38029.54
645.124	37679.94
645.477	37619.38
645.83	37530.34
646.182	37320.63
646.535	37267.75
646.888	37295.77
647.24	37163.57
647.593	37202.89
647.945	37221.42
648.298	37129.9
648.65	37128.54
649.002	37060.07
649.355	37173.06
649.707	37127.41
650.059	37360.85
650.411	37710
650.763	37707.74
651.115	38041.06
651.467	37945.7
651.819	37988.18
652.171	37898.69
652.523	37841.07
652.875	37791.8
653.227	37758.36
653.578	38091
653.93	38014.4
654.282	37785.7
654.633	37621.19
654.985	37786.83
655.337	37812.59
655.688	37814.4
656.039	37971.69
656.391	37582.54
656.742	37724.23
657.094	37618.7
657.445	37700.96
657.796	37709.09
658.147	37612.15
658.498	37648.76
658.849	37731.92
659.2	37575.31
659.551	37609.21
659.902	37727.85
660.253	37542.32
660.604	37757.91
660.955	37475.88
661.306	37676.33
661.656	37690.11
662.007	37590.23
662.358	37494.41
662.708	37668.87
663.059	37467.74
663.409	37350.23
663.76	37728.3
664.11	37637.46
664.461	37560.4
664.811	37594.52
665.161	37604.01
665.511	37476.33
665.862	37573.96
666.212	37668.87
666.562	37505.71
666.912	37556.33
667.262	37428.42
667.612	37591.81
667.962	37497.8
668.312	37481.98
668.662	37615.54
669.011	37554.07
669.361	37369.44
669.711	37315.21
670.06	37254.42
670.41	37288.54
670.76	37203.12
671.109	37552.04
671.459	37420.29
671.808	37263.46
672.157	37304.36
672.507	37091.93
672.856	37096.91
673.205	37283.57
673.554	37377.8
673.904	37254.87
674.253	37383.9
674.602	37292.61
674.951	36737.59
675.3	36578.73
675.649	37234.53
675.998	37158.15
676.346	37216
676.695	37281.53
677.044	36928.77
677.393	37112.95
677.741	37142.55
678.09	37036.34
678.438	36953.63
678.787	37028.43
679.135	36997.7
679.484	36874.31
679.832	36965.84
680.181	36725.62
680.529	36901.88
680.877	36696.46
681.225	36596.35
681.573	36944.37
681.922	36606.07
682.27	36477.04
682.618	36486.07
682.966	36397.94
683.314	36541.21
683.661	36440.43
684.009	36271.16
684.357	36189.81
684.705	36164.28
685.053	36188.91
685.4	36171.05
685.748	35977.39
686.095	36081.57
686.443	35823.49
686.79	35802.25
687.138	35810.84
687.485	35836.15
687.832	35602.71
688.18	35808.8
688.527	35509.15
688.874	35652.88
689.221	35472.09
689.568	35449.49
689.915	35209.5
690.262	35284.07
690.609	35225.09
690.956	35137.64
691.303	35143.96
691.65	35022.61
691.997	34913.23
692.344	34761.15
692.69	34778.32
693.037	34760.92
693.383	34418.78
693.73	34557.09
694.077	34468.73
694.423	34352.8
694.769	34320.93
695.116	34242.29
695.462	34191.45
695.808	33978.12
696.155	34112.35
696.501	33824.68
696.847	33924.56
697.193	33581.07
697.539	33752.81
697.885	33483.44
698.231	33450.67
698.577	33337
698.923	33401.18
699.269	33156.22
699.614	33036.67
699.96	33004.36
700.306	32931.82
700.651	32865.15
700.997	32887.53
701.342	32868.09
701.688	32728.89
702.033	32486.86
702.379	32544.48
702.724	32466.07
703.069	32549.23
703.415	32139.07
703.76	32144.95
704.105	32221.78
704.45	32097.04
704.795	32000.32
705.14	31852.75
705.485	31829.7
705.83	31644.62
706.175	31886.65
706.52	31526.88
706.865	31422.25
707.209	31491.86
707.554	31360.11
707.899	31509.93
708.243	31254.57
708.588	31145.65
708.932	31056.84
709.277	31081.47
709.621	31010.51
709.966	30768.03
710.31	30976.16
710.654	30711.99
710.998	30722.38
711.342	30693.23
711.687	30643.97
712.031	30440.81
712.375	30382.51
712.719	30437.42
713.063	30312.68
713.407	30470.64
713.75	30295.28
714.094	30363.98
714.438	30168.73
714.782	30174.38
715.125	29953.59
715.469	30124.89
715.812	29797.21
716.156	29798.79
716.499	29773.03
716.843	29872.24
717.186	29580.27
717.53	29831.11
717.873	29704.11
718.216	29585.92
718.559	29460.04
718.902	29340.27
719.246	29322.87
719.589	29185.7
719.932	29235.64
720.275	29129.66
720.617	29093.73
720.96	29128.3
721.303	29047.63
721.646	29074.74
721.989	28863.9
722.331	28908.42
722.674	28876.11
723.016	28786.16
723.359	28780.51
723.701	28784.58
724.044	28623.23
724.386	28508.66
724.729	28668.43
725.071	28529.22
725.413	28498.26
725.755	28591.59
726.097	28299.85
726.439	28212.62
726.782	28212.62
727.124	28411.48
727.465	28182.11
727.807	28242.68
728.149	28220.08
728.491	28141.44
728.833	28220.53
729.175	27975.79
729.516	27912.51
729.858	27859.63
730.199	27875.68
730.541	27909.35
730.882	27797.26
731.224	27929.92
731.565	27722.46
731.906	27703.93
732.248	27823.03
732.589	27561.79
732.93	27509.36
733.271	27628.68
733.612	27540.32
733.953	27522.02
734.294	27457.61
734.635	27314.56
734.976	27341.46
735.317	27172.42
735.658	27261.01
735.999	27342.59
736.339	27079.54
736.68	27283.15
737.021	27118.19
737.361	26982.6
737.702	27248.8
738.042	27021.24
738.383	26950.28
738.723	27047
739.063	26894.46
739.404	26866.89
739.744	26770.17
740.084	26677.07
740.424	26664.86
740.764	26550.74
741.104	26691.53
741.444	26615.83
741.784	26487.69
742.124	26553.23
742.464	26481.37
742.804	26383.97
743.143	26318.66
743.483	26420.35
743.823	26259.45
744.162	26243.86
744.502	26217.42
744.841	26146.46
745.181	26364.08
745.52	26055.16
745.86	26231.43
746.199	26051.09
746.538	25997.31
746.877	26135.16
747.216	26084.09
747.556	25944.2
747.895	25858.78
748.234	25831.44
748.573	25899.46
748.911	25715.28
749.25	25741.95
749.589	25565.46
749.928	25654.27
750.267	25674.16
750.605	25547.38
750.944	25525.23
751.283	25322.07
751.621	25336.99
751.96	25384.67
752.298	25423.99
752.636	25298.35
752.975	25105.36
753.313	25094.51
753.651	25164.34
753.989	24981.07
754.327	24927.28
754.666	24893.39
755.004	24784.69
755.342	24950.11
755.679	24822.43
756.017	24571.59
756.355	24673.05
756.693	24590.57
757.031	24639.83
757.368	24553.05
757.706	24389.44
758.044	24331.59
758.381	24482.32
758.719	24290.01
759.056	24302.44
759.394	24235.78
759.731	24119.85
760.068	24072.39
760.405	23975.9
760.743	23909.46
761.08	23875.33
761.417	23746.3
761.754	23739.07
762.091	23671.5
762.428	23649.35
762.765	23469.92
763.102	23479.18
763.438	23361.9
763.775	23216.59
764.112	23272.64
764.449	23242.81
764.785	23074.45
765.122	22904.74
765.458	22925.53
765.795	22894.57
766.131	22922.36
766.467	22754.91
766.804	22662.26
767.14	22448.93
767.476	22550.4
767.812	22540.45
768.148	22350.85
768.485	22271.08
768.821	22287.35
769.157	22168.48
769.492	22196.96
769.828	22039.9
770.164	21824.77
770.5	21849.17
770.836	21759
771.171	21767.37
771.507	21644.66
771.842	21542.74
772.178	21565.34
772.513	21481.5
772.849	21333.7
773.184	21270.88
773.519	21236.53
773.855	21171.67
774.19	21106.37
774.525	21008.97
774.86	20952.92
775.195	20895.07
775.53	20829.76
775.865	20692.82
776.2	20586.15
776.535	20495.53
776.87	20409.89
777.205	20371.24
777.539	20289.89
777.874	20334.63
778.209	20018.26
778.543	20095.32
778.878	19916.57
779.212	20003.34
779.547	19871.14
779.881	19891.93
780.215	19733.52
780.55	19715.89
780.884	19592.73
781.218	19458.27
781.552	19531.72
781.886	19430.7
782.22	19299.41
782.554	19231.84
782.888	19209.69
783.222	19033.88
783.556	18988.23
783.889	18934.9
784.223	18838.85
784.557	18756.37
784.89	18919.76
785.224	18679.99
785.557	18611.06
785.891	18581.01
786.224	18414.01
786.558	18492.2
786.891	18321.81
787.224	18179.21
787.557	18250.85
787.891	18129.95
788.224	18034.36
788.557	18126.11
788.89	18053.11
789.223	17922.04
789.556	17914.36
789.888	17876.39
790.221	17708.04
790.554	17699.22
790.887	17588.27
791.219	17534.03
791.552	17541.04
791.884	17493.35
792.217	17467.37
792.549	17412.68
792.882	17230.54
793.214	17194.38
793.546	17229.18
793.879	17041.84
794.211	16921.84
794.543	17008.62
794.875	16942.86
795.207	17048.39
795.539	16943.09
795.871	16893.14
796.203	16650.44
796.535	16602.76
796.867	16607.28
797.198	16536.09
797.53	16591.46
797.862	16422.2
798.193	16417.9
798.525	16337.23
798.856	16275.76
799.188	16187.17
799.519	16186.5
799.85	16078.7
800.182	16045.03
800.513	16017.69
800.844	15969.78
801.175	15913.96
801.506	15870.35
801.837	15861.31
802.168	15906.05
802.499	15749.67
802.83	15586.06
803.161	15649.79
803.491	15748.54
803.822	15626.74
804.153	15523.46
804.483	15381.32
804.814	15320.76
805.145	15418.15
805.475	15264.94
805.805	15264.49
806.136	15226.75
806.466	15239.63
806.796	15167.31
807.126	14998.05
807.457	14987.88
807.787	15084.6
808.117	14953.31
808.447	14929.81
808.777	14921.67
809.107	14772.52
809.436	14847.32
809.766	14752.63
810.096	14707.89
810.426	14711.05
810.755	14701.34
811.085	14732.3
811.414	14622.69
811.744	14600.55
812.073	14514.9
812.403	14403.27
812.732	14307.67
813.061	14484.39
813.39	14287.79
813.719	14275.36
814.049	14367.11
814.378	14161.01
814.707	14236.94
815.036	14165.53
815.365	14139.77
815.693	14036.5
816.022	14000.79
816.351	13878.53
816.68	13980
817.008	13919.21
817.337	13764.64
817.665	13765.77
817.994	13894.58
818.322	13789.95
818.651	13693.91
818.979	13624.53
819.307	13714.02
819.636	13575.49
819.964	13561.71
820.292	13611.2
820.62	13587.69
820.948	13528.49
821.276	13546.11
821.604	13568.26
821.932	13605.55
822.259	13530.97
822.587	13520.12
822.915	13475.15
823.243	13534.36
823.57	13524.19
823.898	13470.41
824.225	13488.26
824.553	13478.09
824.88	13512.44
825.207	13495.49
825.535	13433.8
825.862	13456.4
826.189	13349.06
826.516	13509.73
826.843	13507.02
827.17	13514.7
827.497	13537.98
827.824	13458.21
828.151	13479.67
828.478	13421.14
828.805	13425.21
829.131	13371.2
829.458	13402.84
829.785	13369.85
830.111	13403.74
830.438	13436.74
830.764	13416.62
831.09	13402.39
831.417	13360.58
831.743	13369.17
832.069	13404.42
832.395	13293.69
832.722	13389.51
833.048	13325.33
833.374	13320.36
833.7	13272
834.026	13272
834.351	13313.8
834.677	13241.94
835.003	13341.6
835.329	13160.59
835.654	13151.55
835.98	13134.6
836.306	13185.22
836.631	13179.57
836.956	13169.63
837.282	13139.12
837.607	13136.41
837.932	13086.01
838.258	13120.59
838.583	13073.81
838.908	12994.94
839.233	13081.49
839.558	13004.43
839.883	12974.15
840.208	12852.57
840.533	12933.93
840.858	12934.38
841.182	12906.36
841.507	12861.38
841.832	12832.46
842.156	12848.5
842.481	12840.37
842.805	12686.7
843.13	12752.24
843.454	12709.52
843.778	12661.39
844.103	12608.28
844.427	12616.19
844.751	12581.62
845.075	12613.03
845.399	12489.64
845.723	12415.75
846.047	12448.29
846.371	12397.67
846.695	12388.18
847.019	12275.86
847.343	12187.05
847.666	12094.63
847.99	12051.69
848.313	12112.25
848.637	11993.16
848.96	12009.43
849.284	11963.1
849.607	11829.55
849.931	11840.39
850.254	11768.76
850.577	11673.17
850.9	11611.02
851.223	11674.07
851.546	11514.98
851.869	11414.19
852.192	11515.88
852.515	11453.74
852.838	11329.45
853.161	11390.69
853.483	11306.62
853.806	11265.27
854.129	11263.69
854.451	11229.56
854.774	11200.41
855.096	11114.31
855.419	11082
855.741	11020.98
856.063	10960.42
856.385	10999.06
856.708	10922.23
857.03	10868.44
857.352	10987.76
857.674	10862.57
857.996	10845.62
858.318	10814.89
858.64	10794.32
858.961	10680.65
859.283	10708.9
859.605	10621.9
859.926	10681.1
860.248	10657.83
860.57	10595.68
860.891	10592.74
861.212	10524.95
861.534	10522.92
861.855	10445.63
862.176	10539.64
862.498	10400.43
862.819	10432.3
863.14	10368.8
863.461	10359.3
863.782	10335.8
864.103	10319.98
864.424	10361.79
864.745	10326.54
865.065	10252.64
865.386	10305.52
865.707	10186.43
866.027	10183.72
866.348	10125.64
866.668	10216.48
866.989	10205.41
867.309	10042.7
867.63	10132.64
867.95	10145.98
868.27	10017.84
868.59	10064.4
868.91	10028.92
869.23	10048.35
869.55	10026.43
869.87	10004.96
870.19	9925.64
870.51	9939.65
870.83	9934.46
871.15	9912.99
871.469	9908.69
871.789	9901.46
872.109	9896.72
872.428	9901.46
872.748	9957.28
873.067	9816.04
873.386	9879.99
873.706	9866.66
874.025	9762.03
874.344	9758.64
874.663	9817.4
874.982	9807.91
875.301	9757.51
875.62	9696.5
875.939	9688.81
876.258	9656.95
876.577	9671.64
876.896	9650.85
877.214	9585.54
877.533	9668.47
877.852	9656.27
878.17	9688.81
878.489	9597.29
878.807	9607.91
879.125	9551.42
879.444	9599.32
879.762	9495.6
880.08	9479.33
880.398	9468.03
880.716	9515.48
881.034	9419.67
881.352	9505.09
881.67	9436.16
881.988	9381.25
882.306	9331.53
882.624	9342.38
882.941	9262.84
883.259	9261.48
883.577	9290.18
883.894	9215.15
884.212	9147.81
884.529	9208.83
884.846	9117.53
885.164	9191.88
885.481	9166.57
885.798	9126.12
886.115	9056.06
886.432	9107.81
886.75	9015.61
887.067	9064.42
887.383	9022.39
887.7	9043.41
888.017	8931.77
888.334	9008.6
888.651	8875.05
888.967	8897.87
889.284	8876.18
889.6	8825.33
889.917	8777.2
890.233	8745.11
890.55	8733.13
890.866	8773.81
891.182	8742.17
891.498	8713.47
891.815	8674.15
892.131	8648.61
892.447	8606.58
892.763	8552.12
893.079	8550.09
893.395	8543.08
893.71	8566.81
894.026	8481.39
894.342	8509.18
894.657	8457.88
894.973	8385.12
895.289	8418.11
895.604	8436.19
895.92	8353.71
896.235	8357.32
896.55	8267.83
896.865	8257.89
897.181	8191.45
897.496	8220.83
897.811	8185.35
898.126	8173.15
898.441	8175.41
898.756	8117.1
899.071	8145.8
899.386	8080.95
899.7	8023.32
900.015	7983.55
900.33	7908.75
900.644	7929.54
900.959	7920.72
901.273	7933.83
901.588	7870.1
901.902	7822.2
902.216	7760.5
902.531	7734.97
902.845	7755.98
903.159	7652.03
903.473	7597.79
903.787	7588.53
904.101	7608.42
904.415	7545.59
904.729	7552.6
905.042	7480.74
905.356	7483.45
905.67	7452.49
905.984	7411.58
906.297	7369.78
906.611	7410.23
906.924	7377.91
907.237	7373.39
907.551	7310.8
907.864	7281.19
908.177	7250.23
908.491	7242.1
908.804	7199.84
909.117	7193.29
909.43	7103.12
909.743	7125.49
910.056	7059.73
910.368	7057.7
910.681	6993.06
910.994	6997.13
911.307	6946.96
911.619	6900.86
911.932	6931.6
912.244	6835.33
912.557	6877.36
912.869	6833.29
913.181	6791.49
913.494	6805.95
913.806	6701.55
914.118	6729.79
914.43	6685.05
914.742	6673.3
915.054	6591.27
915.366	6600.98
915.678	6558.5
915.99	6575.22
916.302	6517.15
916.613	6441.67
916.925	6433.98
917.236	6447.99
917.548	6426.98
917.859	6443.93
918.171	6338.84
918.482	6323.48
918.794	6301.78
919.105	6294.55
919.416	6289.13
919.727	6254.1
920.038	6204.61
920.349	6171.17
920.66	6169.13
920.971	6131.62
921.282	6063.37
921.593	6103.14
921.903	6077.38
922.214	6029.25
922.525	5968.23
922.835	6020.43
923.146	5936.37
923.456	5931.4
923.767	5905.18
924.077	5908.12
924.387	5822.93
924.697	5791.97
925.008	5800.33
925.318	5802.81
925.628	5797.16
925.938	5720.56
926.248	5707.45
926.558	5705.41
926.867	5660.9
927.177	5637.39
927.487	5581.8
927.796	5572.54
928.106	5563.5
928.416	5544.29
928.725	5534.35
929.034	5480.34
929.344	5472.2
929.653	5500.9
929.962	5418.42
930.271	5389.04
930.581	5387.01
930.89	5365.54
931.199	5292.09
931.508	5324.86
931.817	5323.05
932.125	5276.95
932.434	5232.21
932.743	5174.36
933.051	5161.93
933.36	5165.54
933.669	5128.48
933.977	5139.78
934.286	5129.16
934.594	5083.96
934.902	5069.95
935.21	5006.45
935.519	4971.42
935.827	4997.86
936.135	4992.67
936.443	4945.43
936.751	4936.85
937.059	4901.14
937.367	4899.79
937.674	4915.61
937.982	4862.95
938.29	4798.32
938.597	4812.56
938.905	4794.25
939.213	4713.58
939.52	4773.69
939.827	4744.99
940.135	4703.41
940.442	4626.57
940.749	4692.33
941.056	4640.58
941.363	4617.99
941.67	4612.11
941.977	4564.65
942.284	4596.52
942.591	4533.92
942.898	4531.66
943.205	4542.96
943.511	4515.16
943.818	4457.54
944.125	4438.78
944.431	4421.61
944.738	4416.41
945.044	4432.68
945.35	4356.07
945.657	4383.64
945.963	4352.68
946.269	4344.32
946.575	4321.27
946.881	4282.18
947.187	4268.62
947.493	4217.54
947.799	4226.36
948.105	4214.15
948.41	4215.74
948.716	4216.41
949.022	4180.03
949.327	4131.9
949.633	4092.58
949.938	4103.2
950.244	4092.35
950.549	4050.09
950.854	4032.69
951.16	4011.22
951.465	4046.48
951.77	4009.64
952.075	3989.08
952.38	3963.09
952.685	3969.64
952.99	3948.85
953.294	3919.02
953.599	3890.1
953.904	3869.08
954.209	3847.84
954.513	3839.25
954.818	3797.67
955.122	3820.04
955.426	3807.39
955.731	3781.4
956.035	3773.26
956.339	3751.79
956.643	3753.6
956.948	3699.59
957.252	3687.16
957.556	3685.36
957.86	3662.98
958.163	3636.54
958.467	3679.48
958.771	3683.55
959.075	3642.19
959.378	3573.49
959.682	3585.92
959.985	3575.3
960.289	3573.27
960.592	3537.34
960.896	3547.28
961.199	3457.79
961.502	3520.84
961.805	3487.62
962.108	3432.93
962.411	3436.77
962.714	3404.46
963.017	3391.13
963.32	3456.89
963.623	3399.26
963.926	3337.34
964.228	3362.65
964.531	3365.82
964.833	3316.1
965.136	3290.34
965.438	3298.7
965.741	3275.2
966.043	3262.09
966.345	3244.24
966.648	3271.35
966.95	3224.58
967.252	3249.43
967.554	3195.88
967.856	3182.54
968.158	3172.6
968.46	3165.14
968.761	3134.86
969.063	3089.21
969.365	3081.53
969.666	3124.69
969.968	3097.12
970.269	3091.25
970.571	3105.94
970.872	3063.68
971.174	3028.65
971.475	3018.71
971.776	3053.96
972.077	2986.84
972.378	3020.29
972.679	2994.07
972.98	2985.03
973.281	2927.18
973.582	2907.07
973.883	2913.17
974.183	2908.88
974.484	2888.99
974.785	2886.28
975.085	2864.13
975.386	2879.27
975.686	2857.58
975.986	2832.95
976.287	2844.02
976.587	2795.66
976.887	2771.25
977.187	2772.61
977.487	2778.71
977.787	2753.63
978.087	2733.97
978.387	2760.41
978.687	2740.07
978.987	2708.43
979.286	2692.16
979.586	2721.31
979.885	2720.41
980.185	2642.44
980.484	2698.71
980.784	2653.74
981.083	2674.76
981.382	2596.8
981.682	2615.1
981.981	2590.47
982.28	2586.85
982.579	2533.29
982.878	2566.74
983.177	2592.05
983.475	2537.59
983.774	2583.01
984.073	2535.78
984.372	2509.34
984.67	2503.24
984.969	2476.57
985.267	2455.56
985.566	2480.19
985.864	2470.47
986.162	2425.95
986.461	2443.13
986.759	2442.9
987.057	2408.55
987.355	2395.22
987.653	2384.82
987.951	2390.7
988.249	2382.56
988.547	2380.3
988.844	2375.11
989.142	2343.02
989.44	2326.97
989.737	2316.58
990.035	2281.78
990.332	2319.52
990.63	2269.57
990.927	2275.9
991.224	2286.3
991.521	2256.69
991.819	2212.4
992.116	2206.07
992.413	2246.07
992.71	2215.34
993.006	2185.28
993.303	2196.13
993.6	2176.92
993.897	2186.19
994.193	2218.95
994.49	2140.76
994.787	2112.52
995.083	2114.77
995.379	2140.76
995.676	2140.31
995.972	2079.52
996.268	2078.39
996.565	2100.54
996.861	2072.06
997.157	2053.31
997.453	2075
997.749	2062.57
998.044	2047.66
998.34	2065.74
998.636	2015.57
998.932	1996.59
999.227	1985.29
999.523	1981.45
999.818	1972.18
1000.114	1952.52
1000.409	1970.6
1000.704	1923.37
1001	1932.63
1001.295	1914.1
1001.59	1914.33
1001.885	1892.41
1002.18	1881.33
1002.475	1886.53
1002.77	1865.29
1003.065	1873.88
1003.359	1898.96
1003.654	1840.66
1003.949	1832.97
1004.243	1832.75
1004.538	1823.48
1004.832	1831.62
1005.127	1803.82
1005.421	1739.64
1005.715	1773.54
1006.009	1771.96
1006.304	1727.89
1006.598	1772.41
1006.892	1733.77
1007.186	1691.74
1007.48	1731.51
1007.773	1716.14
1008.067	1698.51
1008.361	1705.29
1008.655	1698.74
1008.948	1675.24
1009.242	1668.23
1009.535	1656.26
1009.829	1620.1
1010.122	1633.21
1010.415	1631.85
1010.708	1602.47
1011.001	1597.73
1011.295	1614.45
1011.588	1613.09
1011.881	1590.27
1012.173	1593.88
1012.466	1592.98
1012.759	1552.08
1013.052	1564.96
1013.344	1536.49
1013.637	1519.99
1013.93	1512.08
1014.222	1526.32
1014.514	1486.09
1014.807	1517.73
1015.099	1497.62
1015.391	1479.99
1015.683	1461.23
1015.976	1433.66
1016.268	1445.41
1016.56	1423.04
1016.851	1431.4
1017.143	1454.45
1017.435	1411.74
1017.727	1403.16
1018.018	1406.32
1018.31	1405.42
1018.602	1375.59
1018.893	1350.73
1019.185	1386.43
1019.476	1379.43
1019.767	1359.09
1020.058	1336.04
1020.35	1331.97
1020.641	1331.74
1020.932	1321.12
1021.223	1301.46
1021.514	1294.68
1021.804	1288.36
1022.095	1247.45
1022.386	1276.6
1022.677	1281.12
1022.967	1239.54
1023.258	1255.14
1023.548	1256.94
1023.839	1238.41
1024.129	1225.53
1024.419	1207
1024.709	1193.22
1025	1227.11
1025.29	1197.28
1025.58	1201.35
1025.87	1168.59
1026.16	1175.82
1026.449	1191.18
1026.739	1167.46
1027.029	1131.52
1027.319	1137.17
1027.608	1167.23
1027.898	1148.92
1028.187	1129.72
1028.477	1119.77
1028.766	1106.89
1029.055	1092.43
1029.344	1092.65
1029.634	1080.9
1029.923	1107.12
1030.212	1033
1030.501	1088.59
1030.79	1053.79
1031.078	1072.54
1031.367	1036.61
1031.656	1074.12
1031.945	1035.03
1032.233	1017.63
1032.522	1054.69
1032.81	1015.82
1033.099	1036.61
1033.387	981.7
1033.675	1016.27
1033.963	1022.6
1034.251	1009.95
1034.54	969.72
1034.828	978.08
1035.116	964.07
1035.403	945.31
1035.691	968.14
1035.979	956.16
1036.267	945.77
1036.554	926.11
1036.842	960
1037.129	924.3
1037.417	924.52
1037.704	908.93
1037.992	909.38
1038.279	901.7
1038.566	909.83
1038.853	909.83
1039.14	909.83
