Data from hue_30_FLMS001491_20.txt Node
Date: Mon Feb 06 15:04:50 GMT 2017
User: dcchb
Spectrometer: FLMS00149
Trigger mode: 0
Integration Time (sec): 2.000000E-2
Scans to average: 10
Electric dark correction enabled: true
Nonlinearity correction enabled: false
Boxcar width: 0
XAxis mode: Wavelengths
Number of Pixels in Spectrum: 2048
>>>>>Begin Spectral Data<<<<<
341.393	-26
341.776	-26
342.16	-26
342.543	-59.22
342.927	-54.7
343.31	-73.46
343.693	-50.18
344.077	-62.61
344.46	-47.02
344.843	-49.05
345.226	-35.27
345.61	-41.14
345.993	-37.75
346.376	-21.26
346.759	5.86
347.142	21.23
347.525	53.32
347.908	57.84
348.291	68.68
348.674	99.19
349.057	111.62
349.44	118.63
349.823	136.03
350.206	156.14
350.588	182.13
350.971	194.78
351.354	219.19
351.737	247.66
352.119	252.86
352.502	254.44
352.884	281.11
353.267	272.97
353.65	286.53
354.032	308.9
354.414	311.62
354.797	306.64
355.179	310.26
355.562	330.37
355.944	330.6
356.326	340.09
356.709	332.86
357.091	330.37
357.473	331.5
357.855	340.32
358.238	324.95
358.62	344.38
359.002	342.12
359.384	364.04
359.766	348.45
360.148	351.39
360.53	333.54
360.912	322.92
361.294	351.39
361.676	337.6
362.057	337.83
362.439	359.75
362.821	317.27
363.203	313.2
363.584	308.9
363.966	338.51
364.348	326.53
364.729	317.04
365.111	323.59
365.493	323.59
365.874	323.82
366.256	336.7
366.637	323.37
367.019	335.8
367.4	315.23
367.781	306.42
368.163	311.62
368.544	337.15
368.925	314.1
369.306	306.87
369.688	304.38
370.069	311.16
370.45	317.04
370.831	313.65
371.212	306.19
371.593	326.76
371.974	317.72
372.355	304.84
372.736	317.27
373.117	323.82
373.498	331.5
373.879	298.28
374.26	325.63
374.641	311.62
375.021	326.76
375.402	323.59
375.783	305.97
376.163	315.46
376.544	325.85
376.925	315.46
377.305	325.18
377.686	318.17
378.066	314.1
378.447	311.84
378.827	314.1
379.208	340.77
379.588	340.09
379.968	334.44
380.349	320.66
380.729	345.97
381.109	321.56
381.489	341.22
381.87	333.76
382.25	345.06
382.63	334.67
383.01	329.24
383.39	351.84
383.77	345.74
384.15	360.65
384.53	353.2
384.91	345.51
385.29	339.19
385.67	347.55
386.049	349.58
386.429	360.43
386.809	341.22
387.189	367.66
387.568	361.33
387.948	317.72
388.328	349.13
388.707	364.27
389.087	367.66
389.466	358.85
389.846	358.39
390.225	364.95
390.605	378.51
390.984	356.13
391.363	341.9
391.743	372.63
392.122	362.91
392.501	356.13
392.881	353.65
393.26	371.95
393.639	378.28
394.018	387.77
394.397	392.97
394.776	379.86
395.155	395.23
395.534	374.89
395.913	361.78
396.292	398.39
396.671	377.15
397.05	382.8
397.429	382.35
397.808	364.72
398.186	409.69
398.565	379.41
398.944	371.95
399.323	389.35
399.701	393.42
400.08	384.83
400.458	386.19
400.837	390.48
401.215	386.64
401.594	383.03
401.972	393.87
402.351	401.78
402.729	380.99
403.107	397.72
403.486	404.5
403.864	390.71
404.242	423.7
404.62	400.65
404.999	411.95
405.377	390.94
405.755	393.2
406.133	423.93
406.511	432.52
406.889	427.09
407.267	401.11
407.645	406.08
408.023	430.03
408.401	429.35
408.779	397.94
409.156	436.58
409.534	444.04
409.912	469.35
410.29	430.26
410.667	423.93
411.045	452.86
411.422	443.82
411.8	440.43
412.178	469.58
412.555	463.7
412.933	471.39
413.31	464.38
413.687	464.15
414.065	484.49
414.442	470.48
414.819	499.18
415.197	486.07
415.574	481.78
415.951	491.27
416.328	466.87
416.705	478.17
417.082	499.18
417.46	495.34
417.837	497.6
418.214	478.84
418.591	491.5
418.967	485.4
419.344	520.65
419.721	517.71
420.098	490.82
420.475	524.94
420.852	487.88
421.228	505.74
421.605	517.03
421.982	530.82
422.358	510.03
422.735	519.75
423.111	545.96
423.488	534.66
423.864	545.73
424.241	559.97
424.617	552.29
424.994	553.87
425.37	547.77
425.746	556.58
426.123	573.3
426.499	553.87
426.875	557.26
427.251	564.72
427.627	575.34
428.003	572.4
428.379	599.97
428.756	576.24
429.132	574.66
429.507	587.77
429.883	602.91
430.259	592.74
430.635	597.48
431.011	597.71
431.387	627.31
431.763	606.07
432.138	633.64
432.514	604.94
432.89	629.35
433.265	667.76
433.641	636.13
434.016	644.04
434.392	666.41
434.767	658.05
435.143	665.73
435.518	647.88
435.894	682
436.269	666.18
436.644	700.76
437.02	675.45
437.395	689.91
437.77	718.39
438.145	721.55
438.52	704.37
438.895	700.53
439.271	735.33
439.646	719.51
440.021	719.29
440.395	728.1
440.77	733.07
441.145	736.24
441.52	703.7
441.895	707.99
442.27	753.86
442.645	762.23
443.019	765.16
443.394	747.76
443.769	774.43
444.143	749.57
444.518	753.19
444.892	770.81
445.267	765.16
445.641	810.36
446.016	790.25
446.39	795.67
446.764	784.82
447.139	793.64
447.513	823.92
447.887	799.96
448.262	822.56
448.636	794.32
449.01	815.11
449.384	820.3
449.758	827.76
450.132	833.41
450.506	870.25
450.88	848.33
451.254	850.58
451.628	856.91
452.002	866.63
452.376	884.93
452.75	852.17
453.123	839.96
453.497	903.01
453.871	914.31
454.244	918.61
454.618	924.26
454.992	930.58
455.365	926.97
455.739	937.81
456.112	951.37
456.486	976.01
456.859	950.47
457.232	991.15
457.606	999.51
457.979	975.55
458.352	1001.09
458.725	1006.97
459.099	1021.88
459.472	1028.43
459.845	1049
460.218	1047.64
460.591	1085.38
460.964	1075.66
461.337	1094.87
461.71	1106.17
462.083	1133.97
462.456	1123.8
462.829	1099.39
463.201	1131.03
463.574	1142.1
463.947	1143.68
464.32	1194.76
464.692	1219.84
465.065	1175.77
465.438	1221.87
465.81	1231.37
466.183	1238.37
466.555	1292.38
466.928	1288.54
467.3	1284.92
467.672	1304.81
468.045	1356.56
468.417	1328.99
468.789	1331.25
469.161	1361.08
469.534	1394.3
469.906	1423.45
470.278	1424.36
470.65	1455.09
471.022	1479.49
471.394	1490.57
471.766	1514.52
472.138	1549.1
472.51	1536.44
472.882	1560.85
473.253	1611.47
473.625	1679.26
473.997	1657.34
474.369	1703.9
474.74	1684.69
475.112	1699.83
475.484	1755.19
475.855	1800.16
476.227	1827.73
476.598	1844.46
476.97	1925.81
477.341	1927.84
477.713	2000.84
478.084	1980.27
478.455	2016.88
478.827	2090.78
479.198	2141.17
479.569	2133.26
479.94	2211.91
480.311	2207.16
480.682	2299.13
481.053	2349.75
481.424	2384.33
481.795	2441.28
482.166	2493.93
482.537	2529.64
482.908	2567.83
483.279	2602.18
483.65	2676.98
484.021	2731.67
484.391	2741.38
484.762	2794.94
485.133	2840.82
485.503	2882.17
485.874	2985.9
486.244	3028.61
486.615	3088.49
486.985	3144.54
487.356	3226.79
487.726	3293.01
488.097	3369.61
488.467	3287.36
488.837	3441.48
489.207	3516.05
489.578	3547.24
489.948	3598.99
490.318	3663.84
490.688	3718.76
491.058	3780
491.428	3896.38
491.798	3898.87
492.168	3961.92
492.538	3980.22
492.908	4079.2
493.278	4122.36
493.648	4137.73
494.017	4233.55
494.387	4290.95
494.757	4314
495.126	4403.26
495.496	4438.29
495.866	4488.46
496.235	4506.31
496.605	4583.59
496.974	4591.96
497.344	4640.99
497.713	4691.61
498.082	4709.47
498.452	4739.07
498.821	4861.78
499.19	4882.57
499.559	4846.41
499.928	4898.39
500.298	4972.51
500.667	5039.85
501.036	5071.26
501.405	5094.32
501.774	5092.28
502.143	5222.9
502.512	5166.63
502.88	5278.27
503.249	5282.56
503.618	5308.09
503.987	5365.04
504.356	5412.5
504.724	5415.44
505.093	5442.33
505.462	5489.33
505.83	5553.51
506.199	5585.6
506.567	5602.32
506.936	5649.55
507.304	5686.39
507.672	5711.02
508.041	5758.7
508.409	5776.33
508.777	5871.24
509.145	5875.09
509.514	5914.86
509.882	5918.25
510.25	5943.33
510.618	6047.51
510.986	6002.54
511.354	6021.75
511.722	6057
512.09	6109.43
512.458	6158.02
512.826	6205.47
513.193	6236.43
513.561	6241.4
513.929	6258.35
514.297	6322.76
514.664	6380.61
515.032	6411.57
515.4	6364.79
515.767	6474.39
516.135	6460.38
516.502	6455.18
516.869	6573.82
517.237	6565.69
517.604	6599.13
517.972	6584.45
518.339	6622.41
518.706	6639.36
519.073	6647.04
519.44	6755.51
519.808	6751.22
520.175	6756.87
520.542	6836.42
520.909	6792.12
521.276	6901.27
521.643	6959.35
522.009	6944.21
522.376	7021.04
522.743	7014.72
523.11	7066.69
523.477	7106.01
523.843	7156.41
524.21	7262.39
524.577	7304.43
524.943	7283.64
525.31	7332
525.676	7369.28
526.043	7436.17
526.409	7444.76
526.776	7572.89
527.142	7589.84
527.508	7560.01
527.874	7657.19
528.241	7671.87
528.607	7658.77
528.973	7755.26
529.339	7819.44
529.705	7845.88
530.071	7873.23
530.437	7967.46
530.803	7916.61
531.169	8064.18
531.535	8032.54
531.901	8057.63
532.267	8109.83
532.632	8134.24
532.998	8144.86
533.364	8232.76
533.73	8286.77
534.095	8335.13
534.461	8368.13
534.826	8323.83
535.192	8415.81
535.557	8493.55
535.923	8447.67
536.288	8475.24
536.653	8550.27
537.019	8513.43
537.384	8554.79
537.749	8670.72
538.114	8683.83
538.479	8660.1
538.845	8713.43
539.21	8655.13
539.575	8764.73
539.94	8761.56
540.305	8847.44
540.67	8781
541.034	8837.95
541.399	8966.3
541.764	8986.87
542.129	8994.33
542.494	9066.41
542.858	9109.12
543.223	9089.92
543.587	9187.54
543.952	9198.16
544.316	9188.44
544.681	9189.8
545.045	9259.86
545.41	9342.79
545.774	9355.22
546.138	9352.28
546.503	9464.82
546.867	9414.43
547.231	9520.64
547.595	9553.63
547.959	9546.85
548.324	9537.81
548.688	9597.25
549.052	9608.09
549.416	9651.48
549.779	9715.44
550.143	9756.34
550.507	9780.52
550.871	9843.34
551.235	9841.54
551.599	9865.26
551.962	9878.82
552.326	9927.18
552.689	9976.9
553.053	9983
553.417	10019.16
553.78	10131.92
554.143	10074.75
554.507	10150.91
554.87	10173.96
555.234	10197.68
555.597	10185.48
555.96	10226.38
556.323	10286.95
556.686	10311.13
557.05	10359.04
557.413	10332.37
557.776	10440.39
558.139	10526.04
558.502	10502.76
558.865	10506.6
559.228	10648.75
559.59	10552.93
559.953	10670.89
560.316	10712.47
560.679	10692.81
561.041	10791.57
561.404	10760.38
561.767	10839.25
562.129	10834.73
562.492	10920.38
562.854	10951.34
563.217	10926.03
563.579	10969.64
563.941	11070.2
564.304	11084.44
564.666	11130.31
565.028	11187.94
565.39	11143.65
565.753	11292.57
566.115	11281.5
566.477	11328.28
566.839	11302.74
567.201	11416.18
567.563	11424.54
567.925	11474.94
568.287	11508.61
568.648	11470.87
569.01	11651.88
569.372	11675.39
569.734	11659.11
570.095	11705.89
570.457	11756.29
570.819	11862.95
571.18	11847.58
571.542	11912.22
571.903	11975.49
572.265	12020.91
572.626	12131.19
572.987	12152.89
573.349	12211.42
573.71	12277.4
574.071	12285.54
574.432	12412.31
574.794	12580.9
575.155	12578.86
575.516	12544.06
575.877	12662.03
576.238	12774.79
576.599	12892.3
576.96	12878.29
577.32	12986.54
577.681	13082.58
578.042	13135.46
578.403	13268.11
578.763	13418.16
579.124	13497.03
579.485	13672.62
579.845	13687.54
580.206	13748.32
580.566	13879.85
580.927	14005.04
581.287	14256.33
581.648	14232.38
582.008	14499.49
582.368	14606.61
582.728	14841.63
583.089	14871.69
583.449	15094.73
583.809	15222.64
584.169	15533.14
584.529	15637.99
584.889	15897.87
585.249	15935.84
585.609	16014.25
585.969	16332.89
586.329	16563.39
586.688	16736.72
587.048	16969.71
587.408	17110.72
587.768	17349.36
588.127	17534.21
588.487	17700.31
588.846	17994.09
589.206	18145.27
589.565	18384.36
589.925	18670
590.284	18865.7
590.643	19169.88
591.003	19509.53
591.362	19832.01
591.721	19851.89
592.08	20171.66
592.44	20492.33
592.799	20672.21
593.158	20934.8
593.517	21178.64
593.876	21473.32
594.235	21593.09
594.593	22007.54
594.952	22228.78
595.311	22342.68
595.67	22704.47
596.029	23107.85
596.387	23286.61
596.746	23507.16
597.104	23742.41
597.463	23906.7
597.822	24313.47
598.18	24424.88
598.538	24576.74
598.897	25087.24
599.255	25044.98
599.613	25658.75
599.972	25751.4
600.33	25955.69
600.688	26063.26
601.046	26461.21
601.404	26716.57
601.762	26938.94
602.12	27183
602.478	27350
602.836	27640.84
603.194	27729.43
603.552	27805.58
603.91	28041.96
604.268	28415.06
604.625	28553.59
604.983	28845.1
605.341	28947.7
605.698	29306.11
606.056	29551.98
606.413	29663.39
606.771	30012.08
607.128	30251.17
607.485	30140.89
607.843	30349.02
608.2	30668.78
608.557	30947.19
608.914	30990.81
609.272	31395.77
609.629	31404.81
609.986	31831.69
610.343	31686.38
610.7	32139.48
611.057	32315.75
611.414	32362.3
611.771	32490.88
612.127	32760.03
612.484	32768.16
612.841	33205.67
613.198	33132.22
613.554	33305.55
613.911	33597.52
614.267	33534.92
614.624	33717.74
614.98	33932.43
615.337	34113.89
615.693	34215.13
616.05	34228.46
616.406	34411.06
616.762	34531.73
617.118	34618.74
617.475	34631.84
617.831	34972.17
618.187	34904.6
618.543	35150.25
618.899	35383.24
619.255	35493.29
619.611	35452.61
619.967	35693.28
620.323	35768.76
620.678	35642.44
621.034	35740.06
621.39	35917.46
621.746	35944.13
622.101	36448.97
622.457	36194.51
622.812	36288.98
623.168	36397.9
623.523	36519.7
623.879	36700.72
624.234	36485.35
624.589	36689.19
624.945	36724.9
625.3	36853.25
625.655	36945
626.01	37069.29
626.365	37111.55
626.72	37057.54
627.075	37076.98
627.43	37117.43
627.785	37180.25
628.14	37292.56
628.495	37279.68
628.85	37416.4
629.205	37165.34
629.559	37429.06
629.914	37485.1
630.269	37347.03
630.623	37401.26
630.978	37473.58
631.332	37509.96
631.687	37617.3
632.041	37443.52
632.396	37443.75
632.75	37534.37
633.104	37515.61
633.459	37390.87
633.813	37455.95
634.167	37429.96
634.521	37460.02
634.875	37550.86
635.229	37526
635.583	37363.07
635.937	37487.59
636.291	37437.42
636.645	37383.86
636.999	37447.59
637.352	37625.66
637.706	37273.36
638.06	37533.69
638.413	37302.51
638.767	37388.38
639.121	37401.04
639.474	37312.68
639.828	37309.74
640.181	37344.54
640.534	37385.67
640.888	37256.86
641.241	37202.85
641.594	37236.97
641.947	37467.93
642.301	37196.07
642.654	37269.74
643.007	37348.61
643.36	37244.66
643.713	37113.36
644.066	37416.18
644.419	37076.75
644.771	36742.97
645.124	36645.8
645.477	36540.49
645.83	36409.42
646.182	36156.55
646.535	36069.55
646.888	36288.3
647.24	35993.16
647.593	36141.18
647.945	36042.65
648.298	35920.4
648.65	35831.59
649.002	35714.75
649.355	36107.74
649.707	35956.33
650.059	36118.13
650.411	36524.68
650.763	36649.19
651.115	36962.18
651.467	36969.64
651.819	36883.08
652.171	36681.96
652.523	36773.26
652.875	36713.6
653.227	36655.75
653.578	36850.32
653.93	36656.65
654.282	36580.49
654.633	36454.39
654.985	36556.31
655.337	36564
655.688	36464.56
656.039	36808.74
656.391	36520.38
656.742	36481.74
657.094	36544.11
657.445	36714.27
657.796	36527.39
658.147	36514.28
658.498	36377.56
658.849	36598.35
659.2	36479.93
659.551	36474.06
659.902	36573.71
660.253	36492.13
660.604	36500.04
660.955	36328.75
661.306	36473.15
661.656	36392.93
662.007	36432.93
662.358	36392.02
662.708	36455.3
663.059	36468.63
663.409	36205.59
663.76	36438.8
664.11	36357.9
664.461	36403.77
664.811	36476.31
665.161	36411.01
665.511	36288.07
665.862	36253.27
666.212	36387.5
666.562	36502.75
666.912	36306.15
667.262	36340.73
667.612	36281.52
667.962	36200.39
668.312	36235.42
668.662	36295.3
669.011	36318.8
669.361	36146.15
669.711	36288.75
670.06	36205.14
670.41	36054.86
670.76	36098.7
671.109	36240.39
671.459	36149.54
671.808	36138.92
672.157	36275.19
672.507	35851.47
672.856	35866.61
673.205	36148.87
673.554	36138.24
673.904	35922.88
674.253	36135.31
674.602	36029.1
674.951	35509.56
675.3	35562.89
675.649	35992.94
675.998	36010.56
676.346	35966.5
676.695	36053.05
677.044	35797.91
677.393	35845.37
677.741	35879.72
678.09	35770.12
678.438	35670.91
678.787	35773.28
679.135	35871.13
679.484	35545.04
679.832	35761.98
680.181	35630.24
680.529	35684.92
680.877	35471.14
681.225	35304.37
681.573	35610.8
681.922	35352.05
682.27	35343.24
682.618	35292.17
682.966	35092.4
683.314	35426.17
683.661	35224.82
684.009	35028.9
684.357	34967.43
684.705	35032.29
685.053	34858.96
685.4	34977.6
685.748	34785.96
686.095	34648.34
686.443	34561.79
686.79	34611.51
687.138	34630.04
687.485	34673.65
687.832	34486.99
688.18	34589.81
688.527	34264.85
688.874	34311.63
689.221	34348.69
689.568	34185.75
689.915	34115.92
690.262	34082.48
690.609	34005.87
690.956	33909.6
691.303	33914.35
691.65	33719.78
691.997	33810.85
692.344	33554.13
692.69	33521.14
693.037	33532.21
693.383	33301.94
693.73	33220.13
694.077	33230.98
694.423	33204.76
694.769	33157.08
695.116	33054.03
695.462	32927.03
695.808	32830.08
696.155	32893.13
696.501	32732.46
696.847	32693.36
697.193	32456.76
697.539	32602.29
697.885	32351
698.231	32233.94
698.577	32199.82
698.923	32214.96
699.269	32028.3
699.614	32001.4
699.96	31994.85
700.306	31878.02
700.651	31740.17
700.997	31672.15
701.342	31656.78
701.688	31608.65
702.033	31481.42
702.379	31362.33
702.724	31245.72
703.069	31392.61
703.415	31055.89
703.76	30990.58
704.105	31088.89
704.45	30971.37
704.795	30908.55
705.14	30620.42
705.485	30591.72
705.83	30512.4
706.175	30569.13
706.52	30565.28
706.865	30378.62
707.209	30408.45
707.554	30225.41
707.899	30334.56
708.243	30224.05
708.588	30191.06
708.932	29958.97
709.277	29885.08
709.621	29832.65
709.966	29685.98
710.31	29800.56
710.654	29631.3
710.998	29585.42
711.342	29578.87
711.687	29545.2
712.031	29434.01
712.375	29242.61
712.719	29347.01
713.063	29377.52
713.407	29392.21
713.75	29167.13
714.094	29149.05
714.438	29061.14
714.782	29135.49
715.125	28911.99
715.469	28954.25
715.812	28750.64
716.156	28697.31
716.499	28688.72
716.843	28732.11
717.186	28576.64
717.53	28654.37
717.873	28684.66
718.216	28638.33
718.559	28467.94
718.902	28240.15
719.246	28350.88
719.589	28178.45
719.932	28094.39
720.275	28122.18
720.617	28076.31
720.96	28003.09
721.303	27999.93
721.646	28043.54
721.989	27839.71
722.331	27979.14
722.674	27847.39
723.016	27832.47
723.359	27668.41
723.701	27765.81
724.044	27546.83
724.386	27375.31
724.729	27557
725.071	27428.19
725.413	27477
725.755	27403.56
726.097	27342.09
726.439	27220.51
726.782	27204.92
727.124	27389.1
727.465	27105.26
727.807	27090.57
728.149	27093.74
728.491	27014.64
728.833	26955.21
729.175	26956.57
729.516	26904.59
729.858	26847.42
730.199	26931.03
730.541	26974.87
730.882	26830.92
731.224	26907.3
731.565	26676.57
731.906	26675.89
732.248	26659.4
732.589	26611.72
732.93	26444.71
733.271	26615.33
733.612	26526.29
733.953	26564.71
734.294	26392.96
734.635	26378.28
734.976	26531.04
735.317	26268
735.658	26265.51
735.999	26200.88
736.339	26248.79
736.68	26238.39
737.021	26177.83
737.361	26082.92
737.702	26177.83
738.042	26060.32
738.383	25960.43
738.723	25970.38
739.063	25883.37
739.404	25800.21
739.744	25917.04
740.084	25813.09
740.424	25770.61
740.764	25612.42
741.104	25742.36
741.444	25546.43
741.784	25612.19
742.124	25662.59
742.464	25559.54
742.804	25534.68
743.143	25433.89
743.483	25406.78
743.823	25277.51
744.162	25360.9
744.502	25360.9
744.841	25211.75
745.181	25273.67
745.52	25215.82
745.86	25250.17
746.199	25143.51
746.538	25159.1
746.877	25212.43
747.216	25203.62
747.556	25079.55
747.895	25075.03
748.234	25029.16
748.573	24847.24
748.911	24870.97
749.25	24965.21
749.589	24779.45
749.928	24821.25
750.267	24826
750.605	24716.85
750.944	24667.13
751.283	24636.4
751.621	24702.61
751.96	24485.22
752.298	24540.36
752.636	24462.85
752.975	24361.61
753.313	24348.05
753.651	24415.84
753.989	24261.49
754.327	24226.24
754.666	24152.8
755.004	24236.86
755.342	24187.6
755.679	24086.81
756.017	23942.63
756.355	24036.42
756.693	23950.54
757.031	23994.61
757.368	23853.14
757.706	23749.64
758.044	23687.5
758.381	23693.6
758.719	23565.92
759.056	23692.47
759.394	23541.06
759.731	23368.86
760.068	23430.78
760.405	23364.8
760.743	23273.05
761.08	23319.82
761.417	23159.15
761.754	23074.18
762.091	23115.08
762.428	23142.88
762.765	22744.25
763.102	22979.04
763.438	22820.85
763.775	22709.45
764.112	22684.14
764.449	22735.43
764.785	22568.88
765.122	22437.36
765.458	22195.11
765.795	22372.96
766.131	22312.62
766.467	22298.83
766.804	22077.15
767.14	22034.43
767.476	22043.93
767.812	21887.09
768.148	21920.54
768.485	21824.5
768.821	21672.86
769.157	21749.24
769.492	21596.93
769.828	21523.71
770.164	21389.48
770.5	21213.21
770.836	21326.43
771.171	21142.71
771.507	21108.13
771.842	21002.15
772.178	20857.52
772.513	20889.61
772.849	20857.29
773.184	20795.37
773.519	20713.34
773.855	20653.91
774.19	20488.94
774.525	20563.06
774.86	20494.59
775.195	20356.06
775.53	20387.92
775.865	20101.15
776.2	20137.54
776.535	20085.11
776.87	19990.42
777.205	19962.17
777.539	19939.57
777.874	19913.36
778.209	19724.66
778.543	19653.93
778.878	19530.77
779.212	19557.44
779.547	19418.01
779.881	19507.27
780.215	19286.71
780.55	19319.7
780.884	19224.57
781.218	19152.7
781.552	19161.29
781.886	19026.38
782.22	18900.28
782.554	18870.22
782.888	18693.28
783.222	18642.66
783.556	18495.77
783.889	18547.52
784.223	18446.73
784.557	18359.96
784.89	18324.7
785.224	18293.74
785.557	18258.94
785.891	18152.95
786.224	18174.42
786.558	18098.27
786.891	17830.7
787.224	17834.32
787.557	17797.26
787.891	17735.11
788.224	17707.99
788.557	17577.83
788.89	17606.75
789.223	17635.23
789.556	17456.7
789.888	17398.62
790.221	17297.38
790.554	17249.93
790.887	17218.06
791.219	17153.43
791.552	17035.02
791.884	16967.68
792.217	16979.65
792.549	16927
792.882	16765.19
793.214	16718.87
793.546	16758.19
793.879	16696.04
794.211	16562.49
794.543	16635.48
794.875	16484.75
795.207	16628.25
795.539	16444.3
795.871	16437.07
796.203	16262.84
796.535	16162.95
796.867	16194.59
797.198	16183.52
797.53	16059.68
797.862	16062.39
798.193	16023.52
798.525	15959.79
798.856	16030.3
799.188	15858.33
799.519	15813.36
799.85	15670.76
800.182	15652.23
800.513	15598.9
800.844	15457.66
801.175	15604.32
801.506	15639.12
801.837	15540.82
802.168	15453.59
802.499	15414.27
802.83	15219.7
803.161	15209.98
803.491	15275.97
803.822	15216.31
804.153	15087.5
804.483	14982.64
804.814	15053.15
805.145	14886.37
805.475	14918.24
805.805	14969.76
806.136	14885.7
806.466	14951.91
806.796	14855.41
807.126	14627.85
807.457	14647.96
807.787	14649.54
808.117	14599.38
808.447	14542.2
808.777	14652.48
809.107	14466.72
809.436	14451.58
809.766	14470.11
810.096	14358.03
810.426	14336.11
810.755	14313.51
811.085	14321.42
811.414	14312.6
811.744	14153.51
812.073	14131.37
812.403	14132.27
812.732	14125.72
813.061	14060.18
813.39	13999.62
813.719	13892.95
814.049	13982.67
814.378	13920.07
814.707	13826.06
815.036	13861.77
815.365	13754.43
815.693	13639.18
816.022	13640.31
816.351	13587.88
816.68	13551.27
817.008	13574.32
817.337	13511.04
817.665	13478.5
817.994	13469.46
818.322	13474.21
818.651	13344.95
818.979	13305.17
819.307	13376.36
819.636	13317.83
819.964	13238.06
820.292	13377.26
820.62	13282.35
820.948	13235.57
821.276	13194.22
821.604	13211.16
821.932	13247.77
822.259	13264.72
822.587	13193.76
822.915	13203.25
823.243	13223.82
823.57	13215.01
823.898	13197.83
824.225	13197.15
824.553	13179.07
824.88	13166.42
825.207	13176.81
825.535	13179.75
825.862	13155.8
826.189	13117.83
826.516	13164.39
826.843	13173.2
827.17	13221.33
827.497	13168.68
827.824	13182.46
828.151	13215.46
828.478	13162.8
828.805	13179.3
829.131	13175.46
829.458	13128.45
829.785	13069.47
830.111	13071.28
830.438	13155.35
830.764	13045.29
831.09	13092.3
831.417	13012.75
831.743	13029.25
832.069	13064.05
832.395	12974.79
832.722	13028.34
833.048	13084.84
833.374	13075.8
833.7	12925.07
834.026	12957.39
834.351	13076.93
834.677	12952.87
835.003	13000.32
835.329	12916.48
835.654	12955.35
835.98	12888.91
836.306	12920.78
836.631	12878.07
836.956	12903.38
837.282	12906.31
837.607	12808.24
837.932	12755.81
838.258	12797.84
838.583	12817.73
838.908	12743.15
839.233	12683.49
839.558	12709.48
839.883	12601.01
840.208	12606.89
840.533	12598.52
840.858	12603.5
841.182	12639.88
841.507	12595.81
841.832	12476.49
842.156	12482.14
842.481	12514.23
842.805	12412.31
843.13	12425.42
843.454	12331.87
843.778	12367.8
844.103	12250.29
844.427	12282.83
844.751	12329.61
845.075	12206.22
845.399	12187.01
845.723	12186.56
846.047	12134.58
846.371	12046
846.695	11988.37
847.019	11895.27
847.343	11881.26
847.666	11820.24
847.99	11807.59
848.313	11777.53
848.637	11748.6
848.96	11696.18
849.284	11682.62
849.607	11516.07
849.931	11555.16
850.254	11391.32
850.577	11424.32
850.9	11317.2
851.223	11329.86
851.546	11276.07
851.869	11226.36
852.192	11281.5
852.515	11139.81
852.838	11086.7
853.161	11126.02
853.483	11034.05
853.806	11020.26
854.129	10952.01
854.451	10964.22
854.774	10899.81
855.096	10845.58
855.419	10828.18
855.741	10782.53
856.063	10764.45
856.385	10754.73
856.708	10653.27
857.03	10676.09
857.352	10599.93
857.674	10543.66
857.996	10557.45
858.318	10479.94
858.64	10523.78
858.961	10471.35
859.283	10416.66
859.605	10433.16
859.926	10396.32
860.248	10345.25
860.57	10348.41
860.891	10308.19
861.212	10287.85
861.534	10239.72
861.855	10213.95
862.176	10213.5
862.498	10217.34
862.819	10253.28
863.14	10117.69
863.461	10124.92
863.782	10143.67
864.103	10081.98
864.424	10034.07
864.745	10171.02
865.065	10023.23
865.386	10036.33
865.707	10027.97
866.027	9990.68
866.348	9988.2
866.668	9917.01
866.989	9900.97
867.309	9804.7
867.63	9865.94
867.95	9849.9
868.27	9871.59
868.59	9802.21
868.91	9817.58
869.23	9842.44
869.55	9776.9
869.87	9773.97
870.19	9740.07
870.51	9765.15
870.83	9775.55
871.15	9718.83
871.469	9740.07
871.789	9702.78
872.109	9655.1
872.428	9613.97
872.748	9641.31
873.067	9630.69
873.386	9632.27
873.706	9609.68
874.025	9600.64
874.344	9491.94
874.663	9534.42
874.982	9559.28
875.301	9482.9
875.62	9496.01
875.939	9442.9
876.258	9462.34
876.577	9485.61
876.896	9417.59
877.214	9343.47
877.533	9412.39
877.852	9332.62
878.17	9350.02
878.489	9358.84
878.807	9355.45
879.125	9281.32
879.444	9333.75
879.762	9253.3
880.08	9276.35
880.398	9163.59
880.716	9231.16
881.034	9191.16
881.352	9192.96
881.67	9165.39
881.988	9173.08
882.306	9103.7
882.624	9100.09
882.941	9066.87
883.259	9063.7
883.577	9002.46
883.894	9056.24
884.212	8973.54
884.529	8978.05
884.846	8949.13
885.164	8985.06
885.481	8899.64
885.798	8898.73
886.115	8829.36
886.432	8849.92
886.75	8834.33
887.067	8830.71
887.383	8759.53
887.7	8782.35
888.017	8743.26
888.334	8769.25
888.651	8759.53
888.967	8687.44
889.284	8631.17
889.6	8580.1
889.917	8581.68
890.233	8591.4
890.55	8581.23
890.866	8515.92
891.182	8472.98
891.498	8538.29
891.815	8472.31
892.131	8458.07
892.447	8444.51
892.763	8456.71
893.079	8419.65
893.395	8345.76
893.71	8315.7
894.026	8297.85
894.342	8300.11
894.657	8219.66
894.973	8171.07
895.289	8242.48
895.604	8206.78
895.92	8119.09
896.235	8161.58
896.55	8162.71
896.865	8131.98
897.181	8079.1
897.496	8008.36
897.811	8060.79
898.126	7952.55
898.441	7928.59
898.756	7955.03
899.071	7855.82
899.386	7873.68
899.7	7828.03
900.015	7747.35
900.33	7763.85
900.644	7702.61
900.959	7712.33
901.273	7756.84
901.588	7666.22
901.902	7687.92
902.216	7618.77
902.531	7572.67
902.845	7558.43
903.159	7525.44
903.473	7466.91
903.787	7475.5
904.101	7384.2
904.415	7437.08
904.729	7373.35
905.042	7328.83
905.356	7318.66
905.67	7334.26
905.984	7299.45
906.297	7272.11
906.611	7265.56
906.924	7166.58
907.237	7182.85
907.551	7186.69
907.864	7060.59
908.177	7108.5
908.491	7084.09
908.804	7060.82
909.117	6977.88
909.43	6932.46
909.743	6955.74
910.056	6914.61
910.368	6896.75
910.681	6857.21
910.994	6785.8
911.307	6782.86
911.619	6724.1
911.932	6726.14
912.244	6730.43
912.557	6735.63
912.869	6640.49
913.181	6631
913.494	6620.6
913.806	6539.7
914.118	6563.43
914.43	6512.36
914.742	6499.7
915.054	6423.77
915.366	6477.33
915.678	6396.2
915.99	6321.85
916.302	6341.06
916.613	6343.32
916.925	6313.72
917.236	6253.15
917.548	6268.07
917.859	6270.78
918.171	6207.05
918.482	6197.79
918.794	6147.39
919.105	6157.34
919.416	6136.32
919.727	6114.18
920.038	6053.84
920.349	5991.69
920.66	5991.92
920.971	5960.51
921.282	5962.31
921.593	5917.12
921.903	5865.37
922.214	5878.25
922.525	5847.74
922.835	5873.28
923.146	5789.66
923.456	5782.21
923.767	5776.33
924.077	5776.11
924.387	5730.91
924.697	5679.16
925.008	5628.99
925.318	5644.58
925.628	5624.02
925.938	5613.17
926.248	5550.35
926.558	5587.18
926.867	5558.48
927.177	5494.76
927.487	5455.66
927.796	5437.58
928.106	5443.68
928.416	5435.32
928.725	5400.97
929.034	5435.55
929.344	5388.77
929.653	5368.88
929.962	5352.39
930.271	5299.51
930.581	5277.14
930.89	5250.24
931.199	5221.09
931.508	5152.62
931.817	5191.26
932.125	5203.69
932.434	5170.25
932.743	5138.16
933.051	5111.26
933.36	5033.53
933.669	5030.59
933.977	5019.74
934.286	5026.07
934.594	4992.4
934.902	4935.22
935.21	4880.54
935.519	4924.83
935.827	4924.83
936.135	4884.6
936.443	4824.49
936.751	4813.19
937.059	4805.74
937.367	4804.15
937.674	4790.59
937.982	4750.14
938.29	4737.94
938.597	4705.4
938.905	4690.94
939.213	4642.35
939.52	4642.58
939.827	4656.59
940.135	4569.81
940.442	4569.13
940.749	4549.02
941.056	4599.19
941.363	4496.14
941.67	4523.48
941.977	4514.44
942.284	4448.23
942.591	4442.13
942.898	4426.76
943.205	4376.59
943.511	4400.55
943.818	4355.58
944.125	4340.44
944.431	4305.18
944.738	4334.11
945.044	4316.26
945.35	4269.7
945.657	4249.14
945.963	4266.54
946.269	4226.54
946.575	4236.48
946.881	4184.28
947.187	4173.89
947.493	4194.45
947.799	4162.81
948.105	4129.14
948.41	4119.65
948.716	4110.61
949.022	4100.89
949.327	4097.28
949.633	4053.89
949.938	4035.59
950.244	4003.72
950.549	3996.26
950.854	3985.19
951.16	3890.73
951.465	3942.48
951.77	3914.91
952.075	3921.69
952.38	3873.1
952.685	3880.79
952.99	3866.1
953.294	3848.25
953.599	3861.35
953.904	3793.78
954.209	3764.18
954.513	3790.62
954.818	3719.89
955.122	3733.67
955.426	3743.62
955.731	3750.4
956.035	3704.75
956.339	3691.19
956.643	3645.99
956.948	3649.38
957.252	3660.45
957.556	3670.4
957.86	3577.97
958.163	3557.18
958.467	3556.05
958.771	3536.16
959.075	3556.95
959.378	3491.87
959.682	3534.58
959.985	3505.2
960.289	3473.11
960.592	3479.89
960.896	3464.53
961.199	3419.56
961.502	3446.67
961.805	3423.62
962.108	3356.96
962.411	3366.23
962.714	3327.58
963.017	3339.33
963.32	3319.45
963.623	3320.12
963.926	3267.92
964.228	3287.36
964.531	3288.71
964.833	3250.07
965.136	3242.61
965.438	3206.68
965.741	3199
966.043	3175.72
966.345	3198.09
966.648	3169.62
966.95	3184.99
967.252	3120.58
967.554	3129.17
967.856	3118.55
968.158	3083.29
968.46	3080.13
968.761	3071.54
969.063	3050.98
969.365	3037.65
969.666	3023.86
969.968	2980.7
970.269	3023.18
970.571	3020.25
970.872	2980.92
971.174	2979.34
971.475	2958.55
971.776	2909.51
972.077	2930.08
972.378	2920.81
972.679	2899.12
972.98	2879.68
973.281	2884.2
973.582	2869.51
973.883	2848.72
974.183	2833.81
974.484	2847.14
974.785	2794.04
975.085	2776.86
975.386	2811.89
975.686	2796.3
975.986	2773.02
976.287	2766.47
976.587	2733.47
976.887	2732.8
977.187	2734.15
977.487	2725.79
977.787	2688.5
978.087	2689.18
978.387	2654.15
978.687	2674.94
978.987	2641.27
979.286	2626.13
979.586	2633.59
979.885	2616.64
980.185	2593.82
980.484	2596.53
980.784	2588.84
981.083	2583.42
981.382	2534.83
981.682	2546.59
981.981	2539.81
982.28	2551.56
982.579	2519.24
982.878	2543.65
983.177	2507.26
983.475	2504.55
983.774	2474.5
984.073	2445.8
984.372	2456.64
984.67	2442.86
984.969	2437.44
985.267	2442.18
985.566	2401.05
985.864	2407.38
986.162	2418.91
986.461	2354.27
986.759	2373.26
987.057	2315.18
987.355	2353.82
987.653	2364.9
987.951	2321.73
988.249	2305.91
988.547	2321.28
988.844	2296.2
989.142	2308.63
989.44	2250.77
989.737	2252.36
990.035	2254.84
990.332	2268.63
990.63	2222.53
990.927	2232.47
991.224	2235.18
991.521	2164
991.819	2161.51
992.116	2202.41
992.413	2196.54
992.71	2142.3
993.006	2147.73
993.303	2153.15
993.6	2133.72
993.897	2118.12
994.193	2116.99
994.49	2100.72
994.787	2116.31
995.083	2088.07
995.379	2091.23
995.676	2073.83
995.972	2071.57
996.268	2039.03
996.565	2023.66
996.861	2039.71
997.157	2021.4
997.453	1996.77
997.749	1990.67
998.044	1993.61
998.34	2015.07
998.636	1976.43
998.932	1973.95
999.227	1948.41
999.523	1944.57
999.818	1967.62
1000.114	1925.13
1000.409	1950.22
1000.704	1907.51
1001	1915.19
1001.295	1881.29
1001.59	1904.34
1001.885	1850.11
1002.18	1839.71
1002.475	1868.86
1002.77	1844.91
1003.065	1823.44
1003.359	1805.59
1003.654	1812.59
1003.949	1811.01
1004.243	1789.32
1004.538	1770.33
1004.832	1792.93
1005.127	1754.97
1005.421	1725.14
1005.715	1734.63
1006.009	1754.97
1006.304	1715.87
1006.598	1714.29
1006.892	1691.69
1007.186	1703.67
1007.48	1701.86
1007.773	1669.55
1008.067	1642.2
1008.361	1667.51
1008.655	1661.64
1008.948	1627.51
1009.242	1631.58
1009.535	1611.02
1009.829	1614.63
1010.122	1606.27
1010.415	1591.81
1010.708	1566.72
1011.001	1590.45
1011.295	1548.65
1011.588	1595.65
1011.881	1548.65
1012.173	1493.96
1012.466	1521.53
1012.759	1520.85
1013.052	1538.25
1013.344	1521.08
1013.637	1516.1
1013.93	1476.11
1014.222	1497.12
1014.514	1489.89
1014.807	1446.95
1015.099	1449.44
1015.391	1429.55
1015.683	1431.36
1015.976	1394.53
1016.268	1441.76
1016.56	1419.38
1016.851	1416.9
1017.143	1406.73
1017.435	1386.39
1017.727	1381.64
1018.018	1366.96
1018.31	1353.17
1018.602	1345.26
1018.893	1371.02
1019.185	1353.17
1019.476	1338.93
1019.767	1328.09
1020.058	1328.76
1020.35	1322.44
1020.641	1281.08
1020.932	1304.58
1021.223	1271.82
1021.514	1243.34
1021.804	1259.61
1022.095	1284.47
1022.386	1250.57
1022.677	1233.17
1022.967	1229.78
1023.258	1203.57
1023.548	1204.02
1023.839	1226.39
1024.129	1212.38
1024.419	1202.89
1024.709	1162.44
1025	1171.48
1025.29	1211.03
1025.58	1189.33
1025.87	1157.24
1026.16	1153.18
1026.449	1145.94
1026.739	1144.36
1027.029	1132.39
1027.319	1140.75
1027.608	1122.89
1027.898	1125.38
1028.187	1109.11
1028.477	1113.4
1028.766	1104.82
1029.055	1087.87
1029.344	1068.66
1029.634	1081.31
1029.923	1059.39
1030.212	1066.17
1030.501	1031.82
1030.79	1043.57
1031.078	1041.31
1031.367	1036.79
1031.656	994.99
1031.945	1017.81
1032.233	1021.88
1032.522	1027.53
1032.81	985.95
1033.099	1017.36
1033.387	1009.45
1033.675	971.26
1033.963	980.75
1034.251	965.84
1034.54	944.82
1034.828	970.13
1035.116	961.77
1035.403	951.15
1035.691	940.3
1035.979	923.58
1036.267	919.51
1036.554	908.89
1036.842	916.12
1037.129	886.97
1037.417	895.1
1037.704	891.49
1037.992	904.82
1038.279	872.05
1038.566	886.97
1038.853	886.97
1039.14	886.97
