Data from hue_160_FLMS001491_00071.txt Node
Date: Tue Feb 07 16:51:39 GMT 2017
User: dcchb
Spectrometer: FLMS00149
Trigger mode: 0
Integration Time (sec): 2.000000E-2
Scans to average: 10
Electric dark correction enabled: true
Nonlinearity correction enabled: false
Boxcar width: 0
XAxis mode: Wavelengths
Number of Pixels in Spectrum: 2048
>>>>>Begin Spectral Data<<<<<
341.393	-11.17
341.776	-11.17
342.16	-11.17
342.543	-49.82
342.927	-58.18
343.31	-66.31
343.693	-73.32
344.077	-60.44
344.46	-66.31
344.843	-45.52
345.226	-33.09
345.61	-58.18
345.993	-22.02
346.376	-7.56
346.759	16.17
347.142	36.74
347.525	51.65
347.908	84.19
348.291	77.41
348.674	79.9
349.057	86.68
349.44	149.73
349.823	131.2
350.206	170.97
350.588	177.98
350.971	211.2
351.354	239.67
351.737	231.76
352.119	252.1
352.502	266.56
352.884	269.72
353.267	282.61
353.65	302.49
354.032	308.14
354.414	303.62
354.797	316.5
355.179	316.05
355.562	331.64
355.944	329.38
356.326	339.1
356.709	349.72
357.091	349.04
357.473	334.13
357.855	324.41
358.238	338.65
358.62	335.03
359.002	324.19
359.384	331.19
359.766	326.67
360.148	353.79
360.53	327.8
360.912	349.5
361.294	344.3
361.676	340.01
362.057	332.77
362.439	328.93
362.821	324.19
363.203	311.31
363.584	330.06
363.966	319.44
364.348	342.72
364.729	304.98
365.111	314.92
365.493	329.16
365.874	319.44
366.256	291.42
366.637	309.5
367.019	314.92
367.4	335.49
367.781	334.13
368.163	311.98
368.544	302.49
368.925	305.2
369.306	307.46
369.688	310.4
370.069	320.34
370.45	310.4
370.831	296.39
371.212	326.22
371.593	310.18
371.974	300.68
372.355	304.3
372.736	314.7
373.117	310.63
373.498	314.92
373.879	304.07
374.26	317.63
374.641	316.73
375.021	303.85
375.402	316.28
375.783	298.88
376.163	338.65
376.544	292.55
376.925	314.47
377.305	315.83
377.686	316.73
378.066	304.3
378.447	340.01
378.827	325.99
379.208	336.16
379.588	316.73
379.968	336.84
380.349	346.78
380.729	340.01
381.109	337.07
381.489	353.34
381.87	332.77
382.25	331.42
382.63	326.45
383.01	330.29
383.39	358.99
383.77	337.97
384.15	326.9
384.53	340.68
384.91	357.18
385.29	348.14
385.67	344.98
386.049	342.27
386.429	340.91
386.809	364.41
387.189	347.24
387.568	349.04
387.948	337.75
388.328	343.85
388.707	345.43
389.087	357.63
389.466	359.89
389.846	370.74
390.225	353.34
390.605	372.09
390.984	358.99
391.363	358.99
391.743	366.45
392.122	354.92
392.501	373
392.881	361.7
393.26	370.29
393.639	387.69
394.018	398.31
394.397	398.53
394.776	374.58
395.155	375.03
395.534	376.84
395.913	389.5
396.292	381.81
396.671	398.31
397.05	413
397.429	382.26
397.808	387.91
398.186	371.87
398.565	387.46
398.944	353.34
399.323	410.74
399.701	407.8
400.08	407.35
400.458	409.83
400.837	388.59
401.215	394.69
401.594	387.69
401.972	406.44
402.351	400.79
402.729	413.68
403.107	416.16
403.486	401.47
403.864	417.07
404.242	421.58
404.62	411.19
404.999	418.2
405.377	416.61
405.755	419.33
406.133	434.69
406.511	430.17
406.889	440.79
407.267	437.18
407.645	432.43
408.023	434.24
408.401	429.04
408.779	444.18
409.156	457.52
409.534	437.4
409.912	463.17
410.29	445.31
410.667	443.51
411.045	462.49
411.422	471.98
411.8	454.8
412.178	440.79
412.555	474.46
412.933	493.22
413.31	481.47
413.687	477.63
414.065	467.69
414.442	499.55
414.819	509.27
415.197	502.26
415.574	505.42
415.951	502.49
416.328	494.58
416.705	499.32
417.082	514.24
417.46	515.37
417.837	522.6
418.214	525.54
418.591	541.81
418.967	538.42
419.344	527.12
419.721	540.9
420.098	525.99
420.475	542.26
420.852	538.87
421.228	551.3
421.605	556.27
421.982	559.89
422.358	561.47
422.735	558.98
423.111	561.69
423.488	579.09
423.864	584.29
424.241	571.64
424.617	593.78
424.994	567.8
425.37	604.63
425.746	592.88
426.123	607.57
426.499	607.34
426.875	603.95
427.251	607.79
427.627	650.05
428.003	625.87
428.379	629.26
428.756	624.29
429.132	648.25
429.507	622.71
429.883	629.04
430.259	659.09
430.635	686.21
431.011	643.05
431.387	667
431.763	673.78
432.138	671.97
432.514	699.09
432.89	706.1
433.265	697.51
433.641	715.36
434.016	707.68
434.392	718.07
434.767	747.45
435.143	761.24
435.518	744.06
435.894	752.2
436.269	748.58
436.644	760.33
437.02	791.74
437.395	787.45
437.77	784.74
438.145	788.35
438.52	793.1
438.895	803.27
439.271	812.08
439.646	807.79
440.021	819.99
440.395	827.45
440.77	848.24
441.145	852.53
441.52	860.22
441.895	841.46
442.27	852.99
442.645	848.47
443.019	898.41
443.394	874.23
443.769	879.2
444.143	880.1
444.518	900.67
444.892	901.12
445.267	895.92
445.641	908.35
446.016	925.53
446.39	919.88
446.764	920.78
447.139	931.4
447.513	933.44
447.887	949.71
448.262	931.4
448.636	928.69
449.01	1012.08
449.384	993.32
449.758	977.28
450.132	998.74
450.506	1008.24
450.88	1032.64
451.254	1009.59
451.628	1025.86
452.002	1038.07
452.376	1043.26
452.75	1072.19
453.123	1072.64
453.497	1073.32
453.871	1078.74
454.244	1096.82
454.618	1102.25
454.992	1131.85
455.365	1126.2
455.739	1137.05
456.112	1144.28
456.486	1181.79
456.859	1167.55
457.232	1184.95
457.606	1213.43
457.979	1229.02
458.352	1252.07
458.725	1238.29
459.099	1257.04
459.472	1302.92
459.845	1315.57
460.218	1314.22
460.591	1326.19
460.964	1339.75
461.337	1350.15
461.71	1369.58
462.083	1423.82
462.456	1394.89
462.829	1429.92
463.201	1411.62
463.574	1466.53
463.947	1499.07
464.32	1517.83
464.692	1537.94
465.065	1561.22
465.438	1575
465.81	1579.07
466.183	1594.44
466.555	1627.65
466.928	1654.55
467.3	1666.75
467.672	1666.98
468.045	1735.9
468.417	1746.52
468.789	1769.57
469.161	1772.28
469.534	1844.15
469.906	1877.82
470.278	1908.1
470.65	1944.71
471.022	1960.3
471.394	2029.68
471.766	2029
472.138	2078.04
472.51	2145.83
472.882	2205.94
473.253	2231.93
473.625	2287.98
473.997	2307.19
474.369	2358.48
474.74	2400.52
475.112	2473.96
475.484	2541.3
475.855	2586.95
476.227	2582.88
476.598	2694.75
476.97	2709.89
477.341	2823.1
477.713	2936.77
478.084	2934.29
478.455	3006.6
478.827	3096.99
479.198	3208.18
479.569	3281.17
479.94	3418.34
480.311	3454.95
480.682	3516.19
481.053	3652.91
481.424	3737.88
481.795	3816.52
482.166	3901.72
482.537	3992.11
482.908	4115.5
483.279	4178.77
483.65	4320.01
484.021	4409.5
484.391	4506
484.762	4664.86
485.133	4735.14
485.503	4786.89
485.874	4983.5
486.244	5119.54
486.615	5244.96
486.985	5314.34
487.356	5468.23
487.726	5573.77
488.097	5788.22
488.467	5835.68
488.837	5995.68
489.207	6106.86
489.578	6277.7
489.948	6333.97
490.318	6511.14
490.688	6575.32
491.058	6757.01
491.428	6919.95
491.798	7041.75
492.168	7139.37
492.538	7283.78
492.908	7452.36
493.278	7624.33
493.648	7608.97
494.017	7786.82
494.387	7988.17
494.757	8058.22
495.126	8246.92
495.496	8278.78
495.866	8369.62
496.235	8563.07
496.605	8601.26
496.974	8699.11
497.344	8914.47
497.713	8990.85
498.082	9158.76
498.452	9208.92
498.821	9294.8
499.19	9385.87
499.559	9483.72
499.928	9545.86
500.298	9651.17
500.667	9803.49
501.036	9836.25
501.405	9936.81
501.774	10004.84
502.143	10106.75
502.512	10165.96
502.88	10276.24
503.249	10305.62
503.618	10470.13
503.987	10483.24
504.356	10588.78
504.724	10616.35
505.093	10696.12
505.462	10781.76
505.83	10801.88
506.199	10912.16
506.567	11075.99
506.936	10994.19
507.304	11120.74
507.672	11243.9
508.041	11292.03
508.409	11390.34
508.777	11447.51
509.145	11500.39
509.514	11476.66
509.882	11576.32
510.25	11576.77
510.618	11728.86
510.986	11695.19
511.354	11826.93
511.722	11882.53
512.09	11956.65
512.458	11905.8
512.826	12020.6
513.193	12135.63
513.561	12002.75
513.929	12119.13
514.297	12253.59
514.664	12323.64
515.032	12278.22
515.4	12316.64
515.767	12380.37
516.135	12417.65
516.502	12384.43
516.869	12513.7
517.237	12543.3
517.604	12545.56
517.972	12651.77
518.339	12578.1
518.706	12621.04
519.073	12688.83
519.44	12673.69
519.808	12747.14
520.175	12689.06
520.542	12794.37
520.909	12876.17
521.276	12872.33
521.643	12941.26
522.009	12985.32
522.376	13025.55
522.743	13058.09
523.11	13039.11
523.477	13118.43
523.843	13236.84
524.21	13279.33
524.577	13355.03
524.943	13337.86
525.31	13340.57
525.676	13442.94
526.043	13432.99
526.409	13460.79
526.776	13446.78
527.142	13481.58
527.508	13506.66
527.874	13482.94
528.241	13517.96
528.607	13488.36
528.973	13474.58
529.339	13474.58
529.705	13558.87
530.071	13640.45
530.437	13613.55
530.803	13717.73
531.169	13704.4
531.535	13629.15
531.901	13657.17
532.267	13664.4
532.632	13608.36
532.998	13555.93
533.364	13642.25
533.73	13667.11
534.095	13598.87
534.461	13587.79
534.826	13566.32
535.192	13527.91
535.557	13524.29
535.923	13529.49
536.288	13537.4
536.653	13497.63
537.019	13409.49
537.384	13493.33
537.749	13498.3
538.114	13434.12
538.479	13345.76
538.845	13384.18
539.21	13263.96
539.575	13238.65
539.94	13295.82
540.305	13269.83
540.67	13163.4
541.034	13144.41
541.399	13171.53
541.764	13220.8
542.129	13203.17
542.494	13078.65
542.858	13095.6
543.223	13050.41
543.587	13063.29
543.952	13015.83
544.316	12909.39
544.681	12863.29
545.045	12887.92
545.41	12896.51
545.774	12840.92
546.138	12786.68
546.503	12748.27
546.867	12617.65
547.231	12762.73
547.595	12710.53
547.959	12642.05
548.324	12599.34
548.688	12641.15
549.052	12564.09
549.416	12489.74
549.779	12477.31
550.143	12462.85
550.507	12489.29
550.871	12422.17
551.235	12333.14
551.599	12430.76
551.962	12463.08
552.326	12351.21
552.689	12350.54
553.053	12170.88
553.417	12296.75
553.78	12314.38
554.143	12255.4
554.507	12322.74
554.87	12168.17
555.234	12245
555.597	12170.2
555.96	12137.89
556.323	12121.39
556.686	12138.11
557.05	12162.52
557.413	12241.16
557.776	12028.74
558.139	12157.32
558.502	12011.79
558.865	12061.96
559.228	12007.72
559.59	12094.27
559.953	12008.85
560.316	12124.78
560.679	12101.05
561.041	12136.31
561.404	12122.75
561.767	12154.16
562.129	12080.94
562.492	12205.91
562.854	12052.24
563.217	12106.7
563.579	12100.6
563.941	12053.82
564.304	12153.93
564.666	12223.76
565.028	12129.98
565.39	12094.5
565.753	12200.71
566.115	12183.31
566.477	12229.41
566.839	12206.81
567.201	12223.76
567.563	12217.66
567.925	12274.61
568.287	12295.62
568.648	12252.23
569.01	12231.9
569.372	12307.15
569.734	12260.6
570.095	12308.96
570.457	12293.82
570.819	12430.99
571.18	12375.62
571.542	12431.21
571.903	12344.66
572.265	12430.53
572.626	12387.6
572.987	12407.48
573.349	12369.52
573.71	12469.63
574.071	12433.47
574.432	12427.37
574.794	12524.54
575.155	12499.69
575.516	12409.97
575.877	12522.06
576.238	12442.06
576.599	12470.31
576.96	12461.27
577.32	12539.46
577.681	12513.24
578.042	12513.7
578.403	12482.51
578.763	12579.91
579.124	12561.6
579.485	12544.2
579.845	12655.39
580.206	12565.67
580.566	12543.98
580.927	12503.08
581.287	12479.57
581.648	12482.96
582.008	12494.26
582.368	12443.87
582.728	12538.1
583.089	12493.81
583.449	12466.69
583.809	12512.34
584.169	12543.07
584.529	12450.42
584.889	12483.41
585.249	12489.74
585.609	12336.3
585.969	12432.12
586.329	12338.11
586.688	12439.57
587.048	12432.57
587.408	12405.68
587.768	12318.67
588.127	12340.37
588.487	12357.77
588.846	12422.63
589.206	12356.86
589.565	12384.66
589.925	12390.31
590.284	12334.49
590.643	12428.05
591.003	12433.02
591.362	12452.68
591.721	12304.66
592.08	12342.63
592.44	12340.37
592.799	12445.68
593.158	12354.38
593.517	12300.82
593.876	12318
594.235	12294.95
594.593	12270.09
594.952	12363.42
595.311	12242.97
595.67	12218.11
596.029	12297.43
596.387	12354.38
596.746	12301.05
597.104	12254.72
597.463	12184.67
597.822	12239.81
598.18	12201.84
598.538	12207.94
598.897	12283.65
599.255	12240.26
599.613	12237.32
599.972	12226.02
600.33	12273.25
600.688	12150.09
601.046	12203.87
601.404	12276.87
601.762	12272.35
602.12	12263.31
602.478	12258.11
602.836	12331.1
603.194	12197.09
603.552	12244.55
603.91	12180.82
604.268	12244.78
604.625	12216.3
604.983	12258.79
605.341	12193.25
605.698	12267.83
606.056	12285.23
606.413	12217.66
606.771	12219.24
607.128	12272.12
607.485	12169.98
607.843	12155.74
608.2	12285.68
608.557	12256.3
608.914	12223.76
609.272	12229.64
609.629	12296.3
609.986	12356.86
610.343	12282.29
610.7	12388.73
611.057	12314.83
611.414	12309.63
611.771	12406.13
612.127	12424.21
612.484	12310.76
612.841	12404.32
613.198	12322.74
613.554	12363.87
613.911	12488.84
614.267	12464.21
614.624	12418.78
614.98	12430.31
615.337	12571.55
615.693	12538.55
616.05	12472.34
616.406	12526.58
616.762	12478.44
617.118	12533.36
617.475	12470.31
617.831	12558.89
618.187	12551.66
618.543	12566.58
618.899	12600.7
619.255	12565.67
619.611	12597.76
619.967	12528.39
620.323	12655.16
620.678	12632.79
621.034	12562.51
621.39	12503.3
621.746	12617.87
622.101	12649.51
622.457	12576.07
622.812	12625.33
623.168	12612.22
623.523	12615.16
623.879	12601.6
624.234	12560.7
624.589	12644.54
624.945	12617.87
625.3	12663.75
625.655	12613.35
626.01	12595.05
626.365	12582.62
626.72	12594.15
627.075	12597.08
627.43	12576.75
627.785	12468.73
628.14	12560.02
628.495	12602.28
628.85	12597.76
629.205	12471.89
629.559	12560.93
629.914	12514.6
630.269	12500.36
630.623	12552.57
630.978	12453.58
631.332	12483.87
631.687	12426.02
632.041	12377.43
632.396	12517.09
632.75	12344.89
633.104	12433.47
633.459	12354.83
633.813	12347.83
634.167	12347.37
634.521	12313.93
634.875	12382.17
635.229	12347.6
635.583	12213.14
635.937	12307.83
636.291	12276.41
636.645	12252.91
636.999	12204.33
637.352	12261.05
637.706	12211.56
638.06	12245
638.413	12211.78
638.767	12229.64
639.121	12093.37
639.474	12092.24
639.828	12162.97
640.181	12142.63
640.534	12144.44
640.888	12136.98
641.241	12111.22
641.594	12146.25
641.947	12099.7
642.301	12100.15
642.654	12103.99
643.007	12097.89
643.36	12084.56
643.713	11983.54
644.066	12120.03
644.419	11994.61
644.771	11993.26
645.124	11799.82
645.477	11924.79
645.83	11752.81
646.182	11701.74
646.535	11680.95
646.888	11650.44
647.24	11624.23
647.593	11657.67
647.945	11624
648.298	11604.79
648.65	11584.46
649.002	11539.26
649.355	11566.15
649.707	11553.27
650.059	11710.55
650.411	11828.52
650.763	11796.2
651.115	11945.58
651.467	11878.68
651.819	11887.95
652.171	11922.3
652.523	11802.3
652.875	11792.81
653.227	11806.82
653.578	11832.36
653.93	11916.42
654.282	11833.94
654.633	11715.07
654.985	11794.62
655.337	11838.01
655.688	11818.57
656.039	11866.71
656.391	11831.45
656.742	11860.15
657.094	11774.28
657.445	11954.39
657.796	11797.56
658.147	11763.89
658.498	11841.17
658.849	11879.36
659.2	11783.55
659.551	11768.63
659.902	11857.44
660.253	11788.07
660.604	11846.14
660.955	11795.07
661.306	11960.49
661.656	11846.14
662.007	11875.75
662.358	11940.15
662.708	11894.5
663.059	11842.75
663.409	11869.87
663.76	11866.48
664.11	11889.53
664.461	11888.85
664.811	11966.82
665.161	11877.55
665.511	11926.59
665.862	11853.15
666.212	11982.18
666.562	11857.67
666.912	11897.67
667.262	11954.62
667.612	11860.61
667.962	11922.3
668.312	11909.87
668.662	11890.21
669.011	11863.32
669.361	11832.81
669.711	11840.72
670.06	11860.83
670.41	11745.13
670.76	11827.39
671.109	11810.89
671.459	11873.49
671.808	11885.46
672.157	11840.49
672.507	11729.76
672.856	11782.42
673.205	11813.15
673.554	11902.19
673.904	11804.56
674.253	11820.38
674.602	11831.23
674.951	11636.21
675.3	11539.71
675.649	11690.22
675.998	11735.64
676.346	11694.73
676.695	11749.42
677.044	11636.43
677.393	11661.29
677.741	11699.25
678.09	11683.21
678.438	11629.65
678.787	11671.23
679.135	11689.99
679.484	11555.53
679.832	11615.19
680.181	11523.21
680.529	11591.01
680.877	11511.69
681.225	11487.28
681.573	11556.66
681.922	11508.75
682.27	11451.35
682.618	11424.01
682.966	11393.5
683.314	11419.26
683.661	11433.72
684.009	11339.72
684.357	11302.2
684.705	11286.16
685.053	11262.43
685.4	11204.58
685.748	11228.76
686.095	11141.3
686.443	11158.93
686.79	11156.67
687.138	11174.3
687.485	11111.02
687.832	11089.78
688.18	11104.92
688.527	10996.22
688.874	10953.96
689.221	10947.86
689.568	10896.56
689.915	10877.58
690.262	10924.13
690.609	10877.81
690.956	10821.76
691.303	10867.19
691.65	10740.86
691.997	10780.63
692.344	10722.11
692.69	10676.68
693.037	10662.67
693.383	10615.67
693.73	10624.25
694.077	10524.37
694.423	10519.62
694.769	10531.15
695.116	10457.48
695.462	10384.71
695.808	10389.91
696.155	10396.46
696.501	10335.67
696.847	10285.96
697.193	10150.82
697.539	10233.76
697.885	10149.92
698.231	10111.05
698.577	10097.94
698.923	10086.42
699.269	10006.42
699.614	9995.12
699.96	9933.65
700.306	9917.83
700.651	9864.5
700.997	9843.94
701.342	9827.89
701.688	9745.63
702.033	9814.56
702.379	9734.79
702.724	9650.27
703.069	9782.92
703.415	9585.86
703.76	9592.42
704.105	9631.51
704.45	9578.86
704.795	9535.7
705.14	9445.3
705.485	9409.37
705.83	9416.15
706.175	9383.38
706.52	9356.27
706.865	9309.26
707.209	9314.68
707.554	9257.06
707.899	9265.65
708.243	9169.38
708.588	9133.9
708.932	9162.15
709.277	9158.08
709.621	9145.42
709.966	9088.48
710.31	9069.49
710.654	8996.27
710.998	9029.49
711.342	8974.58
711.687	8972.32
712.031	8927.8
712.375	8963.06
712.719	8900.01
713.063	8946.11
713.407	8901.14
713.75	8841.7
714.094	8897.97
714.438	8850.06
714.782	8849.84
715.125	8773.68
715.469	8798.99
715.812	8740.24
716.156	8737.52
716.499	8707.92
716.843	8704.76
717.186	8695.04
717.53	8692.1
717.873	8742.72
718.216	8668.6
718.559	8627.24
718.902	8576.85
719.246	8616.62
719.589	8590.86
719.932	8576.17
720.275	8532.11
720.617	8608.71
720.96	8502.73
721.303	8529.85
721.646	8596.06
721.989	8478.32
722.331	8512.22
722.674	8523.52
723.016	8531.2
723.359	8460.92
723.701	8490.98
724.044	8529.17
724.386	8440.13
724.729	8424.99
725.071	8431.77
725.413	8482.39
725.755	8432.9
726.097	8371.43
726.439	8392
726.782	8318.33
727.124	8396.29
727.465	8370.98
727.807	8403.75
728.149	8360.59
728.491	8330.3
728.833	8353.58
729.175	8339.12
729.516	8311.55
729.858	8262.28
730.199	8338.89
730.541	8305.67
730.882	8290.08
731.224	8307.48
731.565	8308.61
731.906	8314.71
732.248	8327.37
732.589	8326.69
732.93	8230.87
733.271	8283.75
733.612	8274.26
733.953	8265.9
734.294	8244.43
734.635	8272.23
734.976	8288.27
735.317	8309.74
735.658	8272.23
735.999	8303.41
736.339	8243.3
736.68	8308.16
737.021	8307.71
737.361	8262.73
737.702	8345.67
738.042	8276.29
738.383	8296.86
738.723	8319.91
739.063	8329.85
739.404	8352
739.744	8321.94
740.084	8388.83
740.424	8408.49
740.764	8372.79
741.104	8403.3
741.444	8416.18
741.784	8382.51
742.124	8377.76
742.464	8416.63
742.804	8449.62
743.143	8471.99
743.483	8506.12
743.823	8508.6
744.162	8525.55
744.502	8604.65
744.841	8617.98
745.181	8617.98
745.52	8527.36
745.86	8658.43
746.199	8678.09
746.538	8792.21
746.877	8769.84
747.216	8834.7
747.556	8824.3
747.895	8883.74
748.234	8884.41
748.573	9025.2
748.911	9022.49
749.25	9103.16
749.589	9154.24
749.928	9186.55
750.267	9263.61
750.605	9302.03
750.944	9355.14
751.283	9456.6
751.621	9549.71
751.96	9558.52
752.298	9652.98
752.636	9845.74
752.975	9901.11
753.313	10002.12
753.651	10095.45
753.989	10129.35
754.327	10253.42
754.666	10354.21
755.004	10388.33
755.342	10635.55
755.679	10716.91
756.017	10801.65
756.355	10946.05
756.693	11070.34
757.031	11150.57
757.368	11362.77
757.706	11461.29
758.044	11572.03
758.381	11751.46
758.719	11849.08
759.056	12059.25
759.394	12137.44
759.731	12321.61
760.068	12484.54
760.405	12583.07
760.743	12713.47
761.08	12927.7
761.417	13122.72
761.754	13213.56
762.091	13382.37
762.428	13520.45
762.765	13523.39
763.102	13757.05
763.438	13973.55
763.775	14100.32
764.112	14352.97
764.449	14422.57
764.785	14678.39
765.122	14659.4
765.458	14710.25
765.795	15014.2
766.131	15193.17
766.467	15288.09
766.804	15403.34
767.14	15553.62
767.476	15602.2
767.812	15795.64
768.148	15878.35
768.485	15954.51
768.821	16038.35
769.157	16231.11
769.492	16460.03
769.828	16487.6
770.164	16512.69
770.5	16617.77
770.836	16779.35
771.171	16781.61
771.507	16885.11
771.842	16954.71
772.178	17072.45
772.513	17081.94
772.849	17246.68
773.184	17269.5
773.519	17336.39
773.855	17367.35
774.19	17409.61
774.525	17395.38
774.86	17628.36
775.195	17687.12
775.53	17681.02
775.865	17778.19
776.2	17763.05
776.535	17714.01
776.87	17821.13
777.205	17843.95
777.539	17815.93
777.874	18017.05
778.209	17834.23
778.543	17850.28
778.878	17845.08
779.212	18044.17
779.547	17996.49
779.881	18090.95
780.215	18053.21
780.55	18066.77
780.884	18033.33
781.218	18149.93
781.552	18078.52
781.886	18091.85
782.22	18098.18
782.554	18067.22
782.888	17962.82
783.222	18004.17
783.556	17895.48
783.889	17925.31
784.223	17882.37
784.557	17879.66
784.89	17955.81
785.224	17870.84
785.557	17923.27
785.891	17833.56
786.224	17799.89
786.558	17886.21
786.891	17648.93
787.224	17772.54
787.557	17669.94
787.891	17724.86
788.224	17782.26
788.557	17770.73
788.89	17839.88
789.223	17798.08
789.556	17598.76
789.888	17629.27
790.221	17620
790.554	17506.79
790.887	17542.04
791.219	17489.16
791.552	17384.08
791.884	17453
792.217	17400.8
792.549	17331.2
792.882	17332.55
793.214	17200.13
793.546	17239.67
793.879	17221.14
794.211	17126
794.543	17142.73
794.875	17021.6
795.207	17289.39
795.539	17069.96
795.871	17095.5
796.203	16946.57
796.535	16873.13
796.867	16783.87
797.198	16907.48
797.53	16910.64
797.862	16712
798.193	16745.68
798.525	16651.44
798.856	16703.87
799.188	16530.54
799.519	16512.69
799.85	16434.27
800.182	16542.97
800.513	16480.37
800.844	16392.01
801.175	16414.61
801.506	16389.98
801.837	16283.09
802.168	16271.34
802.499	16282.18
802.83	16211
803.161	16184.56
803.491	16153.37
803.822	16236.08
804.153	16011.46
804.483	15925.13
804.814	15905.47
805.145	15828.64
805.475	15964.68
805.805	15898.01
806.136	15882.87
806.466	15887.84
806.796	15803.33
807.126	15738.92
807.457	15621.41
807.787	15627.74
808.117	15636.78
808.447	15558.81
808.777	15629.32
809.107	15555.2
809.436	15483.34
809.766	15522.43
810.096	15397.69
810.426	15453.05
810.755	15389.33
811.085	15366.05
811.414	15395.65
811.744	15218.48
812.073	15188.88
812.403	15139.16
812.732	15121.09
813.061	15149.56
813.39	15100.97
813.719	14987.98
814.049	15052.39
814.378	15004.93
814.707	14939.4
815.036	14964.25
815.365	14865.95
815.693	14849.91
816.022	14781.21
816.351	14736.46
816.68	14708.67
817.008	14840.87
817.337	14715.67
817.665	14623.25
817.994	14637.03
818.322	14603.36
818.651	14550.03
818.979	14570.37
819.307	14517.94
819.636	14543.47
819.964	14432.74
820.292	14575.79
820.62	14451.72
820.948	14484.27
821.276	14483.14
821.604	14484.72
821.932	14540.31
822.259	14454.66
822.587	14441.78
822.915	14405.4
823.243	14434.32
823.57	14406.08
823.898	14436.81
824.225	14398.17
824.553	14436.13
824.88	14428
825.207	14418.51
825.535	14376.25
825.862	14473.64
826.189	14388.9
826.516	14371.05
826.843	14509.58
827.17	14460.31
827.497	14453.76
827.824	14501.67
828.151	14494.89
828.478	14424.38
828.805	14450.14
829.131	14324.5
829.458	14386.42
829.785	14372.4
830.111	14424.61
830.438	14477.71
830.764	14444.27
831.09	14476.13
831.417	14315.91
831.743	14468
832.069	14442.69
832.395	14376.47
832.722	14385.74
833.048	14420.76
833.374	14476.13
833.7	14307.1
834.026	14324.27
834.351	14395.91
834.677	14385.51
835.003	14375.79
835.329	14331.95
835.654	14351.61
835.98	14260.32
836.306	14316.36
836.631	14177.16
836.956	14244.5
837.282	14223.03
837.607	14168.12
837.932	14092.19
838.258	14217.83
838.583	14133.77
838.908	14016.93
839.233	14079.98
839.558	14020.78
839.883	13893.77
840.208	13881.34
840.533	13933.77
840.858	13986.88
841.182	13994.34
841.507	13926.99
841.832	13823.94
842.156	13955.69
842.481	13864.62
842.805	13794.79
843.13	13729.94
843.454	13707.34
843.778	13696.26
844.103	13746.43
844.427	13705.53
844.751	13712.99
845.075	13593.67
845.399	13486.33
845.723	13450.85
846.047	13461.02
846.371	13383.5
846.695	13411.53
847.019	13367.46
847.343	13213.79
847.666	13149.61
847.99	13104.64
848.313	13112.32
848.637	13106.45
848.96	13060.12
849.284	12963.85
849.607	12850.18
849.931	12807.47
850.254	12742.84
850.577	12621.04
850.9	12617.87
851.223	12567.93
851.546	12515.73
851.869	12472.34
852.192	12545.56
852.515	12386.47
852.838	12403.64
853.161	12323.42
853.483	12299.46
853.806	12211.11
854.129	12229.18
854.451	12084.33
854.774	12103.31
855.096	12096.98
855.419	12019.25
855.741	11990.77
856.063	11957.78
856.385	11923.88
856.708	11892.92
857.03	11851.34
857.352	11832.36
857.674	11756.43
857.996	11717.79
858.318	11666.94
858.64	11663.32
858.961	11636.66
859.283	11594.4
859.605	11539.48
859.926	11487.06
860.248	11615.19
860.57	11546.04
860.891	11565.25
861.212	11434.85
861.534	11430.11
861.855	11351.24
862.176	11372.03
862.498	11334.74
862.819	11369.09
863.14	11341.98
863.461	11258.36
863.782	11253.62
864.103	11291.58
864.424	11198.02
864.745	11240.28
865.065	11263.56
865.386	11126.39
865.707	11087.97
866.027	11142.88
866.348	11104.02
866.668	11106.5
866.989	11142.66
867.309	11017.92
867.63	11083.23
867.95	10953.74
868.27	10974.08
868.59	10962.1
868.91	10994.19
869.23	10942.89
869.55	10885.49
869.87	10902.89
870.19	10909.22
870.51	10900.86
870.83	10879.39
871.15	10776.34
871.469	10740.18
871.789	10896.11
872.109	10850.69
872.428	10768.21
872.748	10738.6
873.067	10691.15
873.386	10776.79
873.706	10736.79
874.025	10583.35
874.344	10639.85
874.663	10638.04
874.982	10629.23
875.301	10591.71
875.62	10471.49
875.939	10528.66
876.258	10541.54
876.577	10539.51
876.896	10509.46
877.214	10470.36
877.533	10464.26
877.852	10564.6
878.17	10485.95
878.489	10410.25
878.807	10416.35
879.125	10436.01
879.444	10372.06
879.762	10301.33
880.08	10337.71
880.398	10338.61
880.716	10335
881.034	10269.24
881.352	10220.65
881.67	10259.29
881.988	10226.75
882.306	10142.69
882.624	10193.76
882.941	10148.56
883.259	10058.85
883.577	10068.56
883.894	10127.32
884.212	10081.67
884.529	10029.69
884.846	10003.25
885.164	10027.43
885.481	9920.77
885.798	9952.18
886.115	9842.13
886.432	9930.71
886.75	9855.69
887.067	9873.31
887.383	9820.21
887.7	9862.01
888.017	9825.86
888.334	9776.82
888.651	9738.18
888.967	9751.06
889.284	9633.77
889.6	9605.52
889.917	9656.14
890.233	9561.91
890.55	9524.17
890.866	9563.94
891.182	9472.42
891.498	9493.44
891.815	9481.91
892.131	9422.48
892.447	9414.34
892.763	9362.82
893.079	9355.59
893.395	9249.83
893.71	9260.9
894.026	9204.63
894.342	9215.7
894.657	9097.06
894.973	9152.2
895.289	9143.16
895.604	9122.37
895.92	9042.15
896.235	8967.12
896.55	9001.47
896.865	8981.81
897.181	8951.98
897.496	8941.59
897.811	8842.61
898.126	8844.87
898.441	8817.75
898.756	8769.61
899.071	8685.1
899.386	8777.98
899.7	8671.09
900.015	8622.95
900.33	8639.22
900.644	8544.54
900.959	8620.69
901.273	8556.29
901.588	8549.51
901.902	8478.77
902.216	8463.18
902.531	8382.05
902.845	8386.35
903.159	8281.94
903.473	8315.84
903.787	8228.61
904.101	8268.84
904.415	8196.07
904.729	8214.37
905.042	8133.47
905.356	8119.91
905.67	8128.27
905.984	8106.13
906.297	8059.8
906.611	7987.04
906.924	7979.13
907.237	7935.51
907.551	7935.51
907.864	7845.12
908.177	7900.48
908.491	7853.71
908.804	7810.32
909.117	7697.78
909.43	7716.08
909.743	7781.62
910.056	7603.77
910.368	7638.8
910.681	7565.8
910.994	7554.05
911.307	7499.36
911.619	7436.32
911.932	7556.99
912.244	7410.1
912.557	7426.37
912.869	7352.7
913.181	7305.47
913.494	7363.55
913.806	7274.29
914.118	7275.64
914.43	7235.87
914.742	7269.54
915.054	7142.99
915.366	7187.96
915.678	7107.06
915.99	7093.27
916.302	6993.84
916.613	7059.38
916.925	6989.55
917.236	7018.47
917.548	6973.96
917.859	6975.08
918.171	6903.9
918.482	6864.13
918.794	6803.11
919.105	6844.69
919.416	6794.3
919.727	6750.01
920.038	6762.44
920.349	6723.79
920.66	6681.99
920.971	6695.32
921.282	6616
921.593	6651.7
921.903	6501.65
922.214	6577.81
922.525	6484.48
922.835	6450.35
923.146	6432.5
923.456	6410.81
923.767	6409
924.077	6392.73
924.387	6350.92
924.697	6314.76
925.008	6314.99
925.318	6268.66
925.628	6238.61
925.938	6203.13
926.248	6195.67
926.558	6152.73
926.867	6165.16
927.177	6186.86
927.487	6122.45
927.796	6030.25
928.106	6039.29
928.416	6011.04
928.725	6021.21
929.034	5968.78
929.344	5943.7
929.653	5928.56
929.962	5882.46
930.271	5869.13
930.581	5815.57
930.89	5811.73
931.199	5767.21
931.508	5759.98
931.817	5764.27
932.125	5757.94
932.434	5749.13
932.743	5665.51
933.051	5649.7
933.36	5631.84
933.669	5602.47
933.977	5599.98
934.286	5597.04
934.594	5501.9
934.902	5533.54
935.21	5451.28
935.519	5445.63
935.827	5414
936.135	5389.14
936.443	5399.99
936.751	5387.78
937.059	5376.03
937.367	5344.85
937.674	5270.95
937.982	5252.87
938.29	5264.85
938.597	5222.36
938.905	5167
939.213	5175.81
939.52	5148.47
939.827	5194.57
940.135	5136.72
940.442	5116.83
940.749	5103.95
941.056	5081.8
941.363	5032.31
941.67	5058.3
941.977	5015.59
942.284	4976.72
942.591	4944.63
942.898	4907.12
943.205	4909.6
943.511	4899.21
943.818	4839.1
944.125	4841.81
944.431	4838.87
944.738	4790.51
945.044	4789.38
945.35	4773.33
945.657	4770.4
945.963	4741.02
946.269	4758.87
946.575	4708.48
946.881	4690.17
947.187	4623.96
947.493	4639.55
947.799	4674.35
948.105	4615.37
948.41	4521.82
948.716	4600.23
949.022	4542.15
949.327	4527.01
949.633	4465.77
949.938	4443.4
950.244	4458.77
950.549	4454.25
950.854	4377.64
951.16	4421.25
951.465	4345.32
951.77	4348.26
952.075	4318.88
952.38	4353.46
952.685	4296.74
952.99	4277.75
953.294	4262.84
953.599	4254.03
953.904	4224.2
954.209	4194.82
954.513	4161.6
954.818	4169.73
955.122	4168.61
955.426	4181.94
955.731	4147.14
956.035	4117.53
956.339	4120.7
956.643	4106.69
956.948	4051.32
957.252	4026.24
957.556	4034.82
957.86	4046.8
958.163	3966.35
958.467	4002.96
958.771	3991.43
959.075	3949.18
959.378	3946.01
959.682	3917.54
959.985	3901.49
960.289	3915.5
960.592	3890.65
960.896	3885.22
961.199	3859.46
961.502	3816.52
961.805	3808.16
962.108	3764.32
962.411	3794.15
962.714	3729.07
963.017	3744.66
963.32	3745.11
963.623	3694.49
963.926	3673.48
964.228	3658.11
964.531	3662.63
964.833	3640.71
965.136	3594.61
965.438	3565.68
965.741	3603.42
966.043	3540.6
966.345	3541.73
966.648	3548.96
966.95	3506.02
967.252	3489.75
967.554	3468.28
967.856	3500.37
968.158	3489.53
968.46	3462.18
968.761	3449.53
969.063	3429.64
969.365	3376.99
969.666	3383.54
969.968	3350.1
970.269	3392.13
970.571	3342.41
970.872	3317.55
971.174	3332.92
971.475	3308.06
971.776	3278.23
972.077	3278.68
972.378	3271.91
972.679	3239.36
972.98	3239.59
973.281	3243.88
973.582	3196.43
973.883	3171.34
974.183	3206.82
974.484	3141.29
974.785	3148.97
975.085	3132.7
975.386	3122.76
975.686	3137.22
975.986	3084.79
976.287	3077.33
976.587	3007.28
976.887	3042.76
977.187	3032.59
977.487	3017.67
977.787	3021.29
978.087	2979.26
978.387	3029.43
978.687	2984.23
978.987	2958.92
979.286	2965.25
979.586	2960.95
979.885	2909.2
980.185	2911.91
980.484	2906.04
980.784	2854.97
981.083	2849.09
981.382	2872.82
981.682	2803.9
981.981	2810.67
982.28	2819.71
982.579	2786.27
982.878	2789.66
983.177	2732.71
983.475	2754.18
983.774	2765.48
984.073	2747.4
984.372	2709.66
984.67	2707.63
984.969	2723.45
985.267	2676.89
985.566	2672.37
985.864	2690.9
986.162	2645.93
986.461	2640.28
986.759	2643.45
987.057	2582.21
987.355	2620.4
987.653	2620.4
987.951	2581.75
988.249	2564.81
988.547	2549.44
988.844	2558.7
989.142	2549.44
989.44	2505.37
989.737	2501.76
990.035	2496.56
990.332	2482.77
990.63	2488.65
990.927	2452.94
991.224	2473.51
991.521	2452.27
991.819	2452.94
992.116	2412.95
992.413	2419.27
992.71	2396.9
993.006	2374.08
993.303	2403.91
993.6	2351.93
993.897	2341.99
994.193	2367.75
994.49	2350.12
994.787	2299.5
995.083	2311.25
995.379	2299.5
995.676	2278.71
995.972	2266.73
996.268	2248.43
996.565	2247.53
996.861	2243.46
997.157	2245.27
997.453	2233.74
997.749	2215.21
998.044	2203.01
998.34	2186.06
998.636	2183.35
998.932	2144.03
999.227	2150.35
999.523	2130.47
999.818	2123.24
1000.114	2117.59
1000.409	2090.24
1000.704	2146.29
1001	2062.22
1001.295	2113.29
1001.59	2041.43
1001.885	2036.91
1002.18	2045.5
1002.475	2051.15
1002.77	2025.61
1003.065	2041.43
1003.359	1996.01
1003.654	2017.48
1003.949	1969.34
1004.243	1940.87
1004.538	1970.24
1004.832	1957.59
1005.127	1959.4
1005.421	1933.64
1005.715	1921.21
1006.009	1946.52
1006.304	1902.68
1006.598	1851.38
1006.892	1867.87
1007.186	1892.28
1007.48	1830.14
1007.773	1851.6
1008.067	1837.14
1008.361	1821.77
1008.655	1810.47
1008.948	1835.56
1009.242	1785.16
1009.535	1751.72
1009.829	1778.39
1010.122	1748.56
1010.415	1760.53
1010.708	1732.74
1011.001	1734.77
1011.295	1691.61
1011.588	1690.25
1011.881	1694.77
1012.173	1687.77
1012.466	1692.29
1012.759	1689.57
1013.052	1668.78
1013.344	1648.22
1013.637	1650.48
1013.93	1611.61
1014.222	1600.76
1014.514	1610.25
1014.807	1590.14
1015.099	1566.41
1015.391	1591.5
1015.683	1601.67
1015.976	1567.77
1016.268	1555.34
1016.56	1562.35
1016.851	1530.93
1017.143	1539.3
1017.435	1528.22
1017.727	1509.69
1018.018	1494.1
1018.31	1500.65
1018.602	1493.87
1018.893	1476.25
1019.185	1486.19
1019.476	1433.54
1019.767	1469.02
1020.058	1452.29
1020.35	1438.28
1020.641	1423.59
1020.932	1405.97
1021.223	1417.04
1021.514	1391.5
1021.804	1386.76
1022.095	1359.64
1022.386	1334.56
1022.677	1379.75
1022.967	1362.13
1023.258	1328
1023.548	1348.34
1023.839	1327.55
1024.129	1326.87
1024.419	1315.12
1024.709	1319.64
1025	1289.36
1025.29	1278.29
1025.58	1286.19
1025.87	1287.32
1026.16	1301.11
1026.449	1229.25
1026.739	1239.87
1027.029	1231.28
1027.319	1233.09
1027.608	1212.98
1027.898	1211.62
1028.187	1198.74
1028.477	1199.42
1028.766	1169.59
1029.055	1172.98
1029.344	1149.02
1029.634	1173.43
1029.923	1160.77
1030.212	1143.6
1030.501	1151.28
1030.79	1122.36
1031.078	1123.71
1031.367	1124.39
1031.656	1090.72
1031.945	1104.5
1032.233	1093.88
1032.522	1098.86
1032.81	1098.18
1033.099	1087.33
1033.387	1073.55
1033.675	1078.06
1033.963	1066.31
1034.251	1035.58
1034.54	1040.78
1034.828	1043.94
1035.116	1027.67
1035.403	1047.56
1035.691	1003.49
1035.979	1008.46
1036.267	991.51
1036.554	966.2
1036.842	980.67
1037.129	1001.46
1037.417	972.08
1037.704	956.49
1037.992	957.62
1038.279	961.01
1038.566	956.49
1038.853	956.49
1039.14	956.49
