Data from hue_130_FLMS001491_00098.txt Node
Date: Tue Feb 07 16:58:21 GMT 2017
User: dcchb
Spectrometer: FLMS00149
Trigger mode: 0
Integration Time (sec): 2.000000E-2
Scans to average: 10
Electric dark correction enabled: true
Nonlinearity correction enabled: false
Boxcar width: 0
XAxis mode: Wavelengths
Number of Pixels in Spectrum: 2048
>>>>>Begin Spectral Data<<<<<
341.393	-3.32
341.776	-3.32
342.16	-3.32
342.543	-60.04
342.927	-87.38
343.31	-51
343.693	-55.75
344.077	-71.34
344.46	-55.97
344.843	-63.66
345.226	-49.19
345.61	-35.86
345.993	-11.91
346.376	-15.3
346.759	20.18
347.142	20.86
347.525	46.4
347.908	52.27
348.291	70.8
348.674	85.72
349.057	113.74
349.44	123.46
349.823	133.4
350.206	160.74
350.588	181.53
350.971	182.89
351.354	200.52
351.737	231.25
352.119	261.53
352.502	256.11
352.884	264.92
353.267	257.01
353.65	268.54
354.032	304.92
354.414	286.84
354.797	309.22
355.179	313.28
355.562	314.41
355.944	307.63
356.326	330.46
356.709	315.32
357.091	329.55
357.473	343.11
357.855	313.96
358.238	340.17
358.62	343.56
359.002	340.17
359.384	316.67
359.766	321.87
360.148	325.94
360.53	323.23
360.912	331.36
361.294	314.86
361.676	333.17
362.057	340.63
362.439	332.04
362.821	315.99
363.203	314.64
363.584	321.19
363.966	312.83
364.348	316.67
364.729	313.73
365.111	318.25
365.493	299.05
365.874	303.34
366.256	293.4
366.637	294.53
367.019	299.72
367.4	299.27
367.781	325.03
368.163	318.25
368.544	291.36
368.925	314.86
369.306	326.39
369.688	297.69
370.069	289.33
370.45	313.06
370.831	313.28
371.212	304.24
371.593	309.89
371.974	304.24
372.355	312.83
372.736	305.37
373.117	313.51
373.498	309.22
373.879	304.24
374.26	297.92
374.641	308.31
375.021	290.23
375.402	316.9
375.783	311.47
376.163	302.66
376.544	328.65
376.925	330.23
377.305	347.86
377.686	335.43
378.066	315.99
378.447	339.27
378.827	320.74
379.208	328.42
379.588	331.36
379.968	318.71
380.349	328.2
380.729	314.64
381.109	328.65
381.489	321.64
381.87	326.84
382.25	320.29
382.63	328.42
383.01	321.42
383.39	344.92
383.77	314.64
384.15	330.91
384.53	338.37
384.91	339.04
385.29	343.79
385.67	320.97
386.049	344.47
386.429	330.68
386.809	342.21
387.189	346.5
387.568	345.6
387.948	323.9
388.328	349.21
388.707	344.24
389.087	361.64
389.466	355.77
389.846	340.17
390.225	364.35
390.605	337.46
390.984	357.12
391.363	366.61
391.743	348.76
392.122	361.87
392.501	346.28
392.881	361.87
393.26	372.49
393.639	366.84
394.018	358.25
394.397	369.33
394.776	370.68
395.155	368.87
395.534	365.48
395.913	381.98
396.292	371.81
396.671	381.98
397.05	362.55
397.429	386.73
397.808	382.66
398.186	364.81
398.565	385.6
398.944	391.7
399.323	382.21
399.701	379.72
400.08	381.08
400.458	374.98
400.837	387.86
401.215	395.99
401.594	399.38
401.972	414.75
402.351	393.73
402.729	394.64
403.107	417.46
403.486	386.73
403.864	403.9
404.242	402.32
404.62	392.6
404.999	401.19
405.377	407.74
405.755	396.44
406.133	424.69
406.511	398.7
406.889	404.35
407.267	428.08
407.645	423.79
408.023	426.73
408.401	410.68
408.779	416.33
409.156	419.95
409.534	418.59
409.912	427.18
410.29	439.61
410.667	439.83
411.045	462.66
411.422	436.67
411.8	462.66
412.178	457.69
412.555	450.45
412.933	466.05
413.31	448.87
413.687	468.31
414.065	470.79
414.442	464.69
414.819	464.69
415.197	487.06
415.574	456.78
415.951	474.41
416.328	469.44
416.705	455.43
417.082	461.75
417.46	475.54
417.837	474.41
418.214	490
418.591	487.06
418.967	487.74
419.344	505.59
419.721	489.78
420.098	488.87
420.475	502.66
420.852	492.04
421.228	516.44
421.605	508.31
421.982	526.84
422.358	512.83
422.735	505.37
423.111	518.02
423.488	520.28
423.864	530
424.241	530.9
424.617	535.2
424.994	540.62
425.37	544.24
425.746	533.62
426.123	556.44
426.499	543.56
426.875	544.01
427.251	553.05
427.627	556.21
428.003	570.45
428.379	577.91
428.756	594.63
429.132	582.2
429.507	575.87
429.883	596.89
430.259	590.79
430.635	605.25
431.011	609.55
431.387	607.74
431.763	623.56
432.138	622.2
432.514	601.41
432.89	629.66
433.265	635.76
433.641	623.56
434.016	639.38
434.392	655.87
434.767	663.33
435.143	650.9
435.518	656.1
435.894	671.69
436.269	654.29
436.644	673.5
437.02	682.09
437.395	677.11
437.77	667.4
438.145	690.22
438.52	692.48
438.895	702.88
439.271	725.48
439.646	710.33
440.021	720.73
440.395	717.79
440.77	745.36
441.145	732.48
441.52	718.24
441.895	753.5
442.27	760.05
442.645	760.05
443.019	740.39
443.394	745.59
443.769	773.61
444.143	769.09
444.518	776.32
444.892	771.35
445.267	796.89
445.641	787.62
446.016	785.36
446.39	774.74
446.764	815.87
447.139	819.71
447.513	809.99
447.887	812.93
448.262	831.91
448.636	836.21
449.01	821.07
449.384	844.34
449.758	841.18
450.132	862.87
450.506	851.12
450.88	854.51
451.254	876.43
451.628	867.39
452.002	856.55
452.376	887.96
452.75	897.22
453.123	893.15
453.497	889.31
453.871	921.63
454.244	923.44
454.618	932.02
454.992	952.14
455.365	922.53
455.739	968.63
456.112	963.89
456.486	981.74
456.859	968.18
457.232	1022.42
457.606	993.26
457.979	1027.39
458.352	1029.42
458.725	1031
459.099	1047.05
459.472	1059.93
459.845	1077.1
460.218	1081.85
460.591	1092.25
460.964	1108.74
461.337	1139.02
461.71	1148.51
462.083	1151.23
462.456	1169.31
462.829	1147.39
463.201	1186.71
463.574	1202.75
463.947	1214.5
464.32	1229.42
464.692	1264.22
465.065	1257.89
465.438	1296.53
465.81	1297.89
466.183	1302.64
466.555	1357.1
466.928	1362.97
467.3	1343.09
467.672	1373.37
468.045	1430.54
468.417	1428.73
468.789	1430.32
469.161	1491.56
469.534	1494.49
469.906	1550.09
470.278	1573.81
470.65	1594.15
471.022	1623.76
471.394	1680.25
471.766	1680.03
472.138	1718.22
472.51	1736.75
472.882	1780.81
473.253	1790.76
473.625	1846.58
473.997	1886.8
474.369	1903.75
474.74	1967.02
475.112	2011.32
475.484	2067.13
475.855	2127.92
476.227	2135.83
476.598	2193.69
476.97	2232.33
477.341	2291.54
477.713	2367.24
478.084	2381.02
478.455	2447.01
478.827	2530.85
479.198	2628.7
479.569	2639.78
479.94	2784.18
480.311	2805.87
480.682	2917.06
481.053	2993.44
481.424	3096.26
481.795	3158.41
482.166	3245.86
482.537	3308.01
482.908	3368.8
483.279	3535.12
483.65	3600.2
484.021	3738.28
484.391	3836.58
484.762	3914.54
485.133	3947.99
485.503	4050.36
485.874	4207.42
486.244	4283.8
486.615	4415.32
486.985	4522.44
487.356	4687.4
487.726	4760.4
488.097	4938.92
488.467	4995.65
488.837	5144.12
489.207	5272.7
489.578	5381.4
489.948	5495.52
490.318	5674.27
490.688	5718.56
491.058	5874.94
491.428	6013.02
491.798	6138.89
492.168	6302.05
492.538	6370.52
492.908	6530.29
493.278	6739.78
493.648	6751.53
494.017	6940
494.387	7091.86
494.757	7168.47
495.126	7298.41
495.496	7404.17
495.866	7521.91
496.235	7716.7
496.605	7836.25
496.974	7918.96
497.344	8072.85
497.713	8163.25
498.082	8237.37
498.452	8406.86
498.821	8466.29
499.19	8502.67
499.559	8654.98
499.928	8791.25
500.298	8922.77
500.667	9030.34
501.036	9031.25
501.405	9183.78
501.774	9209.32
502.143	9319.83
502.512	9411.35
502.88	9547.62
503.249	9562.31
503.618	9609.31
503.987	9715.97
504.356	9874.39
504.724	9952.8
505.093	9975.63
505.462	10038.22
505.83	10152.35
506.199	10294.26
506.567	10447.25
506.936	10382.85
507.304	10573.8
507.672	10557.53
508.041	10598.66
508.409	10644.99
508.777	10785.1
509.145	10830.97
509.514	10875.04
509.882	10996.39
510.25	11014.24
510.618	11072.1
510.986	11087.91
511.354	11261.02
511.722	11256.27
512.09	11353.22
512.458	11434.12
512.826	11419.43
513.193	11496.94
513.561	11461.69
513.929	11544.4
514.297	11675.7
514.664	11632.31
515.032	11768.8
515.4	11759.08
515.767	11774.22
516.135	11847.67
516.502	11823.26
516.869	11971.51
517.237	11965.86
517.604	11950.49
517.972	12020.32
518.339	11981
518.706	12073.43
519.073	12038.4
519.44	12110.94
519.808	12295.11
520.175	12194.1
520.542	12319.29
520.909	12343.25
521.276	12269.13
521.643	12437.71
522.009	12393.19
522.376	12444.72
522.743	12464.15
523.11	12544.6
523.477	12608.33
523.843	12571.94
524.21	12754.31
524.577	12703.92
524.943	12794.08
525.31	12802.22
525.676	12805.84
526.043	12769.9
526.409	12811.71
526.776	12904.14
527.142	12887.42
527.508	12886.74
527.874	12945.94
528.241	12913.86
528.607	12989.11
528.973	12992.5
529.339	12898.26
529.705	12907.75
530.071	13071.59
530.437	13043.57
530.803	13016.45
531.169	13097.13
531.535	12997.69
531.901	13006.96
532.267	12980.52
532.632	12975.77
532.998	12988.43
533.364	12981.42
533.73	12928.32
534.095	13067.07
534.461	12980.97
534.826	12983.46
535.192	13049.22
535.557	12946.62
535.923	12922.44
536.288	12937.36
536.653	12897.13
537.019	12801.54
537.384	12840.18
537.749	12825.95
538.114	12798.38
538.479	12794.99
538.845	12752.5
539.21	12609.68
539.575	12668.89
539.94	12615.33
540.305	12713.41
540.67	12621.43
541.034	12601.77
541.399	12654.2
541.764	12472.51
542.129	12530.36
542.494	12448.56
542.858	12518.16
543.223	12422.57
543.587	12440.42
543.952	12309.35
544.316	12352.06
544.681	12294.66
545.045	12320.88
545.41	12237.94
545.774	12309.13
546.138	12136.7
546.503	12136.7
546.867	12068.68
547.231	12187.55
547.595	12097.38
547.959	12117.04
548.324	12031.17
548.688	11940.1
549.052	11953.2
549.416	11961.79
549.779	11910.49
550.143	11884.96
550.507	12020.09
550.871	11924.28
551.235	11792.08
551.599	11866.88
551.962	11805.41
552.326	11818.52
552.689	11762.7
553.053	11677.28
553.417	11716.15
553.78	11800.44
554.143	11665.53
554.507	11675.24
554.87	11680.22
555.234	11636.15
555.597	11541.46
555.96	11572.65
556.323	11564.06
556.686	11513.89
557.05	11576.04
557.413	11536.72
557.776	11529.94
558.139	11470.05
558.502	11506.66
558.865	11577.85
559.228	11518.64
559.59	11545.53
559.953	11502.14
560.316	11557.96
560.679	11511.41
561.041	11531.74
561.404	11470.28
561.767	11587.79
562.129	11509.82
562.492	11584.17
562.854	11511.18
563.217	11478.64
563.579	11562.7
563.941	11573.1
564.304	11580.11
564.666	11505.76
565.028	11574.23
565.39	11624.85
565.753	11662.81
566.115	11597.73
566.477	11601.35
566.839	11587.56
567.201	11641.12
567.563	11643.61
567.925	11635.7
568.287	11670.72
568.648	11716.15
569.01	11735.58
569.372	11668.92
569.734	11648.13
570.095	11699.88
570.457	11741.23
570.819	11736.03
571.18	11771.96
571.542	11761.34
571.903	11726.32
572.265	11761.8
572.626	11766.09
572.987	11836.37
573.349	11757.95
573.71	11813.77
574.071	11812.19
574.432	11841.57
574.794	11885.18
575.155	11872.3
575.516	11822.36
575.877	11840.44
576.238	11830.04
576.599	11891.06
576.96	11919.76
577.32	11885.86
577.681	11835.01
578.042	11845.18
578.403	11958.63
578.763	11950.26
579.124	11989.13
579.485	11869.82
579.845	11921.79
580.206	11903.26
580.566	11879.31
580.927	11886.99
581.287	11955.69
581.648	11910.04
582.008	11964.73
582.368	11827.56
582.728	11989.81
583.089	11966.31
583.449	11966.54
583.809	11927.44
584.169	11886.54
584.529	11815.81
584.889	11896.93
585.249	11821.91
585.609	11795.92
585.969	11872.75
586.329	11833.43
586.688	11819.87
587.048	11796.6
587.408	11767.22
587.768	11741.23
588.127	11767.9
588.487	11705.07
588.846	11885.41
589.206	11743.49
589.565	11709.14
589.925	11795.01
590.284	11666.88
590.643	11726.99
591.003	11755.02
591.362	11816.48
591.721	11686.54
592.08	11666.43
592.44	11701.23
592.799	11700.78
593.158	11728.58
593.517	11716.37
593.876	11660.1
594.235	11635.7
594.593	11630.95
594.952	11661.91
595.311	11594.12
595.67	11681.12
596.029	11748.69
596.387	11658.3
596.746	11705.53
597.104	11631.4
597.463	11609.71
597.822	11661.23
598.18	11694.45
598.538	11665.98
598.897	11708.46
599.255	11625.98
599.613	11766.77
599.972	11576.26
600.33	11686.09
600.688	11593.66
601.046	11666.43
601.404	11683.61
601.762	11722.7
602.12	11758.63
602.478	11704.62
602.836	11721.8
603.194	11640.44
603.552	11571.29
603.91	11607.9
604.268	11625.08
604.625	11603.38
604.983	11635.24
605.341	11560.67
605.698	11602.48
606.056	11624.85
606.413	11576.04
606.771	11705.75
607.128	11610.84
607.485	11590.73
607.843	11627.11
608.2	11625.98
608.557	11739.42
608.914	11678.63
609.272	11740.1
609.629	11688.58
609.986	11652.65
610.343	11703.49
610.7	11734.9
611.057	11709.37
611.414	11781.46
611.771	11724.96
612.127	11795.01
612.484	11801.79
612.841	11768.12
613.198	11717.95
613.554	11836.6
613.911	11804.05
614.267	11834.34
614.624	11815.13
614.98	11751.63
615.337	11823.26
615.693	11856.48
616.05	11792.53
616.406	11931.96
616.762	11852.87
617.118	11862.58
617.475	11857.61
617.831	11895.13
618.187	11917.05
618.543	11886.99
618.899	11990.94
619.255	11867.1
619.611	11959.08
619.967	11949.36
620.323	11969.47
620.678	11943.94
621.034	11927.67
621.39	11931.06
621.746	11930.38
622.101	12047.89
622.457	11956.59
622.812	11972.64
623.168	11942.13
623.523	11996.37
623.879	12031.17
624.234	11913.66
624.589	11983.94
624.945	11912.53
625.3	11951.62
625.655	11971.06
626.01	11946.2
626.365	11963.6
626.72	11954.11
627.075	11980.09
627.43	11999.98
627.785	11919.76
628.14	11958.4
628.495	11935.8
628.85	11884.96
629.205	11844.73
629.559	11912.53
629.914	11868.23
630.269	11876.59
630.623	11788.46
630.978	11881.79
631.332	11883.6
631.687	11898.74
632.041	11797.27
632.396	11852.19
632.75	11784.39
633.104	11814
633.459	11701.68
633.813	11753.21
634.167	11846.76
634.521	11741
634.875	11783.72
635.229	11664.17
635.583	11678.41
635.937	11729.48
636.291	11623.72
636.645	11674.34
636.999	11702.59
637.352	11686.77
637.706	11623.27
638.06	11658.75
638.413	11584.17
638.767	11545.98
639.121	11544.85
639.474	11485.42
639.828	11567.22
640.181	11591.86
640.534	11543.27
640.888	11518.41
641.241	11434.35
641.594	11459.2
641.947	11564.74
642.301	11550.05
642.654	11508.24
643.007	11455.14
643.36	11416.49
643.713	11464.63
644.066	11493.33
644.419	11412.65
644.771	11368.13
645.124	11290.4
645.477	11280.68
645.83	11136.5
646.182	11160.91
646.535	11075.03
646.888	11186.67
647.24	10994.36
647.593	11151.87
647.945	11132.89
648.298	11000.01
648.65	11051.98
649.002	10960.91
649.355	11089.95
649.707	11047.69
650.059	11089.95
650.411	11183.73
650.763	11235.71
651.115	11403.84
651.467	11362.26
651.819	11381.69
652.171	11395.25
652.523	11298.98
652.875	11289.72
653.227	11301.92
653.578	11379.88
653.93	11358.19
654.282	11291.07
654.633	11216.95
654.985	11231.19
655.337	11352.54
655.688	11266.22
656.039	11282.26
656.391	11316.84
656.742	11309.83
657.094	11371.07
657.445	11355.93
657.796	11312.54
658.147	11321.13
658.498	11339.89
658.849	11333.33
659.2	11272.54
659.551	11282.03
659.902	11327.68
660.253	11374.69
660.604	11341.02
660.955	11319.32
661.306	11378.3
661.656	11327.46
662.007	11292.88
662.358	11364.97
662.708	11296.04
663.059	11321.81
663.409	11336.27
663.76	11315.03
664.11	11367.46
664.461	11386.66
664.811	11407.45
665.161	11301.69
665.511	11310.51
665.862	11336.04
666.212	11390.73
666.562	11397.74
666.912	11388.02
667.262	11406.32
667.612	11395.25
667.962	11342.15
668.312	11305.76
668.662	11387.57
669.011	11380.56
669.361	11333.56
669.711	11333.33
670.06	11282.71
670.41	11327.46
670.76	11327.68
671.109	11370.85
671.459	11329.49
671.808	11308.25
672.157	11316.16
672.507	11225.31
672.856	11338.3
673.205	11336.04
673.554	11326.33
673.904	11324.07
674.253	11343.95
674.602	11314.12
674.951	11072.55
675.3	11046.79
675.649	11185.54
675.998	11246.1
676.346	11194.8
676.695	11229.61
677.044	11208.59
677.393	11174.92
677.741	11211.75
678.09	11124.07
678.438	11167.91
678.787	11174.47
679.135	11075.71
679.484	11138.76
679.832	11051.08
680.181	11052.21
680.529	11083.4
680.877	11063.73
681.225	11046.33
681.573	11031.87
681.922	10922.5
682.27	10916.39
682.618	10913.46
682.966	10824.87
683.314	10953.68
683.661	10908.26
684.009	10870.52
684.357	10816.28
684.705	10793.46
685.053	10817.87
685.4	10732.22
685.748	10750.52
686.095	10724.99
686.443	10701.03
686.79	10620.36
687.138	10657.64
687.485	10665.1
687.832	10581.04
688.18	10639.56
688.527	10528.16
688.874	10608.15
689.221	10518.21
689.568	10484.54
689.915	10462.85
690.262	10506.91
690.609	10398.89
690.956	10405.9
691.303	10355.73
691.65	10260.14
691.997	10296.75
692.344	10201.38
692.69	10221.04
693.037	10230.76
693.383	10086.59
693.73	10200.71
694.077	10120.03
694.423	10023.76
694.769	9974.5
695.116	9987.83
695.462	9911.22
695.808	9969.98
696.155	9941.5
696.501	9859.7
696.847	9849.08
697.193	9788.51
697.539	9832.35
697.885	9712.36
698.231	9699.48
698.577	9674.84
698.923	9651.57
699.269	9666.26
699.614	9597.78
699.96	9539.48
700.306	9588.75
700.651	9436.66
700.997	9464.23
701.342	9490.44
701.688	9406.83
702.033	9332.71
702.379	9318.47
702.724	9340.16
703.069	9210.22
703.415	9147.4
703.76	9213.61
704.105	9165.48
704.45	9173.84
704.795	9050.91
705.14	9087.06
705.485	9046.84
705.83	8983.34
706.175	9006.16
706.52	8980.4
706.865	8984.02
707.209	8918.03
707.554	8879.39
707.899	8895.88
708.243	8824.47
708.588	8814.08
708.932	8799.16
709.277	8753.29
709.621	8766.85
709.966	8703.34
710.31	8728.2
710.654	8575.21
710.998	8665.38
711.342	8615.44
711.687	8618.15
712.031	8576.34
712.375	8595.55
712.719	8579.51
713.063	8549.9
713.407	8637.36
713.75	8504.71
714.094	8517.36
714.438	8464.25
714.782	8444.59
715.125	8406.86
715.469	8482.56
715.812	8328.89
716.156	8385.61
716.499	8301.32
716.843	8365.27
717.186	8345.39
717.53	8369.12
717.873	8371.6
718.216	8267.88
718.559	8348.78
718.902	8234.66
719.246	8325.73
719.589	8306.29
719.932	8205.5
720.275	8325.5
720.617	8250.02
720.96	8198.5
721.303	8195.79
721.646	8219.52
721.989	8147.2
722.331	8160.31
722.674	8153.75
723.016	8140.2
723.359	8135.45
723.701	8186.07
724.044	8126.41
724.386	8094.55
724.729	8104.26
725.071	8115.11
725.413	8085.28
725.755	8069.24
726.097	7980.88
726.439	8012.52
726.782	8005.74
727.124	8077.15
727.465	8028.11
727.807	8012.74
728.149	7953.99
728.491	7961.67
728.833	8024.72
729.175	8022.68
729.516	7963.93
729.858	7991.95
730.199	7988.34
730.541	8028.56
730.882	7930.71
731.224	7986.98
731.565	7987.43
731.906	7982.46
732.248	7970.48
732.589	7985.85
732.93	7983.82
733.271	7930.48
733.612	7951.05
733.953	7955.57
734.294	8015.91
734.635	7939.75
734.976	8031.72
735.317	7974.32
735.658	8037.15
735.999	8004.83
736.339	7943.59
736.68	8040.99
737.021	7964.61
737.361	7920.54
737.702	7939.3
738.042	7943.36
738.383	8012.74
738.723	8057.71
739.063	7934.78
739.404	8022.68
739.744	8019.52
740.084	8034.44
740.424	7998.05
740.764	8008.22
741.104	8074.43
741.444	8096.81
741.784	8082.12
742.124	8141.33
742.464	8138.39
742.804	8126.86
743.143	8157.82
743.483	8204.37
743.823	8125.96
744.162	8205.28
744.502	8272.85
744.841	8240.76
745.181	8264.71
745.52	8305.84
745.86	8341.09
746.199	8355.56
746.538	8437.36
746.877	8452.73
747.216	8570.47
747.556	8591.26
747.895	8537.47
748.234	8654.31
748.573	8711.93
748.911	8715.55
749.25	8790.57
749.589	8841.87
749.928	8942.66
750.267	8972.49
750.605	9056.78
750.944	9123.9
751.283	9130.23
751.621	9250
751.96	9232.14
752.298	9415.42
752.636	9524.57
752.975	9599.37
753.313	9640.95
753.651	9800.94
753.989	9840.72
754.327	9985.8
754.666	10054.27
755.004	10155.51
755.342	10348.5
755.679	10397.31
756.017	10555.27
756.355	10676.4
756.693	10703.74
757.031	10898.99
757.368	11011.53
757.706	11189.61
758.044	11289.49
758.381	11500.79
758.719	11617.84
759.056	11833.66
759.394	11914.56
759.731	12060.77
760.068	12166.3
760.405	12309.58
760.743	12441.33
761.08	12673.41
761.417	12757.25
761.754	12933.52
762.091	13177.35
762.428	13167.86
762.765	13326.95
763.102	13522.43
763.438	13613.95
763.775	13786.15
764.112	13954.96
764.449	14244.44
764.785	14286.93
765.122	14356.3
765.458	14524.43
765.795	14672.91
766.131	14817.08
766.467	14927.14
766.804	15110.41
767.14	15197.41
767.476	15351.08
767.812	15418.87
768.148	15651.18
768.485	15659.77
768.821	15768.92
769.157	15970.27
769.492	16038.52
769.828	16165.3
770.164	16199.64
770.5	16310.83
770.836	16516.7
771.171	16426.76
771.507	16599.86
771.842	16583.59
772.178	16712.4
772.513	16783.81
772.849	16969.34
773.184	16950.13
773.519	17046.63
773.855	17083.92
774.19	17160.3
774.525	17240.52
774.86	17262.89
775.195	17454.75
775.53	17346.51
775.865	17337.92
776.2	17319.16
776.535	17351.93
776.87	17469.44
777.205	17402.55
777.539	17513.06
777.874	17677.12
778.209	17507.18
778.543	17609.78
778.878	17588.53
779.212	17587.4
779.547	17599.61
779.881	17784.46
780.215	17681.64
780.55	17730.23
780.884	17750.34
781.218	17686.16
781.552	17815.2
781.886	17738.36
782.22	17698.14
782.554	17642.77
782.888	17605.26
783.222	17555.77
783.556	17625.82
783.889	17540.85
784.223	17547.63
784.557	17614.75
784.89	17630.12
785.224	17593.51
785.557	17497.69
785.891	17549.44
786.224	17487.07
786.558	17537.46
786.891	17413.62
787.224	17428.09
787.557	17448.43
787.891	17375.88
788.224	17504.92
788.557	17423.79
788.89	17384.92
789.223	17368.43
789.556	17309.22
789.888	17339.05
790.221	17260.41
790.554	17167.98
790.887	17115.33
791.219	17095.89
791.552	17093.41
791.884	17036.68
792.217	17077.36
792.549	17019.51
792.882	16879.63
793.214	16934.99
793.546	16993.75
793.879	16849.8
794.211	16826.97
794.543	16886.18
794.875	16786.97
795.207	16862.23
795.539	16753.53
795.871	16764.6
796.203	16587.66
796.535	16593.08
796.867	16475.8
797.198	16545.85
797.53	16523.93
797.862	16393.54
798.193	16444.84
798.525	16341.79
798.856	16382.01
799.188	16214.33
799.519	16153.77
799.85	16109.7
800.182	16139.53
800.513	16220.21
800.844	15977.05
801.175	16120.78
801.506	16132.08
801.837	15994.68
802.168	15942.7
802.499	15930.05
802.83	15839.43
803.161	15772.09
803.491	15759.88
803.822	15770.96
804.153	15713.56
804.483	15626.1
804.814	15588.81
805.145	15558.08
805.475	15614.8
805.805	15535.03
806.136	15490.96
806.466	15473.11
806.796	15541.81
807.126	15413.68
807.457	15323.28
807.787	15383.62
808.117	15286.22
808.447	15238.31
808.777	15266.56
809.107	15126.9
809.436	15158.54
809.766	15156.28
810.096	14980.24
810.426	14975.72
810.755	15071.99
811.085	14995.16
811.414	15001.94
811.744	14907.25
812.073	14914.03
812.403	14867.48
812.732	14852.11
813.061	14766.24
813.39	14731.21
813.719	14766.46
814.049	14746.8
814.378	14704.32
814.707	14657.09
815.036	14654.6
815.365	14570.08
815.693	14528.05
816.022	14502.74
816.351	14423.87
816.68	14456.41
817.008	14438.11
817.337	14352.01
817.665	14365.12
817.994	14330.32
818.322	14264.55
818.651	14315.17
818.979	14224.1
819.307	14295.06
819.636	14256.19
819.964	14230.2
820.292	14173.71
820.62	14180.26
820.948	14131.9
821.276	14259.58
821.604	14106.14
821.932	14145.24
822.259	14138
822.587	14008.29
822.915	14088.97
823.243	14168.74
823.57	14097.55
823.898	14086.25
824.225	14015.97
824.553	14040.83
824.88	14128.96
825.207	14105.69
825.535	14139.13
825.862	14223.65
826.189	14166.03
826.516	14170.32
826.843	14159.02
827.17	14208.74
827.497	14196.99
827.824	14254.16
828.151	14246.25
828.478	14218.91
828.805	14279.47
829.131	14079.02
829.458	14199.02
829.785	14088.97
830.111	14088.51
830.438	14179.13
830.764	14218.68
831.09	14167.83
831.417	14085.12
831.743	14120.6
832.069	14117.89
832.395	14042.87
832.722	14068.18
833.048	14094.84
833.374	14053.71
833.7	14044
834.026	14043.54
834.351	14068.18
834.677	13973.49
835.003	14025.24
835.329	14003.32
835.654	13978.69
835.98	13925.58
836.306	13941.85
836.631	13871.8
836.956	13890.1
837.282	13977.56
837.607	13886.26
837.932	13852.36
838.258	13839.93
838.583	13830.67
838.908	13738.92
839.233	13822.76
839.558	13673.61
839.883	13757.45
840.208	13644.46
840.533	13619.6
840.858	13685.81
841.182	13744.57
841.507	13741.18
841.832	13516.55
842.156	13590.9
842.481	13519.04
842.805	13540.73
843.13	13417.8
843.454	13480.85
843.778	13342.32
844.103	13350
844.427	13292.83
844.751	13316.33
845.075	13277.24
845.399	13262.32
845.723	13135.54
846.047	13174.41
846.371	13023.46
846.695	13095.55
847.019	12929.45
847.343	12988.88
847.666	12880.86
847.99	12874.99
848.313	12787.31
848.637	12756.8
848.96	12746.18
849.284	12657.82
849.607	12574.43
849.931	12526.97
850.254	12458.95
850.577	12483.58
850.9	12351.84
851.223	12341.89
851.546	12364.04
851.869	12178.96
852.192	12257.38
852.515	12175.34
852.838	12146.64
853.161	12137.83
853.483	12033.43
853.806	11951.62
854.129	11966.76
854.451	11895.58
854.774	11845.18
855.096	11843.6
855.419	11804.51
855.741	11756.82
856.063	11646.32
856.385	11729.25
856.708	11633.89
857.03	11572.2
857.352	11572.2
857.674	11542.82
857.996	11577.39
858.318	11482.25
858.64	11419.66
858.961	11472.09
859.283	11420.34
859.605	11288.14
859.926	11292.66
860.248	11253.33
860.57	11238.19
860.891	11199.55
861.212	11162.04
861.534	11279.77
861.855	11052.66
862.176	11173.34
862.498	11172.43
862.819	11120.46
863.14	11021.02
863.461	11098.76
863.782	11029.84
864.103	10992.32
864.424	11023.28
864.745	10987.58
865.065	10891.76
865.386	10903.29
865.707	10906.22
866.027	10846.79
866.348	10843.18
866.668	10883.4
866.989	10836.4
867.309	10775.15
867.63	10804.98
867.95	10797.53
868.27	10718.43
868.59	10774.93
868.91	10728.83
869.23	10703.97
869.55	10641.37
869.87	10666.91
870.19	10663.75
870.51	10632.56
870.83	10652.22
871.15	10564.09
871.469	10511.88
871.789	10664.42
872.109	10634.14
872.428	10550.98
872.748	10568.38
873.067	10543.3
873.386	10506.01
873.706	10452
874.025	10448.61
874.344	10400.93
874.663	10414.49
874.982	10415.62
875.301	10366.58
875.62	10324.09
875.939	10298.1
876.258	10280.93
876.577	10306.01
876.896	10300.82
877.214	10236.19
877.533	10228.28
877.852	10233.25
878.17	10195.73
878.489	10256.07
878.807	10183.76
879.125	10176.53
879.444	10127.49
879.762	10142.4
880.08	10162.97
880.398	10074.61
880.716	10082.29
881.034	10029.86
881.352	10034.84
881.67	10048.62
881.988	10062.63
882.306	9938.34
882.624	9900.38
882.941	9907.61
883.259	9799.81
883.577	9922.97
883.894	9842.07
884.212	9800.49
884.529	9774.28
884.846	9828.74
885.164	9848.63
885.481	9713.04
885.798	9708.52
886.115	9722.98
886.432	9585.13
886.75	9634.39
887.067	9692.92
887.383	9642.3
887.7	9649.53
888.017	9572.93
888.334	9565.02
888.651	9493.83
888.967	9516.88
889.284	9491.12
889.6	9494.51
889.917	9396.89
890.233	9422.87
890.55	9301.52
890.866	9399.6
891.182	9300.39
891.498	9273.95
891.815	9292.26
892.131	9143.11
892.447	9163.45
892.763	9207.06
893.079	9063.79
893.395	9013.62
893.71	9120.73
894.026	9034.64
894.342	9061.3
894.657	8952.38
894.973	8959.61
895.289	9005.48
895.604	8899.5
895.92	8804.36
896.235	8833.51
896.55	8759.84
896.865	8795.55
897.181	8776.34
897.496	8793.06
897.811	8691.82
898.126	8624.02
898.441	8624.02
898.756	8630.13
899.071	8502.45
899.386	8581.77
899.7	8441.66
900.015	8460.19
900.33	8409.57
900.644	8356.46
900.959	8375.22
901.273	8363.01
901.588	8314.2
901.902	8296.8
902.216	8289.34
902.531	8253.86
902.845	8191.72
903.159	8148.78
903.473	8173.42
903.787	8094.1
904.101	8092.74
904.415	7998.73
904.729	8009.13
905.042	8006.19
905.356	7994.44
905.67	7956.25
905.984	7971.39
906.297	7841.45
906.611	7841.67
906.924	7770.94
907.237	7840.32
907.551	7797.61
907.864	7710.6
908.177	7743.6
908.491	7650.72
908.804	7605.97
909.117	7572.75
909.43	7571.62
909.743	7504.73
910.056	7488.24
910.368	7456.6
910.681	7489.59
910.994	7367.11
911.307	7389.03
911.619	7293.89
911.932	7324.4
912.244	7337.96
912.557	7258.18
912.869	7219.32
913.181	7190.62
913.494	7132.76
913.806	7116.04
914.118	7117.85
914.43	7055.93
914.742	7090.28
915.054	7049.38
915.366	7013.22
915.678	6957.85
915.99	6918.31
916.302	6848.25
916.613	6897.06
916.925	6807.12
917.236	6824.52
917.548	6723.28
917.859	6759.21
918.171	6791.08
918.482	6704.53
918.794	6655.94
919.105	6649.39
919.416	6612.33
919.727	6581.82
920.038	6579.33
920.349	6578.65
920.66	6500.46
920.971	6449.62
921.282	6511.54
921.593	6481.71
921.903	6390.19
922.214	6416.4
922.525	6379.11
922.835	6409.85
923.146	6322.16
923.456	6325.55
923.767	6279.23
924.077	6254.6
924.387	6226.57
924.697	6206.91
925.008	6165.78
925.318	6147.03
925.628	6108.61
925.938	6073.81
926.248	6020.25
926.558	6065.9
926.867	6046.92
927.177	5984.32
927.487	5908.16
927.796	5908.16
928.106	5928.73
928.416	5912.01
928.725	5900.25
929.034	5876.75
929.344	5840.37
929.653	5788.17
929.962	5719.47
930.271	5714.95
930.581	5692.58
930.89	5723.99
931.199	5680.37
931.508	5663.2
931.817	5635.85
932.125	5632.92
932.434	5553.14
932.743	5545.46
933.051	5501.17
933.36	5524.22
933.669	5490.32
933.977	5475.41
934.286	5476.08
934.594	5412.36
934.902	5408.74
935.21	5324
935.519	5373.26
935.827	5382.08
936.135	5284.23
936.443	5250.1
936.751	5247.84
937.059	5193.83
937.367	5270.67
937.674	5214.4
937.982	5170.78
938.29	5152.03
938.597	5153.83
938.905	5092.82
939.213	5061.86
939.52	5056.21
939.827	5034.29
940.135	4994.74
940.442	5006.49
940.749	4986.61
941.056	4999.04
941.363	4911.35
941.67	4920.39
941.977	4865.71
942.284	4864.35
942.591	4850.56
942.898	4812.6
943.205	4843.56
943.511	4835.2
943.818	4796.78
944.125	4739.16
944.431	4760.17
944.738	4748.87
945.044	4682.21
945.35	4674.75
945.657	4625.71
945.963	4646.95
946.269	4609.21
946.575	4610.8
946.881	4574.19
947.187	4531.48
947.493	4530.8
947.799	4507.3
948.105	4488.31
948.41	4459.39
948.716	4493.51
949.022	4420.75
949.327	4453.51
949.633	4410.12
949.938	4438.82
950.244	4403.57
950.549	4356.57
950.854	4307.75
951.16	4336.68
951.465	4259.39
951.77	4329.45
952.075	4235.89
952.38	4254.65
952.685	4207.42
952.99	4178.04
953.294	4195.67
953.599	4165.84
953.904	4126.06
954.209	4122
954.513	4131.49
954.818	4082.9
955.122	4088.1
955.426	4034.54
955.731	4075.22
956.035	3992.73
956.339	3997.93
956.643	4011.72
956.948	3927.88
957.252	3950.02
957.556	3966.52
957.86	3894.66
958.163	3943.47
958.467	3924.94
958.771	3903.7
959.075	3878.16
959.378	3848.11
959.682	3846.3
959.985	3801.33
960.289	3764.04
960.592	3816.47
960.896	3802
961.199	3756.81
961.502	3745.28
961.805	3734.66
962.108	3651.27
962.411	3658.28
962.714	3655.12
963.017	3652.86
963.32	3692.85
963.623	3634.55
963.926	3639.75
964.228	3599.52
964.531	3607.89
964.833	3536.47
965.136	3551.16
965.438	3529.47
965.741	3526.98
966.043	3482.01
966.345	3459.87
966.648	3460.32
966.95	3479.75
967.252	3422.81
967.554	3399.53
967.856	3405.18
968.158	3355.69
968.46	3365.41
968.761	3326.76
969.063	3362.47
969.365	3348.23
969.666	3272.53
969.968	3295.58
970.269	3316.37
970.571	3289.48
970.872	3250.38
971.174	3242.92
971.475	3232.3
971.776	3201.34
972.077	3224.17
972.378	3210.83
972.679	3182.36
972.98	3143.94
973.281	3166.32
973.582	3130.84
973.883	3141.68
974.183	3056.04
974.484	3129.03
974.785	3072.76
975.085	3047
975.386	3066.88
975.686	3052.19
975.986	3069.82
976.287	3017.84
976.587	3011.06
976.887	2982.82
977.187	3023.95
977.487	2977.62
977.787	2912.76
978.087	2963.83
978.387	2896.94
978.687	2922.25
978.987	2900.56
979.286	2874.57
979.586	2846.32
979.885	2851.75
980.185	2851.97
980.484	2833.44
980.784	2869.15
981.083	2813.1
981.382	2802.93
981.682	2815.82
981.981	2778.98
982.28	2788.47
982.579	2762.26
982.878	2731.07
983.177	2717.74
983.475	2710.73
983.774	2681.81
984.073	2707.8
984.372	2681.58
984.67	2679.77
984.969	2650.62
985.267	2632.32
985.566	2601.13
985.864	2619.89
986.162	2597.06
986.461	2603.84
986.759	2606.1
987.057	2532.66
987.355	2572.88
987.653	2538.76
987.951	2505.54
988.249	2528.82
988.547	2499.21
988.844	2553.68
989.142	2463.96
989.44	2462.83
989.737	2450.85
990.035	2442.94
990.332	2436.16
990.63	2416.73
990.927	2409.72
991.224	2380.8
991.521	2396.17
991.819	2385.54
992.116	2392.32
992.413	2341.7
992.71	2327.24
993.006	2348.48
993.303	2316.17
993.6	2297.19
993.897	2327.47
994.193	2325.43
994.49	2291.08
994.787	2244.76
995.083	2275.94
995.379	2265.1
995.676	2259.67
995.972	2247.47
996.268	2234.81
996.565	2196.4
996.861	2220.58
997.157	2216.28
997.453	2175.61
997.749	2184.65
998.044	2139.45
998.34	2146.23
998.636	2145.78
998.932	2124.53
999.227	2140.13
999.523	2099.9
999.818	2084.76
1000.114	2134.03
1000.409	2055.38
1000.704	2052.67
1001	2061.71
1001.295	2064.65
1001.59	2030.07
1001.885	2017.42
1002.18	1988.72
1002.475	2000.02
1002.77	1992.79
1003.065	1999.57
1003.359	1956.4
1003.654	1950.75
1003.949	1953.01
1004.243	1952.34
1004.538	1906.01
1004.832	1915.5
1005.127	1882.51
1005.421	1891.55
1005.715	1875.95
1006.009	1865.56
1006.304	1853.13
1006.598	1824.88
1006.892	1860.13
1007.186	1809.74
1007.48	1814.26
1007.773	1812.68
1008.067	1780.36
1008.361	1779.91
1008.655	1781.72
1008.948	1754.83
1009.242	1759.35
1009.535	1739.69
1009.829	1750.31
1010.122	1718.9
1010.415	1713.47
1010.708	1725.67
1011.001	1686.81
1011.295	1666.02
1011.588	1659.01
1011.881	1692.23
1012.173	1617.43
1012.466	1633.7
1012.759	1637.54
1013.052	1655.17
1013.344	1609.97
1013.637	1585.11
1013.93	1569.07
1014.222	1609.07
1014.514	1603.19
1014.807	1596.41
1015.099	1561.39
1015.391	1540.6
1015.683	1549.63
1015.976	1523.65
1016.268	1541.72
1016.56	1504.89
1016.851	1530.43
1017.143	1505.34
1017.435	1464.44
1017.727	1480.26
1018.018	1474.61
1018.31	1453.59
1018.602	1427.6
1018.893	1441.84
1019.185	1451.33
1019.476	1389.64
1019.767	1427.6
1020.058	1418.34
1020.35	1386.47
1020.641	1368.17
1020.932	1371.33
1021.223	1367.04
1021.514	1350.32
1021.804	1370.2
1022.095	1349.41
1022.386	1336.76
1022.677	1333.14
1022.967	1332.46
1023.258	1290.88
1023.548	1299.7
1023.839	1307.38
1024.129	1274.16
1024.419	1310.32
1024.709	1260.15
1025	1264.44
1025.29	1252.69
1025.58	1235.74
1025.87	1236.2
1026.16	1230.55
1026.449	1229.42
1026.739	1217.21
1027.029	1208.85
1027.319	1204.11
1027.608	1185.58
1027.898	1169.53
1028.187	1159.59
1028.477	1179.25
1028.766	1163.88
1029.055	1158.91
1029.344	1162.75
1029.634	1131.57
1029.923	1101.96
1030.212	1123.88
1030.501	1096.99
1030.79	1100.83
1031.078	1084.11
1031.367	1076.43
1031.656	1104.45
1031.945	1079.36
1032.233	1061.06
1032.522	1080.27
1032.81	1068.97
1033.099	1065.35
1033.387	1037.33
1033.675	1044.56
1033.963	1009.76
1034.251	1049.99
1034.54	1025.81
1034.828	1027.39
1035.116	1015.86
1035.403	994.62
1035.691	986.49
1035.979	995.07
1036.267	984
1036.554	975.41
1036.842	965.24
1037.129	941.29
1037.417	929.76
1037.704	966.6
1037.992	982.19
1038.279	950.78
1038.566	938.8
1038.853	938.8
1039.14	938.8
