Data from hue_80_FLMS001491_16.txt Node
Date: Mon Feb 06 15:22:33 GMT 2017
User: dcchb
Spectrometer: FLMS00149
Trigger mode: 0
Integration Time (sec): 2.000000E-2
Scans to average: 10
Electric dark correction enabled: true
Nonlinearity correction enabled: false
Boxcar width: 0
XAxis mode: Wavelengths
Number of Pixels in Spectrum: 2048
>>>>>Begin Spectral Data<<<<<
341.393	-11.54
341.776	-11.54
342.16	-11.54
342.543	-60.35
342.927	-49.05
343.31	-61.71
343.693	-74.36
344.077	-63.06
344.46	-59.67
344.843	-60.13
345.226	-40.01
345.61	-22.16
345.993	-24.19
346.376	4.73
346.759	13.09
347.142	4.28
347.525	48.12
347.908	50.61
348.291	83.6
348.674	81.34
349.057	119.53
349.44	109.36
349.823	142.81
350.206	159.53
350.588	171.51
350.971	210.38
351.354	222.13
351.737	218.74
352.119	258.74
352.502	252.86
352.884	284.72
353.267	278.4
353.65	295.35
354.032	289.47
354.414	310.49
354.797	283.14
355.179	316.59
355.562	327.43
355.944	347.32
356.326	310.71
356.709	339.86
357.091	338.96
357.473	330.37
357.855	343.25
358.238	340.99
358.62	317.27
359.002	337.6
359.384	338.06
359.766	335.8
360.148	338.96
360.53	332.41
360.912	322.46
361.294	316.59
361.676	347.1
362.057	325.18
362.439	310.94
362.821	332.41
363.203	314.78
363.584	303.48
363.966	320.43
364.348	314.78
364.729	309.81
365.111	326.3
365.493	302.35
365.874	325.85
366.256	319.07
366.637	319.53
367.019	326.08
367.4	310.03
367.781	322.69
368.163	312.52
368.544	288.11
368.925	301.9
369.306	294.67
369.688	319.53
370.069	313.65
370.45	300.77
370.831	319.98
371.212	316.36
371.593	310.26
371.974	315.46
372.355	309.58
372.736	311.62
373.117	303.93
373.498	319.3
373.879	303.25
374.26	309.58
374.641	308
375.021	324.72
375.402	316.81
375.783	313.88
376.163	324.72
376.544	328.79
376.925	322.24
377.305	325.63
377.686	324.95
378.066	310.03
378.447	335.57
378.827	317.27
379.208	353.2
379.588	324.72
379.968	326.08
380.349	319.3
380.729	328.79
381.109	332.41
381.489	344.84
381.87	336.7
382.25	331.28
382.63	335.8
383.01	320.66
383.39	338.51
383.77	343.25
384.15	331.05
384.53	329.69
384.91	348.9
385.29	353.87
385.67	329.69
386.049	348
386.429	362.24
386.809	342.35
387.189	354.55
387.568	359.3
387.948	377.15
388.328	350.71
388.707	357.72
389.087	362.69
389.466	365.4
389.846	341.22
390.225	362.01
390.605	362.01
390.984	343.25
391.363	373.31
391.743	358.62
392.122	344.38
392.501	361.78
392.881	375.12
393.26	339.86
393.639	360.65
394.018	376.7
394.397	367.21
394.776	383.7
395.155	363.14
395.534	371.5
395.913	375.12
396.292	389.81
396.671	373.31
397.05	366.08
397.429	376.25
397.808	364.27
398.186	378.28
398.565	380.09
398.944	362.91
399.323	366.08
399.701	378.51
400.08	400.88
400.458	399.98
400.837	372.86
401.215	389.13
401.594	399.75
401.972	402.24
402.351	374.21
402.729	366.98
403.107	399.3
403.486	397.94
403.864	401.78
404.242	411.95
404.62	400.65
404.999	395.68
405.377	411.95
405.755	398.85
406.133	424.61
406.511	402.46
406.889	410.37
407.267	429.13
407.645	404.27
408.023	418.51
408.401	420.54
408.779	416.47
409.156	414.44
409.534	425.96
409.912	432.06
410.29	437.26
410.667	434.55
411.045	431.16
411.422	423.03
411.8	452.86
412.178	463.93
412.555	441.78
412.933	438.62
413.31	467.32
413.687	467.09
414.065	443.14
414.442	486.53
414.819	477.49
415.197	481.33
415.574	474.78
415.951	475.68
416.328	481.1
416.705	477.04
417.082	482.91
417.46	502.35
417.837	484.72
418.214	502.12
418.591	501.22
418.967	508.22
419.344	500.09
419.721	508.45
420.098	508
420.475	498.5
420.852	509.8
421.228	536.92
421.605	501.22
421.982	512.29
422.358	529.01
422.735	521.55
423.111	515.9
423.488	509.35
423.864	544.38
424.241	538.95
424.617	515.23
424.994	548.9
425.37	542.57
425.746	548.9
426.123	542.57
426.499	530.59
426.875	564.49
427.251	557.49
427.627	567.2
428.003	565.17
428.379	567.65
428.756	566.75
429.132	585.96
429.507	579.63
429.883	585.96
430.259	585.28
430.635	588.44
431.011	590.03
431.387	604.49
431.763	600.65
432.138	618.27
432.514	593.64
432.89	593.64
433.265	619.4
433.641	621.66
434.016	640.87
434.392	618.95
434.767	644.49
435.143	667.99
435.518	673.64
435.894	684.04
436.269	658.05
436.644	693.75
437.02	670.48
437.395	653.75
437.77	686.07
438.145	675.22
438.52	708.67
438.895	698.27
439.271	699.4
439.646	704.15
440.021	736.01
440.395	733.53
440.77	720.64
441.145	720.42
441.52	725.39
441.895	726.97
442.27	728.1
442.645	739.18
443.019	757.03
443.394	749.57
443.769	747.76
444.143	752.96
444.518	758.61
444.892	744.37
445.267	770.81
445.641	779.17
446.016	795.22
446.39	785.95
446.764	764.71
447.139	784.82
447.513	795.45
447.887	790.7
448.262	785.5
448.636	792.73
449.01	819.4
449.384	817.59
449.758	856.23
450.132	815.11
450.506	828.21
450.88	832.51
451.254	856.91
451.628	851.04
452.002	873.86
452.376	879.74
452.75	898.72
453.123	854.2
453.497	888.55
453.871	889.91
454.244	915.67
454.618	926.97
454.992	895.1
455.365	926.29
455.739	923.58
456.112	919.28
456.486	942.33
456.859	967.42
457.232	962.67
457.606	988.21
457.979	1007.42
458.352	1025.04
458.725	1025.04
459.099	1020.98
459.472	1044.03
459.845	1077.92
460.218	1049.45
460.591	1077.47
460.964	1088.32
461.337	1098.71
461.71	1095.1
462.083	1123.57
462.456	1145.49
462.829	1116.11
463.201	1127.19
463.574	1137.58
463.947	1173.29
464.32	1211.71
464.692	1209.45
465.065	1202.89
465.438	1251.25
465.81	1264.13
466.183	1270.46
466.555	1293.29
466.928	1326.05
467.3	1316.79
467.672	1329.89
468.045	1371.93
468.417	1380.51
468.789	1406.28
469.161	1423
469.534	1438.37
469.906	1485.82
470.278	1490.34
470.65	1538.02
471.022	1534.41
471.394	1581.64
471.766	1587.29
472.138	1628.87
472.51	1671.13
472.882	1724.01
473.253	1748.19
473.625	1782.99
473.997	1822.54
474.369	1846.72
474.74	1869.99
475.112	1915.19
475.484	1946.6
475.855	1983.44
476.227	2010.78
476.598	2108.18
476.97	2141.17
477.341	2176.43
477.713	2266.82
478.084	2271.79
478.455	2378
478.827	2388.17
479.198	2486.7
479.569	2519.47
479.94	2638.33
480.311	2692.12
480.682	2768.5
481.053	2864.09
481.424	2923.52
481.795	3002.84
482.166	3078.55
482.537	3158.55
482.908	3262.27
483.279	3330.29
483.65	3375.94
484.021	3531.87
484.391	3634.69
484.762	3706.56
485.133	3766.44
485.503	3890.51
485.874	4009.15
486.244	4052.99
486.615	4171.85
486.985	4333.43
487.356	4481.22
487.726	4559.19
488.097	4668.79
488.467	4794.44
488.837	4937.03
489.207	5019.51
489.578	5166.63
489.948	5221.09
490.318	5378.83
490.688	5462.22
491.058	5624.47
491.428	5740.63
491.798	5854.52
492.168	6060.39
492.538	6143.1
492.908	6305.36
493.278	6436.65
493.648	6490.89
494.017	6667.83
494.387	6794.61
494.757	6931.78
495.126	7029.41
495.496	7182.17
495.866	7278.21
496.235	7440.92
496.605	7566.11
496.974	7682.72
497.344	7806.11
497.713	7927.01
498.082	8059.43
498.452	8153.22
498.821	8362.03
499.19	8389.37
499.559	8476.6
499.928	8666.2
500.298	8763.15
500.667	8936.25
501.036	8939.41
501.405	9105.74
501.774	9164.49
502.143	9264.6
502.512	9409.68
502.88	9549.11
503.249	9602.67
503.618	9720.86
503.987	9821.65
504.356	9922.89
504.724	10060.29
505.093	10147.74
505.462	10170.79
505.83	10284.91
506.199	10330.11
506.567	10571.69
506.936	10537.56
507.304	10710.89
507.672	10778.01
508.041	10890.77
508.409	11034.5
508.777	11062.97
509.145	11247.6
509.514	11309.29
509.882	11324.21
510.25	11414.83
510.618	11513.81
510.986	11607.14
511.354	11649.17
511.722	11789.05
512.09	11871.99
512.458	11897.07
512.826	11998.09
513.193	12027.69
513.561	12056.17
513.929	12248.93
514.297	12359.43
514.664	12430.62
515.032	12417.51
515.4	12537.51
515.767	12533.44
516.135	12713.78
516.502	12564.85
516.869	12831.29
517.237	12817.73
517.604	12850.04
517.972	12997.38
518.339	13170.49
518.706	13069.47
519.073	13072.86
519.44	13208.23
519.808	13302.91
520.175	13301.56
520.542	13438.73
520.909	13460.87
521.276	13503.36
521.643	13690.25
522.009	13669
522.376	13748.1
522.743	13828.77
523.11	13945.61
523.477	14059.05
523.843	14069.22
524.21	14207.07
524.577	14282.1
524.943	14258.37
525.31	14342.89
525.676	14435.99
526.043	14494.97
526.409	14582.2
526.776	14619.71
527.142	14565.7
527.508	14702.88
527.874	14729.54
528.241	14812.93
528.607	14766.38
528.973	14864.68
529.339	14862.87
529.705	14950.55
530.071	14996.2
530.437	15019.7
530.803	15127.72
531.169	15107.61
531.535	15168.63
531.901	15139.7
532.267	15214.5
532.632	15261.51
532.998	15284.56
533.364	15288.62
533.73	15350.54
534.095	15352.8
534.461	15377.21
534.826	15407.94
535.192	15405.68
535.557	15486.36
535.923	15477.77
536.288	15524.32
536.653	15451.33
537.019	15464.66
537.384	15508.73
537.749	15526.36
538.114	15569.97
538.479	15516.19
538.845	15571.78
539.21	15517.32
539.575	15548.5
539.94	15518.67
540.305	15466.7
540.67	15474.38
541.034	15468.05
541.399	15497.66
541.764	15539.24
542.129	15511.22
542.494	15442.52
542.858	15568.62
543.223	15521.61
543.587	15539.01
543.952	15461.73
544.316	15534.49
544.681	15414.72
545.045	15526.13
545.41	15553.02
545.774	15494.49
546.138	15412.69
546.503	15509.63
546.867	15427.38
547.231	15510.54
547.595	15539.92
547.959	15454.49
548.324	15410.43
548.688	15414.04
549.052	15547.83
549.416	15493.82
549.779	15487.94
550.143	15431.44
550.507	15540.59
550.871	15499.01
551.235	15394.61
551.599	15548.5
551.962	15515.96
552.326	15509.63
552.689	15470.09
553.053	15441.84
553.417	15499.92
553.78	15616.75
554.143	15535.17
554.507	15566.81
554.87	15568.39
555.234	15573.81
555.597	15485
555.96	15572.23
556.323	15534.94
556.686	15503.31
557.05	15594.6
557.413	15623.98
557.776	15505.11
558.139	15608.62
558.502	15626.69
558.865	15717.99
559.228	15793.02
559.59	15733.36
559.953	15746.01
560.316	15844.09
560.679	15769.97
561.041	15915.73
561.404	15873.92
561.767	15967.93
562.129	15814.71
562.492	15987.14
562.854	15891.77
563.217	15925.44
563.579	15916.63
563.941	15944.88
564.304	16063.07
564.666	16037.98
565.028	16110.3
565.39	16143.97
565.753	16098.77
566.115	16170.18
566.477	16193.68
566.839	16197.3
567.201	16346
567.563	16283.63
567.925	16383.51
568.287	16330.18
568.648	16301.7
569.01	16489.5
569.372	16467.12
569.734	16398.88
570.095	16458.31
570.457	16510.29
570.819	16644.07
571.18	16507.35
571.542	16697.63
571.903	16652.2
572.265	16696.04
572.626	16637.29
572.987	16712.99
573.349	16809.71
573.71	16811.3
574.071	16798.64
574.432	16865.31
574.794	16975.13
575.155	16880.67
575.516	16769.94
575.877	17000.44
576.238	16974.68
576.599	17022.59
576.96	16907.56
577.32	16943.5
577.681	17017.17
578.042	16965.19
578.403	17065.75
578.763	16928.35
579.124	16959.09
579.485	17077.95
579.845	17173.09
580.206	17085.19
580.566	17050.39
580.927	17045.41
581.287	17142.59
581.648	17037.96
582.008	17118.63
582.368	17088.12
582.728	17088.35
583.089	16986.66
583.449	17064.17
583.809	17079.08
584.169	17146.43
584.529	17051.97
584.889	17039.99
585.249	17004.06
585.609	16958.41
585.969	17022.82
586.329	16980.33
586.688	17102.81
587.048	17009.71
587.408	16978.75
587.768	16939.2
588.127	16949.37
588.487	17021.69
588.846	17000.67
589.206	16948.01
589.565	16953.21
589.925	16939.88
590.284	16956.38
590.643	16996.15
591.003	16860.33
591.362	16992.31
591.721	16950.5
592.08	16949.6
592.44	17057.84
592.799	16992.99
593.158	16884.74
593.517	16947.56
593.876	16947.56
594.235	16925.19
594.593	16934.23
594.952	16892.88
595.311	16900.78
595.67	16908.69
596.029	16965.42
596.387	16954.34
596.746	16937.62
597.104	16913.21
597.463	16971.74
597.822	16982.14
598.18	16917.51
598.538	16848.13
598.897	16905.53
599.255	16806.32
599.613	16986.88
599.972	16956.38
600.33	17018.97
600.688	16903.72
601.046	16938.75
601.404	17022.59
601.762	16917.06
602.12	17046.32
602.478	17020.1
602.836	17022.59
603.194	16907.79
603.552	16959.99
603.91	16870.05
604.268	16996.15
604.625	16952.53
604.983	17019.65
605.341	16902.14
605.698	16932.87
606.056	17015.58
606.413	17048.58
606.771	17035.02
607.128	17096.71
607.485	17026.2
607.843	16953.66
608.2	17130.83
608.557	17153.21
608.914	17086.32
609.272	17192.08
609.629	17231.17
609.986	17278.4
610.343	17210.38
610.7	17243.83
611.057	17204.05
611.414	17230.49
611.771	17297.61
612.127	17333.32
612.484	17237.95
612.841	17310.94
613.198	17272.98
613.554	17332.41
613.911	17272.07
614.267	17305.07
614.624	17379.64
614.98	17372.18
615.337	17438.62
615.693	17401.34
616.05	17400.66
616.406	17475.01
616.762	17508.23
617.118	17463.93
617.475	17402.01
617.831	17523.37
618.187	17506.87
618.543	17571.73
618.899	17591.84
619.255	17544.84
619.611	17607.43
619.967	17596.59
620.323	17687.66
620.678	17694.44
621.034	17537.15
621.39	17578.51
621.746	17651.27
622.101	17795.9
622.457	17667.77
622.812	17679.97
623.168	17719.29
623.523	17586.19
623.879	17807.2
624.234	17572.41
624.589	17674.55
624.945	17813.53
625.3	17689.46
625.655	17665.51
626.01	17766.98
626.365	17713.42
626.72	17748.67
627.075	17730.37
627.43	17720.42
627.785	17699.86
628.14	17680.2
628.495	17731.05
628.85	17684.49
629.205	17595.46
629.559	17715.23
629.914	17653.76
630.269	17655.11
630.623	17553.42
630.978	17571.5
631.332	17628.45
631.687	17645.17
632.041	17598.85
632.396	17657.83
632.75	17573.08
633.104	17633.65
633.459	17455.57
633.813	17492.18
634.167	17402.69
634.521	17548.23
634.875	17441.11
635.229	17392.97
635.583	17266.2
635.937	17432.52
636.291	17433.65
636.645	17396.36
636.999	17355.01
637.352	17305.52
637.706	17304.16
638.06	17291.06
638.413	17222.36
638.767	17253.54
639.121	17296.48
639.474	17159.08
639.828	17114.11
640.181	17182.58
640.534	17157.95
640.888	17149.14
641.241	17122.7
641.594	17052.87
641.947	17211.51
642.301	17047
642.654	17057.39
643.007	17063.49
643.36	17195.24
643.713	17007.22
644.066	17054.68
644.419	17024.4
644.771	16870.5
645.124	16687.91
645.477	16756.83
645.83	16638.19
646.182	16580.57
646.535	16563.39
646.888	16583.73
647.24	16416.05
647.593	16522.49
647.945	16479.78
648.298	16389.16
648.65	16428.93
649.002	16384.64
649.355	16487.24
649.707	16387.13
650.059	16496.73
650.411	16736.49
650.763	16637.74
651.115	16874.34
651.467	16725.65
651.819	16795.02
652.171	16815.59
652.523	16761.58
652.875	16790.96
653.227	16719.32
653.578	16855.81
653.93	16806.32
654.282	16742.82
654.633	16657.63
654.985	16764.97
655.337	16752.09
655.688	16828.7
656.039	16757.06
656.391	16705.76
656.742	16697.4
657.094	16783.95
657.445	16829.83
657.796	16803.84
658.147	16741.24
658.498	16725.42
658.849	16720.9
659.2	16744.63
659.551	16708.47
659.902	16669.6
660.253	16704.63
660.604	16750.96
660.955	16684.07
661.306	16783.73
661.656	16770.39
662.007	16759.55
662.358	16784.63
662.708	16804.06
663.059	16823.05
663.409	16756.61
663.76	16818.07
664.11	16827.57
664.461	16903.5
664.811	16823.95
665.161	16838.87
665.511	16840.67
665.862	16799.54
666.212	16933.55
666.562	16895.36
666.912	16862.37
667.262	16802.71
667.612	16845.64
667.962	16787.79
668.312	16822.37
668.662	16931.74
669.011	16782.14
669.361	16792.09
669.711	16785.31
670.06	16726.1
670.41	16777.4
670.76	16726.33
671.109	16823.27
671.459	16773.56
671.808	16693.56
672.157	16751.41
672.507	16669.6
672.856	16619.44
673.205	16707.12
673.554	16637.97
673.904	16724.97
674.253	16759.55
674.602	16662.37
674.951	16420.8
675.3	16370.85
675.649	16553
675.998	16632.77
676.346	16607.01
676.695	16660.79
677.044	16474.81
677.393	16535.37
677.741	16652.88
678.09	16568.14
678.438	16550.51
678.787	16458.54
679.135	16589.38
679.484	16349.39
679.832	16519.55
680.181	16395.71
680.529	16478.87
680.877	16279.56
681.225	16375.37
681.573	16387.35
681.922	16195.94
682.27	16275.04
682.618	16301.25
682.966	16092.44
683.314	16271.42
683.661	16162.95
684.009	16080.02
684.357	16009.51
684.705	16018.55
685.053	16065.55
685.4	15980.58
685.748	15885.67
686.095	15819.68
686.443	15812.68
686.79	15821.72
687.138	15769.74
687.485	15722.74
687.832	15764.09
688.18	15740.14
688.527	15660.82
688.874	15604.32
689.221	15599.58
689.568	15539.69
689.915	15542.4
690.262	15448.62
690.609	15396.87
690.956	15387.38
691.303	15283.43
691.65	15374.5
691.997	15279.13
692.344	15182.41
692.69	15160.94
693.037	15060.61
693.383	14955.3
693.73	15094.96
694.077	14991.23
694.423	14902.64
694.769	14951.91
695.116	14875.3
695.462	14776.09
695.808	14751.69
696.155	14782.2
696.501	14684.35
696.847	14613.61
697.193	14510.56
697.539	14535.42
697.885	14425.6
698.231	14379.95
698.577	14500.62
698.923	14314.64
699.269	14237.35
699.614	14127.98
699.96	14193.51
700.306	14182.66
700.651	13989.22
700.997	14024.02
701.342	14003.91
701.688	13977.02
702.033	13896.12
702.379	13833.75
702.724	13862.67
703.069	13902.22
703.415	13665.84
703.76	13664.49
704.105	13652.73
704.45	13670.59
704.795	13586.75
705.14	13560.31
705.485	13536.13
705.83	13436.24
706.175	13419.07
706.52	13360.09
706.865	13337.49
707.209	13286.42
707.554	13212.52
707.899	13261.78
708.243	13218.85
708.588	13217.04
708.932	13017.04
709.277	13045.29
709.621	13098.17
709.966	12989.47
710.31	12923.71
710.654	12930.72
710.998	12856.6
711.342	12929.36
711.687	12889.82
712.031	12826.77
712.375	12741.12
712.719	12682.59
713.063	12712.42
713.407	12660.67
713.75	12703.83
714.094	12644.17
714.438	12597.17
714.782	12572.76
715.125	12543.84
715.469	12494.12
715.812	12395.14
716.156	12466.78
716.499	12448.47
716.843	12532.76
717.186	12434.24
717.53	12387.23
717.873	12403.5
718.216	12454.35
718.559	12316.72
718.902	12213.45
719.246	12274.92
719.589	12253.9
719.932	12254.13
720.275	12253.67
720.617	12229.49
720.96	12248.48
721.303	12190.63
721.646	12172.55
721.989	12079.22
722.331	12199.21
722.674	12130.97
723.016	12180.23
723.359	12145.43
723.701	12119.89
724.044	12076.73
724.386	11997.86
724.729	11998.09
725.071	11974.81
725.413	11973.23
725.755	11846.45
726.097	12003.06
726.439	11833.35
726.782	11885.55
727.124	11982.72
727.465	11878.32
727.807	11859.79
728.149	11846.68
728.491	11776.85
728.833	11895.27
729.175	11812.78
729.516	11796.29
729.858	11848.49
730.199	11878.77
730.541	11793.12
730.882	11819.11
731.224	11768.72
731.565	11735.95
731.906	11805.33
732.248	11766.91
732.589	11752.9
732.93	11737.53
733.271	11767.81
733.612	11802.61
733.953	11770.52
734.294	11756.96
734.635	11750.41
734.976	11759.68
735.317	11744.08
735.658	11757.19
735.999	11748.83
736.339	11711.77
736.68	11767.59
737.021	11725.1
737.361	11697.76
737.702	11770.75
738.042	11773.01
738.383	11700.24
738.723	11793.57
739.063	11736.17
739.404	11766
739.744	11751.32
740.084	11839.67
740.424	11817.75
740.764	11763.97
741.104	11798.32
741.444	11777.53
741.784	11749.96
742.124	11833.8
742.464	11862.5
742.804	11853.69
743.143	11876.06
743.483	11931.2
743.823	11922.84
744.162	11837.19
744.502	11936.4
744.841	11965.09
745.181	11945.66
745.52	12008.94
745.86	12115.37
746.199	12026.34
746.538	12062.04
746.877	12160.12
747.216	12239.21
747.556	12171.19
747.895	12294.8
748.234	12260.68
748.573	12264.97
748.911	12368.25
749.25	12441.01
749.589	12495.02
749.928	12569.82
750.267	12577.28
750.605	12654.57
750.944	12696.38
751.283	12742.93
751.621	12831.51
751.96	12868.8
752.298	12918.06
752.636	13082.81
752.975	13143.14
753.313	13196.48
753.651	13364.61
753.989	13382.68
754.327	13482.34
754.666	13527.99
755.004	13625.84
755.342	13739.06
755.679	13834.65
756.017	13919.62
756.355	14026.28
756.693	13997.58
757.031	14277.8
757.368	14160.74
757.706	14362.55
758.044	14482.99
758.381	14674.18
758.719	14570
759.056	14881.4
759.394	14858.35
759.731	14980.38
760.068	15017.67
760.405	15179.47
760.743	15266.7
761.08	15388.96
761.417	15421.73
761.754	15561.61
762.091	15750.53
762.428	15750.31
762.765	15749.85
763.102	16027.59
763.438	16016.06
763.775	16027.14
764.112	16225.1
764.449	16333.57
764.785	16396.39
765.122	16404.07
765.458	16549.83
765.795	16572.88
766.131	16646.1
766.467	16676.16
766.804	16790.05
767.14	16841.35
767.476	16999.76
767.812	16919.32
768.148	17090.61
768.485	17167.9
768.821	17049.71
769.157	17186.88
769.492	17240.44
769.828	17240.89
770.164	17266.88
770.5	17260.77
770.836	17369.25
771.171	17390.26
771.507	17405.86
771.842	17383.94
772.178	17398.62
772.513	17467.32
772.849	17477.04
773.184	17471.16
773.519	17508.23
773.855	17564.27
774.19	17377.61
774.525	17517.94
774.86	17546.42
775.195	17586.19
775.53	17590.94
775.865	17529.69
776.2	17412.41
776.535	17385.97
776.87	17491.5
777.205	17432.07
777.539	17342.13
777.874	17435.23
778.209	17277.95
778.543	17327.67
778.878	17216.48
779.212	17309.36
779.547	17209.93
779.881	17288.34
780.215	17154.56
780.55	17261.45
780.884	17180.1
781.218	17111.17
781.552	17120.67
781.886	17164.28
782.22	17077.05
782.554	17010.16
782.888	16945.98
783.222	16852.65
783.556	16808.58
783.889	16817.62
784.223	16713.22
784.557	16687.91
784.89	16748.25
785.224	16614.69
785.557	16533.56
785.891	16620.34
786.224	16546.22
786.558	16598.42
786.891	16331.31
787.224	16370.85
787.557	16354.81
787.891	16386.22
788.224	16281.59
788.557	16388.48
788.89	16267.58
789.223	16411.53
789.556	16207.02
789.888	16164.08
790.221	16099.68
790.554	16000.92
790.887	16069.39
791.219	16022.84
791.552	15933.58
791.884	15881.83
792.217	15860.36
792.549	15781.04
792.882	15699.46
793.214	15684.32
793.546	15741.04
793.879	15557.54
794.211	15522.74
794.543	15550.99
794.875	15519.35
795.207	15565.68
795.539	15498.34
795.871	15463.08
796.203	15343.31
796.535	15274.16
796.867	15242.97
797.198	15223.31
797.53	15188.97
797.862	15094.96
798.193	15045.47
798.525	15141.06
798.856	15019.48
799.188	14896.09
799.519	14899.03
799.85	14832.14
800.182	14827.17
800.513	14900.39
800.844	14706.04
801.175	14779.48
801.506	14673.95
801.837	14618.81
802.168	14672.59
802.499	14528.64
802.83	14457.46
803.161	14524.35
803.491	14505.59
803.822	14469.44
804.153	14424.69
804.483	14266.28
804.814	14283.45
805.145	14261.31
805.475	14226.05
805.805	14168.43
806.136	14171.59
806.466	14142.44
806.796	14106.28
807.126	13941.31
807.457	13999.17
807.787	13910.81
808.117	13846.18
808.447	13909.22
808.777	13959.17
809.107	13842.56
809.436	13763.69
809.766	13895.21
810.096	13802.79
810.426	13722.34
810.755	13760.75
811.085	13606.86
811.414	13676.01
811.744	13505.17
812.073	13580.65
812.403	13405.74
812.732	13484.6
813.061	13354.66
813.39	13339.75
813.719	13288.45
814.049	13357.83
814.378	13291.39
814.707	13335.91
815.036	13272.41
815.365	13209.58
815.693	13043.94
816.022	13062.47
816.351	13068.79
816.68	12997.84
817.008	12966.88
817.337	12955.35
817.665	12894.11
817.994	12975.46
818.322	12929.36
818.651	12810.95
818.979	12733.21
819.307	12867.22
819.636	12751.06
819.964	12733.21
820.292	12825.19
820.62	12712.65
820.948	12665.64
821.276	12761.46
821.604	12738.86
821.932	12780.44
822.259	12636.26
822.587	12698.64
822.915	12648.01
823.243	12758.97
823.57	12733.21
823.898	12623.16
824.225	12688.47
824.553	12634.91
824.88	12627
825.207	12670.61
825.535	12659.09
825.862	12676.49
826.189	12665.64
826.516	12670.39
826.843	12748.13
827.17	12715.81
827.497	12749.71
827.824	12777.28
828.151	12785.64
828.478	12724.85
828.805	12745.19
829.131	12592.42
829.458	12634.46
829.785	12672.87
830.111	12605.53
830.438	12721.46
830.764	12704.74
831.09	12682.82
831.417	12641.24
831.743	12710.16
832.069	12665.42
832.395	12577.73
832.722	12674.45
833.048	12622.93
833.374	12572.08
833.7	12591.97
834.026	12549.26
834.351	12617.28
834.677	12552.88
835.003	12537.51
835.329	12632.42
835.654	12513.78
835.98	12531.41
836.306	12478.3
836.631	12412.54
836.956	12455.93
837.282	12554.91
837.607	12424.97
837.932	12416.83
838.258	12361.92
838.583	12345.42
838.908	12261.58
839.233	12330.06
839.558	12303.84
839.883	12287.35
840.208	12206.44
840.533	12194.47
840.858	12202.6
841.182	12168.93
841.507	12202.38
841.832	12100.46
842.156	12061.82
842.481	12084.64
842.805	12071.53
843.13	12012.78
843.454	12062.27
843.778	11961.03
844.103	11932.1
844.427	11866.79
844.751	11966.68
845.075	11827.02
845.399	11854.36
845.723	11747.25
846.047	11761.94
846.371	11704.54
846.695	11679.45
847.019	11593.58
847.343	11601.04
847.666	11436.75
847.99	11437.88
848.313	11372.57
848.637	11363.75
848.96	11376.18
849.284	11293.47
849.607	11254.83
849.931	11190.88
850.254	11133.25
850.577	11034.72
850.9	10999.92
851.223	11014.84
851.546	10918.12
851.869	10876.08
852.192	10833.6
852.515	10776.65
852.838	10828.18
853.161	10741.62
853.483	10718.8
853.806	10616.88
854.129	10707.5
854.451	10633.15
854.774	10525.58
855.096	10516.77
855.419	10533.49
855.741	10406.49
856.063	10374.85
856.385	10428.41
856.708	10371.92
857.03	10373.72
857.352	10310.68
857.674	10316.78
857.996	10199.94
858.318	10217.8
858.64	10216.89
858.961	10182.99
859.283	10130.57
859.605	10088.53
859.926	10084.92
860.248	10091.47
860.57	10055.09
860.891	9964.92
861.212	9978.93
861.534	9922.89
861.855	9928.99
862.176	9990.46
862.498	9924.24
862.819	9879.5
863.14	9903.23
863.461	9841.54
863.782	9731.26
864.103	9819.84
864.424	9817.13
864.745	9822.78
865.065	9802.21
865.386	9735.78
865.707	9682.22
866.027	9716.79
866.348	9646.06
866.668	9640.18
866.989	9612.61
867.309	9640.86
867.63	9566.97
867.95	9604.25
868.27	9533.97
868.59	9550.92
868.91	9564.03
869.23	9542.33
869.55	9521.32
869.87	9509.34
870.19	9459.4
870.51	9511.37
870.83	9431.83
871.15	9373.75
871.469	9459.4
871.789	9481.32
872.109	9498.27
872.428	9299.85
872.748	9385.28
873.067	9433.18
873.386	9394.09
873.706	9331.94
874.025	9307.31
874.344	9300.98
874.663	9265.05
874.982	9264.38
875.301	9251.27
875.62	9235.45
875.939	9190.03
876.258	9202.46
876.577	9130.14
876.896	9143.93
877.214	9135.11
877.533	9186.86
877.852	9159.97
878.17	9157.71
878.489	9134.89
878.807	9046.08
879.125	9112.51
879.444	9040.88
879.762	9022.12
880.08	8974.89
880.398	9016.25
880.716	8991.61
881.034	8968.79
881.352	8983.48
881.67	8908.45
881.988	8914.78
882.306	8859.64
882.624	8839.53
882.941	8803.82
883.259	8865.97
883.577	8767.89
883.894	8719.98
884.212	8749.36
884.529	8720.66
884.846	8739.64
885.164	8783.71
885.481	8687.89
885.798	8710.04
886.115	8626.43
886.432	8645.86
886.75	8517.5
887.067	8575.58
887.383	8544.85
887.7	8595.92
888.017	8527.22
888.334	8520.89
888.651	8506.65
888.967	8461.23
889.284	8370.61
889.6	8386.21
889.917	8316.6
890.233	8363.38
890.55	8255.59
890.866	8300.78
891.182	8254.91
891.498	8228.02
891.815	8226.66
892.131	8253.1
892.447	8204.52
892.763	8120.9
893.079	8127
893.395	8080.45
893.71	8151.41
894.026	8022.83
894.342	8009.72
894.657	7995.71
894.973	7983.73
895.289	7957.06
895.604	8048.59
895.92	7905.09
896.235	7893.11
896.55	7905.31
896.865	7845.88
897.181	7807.46
897.496	7727.47
897.811	7766.34
898.126	7755.04
898.441	7708.94
898.756	7711.2
899.071	7628.94
899.386	7626.23
899.7	7631.2
900.015	7505.55
900.33	7494.03
900.644	7478.66
900.959	7528.83
901.273	7530.18
901.588	7459.68
901.902	7395.95
902.216	7387.81
902.531	7333.35
902.845	7299
903.159	7292.45
903.473	7240.25
903.787	7278.66
904.101	7194.82
904.415	7223.75
904.729	7196.86
905.042	7112.79
905.356	7101.95
905.67	7105.11
905.984	7111.89
906.297	7034.6
906.611	6974.04
906.924	7022.85
907.237	6935.4
907.551	6927.26
907.864	6871.67
908.177	6857.88
908.491	6902.63
908.804	6857.88
909.117	6779.24
909.43	6763.65
909.743	6719.36
910.056	6721.39
910.368	6703.31
910.681	6660.38
910.994	6607.95
911.307	6604.11
911.619	6583.99
911.932	6541.73
912.244	6538.12
912.557	6487.27
912.869	6440.27
913.181	6407.73
913.494	6416.31
913.806	6389.65
914.118	6355.07
914.43	6305.36
914.742	6300.39
915.054	6247.96
915.366	6259.71
915.678	6219.03
915.99	6165.47
916.302	6138.58
916.613	6173.83
916.925	6114.85
917.236	6106.94
917.548	6071.69
917.859	6121.63
918.171	6088.87
918.482	5996.89
918.794	5982.2
919.105	5986.04
919.416	5938.59
919.727	5940.62
920.038	5862.88
920.349	5841.41
920.66	5832.83
920.971	5782.88
921.282	5811.81
921.593	5767.07
921.903	5745.6
922.214	5704.02
922.525	5686.39
922.835	5682.55
923.146	5608.2
923.456	5649.33
923.767	5613.62
924.077	5623.11
924.387	5571.59
924.697	5545.38
925.008	5541.76
925.318	5528.43
925.628	5499.5
925.938	5418.15
926.248	5377.7
926.558	5387.64
926.867	5371.14
927.177	5393.06
927.487	5318.72
927.796	5302.67
928.106	5267.19
928.416	5262.22
928.725	5241.88
929.034	5231.03
929.344	5246.4
929.653	5142
929.962	5123.24
930.271	5151.26
930.581	5120.3
930.89	5107.87
931.199	5045.95
931.508	5038.27
931.817	5006.18
932.125	5037.14
932.434	5032.62
932.743	4968.89
933.051	4963.47
933.36	4920.08
933.669	4915.34
933.977	4907.2
934.286	4865.39
934.594	4812.97
934.902	4848.67
935.21	4792.85
935.519	4759.63
935.827	4760.76
936.135	4758.96
936.443	4684.83
936.751	4727.55
937.059	4664.27
937.367	4611.16
937.674	4622.46
937.982	4648.68
938.29	4570.71
938.597	4637.38
938.905	4530.94
939.213	4515.12
939.52	4548.57
939.827	4548.79
940.135	4486.42
940.442	4460.43
940.749	4481.68
941.056	4489.59
941.363	4459.08
941.67	4352.41
941.977	4343.37
942.284	4336.37
942.591	4339.76
942.898	4329.14
943.205	4347.89
943.511	4287.33
943.818	4294.56
944.125	4283.49
944.431	4235.35
944.738	4216.82
945.044	4190.16
945.35	4156.94
945.657	4160.33
945.963	4163.27
946.269	4092.08
946.575	4103.38
946.881	4092.99
947.187	4095.02
947.493	4104.28
947.799	4049.37
948.105	4065.19
948.41	4036.72
948.716	4028.35
949.022	3981.8
949.327	4000.11
949.633	3900.45
949.938	3938.87
950.244	3921.01
950.549	3898.64
950.854	3860.22
951.16	3863.61
951.465	3840.56
951.77	3851.18
952.075	3843.05
952.38	3807.12
952.685	3798.76
952.99	3792.43
953.294	3694.13
953.599	3742.71
953.904	3712.43
954.209	3693.67
954.513	3687.12
954.818	3677.4
955.122	3636.95
955.426	3615.71
955.731	3625.65
956.035	3599.67
956.339	3588.82
956.643	3565.32
956.948	3573.45
957.252	3537.75
957.556	3530.06
957.86	3523.28
958.163	3497.3
958.467	3453.23
958.771	3490.52
959.075	3460.01
959.378	3421.59
959.682	3424.3
959.985	3417.52
960.289	3417.52
960.592	3347.92
960.896	3387.24
961.199	3361.48
961.502	3354.93
961.805	3310.18
962.108	3276.06
962.411	3325.55
962.714	3257.3
963.017	3284.87
963.32	3254.14
963.623	3218.21
963.926	3234.93
964.228	3229.96
964.531	3231.77
964.833	3200.35
965.136	3154.93
965.438	3186.34
965.741	3111.32
966.043	3117.42
966.345	3106.8
966.648	3108.38
966.95	3060.02
967.252	3036.06
967.554	3061.83
967.856	3050.53
968.158	3037.65
968.46	3023.18
968.761	3020.25
969.063	2995.84
969.365	3011.21
969.666	2955.84
969.968	2956.97
970.269	2930.53
970.571	2939.57
970.872	2937.31
971.174	2887.37
971.475	2925.11
971.776	2908.16
972.077	2866.35
972.378	2901.83
972.679	2895.05
972.98	2853.47
973.281	2825.22
973.582	2790.65
973.883	2818.44
974.183	2776.18
974.484	2778.44
974.785	2784.09
975.085	2764.66
975.386	2760.37
975.686	2685.11
975.986	2722.17
976.287	2733.02
976.587	2675.4
976.887	2660.71
977.187	2644.21
977.487	2632.69
977.787	2658
978.087	2619.35
978.387	2613.7
978.687	2619.58
978.987	2582.52
979.286	2570.99
979.586	2583.87
979.885	2560.82
980.185	2552.91
980.484	2540.94
980.784	2554.49
981.083	2509.52
981.382	2504.1
981.682	2519.24
981.981	2511.78
982.28	2514.04
982.579	2491.45
982.878	2446.02
983.177	2452.8
983.475	2420.49
983.774	2394.05
984.073	2394.5
984.372	2374.39
984.67	2394.73
984.969	2370.32
985.267	2402.41
985.566	2366.93
985.864	2379.13
986.162	2388.85
986.461	2303.43
986.759	2331.45
987.057	2327.38
987.355	2291.23
987.653	2303.88
987.951	2276.99
988.249	2252.81
988.547	2252.36
988.844	2238.35
989.142	2269.76
989.44	2193.83
989.737	2230.89
990.035	2212.13
990.332	2208.52
990.63	2162.41
990.927	2196.76
991.224	2193.37
991.521	2158.57
991.819	2152.02
992.116	2125.13
992.413	2143.21
992.71	2139.82
993.006	2141.85
993.303	2105.24
993.6	2082.42
993.897	2081.51
994.193	2062.98
994.49	2102.53
994.787	2057.11
995.083	2008.29
995.379	2059.14
995.676	2034.28
995.972	2017.56
996.268	1994.96
996.565	2003.1
996.861	1999.03
997.157	1991.8
997.453	2001.06
997.749	1973.27
998.044	1958.8
998.34	1936.88
998.636	1917.45
998.932	1922.42
999.227	1921.97
999.523	1879.94
999.818	1887.17
1000.114	1872.25
1000.409	1868.86
1000.704	1849.88
1001	1816.44
1001.295	1869.99
1001.59	1854.17
1001.885	1837
1002.18	1835.87
1002.475	1809.66
1002.77	1788.64
1003.065	1790.45
1003.359	1784.57
1003.654	1761.52
1003.949	1756.78
1004.243	1750.67
1004.538	1765.14
1004.832	1769.66
1005.127	1730.11
1005.421	1708.42
1005.715	1714.97
1006.009	1651.69
1006.304	1653.05
1006.598	1645.37
1006.892	1660.51
1007.186	1656.89
1007.48	1673.61
1007.773	1687.63
1008.067	1603.11
1008.361	1611.69
1008.655	1634.29
1008.948	1613.95
1009.242	1611.92
1009.535	1564.69
1009.829	1570.57
1010.122	1569.44
1010.415	1567.85
1010.708	1549.55
1011.001	1527.86
1011.295	1570.11
1011.588	1520.85
1011.881	1513.17
1012.173	1512.49
1012.466	1514.52
1012.759	1491.47
1013.052	1497.57
1013.344	1479.27
1013.637	1486.5
1013.93	1454.86
1014.222	1464.13
1014.514	1451.93
1014.807	1470
1015.099	1429.33
1015.391	1404.92
1015.683	1404.69
1015.976	1404.02
1016.268	1379.61
1016.56	1373.28
1016.851	1370.57
1017.143	1376.67
1017.435	1363.34
1017.727	1347.97
1018.018	1348.65
1018.31	1332.38
1018.602	1334.19
1018.893	1306.39
1019.185	1317.69
1019.476	1313.17
1019.767	1294.64
1020.058	1268.43
1020.35	1275.43
1020.641	1242.44
1020.932	1251.48
1021.223	1247.41
1021.514	1266.17
1021.804	1233.63
1022.095	1241.99
1022.386	1206.06
1022.677	1254.42
1022.967	1208.09
1023.258	1206.96
1023.548	1207.19
1023.839	1185.27
1024.129	1183.91
1024.419	1189.79
1024.709	1156.11
1025	1148.43
1025.29	1145.72
1025.58	1143.01
1025.87	1145.72
1026.16	1152.27
1026.449	1153.63
1026.739	1104.14
1027.029	1118.15
1027.319	1113.63
1027.608	1097.58
1027.898	1070.24
1028.187	1110.47
1028.477	1109.79
1028.766	1072.27
1029.055	1081.31
1029.344	1073.18
1029.634	1059.17
1029.923	1031.37
1030.212	1023.69
1030.501	1039.73
1030.79	1038.6
1031.078	1011.03
1031.367	995.21
1031.656	1034.53
1031.945	1029.79
1032.233	1001.32
1032.522	989.34
1032.81	987.98
1033.099	966.51
1033.387	978.49
1033.675	962.22
1033.963	987.98
1034.251	969.23
1034.54	938.94
1034.828	943.46
1035.116	927.87
1035.403	907.08
1035.691	922.67
1035.979	915.44
1036.267	903.01
1036.554	901.21
1036.842	894.65
1037.129	914.09
1037.417	858.95
1037.704	863.69
1037.992	871.15
1038.279	873.18
1038.566	876.35
1038.853	876.35
1039.14	876.35
