Data from hue_160_FLMS001491_00007.txt Node
Date: Tue Feb 07 16:50:40 GMT 2017
User: dcchb
Spectrometer: FLMS00149
Trigger mode: 0
Integration Time (sec): 2.000000E-2
Scans to average: 10
Electric dark correction enabled: true
Nonlinearity correction enabled: false
Boxcar width: 0
XAxis mode: Wavelengths
Number of Pixels in Spectrum: 2048
>>>>>Begin Spectral Data<<<<<
341.393	-21.88
341.776	-21.88
342.16	-21.88
342.543	-43.35
342.927	-70.01
343.31	-50.58
343.693	-70.01
344.077	-62.33
344.46	-56.91
344.843	-36.34
345.226	-57.36
345.61	-41.76
345.993	-23.69
346.376	-13.74
346.759	12.92
347.142	40.72
347.525	37.33
347.908	50.89
348.291	63.54
348.674	104.22
349.057	103.09
349.44	130.66
349.823	115.97
350.206	145.35
350.588	201.39
350.971	217.66
351.354	228.06
351.737	249.08
352.119	241.84
352.502	270.32
352.884	265.35
353.267	280.94
353.65	280.71
354.032	295.85
354.414	300.15
354.797	304.89
355.179	324.1
355.562	360.03
355.944	330.88
356.326	343.54
356.709	322.52
357.091	330.88
357.473	355.06
357.855	331.11
358.238	340.37
358.62	338.34
359.002	357.32
359.384	351.67
359.766	321.84
360.148	356.87
360.53	355.06
360.912	321.16
361.294	362.07
361.676	330.66
362.057	340.37
362.439	331.56
362.821	343.31
363.203	311.22
363.584	336.53
363.966	336.53
364.348	312.58
364.729	310.54
365.111	312.8
365.493	313.25
365.874	317.55
366.256	318.23
366.637	317.77
367.019	305.57
367.4	304.67
367.781	338.11
368.163	314.38
368.544	307.83
368.925	316.64
369.306	344.67
369.688	325.68
370.069	308.73
370.45	318
370.831	306.25
371.212	311.9
371.593	298.11
371.974	302.41
372.355	319.58
372.736	331.33
373.117	314.84
373.498	328.4
373.879	288.17
374.26	312.12
374.641	301.96
375.021	334.04
375.402	333.82
375.783	311.9
376.163	322.75
376.544	332.91
376.925	325.46
377.305	321.16
377.686	300.6
378.066	322.07
378.447	326.59
378.827	324.1
379.208	343.54
379.588	330.43
379.968	321.39
380.349	336.98
380.729	315.97
381.109	342.41
381.489	326.59
381.87	336.98
382.25	331.11
382.63	340.82
383.01	328.85
383.39	360.94
383.77	341.73
384.15	350.77
384.53	340.82
384.91	349.41
385.29	343.54
385.67	337.89
386.049	346.93
386.429	361.84
386.809	335.4
387.189	371.11
387.568	361.39
387.948	351.45
388.328	352.12
388.707	347.83
389.087	348.51
389.466	356.42
389.846	355.74
390.225	357.77
390.605	370.2
390.984	360.48
391.363	367.04
391.743	367.49
392.122	394.61
392.501	361.84
392.881	379.02
393.26	367.04
393.639	377.43
394.018	374.04
394.397	379.92
394.776	349.64
395.155	392.57
395.534	368.17
395.913	374.27
396.292	379.47
396.671	381.05
397.05	403.65
397.429	409.75
397.808	404.78
398.186	377.21
398.565	387.6
398.944	362.74
399.323	372.69
399.701	395.74
400.08	387.83
400.458	395.74
400.837	401.16
401.215	411.11
401.594	417.66
401.972	383.54
402.351	398.22
402.729	413.36
403.107	410.65
403.486	414.04
403.864	399.58
404.242	408.85
404.62	423.08
404.999	415.62
405.377	409.07
405.755	412.69
406.133	426.92
406.511	432.8
406.889	441.16
407.267	416.75
407.645	448.39
408.023	426.7
408.401	430.09
408.779	441.61
409.156	446.58
409.534	435.51
409.912	446.36
410.29	458.79
410.667	465.79
411.045	454.49
411.422	451.56
411.8	461.5
412.178	470.31
412.555	478.67
412.933	482.74
413.31	496.98
413.687	481.16
414.065	457.43
414.442	494.94
414.819	503.76
415.197	477.32
415.574	493.36
415.951	484.78
416.328	506.24
416.705	510.09
417.082	505.79
417.46	506.24
417.837	514.38
418.214	519.12
418.591	520.25
418.967	509.41
419.344	526.58
419.721	522.06
420.098	527.71
420.475	522.97
420.852	538.79
421.228	525.68
421.605	554.15
421.982	572.91
422.358	547.37
422.735	567.49
423.111	581.27
423.488	574.49
423.864	577.43
424.241	602.51
424.617	582.63
424.994	580.82
425.37	583.76
425.746	591.21
426.123	608.16
426.499	598.22
426.875	607.48
427.251	616.07
427.627	625.34
428.003	621.04
428.379	633.02
428.756	619.69
429.132	630.08
429.507	667.37
429.883	647.71
430.259	645.68
430.635	643.64
431.011	667.37
431.387	668.27
431.763	695.17
432.138	689.74
432.514	718.22
432.89	682.51
433.265	709.4
433.641	676.86
434.016	699.68
434.392	703.53
434.767	715.05
435.143	741.27
435.518	756.86
435.894	740.81
436.269	753.47
436.644	790.3
437.02	765.45
437.395	779.68
437.77	769.74
438.145	774.26
438.52	807.03
438.895	795.73
439.271	795.73
439.646	788.27
440.021	829.85
440.395	819.68
440.77	830.53
441.145	862.39
441.52	854.03
441.895	844.54
442.27	852.9
442.645	852
443.019	853.58
443.394	874.6
443.769	869.62
444.143	888.15
444.518	898.55
444.892	884.99
445.267	901.94
445.641	897.19
446.016	889.28
446.39	928.61
446.764	903.75
447.139	920.47
447.513	954.37
447.887	963.41
448.262	967.93
448.636	953.69
449.01	942.62
449.384	972.22
449.758	983.52
450.132	993.91
450.506	993.46
450.88	972.45
451.254	1006.12
451.628	1018.32
452.002	1019.22
452.376	1042.95
452.75	1067.58
453.123	1060.35
453.497	1061.94
453.871	1077.08
454.244	1077.3
454.618	1112.33
454.992	1105.78
455.365	1115.95
455.739	1146.23
456.112	1109.62
456.486	1150.29
456.859	1155.49
457.232	1179.22
457.606	1162.27
457.979	1218.54
458.352	1232.78
458.725	1225.32
459.099	1256.28
459.472	1275.49
459.845	1279.1
460.218	1309.61
460.591	1300.57
460.964	1319.78
461.337	1349.16
461.71	1380.35
462.083	1399.33
462.456	1395.94
462.829	1400.01
463.201	1425.77
463.574	1436.16
463.947	1470.74
464.32	1477.74
464.692	1505.99
465.065	1539.66
465.438	1553.45
465.81	1560.45
466.183	1615.59
466.555	1618.76
466.928	1617.85
467.3	1653.11
467.672	1692.43
468.045	1707.57
468.417	1737.4
468.789	1763.39
469.161	1775.36
469.534	1813.55
469.906	1861.91
470.278	1901.01
470.65	1930.16
471.022	1948.24
471.394	2021.46
471.766	2042.02
472.138	2082.02
472.51	2101.23
472.882	2149.82
473.253	2175.58
473.625	2207.67
473.997	2286.76
474.369	2298.74
474.74	2362.24
475.112	2431.62
475.484	2459.64
475.855	2540.09
476.227	2572.4
476.598	2596.36
476.97	2693.3
477.341	2787.77
477.713	2854.88
478.084	2878.61
478.455	2972.17
478.827	3010.58
479.198	3143.91
479.569	3198.38
479.94	3315.44
480.311	3382.55
480.682	3464.13
481.053	3590.68
481.424	3658.7
481.795	3687.86
482.166	3844.91
482.537	3889.43
482.908	4035.19
483.279	4092.82
483.65	4198.35
484.021	4316.54
484.391	4440.83
484.762	4501.84
485.133	4576.19
485.503	4732.35
485.874	4852.8
486.244	4939.57
486.615	5062.51
486.985	5181.6
487.356	5344.53
487.726	5426.11
488.097	5557.18
488.467	5644.19
488.837	5820.45
489.207	5924.41
489.578	6105.64
489.948	6151.29
490.318	6295.24
490.688	6418.63
491.058	6594.9
491.428	6730.03
491.798	6863.82
492.168	7012.06
492.538	7130.25
492.908	7210.93
493.278	7406.18
493.648	7443.91
494.017	7585.15
494.387	7703.79
494.757	7863.11
495.126	8028.98
495.496	8089.32
495.866	8187.62
496.235	8365.92
496.605	8500.16
496.974	8485.47
497.344	8652.7
497.713	8774.95
498.082	8850.88
498.452	8994.83
498.821	9030.99
499.19	9083.42
499.559	9249.06
499.928	9360.7
500.298	9476.4
500.667	9586.91
501.036	9649.96
501.405	9743.97
501.774	9841.59
502.143	9927.92
502.512	9986.45
502.88	10091.3
503.249	10071.19
503.618	10273.67
503.987	10341.01
504.356	10387.79
504.724	10449.03
505.093	10526.32
505.462	10637.73
505.83	10668.69
506.199	10690.61
506.567	10830.04
506.936	10867.78
507.304	11031.39
507.672	11016.93
508.041	11138.96
508.409	11155.23
508.777	11265.06
509.145	11312.74
509.514	11336.24
509.882	11428.22
510.25	11467.31
510.618	11552.51
510.986	11553.41
511.354	11678.38
511.722	11744.14
512.09	11809.22
512.458	11801.09
512.826	11961.76
513.193	11893.51
513.561	11945.94
513.929	12060.29
514.297	12113.4
514.664	12147.75
515.032	12101.65
515.4	12204.47
515.767	12200.17
516.135	12301.19
516.502	12134.86
516.869	12425.03
517.237	12399.04
517.604	12301.41
517.972	12458.92
518.339	12431.81
518.706	12426.61
519.073	12462.09
519.44	12555.64
519.808	12640.61
520.175	12517.23
520.542	12705.47
520.909	12700.05
521.276	12658.47
521.643	12757.45
522.009	12811
522.376	12907.05
522.743	12887.16
523.11	12952.24
523.477	12986.14
523.843	13027.5
524.21	13186.36
524.577	13155.4
524.943	13079.7
525.31	13107.27
525.676	13114.95
526.043	13200.6
526.409	13143.88
526.776	13306.36
527.142	13245.34
527.508	13287.83
527.874	13327.38
528.241	13361.05
528.607	13212.58
528.973	13296.19
529.339	13290.31
529.705	13361.05
530.071	13407.83
530.437	13383.65
530.803	13427.03
531.169	13395.62
531.535	13305.46
531.901	13331.9
532.267	13313.59
532.632	13336.41
532.998	13318.34
533.364	13280.6
533.73	13310.2
534.095	13326.47
534.461	13400.37
534.826	13310.2
535.192	13257.55
535.557	13359.47
535.923	13218
536.288	13261.61
536.653	13242.86
537.019	13084.44
537.384	13092.81
537.749	13069.3
538.114	13034.73
538.479	13035.41
538.845	13033.82
539.21	12938.46
539.575	12979.59
539.94	12947.27
540.305	13002.86
540.67	12821.63
541.034	12857.56
541.399	12863.43
541.764	12808.29
542.129	12740.5
542.494	12741.85
542.858	12717
543.223	12697.79
543.587	12730.78
543.952	12602.65
544.316	12648.75
544.681	12529.43
545.045	12575.3
545.41	12520.62
545.774	12514.97
546.138	12411.92
546.503	12382.99
546.867	12349.77
547.231	12376.67
547.595	12342.99
547.959	12380.06
548.324	12230.46
548.688	12179.84
549.052	12173.51
549.416	12078.14
549.779	12200.17
550.143	12076.11
550.507	12054.41
550.871	11995.66
551.235	11994.08
551.599	11995.43
551.962	11968.99
552.326	11941.2
552.689	11966.06
553.053	11856.68
553.417	11867.98
553.78	11951.82
554.143	11871.14
554.507	11852.61
554.87	11936.68
555.234	11817.58
555.597	11770.81
555.96	11708.21
556.323	11793.86
556.686	11680.64
557.05	11669.34
557.413	11752.5
557.776	11667.08
558.139	11752.73
558.502	11699.4
558.865	11621.66
559.228	11737.36
559.59	11747.3
559.953	11628.66
560.316	11732.62
560.679	11703.69
561.041	11747.76
561.404	11714.54
561.767	11679.51
562.129	11625.95
562.492	11755.67
562.854	11691.71
563.217	11660.53
563.579	11687.42
563.941	11718.38
564.304	11681.77
564.666	11719.28
565.028	11615.1
565.39	11689
565.753	11724.48
566.115	11725.16
566.477	11722.9
566.839	11842.22
567.201	11727.64
567.563	11756.57
567.925	11852.16
568.287	11740.98
568.648	11820.97
569.01	11891.03
569.372	11914.76
569.734	11817.81
570.095	11883.35
570.457	11906.17
570.819	11945.49
571.18	11847.19
571.542	11967.64
571.903	11917.47
572.265	11921.54
572.626	11840.41
572.987	11923.12
573.349	11931.03
573.71	11949.33
574.071	11898.26
574.432	11971.7
574.794	12042.44
575.155	12069.1
575.516	11966.06
575.877	12023.23
576.238	12014.42
576.599	12087.18
576.96	11943.23
577.32	11971.48
577.681	12032.72
578.042	12059.84
578.403	11987.98
578.763	12097.58
579.124	11998.37
579.485	12063.45
579.845	12130.8
580.206	12030.69
580.566	12095.32
580.927	12033.85
581.287	12114.53
581.648	12011.03
582.008	12142.1
582.368	12058.48
582.728	12060.29
583.089	12060.74
583.449	11990.91
583.809	12063.23
584.169	12004.7
584.529	12012.38
584.889	12060.74
585.249	12010.57
585.609	11929.9
585.969	11972.16
586.329	11887.87
586.688	11954.3
587.048	11926.51
587.408	11899.84
587.768	11957.02
588.127	11915.89
588.487	11860.75
588.846	12019.39
589.206	11874.76
589.565	11854.87
589.925	11863.01
590.284	11853.74
590.643	11809
591.003	11902.55
591.362	11827.3
591.721	11840.41
592.08	11823.01
592.44	11845.83
592.799	11881.09
593.158	11823.01
593.517	11805.61
593.876	11782.33
594.235	11811.94
594.593	11788.66
594.952	11846.06
595.311	11750.92
595.67	11759.28
596.029	11882.89
596.387	11865.27
596.746	11815.32
597.104	11743.91
597.463	11733.07
597.822	11781.43
598.18	11727.87
598.538	11704.37
598.897	11738.72
599.255	11671.83
599.613	11791.6
599.972	11711.82
600.33	11767.87
600.688	11727.19
601.046	11719.51
601.404	11766.96
601.762	11760.86
602.12	11796.12
602.478	11694.88
602.836	11814.42
603.194	11697.36
603.552	11764.25
603.91	11708.44
604.268	11809
604.625	11640.87
604.983	11775.78
605.341	11682.67
605.698	11790.01
606.056	11774.42
606.413	11709.79
606.771	11731.49
607.128	11780.98
607.485	11711.82
607.843	11704.37
608.2	11716.57
608.557	11744.59
608.914	11728.1
609.272	11794.99
609.629	11761.32
609.986	11805.16
610.343	11758.6
610.7	11860.3
611.057	11792.5
611.414	11870.24
611.771	11815.1
612.127	11841.54
612.484	11872.72
612.841	11980.74
613.198	11865.27
613.554	11911.59
613.911	11984.36
614.267	11917.92
614.624	11900.97
614.98	11918.15
615.337	11963.34
615.693	11957.69
616.05	11978.71
616.406	11967.41
616.762	11951.14
617.118	11961.08
617.475	11921.08
617.831	11966.96
618.187	12042.89
618.543	12036.34
618.899	12082.44
619.255	12055.77
619.611	11975.32
619.967	12145.94
620.323	12088.09
620.678	12102.55
621.034	11994.98
621.39	12078.82
621.746	12041.76
622.101	12185.26
622.457	12040.63
622.812	12085.83
623.168	12184.35
623.523	12042.89
623.879	12148.88
624.234	11997.02
624.589	12081.31
624.945	12083.79
625.3	12071.36
625.655	12063
626.01	12032.27
626.365	12061.19
626.72	12026.62
627.075	12038.37
627.43	12092.83
627.785	12011.25
628.14	12027.52
628.495	12093.96
628.85	12031.82
629.205	11989.11
629.559	12053.74
629.914	11949.11
630.269	12028.88
630.623	11952.95
630.978	11963.12
631.332	11870.92
631.687	11936.23
632.041	11952.04
632.396	11919.28
632.75	11923.8
633.104	11945.27
633.459	11839.51
633.813	11865.95
634.167	11894.19
634.521	11858.49
634.875	11915.89
635.229	11822.56
635.583	11802.22
635.937	11856.45
636.291	11811.94
636.645	11744.59
636.999	11796.34
637.352	11700.53
637.706	11699.62
638.06	11707.31
638.413	11634.09
638.767	11636.8
639.121	11695.33
639.474	11601.55
639.828	11562
640.181	11619.17
640.534	11649.68
640.888	11557.7
641.241	11560.64
641.594	11583.92
641.947	11572.62
642.301	11583.92
642.654	11581.43
643.007	11529
643.36	11570.59
643.713	11497.37
644.066	11576.91
644.419	11472.51
644.771	11435.22
645.124	11281.78
645.477	11307.99
645.83	11256.7
646.182	11158.17
646.535	11201.1
646.888	11202.69
647.24	11032.07
647.593	11246.07
647.945	11251.05
648.298	11152.52
648.65	11119.98
649.002	11095.12
649.355	11141.67
649.707	11146.87
650.059	11236.13
650.411	11276.36
650.763	11359.97
651.115	11449.91
651.467	11378.73
651.819	11330.82
652.171	11380.08
652.523	11336.92
652.875	11395.45
653.227	11300.54
653.578	11391.83
653.93	11430.02
654.282	11313.87
654.633	11352.74
654.985	11315.45
655.337	11352.29
655.688	11378.27
656.039	11427.76
656.391	11272.06
656.742	11359.29
657.094	11401.78
657.445	11369.91
657.796	11401.32
658.147	11424.83
658.498	11397.03
658.849	11392.74
659.2	11346.41
659.551	11346.41
659.902	11351.38
660.253	11337.37
660.604	11400.42
660.955	11359.74
661.306	11383.92
661.656	11492.85
662.007	11386.64
662.358	11428.22
662.708	11373.98
663.059	11399.52
663.409	11299.86
663.76	11382.57
664.11	11443.13
664.461	11484.49
664.811	11456.69
665.161	11433.64
665.511	11358.39
665.862	11445.62
666.212	11467.31
666.562	11448.33
666.912	11420.08
667.262	11314.1
667.612	11414.21
667.962	11413.53
668.312	11459.4
668.662	11501.43
669.011	11480.42
669.361	11389.8
669.711	11350.03
670.06	11404.49
670.41	11366.07
670.76	11359.07
671.109	11434.32
671.459	11380.08
671.808	11344.15
672.157	11379.4
672.507	11347.09
672.856	11237.26
673.205	11366.98
673.554	11319.74
673.904	11331.04
674.253	11356.58
674.602	11367.65
674.951	11148.68
675.3	11056.7
675.649	11303.02
675.998	11264.6
676.346	11214.21
676.695	11330.82
677.044	11214.21
677.393	11229.58
677.741	11220.54
678.09	11108.68
678.438	11193.42
678.787	11179.41
679.135	11112.07
679.484	11162.69
679.832	11077.94
680.181	10983.71
680.529	11078.4
680.877	10992.97
681.225	11037.72
681.573	11148.9
681.922	11026.19
682.27	11006.31
682.618	11006.98
682.966	10933.31
683.314	10985.52
683.661	10932.41
684.009	10870.04
684.357	10894.9
684.705	10895.8
685.053	10897.38
685.4	10835.46
685.748	10880.89
686.095	10791.62
686.443	10776.71
686.79	10753.43
687.138	10748.23
687.485	10772.87
687.832	10762.25
688.18	10691.96
688.527	10554.34
688.874	10541.01
689.221	10576.49
689.568	10465.08
689.915	10538.75
690.262	10513.66
690.609	10496.72
690.956	10357.74
691.303	10345.53
691.65	10329.71
691.997	10237.29
692.344	10286.33
692.69	10275.25
693.037	10215.14
693.383	10158.87
693.73	10190.06
694.077	10169.72
694.423	10067.57
694.769	10102.38
695.116	9991.42
695.462	10006.33
695.808	9900.57
696.155	9969.72
696.501	9862.61
696.847	9853.57
697.193	9801.59
697.539	9906.67
697.885	9756.62
698.231	9736.74
698.577	9686.34
698.923	9687.92
699.269	9686.79
699.614	9574.25
699.96	9565.44
700.306	9548.49
700.651	9527.02
700.997	9502.62
701.342	9444.99
701.688	9366.35
702.033	9440.25
702.379	9280.7
702.724	9325.67
703.069	9313.92
703.415	9184.21
703.76	9179.91
704.105	9187.6
704.45	9190.76
704.795	9098.56
705.14	9064.44
705.485	9024.66
705.83	8982.63
706.175	9041.84
706.52	8964.33
706.865	8899.47
707.209	8949.86
707.554	8913.71
707.899	8951.22
708.243	8859.24
708.588	8809.75
708.932	8751.45
709.277	8780.15
709.621	8795.29
709.966	8638.69
710.31	8675.52
710.654	8647.72
710.998	8734.95
711.342	8715.97
711.687	8626.93
712.031	8584
712.375	8565.24
712.719	8593.04
713.063	8602.98
713.407	8595.3
713.75	8514.17
714.094	8581.29
714.438	8493.38
714.782	8489.54
715.125	8489.31
715.469	8484.57
715.812	8426.26
716.156	8394.4
716.499	8383.1
716.843	8422.87
717.186	8334.74
717.53	8402.31
717.873	8384.23
718.216	8339.94
718.559	8297.68
718.902	8254.51
719.246	8211.35
719.589	8244.8
719.932	8241.41
720.275	8248.41
720.617	8169.32
720.96	8156.44
721.303	8156.44
721.646	8225.81
721.989	8132.48
722.331	8167.29
722.674	8134.29
723.016	8123.9
723.359	8143.56
723.701	8100.17
724.044	8113.95
724.386	8067.4
724.729	8122.77
725.071	8076.44
725.413	8055.65
725.755	8102.2
726.097	8107.17
726.439	8007.06
726.782	7984.24
727.124	8102.43
727.465	8029.21
727.807	8075.76
728.149	8050.45
728.491	8031.47
728.833	8066.04
729.175	8065.37
729.516	8049.1
729.858	8021.07
730.199	8038.93
730.541	8050
730.882	7980.62
731.224	8065.59
731.565	7990.79
731.906	7998.7
732.248	8071.24
732.589	7991.7
732.93	7980.4
733.271	7983.79
733.612	8025.59
733.953	8042.09
734.294	7981.75
734.635	7960.74
734.976	7971.36
735.317	7927.74
735.658	7894.98
735.999	7956.44
736.339	8028.53
736.68	8016.55
737.021	8007.06
737.361	7970.23
737.702	8094.52
738.042	7939.72
738.383	8038.02
738.723	8035.54
739.063	7983.11
739.404	8031.47
739.744	8047.06
740.084	7999.38
740.424	8172.26
740.764	8028.08
741.104	8106.5
741.444	8112.15
741.784	8002.77
742.124	8087.29
742.464	8102.65
742.804	8144.69
743.143	8145.59
743.483	8144.91
743.823	8144.46
744.162	8256.1
744.502	8304
744.841	8163.44
745.181	8314.63
745.52	8307.62
745.86	8374.96
746.199	8457.45
746.538	8466.26
746.877	8541.51
747.216	8573.6
747.556	8615.86
747.895	8611.12
748.234	8628.52
748.573	8754.16
748.911	8714.39
749.25	8806.14
749.589	8868.74
749.928	8913.25
750.267	9038.9
750.605	9064.21
750.944	9134.04
751.283	9201.38
751.621	9383.98
751.96	9330.87
752.298	9463.3
752.636	9543.52
752.975	9611.99
753.313	9677.53
753.651	9849.27
753.989	9882.72
754.327	10048.82
754.666	10077.07
755.004	10270.51
755.342	10285.87
755.679	10488.58
756.017	10628.01
756.355	10708.24
756.693	10818.29
757.031	11092.86
757.368	11130.6
757.706	11317.71
758.044	11453.07
758.381	11588.21
758.719	11741.43
759.056	11944.36
759.394	12002.66
759.731	12093.96
760.068	12342.77
760.405	12412.37
760.743	12608.07
761.08	12809.88
761.417	12879.25
761.754	13121.28
762.091	13257.55
762.428	13382.74
762.765	13521.27
763.102	13773.47
763.438	13822.05
763.775	14015.72
764.112	14226.33
764.449	14366.9
764.785	14491.19
765.122	14554.69
765.458	14725.98
765.795	14854.57
766.131	15074.22
766.467	15163.03
766.804	15330.71
767.14	15408.45
767.476	15659.97
767.812	15623.36
768.148	15924.82
768.485	16028.32
768.821	16107.64
769.157	16203.68
769.492	16378.14
769.828	16521.19
770.164	16586.27
770.5	16671.47
770.836	16808.19
771.171	16926.6
771.507	16973.16
771.842	17025.81
772.178	17127.73
772.513	17258.57
772.849	17271.68
773.184	17408.4
773.519	17535.63
773.855	17542.18
774.19	17606.59
774.525	17635.06
774.86	17702.85
775.195	17792.34
775.53	17801.83
775.865	17821.04
776.2	17795.05
776.535	17837.31
776.87	17922.73
777.205	17952.56
777.539	17989.85
777.874	18082.28
778.209	18028.04
778.543	18089.06
778.878	18015.16
779.212	18209.51
779.547	18118.89
779.881	18282.27
780.215	18261.26
780.55	18301.93
780.884	18166.34
781.218	18250.18
781.552	18306.23
781.886	18246.79
782.22	18340.58
782.554	18261.26
782.888	18180.36
783.222	18139.9
783.556	18237.75
783.889	18169.73
784.223	18137.42
784.557	18190.98
784.89	18207.25
785.224	18124.76
785.557	18038.89
785.891	18127.7
786.224	18098.78
786.558	18083.41
786.891	18064.2
787.224	17969.74
787.557	17977.65
787.891	18033.92
788.224	17952.34
788.557	18043.18
788.89	18035.95
789.223	17923.64
789.556	17948.5
789.888	17862.4
790.221	17840.93
790.554	17683.65
790.887	17767.26
791.219	17733.59
791.552	17704.21
791.884	17679.35
792.217	17592.35
792.549	17580.6
792.882	17494.5
793.214	17523.65
793.546	17623.76
793.879	17421.28
794.211	17406.82
794.543	17514.38
794.875	17415.63
795.207	17556.19
795.539	17358.91
795.871	17369.08
796.203	17218.35
796.535	17207.95
796.867	17130.21
797.198	17153.04
797.53	17134.51
797.862	16988.07
798.193	17038.46
798.525	16927.28
798.856	16923.21
799.188	16741.98
799.519	16784.01
799.85	16679.6
800.182	16734.97
800.513	16665.37
800.844	16545.82
801.175	16631.92
801.506	16718.47
801.837	16566.39
802.168	16534.52
802.499	16536.78
802.83	16372.04
803.161	16410.46
803.491	16431.47
803.822	16434.86
804.153	16357.35
804.483	16241.2
804.814	16056.34
805.145	16099.73
805.475	16076.68
805.805	16038.26
806.136	16036.91
806.466	16117.58
806.796	15980.64
807.126	15913.75
807.457	15835.78
807.787	15924.37
808.117	15849.12
808.447	15868.55
808.777	15771.15
809.107	15725.5
809.436	15688.9
809.766	15725.28
810.096	15624.94
810.426	15639.18
810.755	15641.66
811.085	15540.88
811.414	15539.29
811.744	15409.35
812.073	15427.66
812.403	15508.79
812.732	15366.87
813.061	15341.11
813.39	15311.28
813.719	15331.39
814.049	15373.88
814.378	15224.27
814.707	15272.64
815.036	15123.94
815.365	15112.87
815.693	15152.41
816.022	14982.7
816.351	14921.91
816.68	14913.77
817.008	15023.6
817.337	14886.66
817.665	14858.86
817.994	14891.4
818.322	14870.16
818.651	14729.6
818.979	14751.29
819.307	14855.47
819.636	14799.43
819.964	14781.57
820.292	14808.01
820.62	14699.77
820.948	14710.84
821.276	14655.25
821.604	14607.34
821.932	14729.15
822.259	14624.29
822.587	14619.09
822.915	14675.81
823.243	14673.78
823.57	14529.6
823.898	14696.61
824.225	14577.06
824.553	14576.83
824.88	14662.93
825.207	14714.46
825.535	14700.45
825.862	14679.88
826.189	14561.02
826.516	14672.42
826.843	14731.63
827.17	14741.8
827.497	14630.17
827.824	14710.39
828.151	14826.55
828.478	14720.56
828.805	14720.79
829.131	14662.93
829.458	14722.14
829.785	14616.16
830.111	14686.66
830.438	14660.67
830.764	14728.24
831.09	14712.42
831.417	14622.48
831.743	14694.12
832.069	14685.98
832.395	14594.46
832.722	14703.61
833.048	14618.64
833.374	14703.16
833.7	14450.74
834.026	14563.95
834.351	14660.45
834.677	14633.56
835.003	14605.76
835.329	14628.13
835.654	14482.37
835.98	14492.77
836.306	14538.42
836.631	14479.44
836.956	14477.63
837.282	14469.49
837.607	14397.86
837.932	14338.2
838.258	14336.39
838.583	14430.17
838.908	14299.1
839.233	14284.64
839.558	14269.05
839.883	14195.83
840.208	14263.62
840.533	14153.12
840.858	14180.23
841.182	14178.65
841.507	14122.38
841.832	14107.02
842.156	14037.41
842.481	14033.35
842.805	14017.07
843.13	13966.68
843.454	14020.24
843.778	13960.13
844.103	13895.5
844.427	13861.15
844.751	13874.25
845.075	13864.76
845.399	13724.65
845.723	13678.55
846.047	13696.18
846.371	13580.02
846.695	13585.9
847.019	13454.38
847.343	13409.18
847.666	13330.09
847.99	13301.16
848.313	13323.99
848.637	13135.06
848.96	13206.02
849.284	13144.78
849.607	13115.63
849.931	13052.81
850.254	13028.17
850.577	12884.68
850.9	12765.36
851.223	12782.31
851.546	12745.02
851.869	12711.12
852.192	12688.52
852.515	12530.79
852.838	12532.59
853.161	12597.68
853.483	12454.86
853.806	12371.24
854.129	12477.45
854.451	12426.38
854.774	12367.63
855.096	12310.23
855.419	12196.56
855.741	12190.68
856.063	12130.57
856.385	12156.78
856.708	12089.22
857.03	12044.47
857.352	12072.95
857.674	11953.63
857.996	12006.96
858.318	11882.22
858.64	11875.89
858.961	11834.76
859.283	11805.16
859.605	11727.19
859.926	11785.5
860.248	11659.85
860.57	11650.81
860.891	11775.1
861.212	11695.1
861.534	11685.61
861.855	11546.41
862.176	11569.46
862.498	11591.38
862.819	11535.78
863.14	11465.28
863.461	11474.54
863.782	11477.48
864.103	11432.28
864.424	11414.21
864.745	11409.46
865.065	11345.28
865.386	11305.51
865.707	11312.74
866.027	11343.02
866.348	11252.4
866.668	11223.7
866.989	11272.97
867.309	11116.81
867.63	11247.66
867.95	11175.34
868.27	11132.41
868.59	11155
868.91	11093.99
869.23	11065.51
869.55	11049.92
869.87	11091.05
870.19	11086.08
870.51	11015.12
870.83	11038.85
871.15	10982.8
871.469	11037.27
871.789	10934.67
872.109	10959.08
872.428	10908.46
872.748	10923.14
873.067	10887.89
873.386	10867.33
873.706	10867.55
874.025	10869.81
874.344	10791.62
874.663	10797.95
874.982	10758.18
875.301	10816.71
875.62	10683.15
875.939	10736.94
876.258	10776.26
876.577	10685.19
876.896	10764.28
877.214	10674.34
877.533	10704.85
877.852	10585.3
878.17	10633.21
878.489	10574.23
878.807	10642.7
879.125	10582.59
879.444	10576.49
879.762	10503.95
880.08	10507.56
880.398	10501.01
880.716	10475.25
881.034	10498.75
881.352	10429.37
881.67	10438.19
881.988	10446.77
882.306	10390.96
882.624	10328.36
882.941	10290.39
883.259	10252.2
883.577	10239.1
883.894	10229.15
884.212	10242.71
884.529	10203.84
884.846	10196.84
885.164	10198.64
885.481	10071.64
885.798	10070.74
886.115	10058.08
886.432	10073.9
886.75	10035.48
887.067	10015.15
887.383	10028.25
887.7	10009.95
888.017	9965.66
888.334	9934.47
888.651	9891.31
888.967	9861.03
889.284	9821.25
889.6	9765.66
889.917	9749.84
890.233	9755.27
890.55	9705.32
890.866	9665.1
891.182	9690.18
891.498	9619.22
891.815	9570.19
892.131	9559.34
892.447	9567.93
892.763	9541.49
893.079	9462.84
893.395	9447.03
893.71	9456.52
894.026	9436.18
894.342	9343.53
894.657	9295.84
894.973	9325.22
895.289	9279.57
895.604	9241.16
895.92	9220.36
896.235	9136.75
896.55	9160.03
896.865	9122.06
897.181	9120.71
897.496	9120.93
897.811	9027.38
898.126	8958.9
898.441	8931.56
898.756	8938.56
899.071	8888.62
899.386	8880.03
899.7	8794.16
900.015	8803.65
900.33	8764.33
900.644	8729.76
900.959	8732.02
901.273	8699.02
901.588	8626.48
901.902	8560.5
902.216	8558.24
902.531	8572.47
902.845	8557.56
903.159	8473.49
903.473	8441.18
903.787	8411.35
904.101	8391.46
904.415	8343.1
904.729	8315.53
905.042	8295.87
905.356	8284.12
905.67	8256.32
905.984	8311.01
906.297	8162.09
906.611	8117.12
906.924	8140.85
907.237	8112.37
907.551	8108.08
907.864	8064.69
908.177	8001.41
908.491	7956.67
908.804	7883
909.117	7864.92
909.43	7868.54
909.743	7807.97
910.056	7727.07
910.368	7747.86
910.681	7641.2
910.994	7733.4
911.307	7702.89
911.619	7641.42
911.932	7618.15
912.244	7515.1
912.557	7600.75
912.869	7487.53
913.181	7464.7
913.494	7407.76
913.806	7457.25
914.118	7403.24
914.43	7395.1
914.742	7275.56
915.054	7318.04
915.366	7241.43
915.678	7249.12
915.99	7162.79
916.302	7166.41
916.613	7119.4
916.925	7126.18
917.236	7132.51
917.548	7042.57
917.859	7034.43
918.171	6987.66
918.482	6989.46
918.794	6881.67
919.105	6898.17
919.416	6914.66
919.727	6770.49
920.038	6861.56
920.349	6798.96
920.66	6726.65
920.971	6759.19
921.282	6789.02
921.593	6670.15
921.903	6639.64
922.214	6625.86
922.525	6649.13
922.835	6562.81
923.146	6555.8
923.456	6535.01
923.767	6477.61
924.077	6465.41
924.387	6411.63
924.697	6376.37
925.008	6381.57
925.318	6317.39
925.628	6353.32
925.938	6286.43
926.248	6264.51
926.558	6250.73
926.867	6270.16
927.177	6237.62
927.487	6164.85
927.796	6144.29
928.106	6164.85
928.416	6135.93
928.725	6082.82
929.034	6033.78
929.344	6017.29
929.653	6025.65
929.962	5970.51
930.271	5933.22
930.581	5861.36
930.89	5892.32
931.199	5829.95
931.508	5846.67
931.817	5848.25
932.125	5863.62
932.434	5791.08
932.743	5769.16
933.051	5697.97
933.36	5663.17
933.669	5663.62
933.977	5646.67
934.286	5657.29
934.594	5602.38
934.902	5568.26
935.21	5558.77
935.519	5572.78
935.827	5546.56
936.135	5535.94
936.443	5484.42
936.751	5480.58
937.059	5476.06
937.367	5408.49
937.674	5441.71
937.982	5395.38
938.29	5357.42
938.597	5366.45
938.905	5262.95
939.213	5250.53
939.52	5199
939.827	5257.53
940.135	5217.08
940.442	5198.32
940.749	5225.89
941.056	5160.58
941.363	5139.12
941.67	5133.24
941.977	5074.26
942.284	5059.57
942.591	5066.12
942.898	4998.1
943.205	5032.45
943.511	4997.43
943.818	4998.56
944.125	4912
944.431	4936.41
944.738	4901.83
945.044	4906.13
945.35	4832.23
945.657	4821.16
945.963	4764.44
946.269	4744.55
946.575	4752.01
946.881	4740.26
947.187	4730.99
947.493	4728.51
947.799	4619.13
948.105	4629.53
948.41	4659.81
948.716	4612.8
949.022	4580.71
949.327	4600.37
949.633	4506.36
949.938	4581.62
950.244	4572.58
950.549	4501.62
950.854	4480.6
951.16	4492.58
951.465	4446.93
951.77	4400.38
952.075	4430.43
952.38	4424.56
952.685	4374.84
952.99	4323.09
953.294	4369.64
953.599	4298.46
953.904	4328.06
954.209	4239.93
954.513	4263.89
954.818	4281.74
955.122	4223.66
955.426	4190.67
955.731	4217.78
956.035	4137.11
956.339	4150.22
956.643	4140.05
956.948	4116.77
957.252	4089.65
957.556	4097.79
957.86	4079.48
958.163	4060.5
958.467	4051.69
958.771	4025.93
959.075	4010.11
959.378	3959.94
959.682	3964.91
959.985	3944.12
960.289	3964.68
960.592	3909.09
960.896	3897.79
961.199	3870.9
961.502	3846.95
961.805	3821.41
962.108	3784.8
962.411	3777.34
962.714	3799.49
963.017	3797.23
963.32	3777.12
963.623	3726.05
963.926	3728.76
964.228	3724.92
964.531	3701.41
964.833	3644.92
965.136	3670.45
965.438	3679.72
965.741	3625.03
966.043	3605.37
966.345	3599.5
966.648	3587.74
966.95	3544.13
967.252	3589.78
967.554	3558.59
967.856	3508.88
968.158	3546.39
968.46	3444.47
968.761	3458.26
969.063	3477.47
969.365	3459.61
969.666	3442.44
969.968	3405.38
970.269	3405.38
970.571	3409.44
970.872	3381.42
971.174	3362.89
971.475	3351.14
971.776	3320.86
972.077	3334.19
972.378	3293.97
972.679	3301.2
972.98	3263.01
973.281	3263.01
973.582	3239.96
973.883	3233.18
974.183	3188.43
974.484	3161.54
974.785	3191.82
975.085	3177.13
975.386	3218.94
975.686	3149.11
975.986	3141.88
976.287	3137.14
976.587	3117.47
976.887	3070.7
977.187	3086.06
977.487	3091.94
977.787	3043.58
978.087	3047.19
978.387	3042.67
978.687	3053.3
978.987	3019.85
979.286	2980.98
979.586	2968.33
979.885	2947.08
980.185	2968.33
980.484	2943.24
980.784	2939.17
981.083	2883.81
981.382	2910.93
981.682	2885.39
981.981	2886.29
982.28	2863.92
982.579	2834.32
982.878	2824.83
983.177	2814.43
983.475	2801.1
983.774	2789.12
984.073	2786.18
984.372	2783.25
984.67	2755.22
984.969	2781.44
985.267	2734.21
985.566	2773.08
985.864	2729.24
986.162	2686.53
986.461	2698.73
986.759	2648.11
987.057	2651.5
987.355	2632.52
987.653	2632.74
987.951	2615.34
988.249	2600.2
988.547	2618.96
988.844	2566.3
989.142	2589.8
989.44	2561.33
989.737	2543.93
990.035	2526.3
990.332	2526.08
990.63	2494.21
990.927	2520.88
991.224	2472.29
991.521	2452.18
991.819	2453.99
992.116	2458.06
992.413	2444.95
992.71	2416.02
993.006	2435.01
993.303	2395.69
993.6	2394.33
993.897	2390.71
994.193	2411.28
994.49	2381.9
994.787	2359.98
995.083	2372.64
995.379	2321.11
995.676	2349.36
995.972	2310.26
996.268	2284.95
996.565	2267.78
996.861	2296.93
997.157	2278.4
997.453	2248.12
997.749	2236.37
998.044	2221
998.34	2196.14
998.636	2248.8
998.932	2225.52
999.227	2203.37
999.523	2194.33
999.818	2200.21
1000.114	2139.65
1000.409	2135.13
1000.704	2121.79
1001	2129.48
1001.295	2122.02
1001.59	2078.41
1001.885	2070.27
1002.18	2049.93
1002.475	2042.02
1002.77	2061.01
1003.065	2058.52
1003.359	1990.27
1003.654	2023.72
1003.949	1997.05
1004.243	2006.77
1004.538	1984.62
1004.832	1967.9
1005.127	1971.74
1005.421	1934.45
1005.715	1924.51
1006.009	1938.75
1006.304	1923.61
1006.598	1896.04
1006.892	1899.65
1007.186	1881.35
1007.48	1871.86
1007.773	1846.77
1008.067	1851.75
1008.361	1835.47
1008.655	1831.18
1008.948	1826.21
1009.242	1832.08
1009.535	1779.43
1009.829	1784.63
1010.122	1784.18
1010.415	1784.85
1010.708	1767.91
1011.001	1740.34
1011.295	1764.29
1011.588	1738.98
1011.881	1719.77
1012.173	1697.62
1012.466	1740.11
1012.759	1680.45
1013.052	1694.01
1013.344	1678.42
1013.637	1654.46
1013.93	1630.06
1014.222	1638.87
1014.514	1625.54
1014.807	1645.42
1015.099	1627.8
1015.391	1599.77
1015.683	1577.18
1015.976	1560.45
1016.268	1572.88
1016.56	1562.94
1016.851	1560.68
1017.143	1551.19
1017.435	1514.58
1017.727	1524.75
1018.018	1499.66
1018.31	1501.25
1018.602	1486.78
1018.893	1482.26
1019.185	1458.08
1019.476	1463.05
1019.767	1456.5
1020.058	1450.17
1020.35	1469.61
1020.641	1428.48
1020.932	1418.76
1021.223	1394.81
1021.514	1392.77
1021.804	1411.53
1022.095	1412.89
1022.386	1401.14
1022.677	1340.35
1022.967	1331.31
1023.258	1353.45
1023.548	1340.12
1023.839	1311.19
1024.129	1312.78
1024.419	1307.58
1024.709	1293.79
1025	1294.02
1025.29	1288.37
1025.58	1303.74
1025.87	1281.14
1026.16	1263.29
1026.449	1248.6
1026.739	1243.63
1027.029	1248.37
1027.319	1230.07
1027.608	1226.45
1027.898	1200.46
1028.187	1202.27
1028.477	1218.54
1028.766	1202.95
1029.055	1164.08
1029.344	1158.66
1029.634	1179.45
1029.923	1153.68
1030.212	1131.09
1030.501	1168.37
1030.79	1132.67
1031.078	1138.77
1031.367	1132.44
1031.656	1105.32
1031.945	1084.76
1032.233	1099.45
1032.522	1111.2
1032.81	1087.02
1033.099	1088.83
1033.387	1062.61
1033.675	1069.39
1033.963	1068.04
1034.251	1057.64
1034.54	1037.98
1034.828	1050.18
1035.116	1031.65
1035.403	1027.13
1035.691	1026.68
1035.979	1028.26
1036.267	1011.99
1036.554	994.82
1036.842	961.6
1037.129	1010.41
1037.417	1002.05
1037.704	988.26
1037.992	985.55
1038.279	957.98
1038.566	973.58
1038.853	973.58
1039.14	973.58
