Data from hue_280_FLMS001491_00024.txt Node
Date: Tue Feb 07 15:55:03 GMT 2017
User: dcchb
Spectrometer: FLMS00149
Trigger mode: 0
Integration Time (sec): 2.000000E-2
Scans to average: 10
Electric dark correction enabled: true
Nonlinearity correction enabled: false
Boxcar width: 0
XAxis mode: Wavelengths
Number of Pixels in Spectrum: 2048
>>>>>Begin Spectral Data<<<<<
341.393	-12.54
341.776	-12.54
342.16	-12.54
342.543	-40.79
342.927	-58.87
343.31	-71.75
343.693	-66.78
344.077	-62.48
344.46	-61.35
344.843	-51.41
345.226	-47.34
345.61	-18.19
345.993	-20.68
346.376	1.24
346.759	1.02
347.142	25.42
347.525	48.7
347.908	59.09
348.291	65.87
348.674	83.5
349.057	115.14
349.44	122.6
349.823	130.96
350.206	167.11
350.588	176.83
350.971	217.73
351.354	209.82
351.737	212.54
352.119	263.38
352.502	263.61
352.884	265.87
353.267	271.74
353.65	275.59
354.032	311.29
354.414	278.98
354.797	319.88
355.179	300.44
355.562	328.24
355.944	303.38
356.326	325.3
356.709	343.83
357.091	326.43
357.473	354.91
357.855	308.58
358.238	334.57
358.62	315.58
359.002	321.01
359.384	336.83
359.766	341.12
360.148	332.31
360.53	334.12
360.912	335.92
361.294	357.17
361.676	330.73
362.057	309.03
362.439	322.59
362.821	326.43
363.203	331.4
363.584	342.7
363.966	313.78
364.348	333.44
364.729	284.4
365.111	324.4
365.493	320.1
365.874	306.32
366.256	304.29
366.637	309.26
367.019	334.57
367.4	310.39
367.781	302.48
368.163	304.96
368.544	303.38
368.925	298.41
369.306	318.52
369.688	308.81
370.069	302.25
370.45	295.92
370.831	302.25
371.212	319.88
371.593	289.6
371.974	314.91
372.355	317.84
372.736	308.13
373.117	325.98
373.498	298.64
373.879	301.35
374.26	317.62
374.641	313.1
375.021	298.41
375.402	319.43
375.783	319.88
376.163	321.46
376.544	321.23
376.925	327.11
377.305	322.82
377.686	332.76
378.066	337.28
378.447	330.73
378.827	329.6
379.208	307.68
379.588	323.72
379.968	330.5
380.349	333.66
380.729	324.4
381.109	337.73
381.489	333.89
381.87	337.96
382.25	323.27
382.63	335.7
383.01	333.21
383.39	335.25
383.77	340.89
384.15	334.57
384.53	339.99
384.91	346.77
385.29	346.32
385.67	336.38
386.049	360.1
386.429	356.04
386.809	342.02
387.189	345.41
387.568	374.11
387.948	351.06
388.328	341.35
388.707	361.91
389.087	363.72
389.466	350.39
389.846	361.01
390.225	363.04
390.605	355.81
390.984	352.19
391.363	357.84
391.743	387.22
392.122	358.75
392.501	393.77
392.881	352.42
393.26	383.83
393.639	386.54
394.018	362.14
394.397	392.65
394.776	366.88
395.155	384.51
395.534	391.74
395.913	367.56
396.292	396.49
396.671	389.26
397.05	393.32
397.429	388.8
397.808	397.84
398.186	394.68
398.565	408.92
398.944	417.73
399.323	408.92
399.701	413.89
400.08	421.12
400.458	422.93
400.837	427.9
401.215	433.1
401.594	412.53
401.972	419.09
402.351	410.27
402.729	460.44
403.107	414.34
403.486	416.15
403.864	443.49
404.242	431.97
404.62	442.81
404.999	448.69
405.377	471.96
405.755	448.91
406.133	434.9
406.511	461.57
406.889	455.02
407.267	482.36
407.645	495.69
408.023	495.47
408.401	495.69
408.779	473.32
409.156	511.74
409.534	476.26
409.912	498.18
410.29	497.05
410.667	511.51
411.045	559.65
411.422	530.95
411.8	543.38
412.178	545.41
412.555	572.75
412.933	565.97
413.31	546.31
413.687	565.75
414.065	593.77
414.442	591.51
414.819	598.52
415.197	591.06
415.574	596.71
415.951	615.92
416.328	612.75
416.705	606.88
417.082	622.24
417.46	648.23
417.837	643.71
418.214	655.01
418.591	678.29
418.967	658.63
419.344	672.64
419.721	677.61
420.098	680.1
420.475	686.42
420.852	681
421.228	697.04
421.605	719.64
421.982	713.99
422.358	745.18
422.735	732.3
423.111	774.56
423.488	756.7
423.864	757.38
424.241	780.88
424.617	787.44
424.994	787.21
425.37	798.28
425.746	818.85
426.123	835.12
426.499	822.46
426.875	857.27
427.251	865.63
427.627	868.79
428.003	885.74
428.379	872.18
428.756	898.39
429.132	924.61
429.507	930.94
429.883	932.29
430.259	928.45
430.635	943.14
431.011	940.2
431.387	966.87
431.763	975.68
432.138	996.47
432.514	1006.64
432.89	1014.32
433.265	1011.16
433.641	1059.75
434.016	1049.8
434.392	1069.01
434.767	1097.71
435.143	1089.35
435.518	1116.69
435.894	1124.38
436.269	1139.07
436.644	1154.66
437.02	1169.12
437.395	1206.41
437.77	1214.54
438.145	1206.86
438.52	1221.55
438.895	1229.01
439.271	1249.57
439.646	1253.87
440.021	1259.74
440.395	1297.48
440.77	1265.16
441.145	1314.2
441.52	1316.01
441.895	1315.11
442.27	1365.73
442.645	1325.73
443.019	1376.8
443.394	1378.83
443.769	1366.63
444.143	1386.29
444.518	1417.02
444.892	1391.71
445.267	1397.14
445.641	1427.42
446.016	1415.44
446.39	1430.81
446.764	1470.13
447.139	1464.93
447.513	1424.03
447.887	1452.5
448.262	1459.06
448.636	1498.38
449.01	1495.67
449.384	1503.12
449.758	1494.31
450.132	1499.96
450.506	1485.27
450.88	1538.83
451.254	1531.15
451.628	1547.64
452.002	1542.9
452.376	1578.83
452.75	1539.73
453.123	1598.04
453.497	1605.49
453.871	1634.42
454.244	1651.37
454.618	1674.42
454.992	1680.75
455.365	1659.96
455.739	1722.1
456.112	1742.89
456.486	1705.38
456.859	1761.65
457.232	1754.87
457.606	1741.76
457.979	1807.52
458.352	1810.46
458.725	1831.25
459.099	1832.16
459.472	1869.89
459.845	1878.03
460.218	1872.15
460.591	1877.8
460.964	1900.4
461.337	1925.94
461.71	1956.67
462.083	1974.52
462.456	1970.23
462.829	1961.42
463.201	2035.99
463.574	1987.86
463.947	2042.32
464.32	2064.47
464.692	2092.04
465.065	2080.28
465.438	2134.52
465.81	2107.4
466.183	2173.39
466.555	2188.08
466.928	2215.65
467.3	2177.91
467.672	2246.61
468.045	2290.45
468.417	2275.53
468.789	2286.38
469.161	2312.59
469.534	2334.97
469.906	2360.05
470.278	2413.61
470.65	2377
471.022	2453.61
471.394	2466.94
471.766	2478.24
472.138	2510.33
472.51	2536.54
472.882	2602.3
473.253	2583.1
473.625	2668.07
473.997	2677.56
474.369	2664.9
474.74	2733.83
475.112	2741.96
475.484	2780.15
475.855	2829.64
476.227	2816.99
476.598	2907.61
476.97	2932.01
477.341	3009.75
477.713	2996.87
478.084	3013.37
478.455	3071.44
478.827	3067.15
479.198	3156.64
479.569	3151.67
479.94	3246.13
480.311	3255.39
480.682	3311.66
481.053	3376.97
481.424	3415.16
481.795	3412
482.166	3460.14
482.537	3495.61
482.908	3569.96
483.279	3573.13
483.65	3608.61
484.021	3658.32
484.391	3694.48
484.762	3723.4
485.133	3786
485.503	3765.21
485.874	3861.48
486.244	3897.86
486.615	3929.28
486.985	3985.77
487.356	3977.41
487.726	4102.83
488.097	4094.92
488.467	4117.29
488.837	4208.82
489.207	4213.56
489.578	4211.75
489.948	4287.91
490.318	4352.54
490.688	4364.74
491.058	4400.22
491.428	4461.01
491.798	4476.83
492.168	4563.38
492.538	4577.85
492.908	4628.69
493.278	4653.78
493.648	4647.9
494.017	4774.9
494.387	4741.46
494.757	4773.32
495.126	4795.92
495.496	4835.69
495.866	4840.21
496.235	4881.11
496.605	4912.75
496.974	4876.59
497.344	4931.73
497.713	4997.5
498.082	5022.35
498.452	5046.53
498.821	5063.71
499.19	5070.94
499.559	5093.76
499.928	5109.13
500.298	5109.13
500.667	5173.54
501.036	5135.35
501.405	5234.33
501.774	5189.13
502.143	5193.42
502.512	5251.5
502.88	5293.31
503.249	5310.48
503.618	5308.22
503.987	5328.79
504.356	5336.7
504.724	5399.52
505.093	5426.19
505.462	5391.61
505.83	5442
506.199	5468.67
506.567	5554.77
506.936	5524.71
507.304	5538.27
507.672	5528.33
508.041	5558.61
508.409	5588.44
508.777	5645.39
509.145	5661.43
509.514	5705.73
509.882	5732.62
510.25	5642.22
510.618	5671.38
510.986	5708.21
511.354	5755.89
511.722	5796.34
512.09	5851.94
512.458	5793.86
512.826	5838.6
513.193	5844.25
513.561	5806.29
513.929	5948.88
514.297	5963.8
514.664	5945.72
515.032	5956.57
515.4	5944.82
515.767	5924.25
516.135	6005.83
516.502	5961.99
516.869	6037.92
517.237	5990.24
517.604	6043.12
517.972	6102.55
518.339	6077.47
518.706	6099.84
519.073	6136
519.44	6139.39
519.808	6173.74
520.175	6159.5
520.542	6214.19
520.909	6219.38
521.276	6227.75
521.643	6215.77
522.009	6278.82
522.376	6306.16
522.743	6341.87
523.11	6406.72
523.477	6386.84
523.843	6422.32
524.21	6453.28
524.577	6465.03
524.943	6473.39
525.31	6539.38
525.676	6572.37
526.043	6616.44
526.409	6611.46
526.776	6629.32
527.142	6656.66
527.508	6614.63
527.874	6698.92
528.241	6704.12
528.607	6766.26
528.973	6791.35
529.339	6782.76
529.705	6849.88
530.071	6867.05
530.437	6907.28
530.803	6879.93
531.169	6992.92
531.535	6912.25
531.901	6939.59
532.267	7001.06
532.632	7011.45
532.998	7054.84
533.364	7056.88
533.73	7024.34
534.095	7085.35
534.461	7097.1
534.826	7157.44
535.192	7095.97
535.557	7129.87
535.923	7135.29
536.288	7196.31
536.653	7187.49
537.019	7144.11
537.384	7203.09
537.749	7235.18
538.114	7258.91
538.479	7229.98
538.845	7246.25
539.21	7295.97
539.575	7303.88
539.94	7333.71
540.305	7369.41
540.67	7319.02
541.034	7357.66
541.399	7368.28
541.764	7366.47
542.129	7337.1
542.494	7442.63
542.858	7468.17
543.223	7437.43
543.587	7529.63
543.952	7408.28
544.316	7520.37
544.681	7517.43
545.045	7525.11
545.41	7524.89
545.774	7599.24
546.138	7561.5
546.503	7585.68
546.867	7647.6
547.231	7614.38
547.595	7658.44
547.959	7638.56
548.324	7615.05
548.688	7646.69
549.052	7675.84
549.416	7728.95
549.779	7698.89
550.143	7708.16
550.507	7701.38
550.871	7751.32
551.235	7755.39
551.599	7747.93
551.962	7815.27
552.326	7796.29
552.689	7851.21
553.053	7804.88
553.417	7811.43
553.78	7933.92
554.143	7867.7
554.507	7932.33
554.87	7942.05
555.234	7962.84
555.597	7880.58
555.96	7956.06
556.323	7994.71
556.686	7953.35
557.05	8008.26
557.413	7983.63
557.776	8016.4
558.139	8123.52
558.502	8013.91
558.865	8106.11
559.228	8141.59
559.59	8106.57
559.953	8151.09
560.316	8260.91
560.679	8263.62
561.041	8307.69
561.404	8317.86
561.767	8351.08
562.129	8356.05
562.492	8363.96
562.854	8355.15
563.217	8371.64
563.579	8419.1
563.941	8426.56
564.304	8443.96
564.666	8494.8
565.028	8521.7
565.39	8552.43
565.753	8531.64
566.115	8630.85
566.477	8605.54
566.839	8621.58
567.201	8710.84
567.563	8645.76
567.925	8801.46
568.287	8798.98
568.648	8711.52
569.01	8809.6
569.372	8867.68
569.734	8865.64
570.095	8961.69
570.457	8964.4
570.819	8945.41
571.18	8956.94
571.542	9077.84
571.903	9035.81
572.265	9087.78
572.626	9131.4
572.987	9125.97
573.349	9163.26
573.71	9176.59
574.071	9193.32
574.432	9280.55
574.794	9313.31
575.155	9355.35
575.516	9342.24
575.877	9343.6
576.238	9423.14
576.599	9521.9
576.96	9469.69
577.32	9513.08
577.681	9605.28
578.042	9640.31
578.403	9568.67
578.763	9683.25
579.124	9709.46
579.485	9744.04
579.845	9837.14
580.206	9775.9
580.566	9884.82
580.927	9869.01
581.287	9988.1
581.648	10010.25
582.008	10125.95
582.368	10119.85
582.728	10172.73
583.089	10170.92
583.449	10229.67
583.809	10281.42
584.169	10382.21
584.529	10332.27
584.889	10487.97
585.249	10428.77
585.609	10467.41
585.969	10615.2
586.329	10669.66
586.688	10701.98
587.048	10750.56
587.408	10779.94
587.768	10807.74
588.127	10915.98
588.487	10960.5
588.846	11064.45
589.206	11072.59
589.565	11175.64
589.925	11320.27
590.284	11237.56
590.643	11346.03
591.003	11456.76
591.362	11525.69
591.721	11545.35
592.08	11627.15
592.44	11683.42
592.799	11725.45
593.158	11731.78
593.517	11885
593.876	11957.09
594.235	11938.78
594.593	12104.2
594.952	12141.49
595.311	12129.51
595.67	12282.73
596.029	12303.52
596.387	12357.53
596.746	12449.05
597.104	12433.91
597.463	12498.32
597.822	12633
598.18	12566.56
598.538	12645.2
598.897	12744.64
599.255	12704.19
599.613	12883.39
599.972	12864.41
600.33	12845.42
600.688	12917.06
601.046	13018.75
601.404	13132.42
601.762	13150.28
602.12	13232.76
602.478	13233.21
602.836	13276.6
603.194	13237.28
603.552	13316.82
603.91	13279.54
604.268	13445.86
604.625	13376.03
604.983	13460.32
605.341	13442.25
605.698	13571.73
606.056	13614.44
606.413	13606.99
606.771	13699.19
607.128	13752.75
607.485	13784.16
607.843	13674.33
608.2	13803.37
608.557	13805.63
608.914	13817.38
609.272	13940.99
609.629	13880.43
609.986	14088.1
610.343	14055.34
610.7	14131.49
611.057	14091.49
611.414	14166.52
611.771	14149.57
612.127	14191.15
612.484	14240.19
612.841	14316.12
613.198	14324.71
613.554	14310.25
613.911	14333.75
614.267	14409.45
614.624	14390.7
614.98	14409.23
615.337	14522.67
615.693	14503.23
616.05	14495.55
616.406	14552.72
616.762	14592.95
617.118	14597.02
617.475	14537.81
617.831	14699.39
618.187	14636.56
618.543	14701.87
618.899	14840.63
619.255	14699.39
619.611	14766.73
619.967	14808.09
620.323	14847.63
620.678	14778.26
621.034	14794.53
621.39	14827.75
621.746	14747.75
622.101	14986.16
622.457	14818.25
622.812	14814.19
623.168	14832.94
623.523	14935.31
623.879	14910
624.234	14835.66
624.589	14844.69
624.945	14920.62
625.3	14915.43
625.655	14974.86
626.01	14899.83
626.365	14977.35
626.72	14941.87
627.075	14990
627.43	15050.34
627.785	14936.22
628.14	14965.14
628.495	14927.86
628.85	15013.05
629.205	14823.68
629.559	15044.92
629.914	14899.16
630.269	14947.06
630.623	14950.68
630.978	14886.95
631.332	14892.83
631.687	14952.94
632.041	14921.75
632.396	14956.78
632.75	14889.89
633.104	14826.62
633.459	14877.46
633.813	14899.61
634.167	14795.66
634.521	14833.17
634.875	14853.73
635.229	14849.67
635.583	14711.82
635.937	14744.13
636.291	14736.45
636.645	14854.41
636.999	14729.22
637.352	14764.47
637.706	14664.59
638.06	14691.25
638.413	14644.02
638.767	14678.15
639.121	14697.58
639.474	14627.07
639.828	14643.8
640.181	14564.93
640.534	14645.83
640.888	14593.85
641.241	14531.03
641.594	14534.65
641.947	14580.75
642.301	14558.83
642.654	14545.49
643.007	14596.11
643.36	14511.6
643.713	14536
644.066	14584.36
644.419	14493.52
644.771	14354.54
645.124	14253.75
645.477	14269.12
645.83	14187.76
646.182	14150.48
646.535	14059.4
646.888	14185.95
647.24	14029.8
647.593	14105.05
647.945	14084.04
648.298	14040.65
648.65	13980.54
649.002	14030.48
649.355	14029.12
649.707	14068.9
650.059	14058.27
650.411	14257.82
650.763	14172.85
651.115	14523.8
651.467	14421.88
651.819	14355.44
652.171	14317.02
652.523	14390.02
652.875	14352.96
653.227	14272.05
653.578	14419.62
653.93	14346.63
654.282	14296.69
654.633	14247.87
654.985	14318.38
655.337	14400.64
655.688	14363.8
656.039	14458.49
656.391	14236.35
656.742	14432.05
657.094	14352.05
657.445	14399.51
657.796	14387.76
658.147	14412.84
658.498	14358.61
658.849	14418.26
659.2	14347.76
659.551	14381.66
659.902	14426.63
660.253	14498.49
660.604	14417.59
660.955	14364.26
661.306	14489
661.656	14512.73
662.007	14443.35
662.358	14424.59
662.708	14544.59
663.059	14515.44
663.409	14372.39
663.76	14528.54
664.11	14533.29
664.461	14534.42
664.811	14484.48
665.161	14429.11
665.511	14368.55
665.862	14444.7
666.212	14559.05
666.562	14482.22
666.912	14563.35
667.262	14422.78
667.612	14458.72
667.962	14408.1
668.312	14399.96
668.662	14605.83
669.011	14369
669.361	14505.72
669.711	14518.6
670.06	14470.92
670.41	14398.6
670.76	14364.26
671.109	14461.88
671.459	14406.74
671.808	14357.93
672.157	14459.62
672.507	14288.78
672.856	14267.08
673.205	14338.27
673.554	14449.45
673.904	14385.95
674.253	14319.96
674.602	14239.06
674.951	14142.34
675.3	14057.6
675.649	14371.94
675.998	14196.58
676.346	14292.39
676.695	14319.06
677.044	14110.93
677.393	14213.52
677.741	14254.43
678.09	14218.95
678.438	14199.29
678.787	14146.18
679.135	14217.14
679.484	14005.17
679.832	14146.63
680.181	14020.99
680.529	14084.26
680.877	14098.05
681.225	13992.74
681.573	14133.07
681.922	14030.7
682.27	13958.84
682.618	13968.11
682.966	13860.31
683.314	13923.36
683.661	13937.37
684.009	13868
684.357	13770.15
684.705	13759.07
685.053	13791.61
685.4	13790.03
685.748	13726.76
686.095	13685.4
686.443	13584.61
686.79	13558.63
687.138	13655.12
687.485	13568.12
687.832	13535.12
688.18	13501.68
688.527	13430.49
688.874	13438.18
689.221	13400.89
689.568	13371.06
689.915	13307.79
690.262	13297.84
690.609	13232.31
690.956	13211.74
691.303	13151.41
691.65	13130.16
691.997	13101.24
692.344	12995.25
692.69	12923.16
693.037	12938.08
693.383	12928.81
693.73	12957.06
694.077	12802.71
694.423	12882.94
694.769	12821.92
695.116	12744.41
695.462	12698.99
695.808	12694.69
696.155	12665.32
696.501	12563.62
696.847	12555.26
697.193	12443.85
697.539	12433.01
697.885	12424.65
698.231	12420.58
698.577	12361.14
698.923	12318.43
699.269	12306.68
699.614	12137.42
699.96	12102.62
700.306	12099.23
700.651	12020.59
700.997	12058.1
701.342	12015.62
701.688	11934.49
702.033	11894.72
702.379	11830.76
702.724	11880.03
703.069	11845.23
703.415	11675.96
703.76	11679.35
704.105	11637.1
704.45	11655.63
704.795	11577.66
705.14	11504.9
705.485	11457.44
705.83	11438.68
706.175	11464.67
706.52	11476.87
706.865	11381.96
707.209	11389.64
707.554	11310.78
707.899	11349.42
708.243	11267.84
708.588	11233.04
708.932	11168.63
709.277	11157.11
709.621	11117.79
709.966	11021.29
710.31	11115.53
710.654	10926.61
710.998	11012.48
711.342	10935.42
711.687	10936.55
712.031	10882.54
712.375	10889.32
712.719	10832.14
713.063	10850.22
713.407	10903.1
713.75	10804.8
714.094	10753.28
714.438	10744.46
714.782	10795.31
715.125	10680.74
715.469	10722.54
715.812	10654.97
716.156	10675.99
716.499	10574.3
716.843	10614.52
717.186	10524.13
717.53	10656.1
717.873	10638.48
718.216	10523.23
718.559	10591.7
718.902	10528.42
719.246	10530.01
719.589	10504.92
719.932	10369.56
720.275	10460.85
720.617	10417.69
720.96	10424.92
721.303	10354.42
721.646	10423.57
721.989	10364.13
722.331	10436
722.674	10331.82
723.016	10380.63
723.359	10320.97
723.701	10383.34
724.044	10313.97
724.386	10292.95
724.729	10323.91
725.071	10264.7
725.413	10208.21
725.755	10216.34
726.097	10232.84
726.439	10157.36
726.782	10153.07
727.124	10273.29
727.465	10147.42
727.807	10227.64
728.149	10155.33
728.491	10160.52
728.833	10176.79
729.175	10160.75
729.516	10165.04
729.858	10097.25
730.199	10121.43
730.541	10106.74
730.882	10099.96
731.224	10163.01
731.565	10138.38
731.906	10138.15
732.248	10158.26
732.589	10110.58
732.93	10080.98
733.271	10110.58
733.612	10190.35
733.953	10111.26
734.294	10121.88
734.635	10069.23
734.976	10111.03
735.317	10077.14
735.658	10136.8
735.999	10137.25
736.339	10094.08
736.68	10077.59
737.021	10099.28
737.361	10089.34
737.702	10171.14
738.042	10103.8
738.383	10059.96
738.723	10160.3
739.063	10094.31
739.404	10157.36
739.744	10137.02
740.084	10142.9
740.424	10236.91
740.764	10201.2
741.104	10235.1
741.444	10158.94
741.784	10166.17
742.124	10215.89
742.464	10202.56
742.804	10251.14
743.143	10267.19
743.483	10263.35
743.823	10314.19
744.162	10330.69
744.502	10318.94
744.841	10325.04
745.181	10445.94
745.52	10496.11
745.86	10501.53
746.199	10539.95
746.538	10592.83
746.877	10662.66
747.216	10676.67
747.556	10723.67
747.895	10751.92
748.234	10784.91
748.573	10782.65
748.911	10894.52
749.25	10960.5
749.589	11012.03
749.928	11123.21
750.267	11118.46
750.605	11254.28
750.944	11285.92
751.283	11288.18
751.621	11436.42
751.96	11518.45
752.298	11585.8
752.636	11711.44
752.975	11771.1
753.313	11823.76
753.651	11942.85
753.989	12139.45
754.327	12153.69
754.666	12240.92
755.004	12350.75
755.342	12534.7
755.679	12602.04
756.017	12720.91
756.355	12884.07
756.693	12932.43
757.031	13107.34
757.368	13224.17
757.706	13300.78
758.044	13376.94
758.381	13507.1
758.719	13642.92
759.056	13864.61
759.394	14086.75
759.731	14029.8
760.068	14206.97
760.405	14369
760.743	14477.25
761.08	14673.63
761.417	14771.25
761.754	14936.22
762.091	15020.51
762.428	15170.56
762.765	15305.47
763.102	15458.69
763.438	15521.96
763.775	15609.19
764.112	15765.57
764.449	15998.34
764.785	16054.61
765.122	16076.53
765.458	16342.51
765.795	16368.5
766.131	16584.08
766.467	16657.75
766.804	16700.01
767.14	16721.48
767.476	16893.91
767.812	16943.62
768.148	17117.85
768.485	17148.81
768.821	17195.14
769.157	17354.01
769.492	17509.48
769.828	17520.33
770.164	17508.81
770.5	17674
770.836	17676.26
771.171	17638.52
771.507	17775.92
771.842	17744.28
772.178	17840.32
772.513	18006.42
772.849	17955.12
773.184	18035.12
773.519	18130.71
773.855	18116.47
774.19	18054.55
774.525	18181.78
774.86	18213.65
775.195	18314.66
775.53	18287.99
775.865	18339.07
776.2	18232.63
776.535	18192.85
776.87	18283.93
777.205	18358.27
777.539	18322.12
777.874	18382.91
778.209	18228.33
778.543	18287.09
778.878	18241.67
779.212	18250.71
779.547	18214.55
779.881	18400.99
780.215	18283.25
780.55	18419.97
780.884	18254.1
781.218	18213.87
781.552	18369.35
781.886	18178.17
782.22	18121.22
782.554	18221.33
782.888	18068.79
783.222	18073.99
783.556	17960.09
783.889	18030.15
784.223	17920.09
784.557	18048
784.89	18065.63
785.224	17893.43
785.557	17806.88
785.891	17881
786.224	17808.68
786.558	17891.39
786.891	17797.39
787.224	17645.52
787.557	17599.65
787.891	17644.17
788.224	17647.11
788.557	17628.35
788.89	17632.64
789.223	17665.64
789.556	17622.7
789.888	17491.4
790.221	17363.72
790.554	17427.68
790.887	17329.37
791.219	17256.38
791.552	17263.16
791.884	17281.69
792.217	17269.49
792.549	17165.31
792.882	17044.41
793.214	16974.81
793.546	17035.82
793.879	16921.25
794.211	16874.7
794.543	16876.96
794.875	16895.26
795.207	16934.36
795.539	16883.06
795.871	16907.92
796.203	16713.12
796.535	16570.52
796.867	16645.33
797.198	16457.31
797.53	16641.94
797.862	16460.92
798.193	16464.54
798.525	16373.24
798.856	16385.67
799.188	16290.53
799.519	16258.67
799.85	16198.33
800.182	16239.23
800.513	16213.92
800.844	16065.45
801.175	16116.98
801.506	16136.41
801.837	16075.85
802.168	15905.46
802.499	15914.27
802.83	15895.97
803.161	15846.48
803.491	15879.7
803.822	15799.25
804.153	15735.74
804.483	15613.71
804.814	15618.23
805.145	15565.81
805.475	15588.86
805.805	15508.18
806.136	15487.84
806.466	15539.59
806.796	15429.99
807.126	15293.95
807.457	15318.81
807.787	15281.07
808.117	15273.38
808.447	15257.79
808.777	15232.93
809.107	15169.88
809.436	15056.89
809.766	15147.06
810.096	15084.01
810.426	15035.88
810.755	14950.91
811.085	14878.82
811.414	15016.22
811.744	14906.16
812.073	14879.04
812.403	14836.33
812.732	14773.06
813.061	14773.28
813.39	14731.25
813.719	14659.61
814.049	14732.83
814.378	14669.56
814.707	14592.95
815.036	14589.33
815.365	14441.54
815.693	14335.56
816.022	14405.84
816.351	14410.58
816.68	14265.73
817.008	14308.89
817.337	14242.9
817.665	14259.85
817.994	14272.73
818.322	14248.78
818.651	14131.04
818.979	14124.49
819.307	14186.18
819.636	14068.44
819.964	14024.38
820.292	14074.77
820.62	14083.58
820.948	14119.06
821.276	14135.56
821.604	13996.81
821.932	14090.36
822.259	13995
822.587	13963.36
822.915	13959.75
823.243	14072.06
823.57	13965.17
823.898	13972.85
824.225	13944.38
824.553	13995.68
824.88	14046.75
825.207	14066.18
825.535	13991.16
825.862	13987.54
826.189	13982.57
826.516	14042.91
826.843	14043.36
827.17	14082.23
827.497	14068.67
827.824	14070.03
828.151	14115.22
828.478	14028.44
828.805	14098.27
829.131	14037.94
829.458	14020.99
829.785	13997.03
830.111	14072.96
830.438	14032.06
830.764	14030.93
831.09	14030.48
831.417	13985.51
831.743	14007.65
832.069	14071.38
832.395	13907.32
832.722	14011.04
833.048	13889.47
833.374	13967.2
833.7	13922.23
834.026	13898.73
834.351	13858.05
834.677	13852.86
835.003	13873.65
835.329	13877.71
835.654	13888.56
835.98	13833.2
836.306	13810.37
836.631	13844.49
836.956	13860.99
837.282	13839.07
837.607	13737.83
837.932	13743.93
838.258	13782.8
838.583	13769.69
838.908	13651.96
839.233	13740.54
839.558	13646.76
839.883	13551.62
840.208	13553.88
840.533	13532.19
840.858	13577.84
841.182	13500.1
841.507	13514.56
841.832	13433.21
842.156	13430.49
842.481	13358.63
842.805	13416.26
843.13	13253.32
843.454	13381.46
843.778	13274.11
844.103	13194.12
844.427	13247.45
844.751	13194.34
845.075	13159.09
845.399	13108.69
845.723	13039.09
846.047	13089.71
846.371	12969.94
846.695	12870.28
847.019	12808.36
847.343	12786.22
847.666	12700.12
847.99	12623.51
848.313	12697.63
848.637	12579.67
848.96	12520.91
849.284	12521.37
849.607	12374.48
849.931	12403.63
850.254	12374.48
850.577	12315.04
850.9	12202.96
851.223	12119.57
851.546	12105.33
851.869	11957.99
852.192	12193.92
852.515	11999.8
852.838	11917.77
853.161	11921.38
853.483	11898.56
853.806	11840.48
854.129	11795.28
854.451	11799.35
854.774	11755.51
855.096	11655.4
855.419	11659.47
855.741	11663.76
856.063	11588.06
856.385	11505.8
856.708	11549.19
857.03	11471.68
857.352	11491.34
857.674	11449.53
857.996	11374.28
858.318	11331.34
858.64	11236.43
858.961	11280.72
859.283	11183.32
859.605	11236.65
859.926	11228.29
860.248	11177.22
860.57	11107.62
860.891	11105.36
861.212	11051.57
861.534	11039.6
861.855	11014.51
862.176	11000.73
862.498	11000.28
862.819	11018.13
863.14	10915.08
863.461	10923.67
863.782	10950.56
864.103	10904.91
864.424	10866.27
864.745	10898.13
865.065	10836.21
865.386	10769.55
865.707	10745.82
866.027	10823.78
866.348	10746.72
866.668	10744.46
866.989	10737.91
867.309	10655.43
867.63	10702.43
867.95	10632.6
868.27	10576.11
868.59	10652.26
868.91	10619.49
869.23	10551.02
869.55	10433.74
869.87	10613.62
870.19	10500.4
870.51	10537.46
870.83	10536.11
871.15	10419.95
871.469	10419.27
871.789	10443.68
872.109	10405.72
872.428	10410.69
872.748	10359.16
873.067	10430.8
873.386	10392.38
873.706	10284.14
874.025	10254.31
874.344	10247.08
874.663	10343.8
874.982	10292.72
875.301	10260.41
875.62	10232.16
875.939	10233.06
876.258	10241.43
876.577	10124.82
876.896	10096.12
877.214	10168.89
877.533	10111.26
877.852	10059.74
878.17	10080.3
878.489	10104.03
878.807	10152.39
879.125	10078.27
879.444	10095.21
879.762	9987.65
880.08	10066.97
880.398	9993.75
880.716	9991.26
881.034	10010.92
881.352	9961.66
881.67	9896.8
881.988	9904.03
882.306	9838.72
882.624	9786.07
882.941	9762.57
883.259	9798.27
883.577	9813.41
883.894	9712.4
884.212	9779.97
884.529	9777.03
884.846	9662.46
885.164	9679.41
885.481	9602.12
885.798	9656.81
886.115	9534.1
886.432	9551.73
886.75	9527.32
887.067	9532.97
887.383	9483.03
887.7	9461.56
888.017	9472.41
888.334	9463.37
888.651	9439.41
888.967	9334.78
889.284	9352.18
889.6	9316.03
889.917	9231.51
890.233	9261.56
890.55	9242.13
890.866	9290.72
891.182	9165.3
891.498	9232.64
891.815	9133.21
892.131	9067.22
892.447	9057.05
892.763	9026.99
893.079	8996.26
893.395	9000.33
893.71	8871.07
894.026	8987.67
894.342	8933.66
894.657	8912.65
894.973	8861.8
895.289	8823.61
895.604	8847.79
895.92	8724.63
896.235	8645.76
896.55	8701.81
896.865	8688.02
897.181	8626.55
897.496	8644.63
897.811	8621.81
898.126	8610.06
898.441	8533.67
898.756	8533.45
899.071	8474.01
899.386	8471.98
899.7	8448.7
900.015	8350.18
900.33	8304.3
900.644	8306.79
900.959	8339.33
901.273	8311.98
901.588	8206.45
901.902	8189.5
902.216	8179.11
902.531	8132.55
902.845	8112.67
903.159	8026.79
903.473	8056.85
903.787	8059.56
904.101	7946.34
904.415	7954.93
904.729	7918.32
905.042	7913.8
905.356	7894.82
905.67	7809.4
905.984	7792.45
906.297	7794.03
906.611	7794.48
906.924	7776.63
907.237	7710.64
907.551	7701.15
907.864	7655.05
908.177	7611.66
908.491	7560.14
908.804	7547.71
909.117	7524.43
909.43	7446.47
909.743	7443.08
910.056	7433.59
910.368	7392.24
910.681	7335.74
910.994	7269.98
911.307	7375.06
911.619	7224.56
911.932	7172.35
912.244	7232.01
912.557	7203.09
912.869	7134.61
913.181	7124.45
913.494	7077.89
913.806	7043.09
914.118	7008.06
914.43	6968.74
914.742	6994.28
915.054	6928.74
915.366	6874.06
915.678	6882.87
915.99	6807.17
916.302	6782.53
916.613	6765.36
916.925	6745.25
917.236	6731.69
917.548	6696.66
917.859	6733.04
918.171	6612.82
918.482	6586.61
918.794	6590.67
919.105	6602.2
919.416	6543.44
919.727	6498.25
920.038	6463.22
920.349	6450.11
920.66	6442.2
920.971	6469.32
921.282	6444.01
921.593	6356.1
921.903	6365.37
922.214	6382.54
922.525	6328.76
922.835	6269.78
923.146	6237.01
923.456	6258.03
923.767	6180.29
924.077	6233.4
924.387	6178.48
924.697	6083.12
925.008	6088.99
925.318	6072.95
925.628	6029.78
925.938	6029.56
926.248	6018.71
926.558	5936
926.867	5863.69
927.177	5901.2
927.487	5907.3
927.796	5857.81
928.106	5853.74
928.416	5784.59
928.725	5795.67
929.034	5789.79
929.344	5772.84
929.653	5740.3
929.962	5684.94
930.271	5631.83
930.581	5613.07
930.89	5651.94
931.199	5602.23
931.508	5627.08
931.817	5567.2
932.125	5544.15
932.434	5510.02
932.743	5460.53
933.051	5487.43
933.36	5402.23
933.669	5371.27
933.977	5414.21
934.286	5369.69
934.594	5309.35
934.902	5339.63
935.21	5215.57
935.519	5280.65
935.827	5283.36
936.135	5205.4
936.443	5227.32
936.751	5162.01
937.059	5119.98
937.367	5170.37
937.674	5127.21
937.982	5091.73
938.29	5068.45
938.597	5089.47
938.905	5014.44
939.213	5006.99
939.52	5012.86
939.827	4943.03
940.135	5004.5
940.442	4905.07
940.749	4945.97
941.056	4923.37
941.363	4861
941.67	4836.6
941.977	4787.33
942.284	4797.95
942.591	4764.06
942.898	4763.6
943.205	4723.15
943.511	4709.37
943.818	4717.73
944.125	4624.62
944.431	4663.04
944.738	4669.59
945.044	4608.58
945.35	4614.45
945.657	4539.65
945.963	4585.3
946.269	4537.62
946.575	4519.77
946.881	4513.21
947.187	4457.17
947.493	4440.45
947.799	4468.02
948.105	4404.29
948.41	4414.01
948.716	4388.7
949.022	4392.09
949.327	4337.85
949.633	4331.07
949.938	4297.18
950.244	4245.43
950.549	4259.66
950.854	4261.24
951.16	4251.07
951.465	4198.65
951.77	4187.8
952.075	4162.94
952.38	4153.9
952.685	4169.72
952.99	4125.2
953.294	4095.82
953.599	4111.42
953.904	4051.53
954.209	4034.58
954.513	4031.65
954.818	4015.37
955.122	4015.15
955.426	3964.08
955.731	3960.23
956.035	3939.67
956.339	3932.44
956.643	3906
956.948	3900.35
957.252	3873.91
957.556	3884.98
957.86	3833.01
958.163	3854.47
958.467	3796.85
958.771	3783.52
959.075	3788.49
959.378	3746.91
959.682	3767.47
959.985	3724.99
960.289	3736.96
960.592	3702.61
960.896	3693.35
961.199	3696.06
961.502	3646.12
961.805	3659.68
962.108	3584.88
962.411	3590.08
962.714	3590.98
963.017	3585.1
963.32	3573.35
963.623	3554.37
963.926	3553.69
964.228	3542.84
964.531	3544.43
964.833	3482.96
965.136	3468.95
965.438	3454.26
965.741	3444.09
966.043	3367.48
966.345	3423.53
966.648	3413.58
966.95	3396.18
967.252	3360.7
967.554	3353.7
967.856	3334.94
968.158	3306.24
968.46	3319.57
968.761	3333.81
969.063	3303.98
969.365	3265.56
969.666	3292.46
969.968	3239.8
970.269	3214.04
970.571	3212.91
970.872	3190.76
971.174	3180.59
971.475	3198.9
971.776	3178.56
972.077	3159.58
972.378	3167.94
972.679	3160.93
972.98	3116.87
973.281	3120.71
973.582	3064.67
973.883	3085.68
974.183	3051.56
974.484	3050.65
974.785	3020.82
975.085	3028.51
975.386	3002.29
975.686	2995.29
975.986	2975.18
976.287	2969.3
976.587	2925.69
976.887	2948.28
977.187	2966.81
977.487	2896.53
977.787	2913.93
978.087	2874.61
978.387	2868.74
978.687	2869.87
978.987	2825.12
979.286	2801.4
979.586	2808.85
979.885	2781.73
980.185	2793.71
980.484	2802.3
980.784	2798.68
981.083	2749.87
981.382	2730.21
981.682	2706.93
981.981	2700.61
982.28	2708.52
982.579	2682.08
982.878	2692.92
983.177	2665.81
983.475	2639.37
983.774	2640.27
984.073	2618.12
984.372	2649.53
984.67	2616.99
984.969	2614.96
985.267	2571.57
985.566	2576.09
985.864	2570.44
986.162	2553.72
986.461	2570.44
986.759	2533.38
987.057	2532.7
987.355	2509.2
987.653	2500.39
987.951	2498.8
988.249	2463.78
988.547	2468.3
988.844	2425.36
989.142	2402.31
989.44	2414.96
989.737	2428.3
990.035	2422.87
990.332	2409.77
990.63	2384.91
990.927	2356.89
991.224	2384.91
991.521	2374.29
991.819	2378.58
992.116	2321.18
992.413	2347.85
992.71	2278.7
993.006	2329.32
993.303	2296.55
993.6	2282.76
993.897	2273.73
994.193	2260.39
994.49	2225.14
994.787	2237.57
995.083	2220.17
995.379	2199.6
995.676	2204.35
995.972	2179.94
996.268	2167.51
996.565	2156.21
996.861	2149.89
997.157	2135.2
997.453	2143.79
997.749	2123.9
998.044	2101.98
998.34	2108.08
998.636	2118.48
998.932	2074.86
999.227	2080.06
999.523	2040.74
999.818	2026.5
1000.114	2015.43
1000.409	2045.71
1000.704	2006.84
1001	2003
1001.295	2005.94
1001.59	1995.54
1001.885	1992.15
1002.18	1971.36
1002.475	1931.81
1002.77	1922.32
1003.065	1928.42
1003.359	1927.97
1003.654	1912.15
1003.949	1918.93
1004.243	1897.69
1004.538	1847.97
1004.832	1895.66
1005.127	1878.93
1005.421	1871.25
1005.715	1832.38
1006.009	1818.37
1006.304	1813.4
1006.598	1804.36
1006.892	1780.86
1007.186	1791.03
1007.48	1810.46
1007.773	1759.16
1008.067	1733.85
1008.361	1765.04
1008.655	1718.26
1008.948	1725.72
1009.242	1732.72
1009.535	1682.33
1009.829	1717.81
1010.122	1654.08
1010.415	1691.37
1010.708	1676.91
1011.001	1658.37
1011.295	1657.7
1011.588	1641.43
1011.881	1615.66
1012.173	1629.9
1012.466	1615.44
1012.759	1622.67
1013.052	1591.94
1013.344	1578.38
1013.637	1569.11
1013.93	1564.59
1014.222	1564.37
1014.514	1550.58
1014.807	1547.42
1015.099	1532.5
1015.391	1521.43
1015.683	1513.07
1015.976	1504.03
1016.268	1505.38
1016.56	1479.4
1016.851	1470.81
1017.143	1470.58
1017.435	1485.5
1017.727	1442.56
1018.018	1451.15
1018.31	1432.62
1018.602	1430.36
1018.893	1452.5
1019.185	1388.78
1019.476	1393.97
1019.767	1394.88
1020.058	1409.57
1020.35	1387.87
1020.641	1356.01
1020.932	1321.66
1021.223	1326.63
1021.514	1322.79
1021.804	1323.69
1022.095	1298.61
1022.386	1299.51
1022.677	1294.77
1022.967	1272.17
1023.258	1274.43
1023.548	1286.41
1023.839	1263.58
1024.129	1257.26
1024.419	1257.48
1024.709	1239.85
1025	1245.28
1025.29	1233.07
1025.58	1228.56
1025.87	1208.89
1026.16	1184.04
1026.449	1178.39
1026.739	1196.69
1027.029	1162.57
1027.319	1188.1
1027.608	1173.64
1027.898	1166.41
1028.187	1134.32
1028.477	1140.87
1028.766	1128.9
1029.055	1132.29
1029.344	1132.51
1029.634	1118.05
1029.923	1105.39
1030.212	1098.84
1030.501	1070.82
1030.79	1101.1
1031.078	1086.41
1031.367	1084.6
1031.656	1077.6
1031.945	1061.33
1032.233	1042.12
1032.522	1047.54
1032.81	1036.92
1033.099	1043.7
1033.387	1032.63
1033.675	1017.71
1033.963	1040.09
1034.251	1020.43
1034.54	1008.45
1034.828	977.04
1035.116	1006.19
1035.403	992.4
1035.691	990.6
1035.979	983.14
1036.267	965.29
1036.554	942.24
1036.842	974.78
1037.129	955.79
1037.417	926.87
1037.704	940.43
1037.992	934.78
1038.279	958.05
1038.566	933.87
1038.853	933.87
1039.14	933.87
