Data from hue_260_FLMS001491_00073.txt Node
Date: Tue Feb 07 15:59:34 GMT 2017
User: dcchb
Spectrometer: FLMS00149
Trigger mode: 0
Integration Time (sec): 2.000000E-2
Scans to average: 10
Electric dark correction enabled: true
Nonlinearity correction enabled: false
Boxcar width: 0
XAxis mode: Wavelengths
Number of Pixels in Spectrum: 2048
>>>>>Begin Spectral Data<<<<<
341.393	-7.81
341.776	-7.81
342.16	-7.81
342.543	-70.18
342.927	-72.67
343.31	-72.89
343.693	-64.98
344.077	-62.5
344.46	-48.94
344.843	-70.41
345.226	-39.45
345.61	-34.25
345.993	-34.93
346.376	-2.39
346.759	5.3
347.142	30.15
347.525	42.81
347.908	76.48
348.291	62.92
348.674	106.99
349.057	106.08
349.44	131.62
349.823	124.39
350.206	143.6
350.588	182.01
350.971	215.23
351.354	229.47
351.737	214.1
352.119	235.8
352.502	253.43
352.884	266.76
353.267	291.62
353.65	275.35
354.032	307.66
354.414	306.76
354.797	316.47
355.179	295.46
355.562	311.96
355.944	300.2
356.326	310.37
356.709	322.58
357.091	318.73
357.473	347.89
357.855	331.84
358.238	344.27
358.62	331.84
359.002	323.03
359.384	350.82
359.766	329.58
360.148	334.1
360.53	332.97
360.912	327.77
361.294	328
361.676	318.51
362.057	344.27
362.439	335.23
362.821	338.4
363.203	326.87
363.584	336.36
363.966	302.69
364.348	329.58
364.729	317.38
365.111	324.38
365.493	302.46
365.874	308.79
366.256	313.08
366.637	283.26
367.019	319.41
367.4	306.31
367.781	309.92
368.163	309.7
368.544	293.65
368.925	309.02
369.306	308.34
369.688	287.77
370.069	322.35
370.45	328.9
370.831	310.6
371.212	311.5
371.593	296.36
371.974	299.53
372.355	324.16
372.736	325.97
373.117	325.97
373.498	304.72
373.879	292.52
374.26	319.64
374.641	328.23
375.021	318.51
375.402	320.77
375.783	326.87
376.163	325.51
376.544	315.8
376.925	329.58
377.305	321.45
377.686	308.79
378.066	341.33
378.447	330.71
378.827	338.85
379.208	317.15
379.588	329.13
379.968	331.84
380.349	335.68
380.729	330.94
381.109	335.23
381.489	320.32
381.87	346.3
382.25	331.84
382.63	340.88
383.01	349.47
383.39	351.5
383.77	329.36
384.15	338.17
384.53	343.82
384.91	348.56
385.29	360.32
385.67	336.81
386.049	333.42
386.429	349.92
386.809	361.45
387.189	381.78
387.568	350.6
387.948	352.86
388.328	350.15
388.707	354.89
389.087	335.01
389.466	372.29
389.846	370.71
390.225	361.67
390.605	349.69
390.984	350.15
391.363	382.01
391.743	379.07
392.122	386.3
392.501	371.16
392.881	365.29
393.26	392.18
393.639	383.82
394.018	394.44
394.397	382.24
394.776	389.24
395.155	371.39
395.534	388.34
395.913	366.42
396.292	401.9
396.671	391.5
397.05	395.79
397.429	402.57
397.808	396.92
398.186	400.09
398.565	389.69
398.944	393.31
399.323	394.89
399.701	397.83
400.08	414.55
400.458	408.22
400.837	420.88
401.215	408.45
401.594	422.23
401.972	408.22
402.351	398.51
402.729	427.21
403.107	453.42
403.486	419.07
403.864	430.6
404.242	424.72
404.62	448.22
404.999	453.42
405.377	447.54
405.755	449.13
406.133	468.34
406.511	463.59
406.889	450.03
407.267	473.31
407.645	474.89
408.023	457.94
408.401	476.02
408.779	488.9
409.156	488.22
409.534	506.07
409.912	494.55
410.29	473.31
410.667	490.48
411.045	520.76
411.422	521.67
411.8	539.97
412.178	539.97
412.555	544.49
412.933	571.61
413.31	557.15
413.687	539.07
414.065	575
414.442	575.45
414.819	591.5
415.197	599.86
415.574	608.44
415.951	600.31
416.328	617.71
416.705	617.94
417.082	650.93
417.46	625.17
417.837	627.2
418.214	649.8
418.591	645.51
418.967	659.29
419.344	673.08
419.721	688.44
420.098	695.45
420.475	695.9
420.852	675.11
421.228	718.72
421.605	697.48
421.982	728.22
422.358	735.22
422.735	737.03
423.111	760.3
423.488	753.07
423.864	778.84
424.241	770.93
424.617	798.5
424.994	806.86
425.37	823.13
425.746	813.86
426.123	836.01
426.499	842.34
426.875	862
427.251	876.01
427.627	889.34
428.003	880.53
428.379	904.93
428.756	928.66
429.132	896.12
429.507	935.89
429.883	951.26
430.259	941.77
430.635	937.25
431.011	983.8
431.387	993.07
431.763	993.75
432.138	1017.7
432.514	1024.48
432.89	1048.88
433.265	1075.32
433.641	1069.22
434.016	1086.62
434.392	1103.57
434.767	1154.19
435.143	1150.58
435.518	1150.58
435.894	1149.9
436.269	1197.81
436.644	1216.79
437.02	1199.16
437.395	1211.14
437.77	1259.05
438.145	1290.46
438.52	1314.41
438.895	1268.31
439.271	1331.59
439.646	1344.47
440.021	1357.35
440.395	1369.55
440.77	1380.63
441.145	1389.44
441.52	1410.46
441.895	1427.86
442.27	1433.96
442.645	1433.51
443.019	1451.36
443.394	1479.61
443.769	1475.77
444.143	1461.08
444.518	1507.18
444.892	1516.22
445.267	1508.31
445.641	1537.46
446.016	1537.01
446.39	1548.53
446.764	1573.62
447.139	1595.76
447.513	1608.64
447.887	1582.2
448.262	1596.89
448.636	1593.28
449.01	1628.98
449.384	1659.72
449.758	1630.11
450.132	1663.56
450.506	1700.62
450.88	1714.4
451.254	1676.89
451.628	1724.35
452.002	1741.3
452.376	1729.54
452.75	1789.43
453.123	1769.77
453.497	1811.8
453.871	1797.57
454.244	1821.07
454.618	1847.73
454.992	1860.84
455.365	1865.81
455.739	1921.4
456.112	1918.24
456.486	1943.32
456.859	1973.38
457.232	2007.5
457.606	2013.61
457.979	2006.6
458.352	2029.2
458.725	2067.62
459.099	2091.57
459.472	2122.3
459.845	2144.45
460.218	2166.14
460.591	2177.89
460.964	2177.67
461.337	2229.64
461.71	2267.16
462.083	2265.8
462.456	2277.78
462.829	2300.38
463.201	2352.58
463.574	2327.72
463.947	2350.77
464.32	2375.18
464.692	2420.15
465.065	2435.74
465.438	2470.32
465.81	2485.68
466.183	2492.46
466.555	2579.92
466.928	2571.1
467.3	2574.49
467.672	2612.91
468.045	2667.15
468.417	2673.47
468.789	2656.75
469.161	2753.25
469.534	2741.04
469.906	2816.07
470.278	2815.84
470.65	2869.85
471.022	2922.28
471.394	2955.5
471.766	2990.98
472.138	2995.95
472.51	3053.13
472.882	3115.72
473.253	3094.25
473.625	3152.78
473.997	3204.99
474.369	3201.6
474.74	3260.8
475.112	3311.2
475.484	3339.9
475.855	3413.79
476.227	3420.35
476.598	3493.34
476.97	3560.23
477.341	3615.15
477.713	3667.57
478.084	3653.56
478.455	3739.44
478.827	3742.37
479.198	3857.17
479.569	3872.54
479.94	3967.45
480.311	3947.11
480.682	4047
481.053	4133.78
481.424	4199.54
481.795	4224.39
482.166	4274.11
482.537	4284.51
482.908	4418.06
483.279	4445.18
483.65	4510.71
484.021	4586.87
484.391	4604.95
484.762	4651.05
485.133	4680.2
485.503	4726.75
485.874	4772.18
486.244	4817.37
486.615	4921.1
486.985	5008.1
487.356	5046.07
487.726	5052.85
488.097	5161.55
488.467	5178.27
488.837	5247.87
489.207	5299.85
489.578	5330.81
489.948	5418.04
490.318	5479.05
490.688	5467.53
491.058	5568.99
491.428	5613.74
491.798	5630.01
492.168	5743.45
492.538	5738.93
492.908	5795.43
493.278	5852.83
493.648	5842.88
494.017	5945.25
494.387	5973.5
494.757	6019.83
495.126	6096.21
495.496	6102.99
495.866	6136.21
496.235	6190.44
496.605	6197.22
496.974	6196.77
497.344	6306.37
497.713	6283.55
498.082	6291.68
498.452	6366.26
498.821	6414.62
499.19	6397.22
499.559	6436.99
499.928	6466.14
500.298	6474.5
500.667	6577.55
501.036	6544.11
501.405	6582.07
501.774	6565.8
502.143	6599.93
502.512	6554.05
502.88	6646.03
503.249	6698.23
503.618	6748.62
503.987	6754.95
504.356	6792.46
504.724	6790.2
505.093	6794.5
505.462	6825
505.83	6795.85
506.199	6911.56
506.567	6958.33
506.936	6900.71
507.304	7006.69
507.672	6970.09
508.041	7014.6
508.409	7039.46
508.777	7077.88
509.145	7121.49
509.514	7067.03
509.882	7125.79
510.25	7133.24
510.618	7186.35
510.986	7195.16
511.354	7275.61
511.722	7249.85
512.09	7380.24
512.458	7276.97
512.826	7331.88
513.193	7328.04
513.561	7374.37
513.929	7362.84
514.297	7371.2
514.664	7430.86
515.032	7394.25
515.4	7487.13
515.767	7508.6
516.135	7446.68
516.502	7328.95
516.869	7521.48
517.237	7573.46
517.604	7523.97
517.972	7516.29
518.339	7584.08
518.706	7570.07
519.073	7565.78
519.44	7680.35
519.808	7672.44
520.175	7608.26
520.542	7722.83
520.909	7735.71
521.276	7705.88
521.643	7723.51
522.009	7694.59
522.376	7787.24
522.743	7788.37
523.11	7840.57
523.477	7893
523.843	7820.01
524.21	7894.13
524.577	7967.35
524.943	7904.75
525.31	7912.89
525.676	7953.56
526.043	8021.81
526.409	7966.67
526.776	8070.4
527.142	8058.87
527.508	8014.8
527.874	8055.71
528.241	8083.95
528.607	8043.28
528.973	8134.57
529.339	8090.28
529.705	8206.21
530.071	8220
530.437	8201.47
530.803	8171.41
531.169	8204.18
531.535	8202.37
531.901	8175.25
532.267	8190.84
532.632	8244.63
532.998	8211.18
533.364	8214.35
533.73	8274.46
534.095	8294.12
534.461	8215.48
534.826	8201.69
535.192	8279.66
535.557	8211.18
535.923	8257.28
536.288	8234.68
536.653	8267.9
537.019	8198.53
537.384	8197.4
537.749	8226.1
538.114	8207.79
538.479	8247.57
538.845	8196.04
539.21	8191.07
539.575	8216.38
539.94	8245.08
540.305	8231.97
540.67	8198.53
541.034	8210.73
541.399	8218.19
541.764	8158.08
542.129	8108.59
542.494	8164.18
542.858	8137.29
543.223	8163.95
543.587	8199.43
543.952	8153.1
544.316	8179.09
544.681	8097.74
545.045	8157.62
545.41	8123.95
545.774	8154.23
546.138	8118.53
546.503	8189.26
546.867	8149.26
547.231	8159.43
547.595	8110.62
547.959	8107.68
548.324	8041.7
548.688	8121.69
549.052	8113.78
549.416	8074.69
549.779	8010.96
550.143	8079.43
550.507	8077.4
550.871	8065.88
551.235	8136.61
551.599	8102.03
551.962	8094.8
552.326	8100
552.689	8087.12
553.053	8088.93
553.417	8083.95
553.78	8131.41
554.143	8030.85
554.507	8030.4
554.87	8057.29
555.234	8129.38
555.597	8108.81
555.96	8101.13
556.323	8106.33
556.686	8054.8
557.05	8143.39
557.413	8095.25
557.776	8050.96
558.139	8186.55
558.502	8164.4
558.865	8147.91
559.228	8249.15
559.59	8166.89
559.953	8159.43
560.316	8259.77
560.679	8244.4
561.041	8263.84
561.404	8265.87
561.767	8301.8
562.129	8256.38
562.492	8314.68
562.854	8318.98
563.217	8297.28
563.579	8357.62
563.941	8346.55
564.304	8364.62
564.666	8387.9
565.028	8422.7
565.39	8415.47
565.753	8485.98
566.115	8464.28
566.477	8482.59
566.839	8493.66
567.201	8564.62
567.563	8497.73
567.925	8571.85
568.287	8572.75
568.648	8543.83
569.01	8615.47
569.372	8668.12
569.734	8638.52
570.095	8720.1
570.457	8705.41
570.819	8655.69
571.18	8676.25
571.542	8773.2
571.903	8855.46
572.265	8819.75
572.626	8864.05
572.987	8860.2
573.349	8905.4
573.71	8939.98
574.071	8847.32
574.432	8944.27
574.794	9056.58
575.155	9035.34
575.516	8989.47
575.877	9028.56
576.238	9057.04
576.599	9090.93
576.96	9053.19
577.32	9106.3
577.681	9107.43
578.042	9092.97
578.403	9164.38
578.763	9156.02
579.124	9177.26
579.485	9155.56
579.845	9301.1
580.206	9285.5
580.566	9310.59
580.927	9361.89
581.287	9327.09
581.648	9273.98
582.008	9414.77
582.368	9381.55
582.728	9347.65
583.089	9458.38
583.449	9405.05
583.809	9444.82
584.169	9496.8
584.529	9437.36
584.889	9563.92
585.249	9520.3
585.609	9421.09
585.969	9601.2
586.329	9516.91
586.688	9539.51
587.048	9565.27
587.408	9537.7
587.768	9613.86
588.127	9531.83
588.487	9526.18
588.846	9679.17
589.206	9569.11
589.565	9596.68
589.925	9668.09
590.284	9677.81
590.643	9665.38
591.003	9746.96
591.362	9716
591.721	9637.36
592.08	9726.4
592.44	9784.02
592.799	9788.54
593.158	9754.87
593.517	9790.12
593.876	9759.16
594.235	9831.03
594.593	9819.5
594.952	9800.29
595.311	9810.91
595.67	9846.39
596.029	9891.36
596.387	9925.94
596.746	9988.76
597.104	9881.19
597.463	9860.18
597.822	9958.93
598.18	9898.37
598.538	9908.09
598.897	9924.13
599.255	9940.85
599.613	10044.13
599.972	10034.86
600.33	9958.03
600.688	9898.82
601.046	10034.19
601.404	10052.04
601.762	9969.1
602.12	10028.08
602.478	10048.2
602.836	10019.72
603.194	9978.37
603.552	10004.13
603.91	10008.65
604.268	10045.71
604.625	10019.72
604.983	10013.62
605.341	10065.6
605.698	10054.98
606.056	10084.35
606.413	10041.87
606.771	10122.77
607.128	10087.07
607.485	10058.59
607.843	10064.47
608.2	10171.13
608.557	10162.77
608.914	10086.39
609.272	10235.31
609.629	10144.24
609.986	10193.96
610.343	10194.41
610.7	10245.25
611.057	10273.28
611.414	10285.25
611.771	10151.47
612.127	10252.94
612.484	10306.04
612.841	10336.1
613.198	10296.78
613.554	10182.43
613.911	10325.03
614.267	10265.82
614.624	10309.43
614.98	10401.63
615.337	10370
615.693	10337.45
616.05	10327.06
616.406	10392.82
616.762	10303.33
617.118	10322.09
617.475	10376.32
617.831	10371.35
618.187	10318.7
618.543	10370.67
618.899	10434.85
619.255	10485.25
619.611	10381.07
619.967	10417.45
620.323	10474.85
620.678	10432.59
621.034	10368.19
621.39	10427.17
621.746	10313.73
622.101	10542.42
622.457	10459.94
622.812	10471.91
623.168	10379.26
623.523	10502.87
623.879	10528.18
624.234	10466.49
624.589	10462.42
624.945	10435.98
625.3	10447.96
625.655	10496.32
626.01	10522.53
626.365	10495.87
626.72	10436.21
627.075	10452.03
627.43	10421.52
627.785	10416.32
628.14	10418.36
628.495	10457.23
628.85	10411.58
629.205	10400.96
629.559	10414.74
629.914	10388.75
630.269	10436.21
630.623	10370.9
630.978	10369.54
631.332	10405.7
631.687	10422.2
632.041	10332.48
632.396	10372.48
632.75	10319.83
633.104	10374.52
633.459	10346.49
633.813	10267.63
634.167	10293.61
634.521	10320.73
634.875	10282.31
635.229	10241.86
635.583	10180.17
635.937	10265.82
636.291	10212.26
636.645	10233.73
636.999	10220.17
637.352	10182.88
637.706	10118.93
638.06	10174.29
638.413	10093.39
638.767	10138.82
639.121	10150.57
639.474	10065.14
639.828	10072.15
640.181	10061.98
640.534	10091.81
640.888	10030.12
641.241	10003.68
641.594	10033.51
641.947	10059.5
642.301	9957.35
642.654	9965.26
643.007	10042.09
643.36	10032.38
643.713	9968.42
644.066	10061.08
644.419	9959.84
644.771	9927.52
645.124	9824.02
645.477	9791.93
645.83	9752.38
646.182	9685.72
646.535	9687.53
646.888	9718.04
647.24	9619.51
647.593	9672.39
647.945	9644.59
648.298	9586.74
648.65	9598.49
649.002	9546.51
649.355	9577.7
649.707	9646.85
650.059	9719.84
650.411	9776.11
650.763	9789.9
651.115	9944.24
651.467	9853.85
651.819	9847.07
652.171	9878.94
652.523	9868.09
652.875	9848.65
653.227	9812.5
653.578	9890.23
653.93	9808.65
654.282	9817.24
654.633	9850.69
654.985	9798.94
655.337	9809.33
655.688	9811.14
656.039	9853.63
656.391	9897.92
656.742	9819.95
657.094	9756.23
657.445	9899.95
657.796	9836.45
658.147	9877.81
658.498	9849.56
658.849	9861.76
659.2	9814.98
659.551	9815.21
659.902	9874.87
660.253	9865.83
660.604	9883.45
660.955	9818.15
661.306	9854.3
661.656	9759.16
662.007	9803.91
662.358	9823.8
662.708	9868.54
663.059	9796.68
663.409	9751.48
663.76	9860.63
664.11	9803.23
664.461	9825.6
664.811	9828.77
665.161	9814.3
665.511	9814.76
665.862	9804.13
666.212	9852.27
666.562	9817.24
666.912	9791.48
667.262	9842.1
667.612	9839.39
667.962	9815.21
668.312	9826.28
668.662	9833.29
669.011	9819.28
669.361	9846.62
669.711	9782.21
670.06	9817.02
670.41	9739.96
670.76	9689.79
671.109	9861.53
671.459	9783.12
671.808	9793.51
672.157	9744.48
672.507	9748.32
672.856	9688.21
673.205	9709.22
673.554	9825.6
673.904	9648.66
674.253	9727.53
674.602	9691.14
674.951	9558.04
675.3	9567.3
675.649	9672.39
675.998	9685.27
676.346	9690.92
676.695	9749.9
677.044	9581.32
677.393	9703.35
677.741	9625.16
678.09	9640.98
678.438	9650.24
678.787	9613.18
679.135	9541.77
679.484	9522.79
679.832	9591.71
680.181	9492.28
680.529	9560.07
680.877	9466.52
681.225	9551.03
681.573	9614.54
681.922	9520.07
682.27	9398.04
682.618	9479.4
682.966	9377.25
683.314	9379.06
683.661	9395.78
684.009	9346.07
684.357	9330.7
684.705	9283.02
685.053	9295.9
685.4	9236.92
685.748	9210.7
686.095	9189.24
686.443	9156.24
686.79	9166.19
687.138	9251.83
687.485	9217.71
687.832	9104.27
688.18	9147.2
688.527	9118.5
688.874	9148.78
689.221	9062.69
689.568	9056.36
689.915	8985.85
690.262	8986.98
690.609	8954.44
690.956	8937.27
691.303	8844.16
691.65	8885.29
691.997	8874.89
692.344	8829.02
692.69	8760.09
693.037	8764.39
693.383	8737.5
693.73	8780.88
694.077	8666.31
694.423	8695.69
694.769	8655.46
695.116	8634
695.462	8597.84
695.808	8578.63
696.155	8587.67
696.501	8520.78
696.847	8493.89
697.193	8458.86
697.539	8470.16
697.885	8448.01
698.231	8342.25
698.577	8351.74
698.923	8353.33
699.269	8238.07
699.614	8215.93
699.96	8209.83
700.306	8258.86
700.651	8206.21
700.997	8132.09
701.342	8125.53
701.688	8096.61
702.033	8076.95
702.379	8006.89
702.724	8034.46
703.069	8030.4
703.415	7914.47
703.76	7958.08
704.105	7939.55
704.45	7862.72
704.795	7851.19
705.14	7806.45
705.485	7780.91
705.83	7787.92
706.175	7800.12
706.52	7761.48
706.865	7702.72
707.209	7727.13
707.554	7699.56
707.899	7697.07
708.243	7626.34
708.588	7619.79
708.932	7581.37
709.277	7563.06
709.621	7555.15
709.966	7493.91
710.31	7563.97
710.654	7458.43
710.998	7448.72
711.342	7509.05
711.687	7430.86
712.031	7488.04
712.375	7389.06
712.719	7441.49
713.063	7410.07
713.407	7388.38
713.75	7374.37
714.094	7365.78
714.438	7363.3
714.782	7304.09
715.125	7346.8
715.469	7310.42
715.812	7235.16
716.156	7240.81
716.499	7271.32
716.843	7249.17
717.186	7217.08
717.53	7264.77
717.873	7269.06
718.216	7219.8
718.559	7206.69
718.902	7149.06
719.246	7151.1
719.589	7186.8
719.932	7100.25
720.275	7149.97
720.617	7064.09
720.96	7088.95
721.303	7118.33
721.646	7119.01
721.989	7111.1
722.331	7112.91
722.674	7025.45
723.016	7080.14
723.359	7069.07
723.701	7032.91
724.044	7019.8
724.386	6948.16
724.729	7009.86
725.071	6984.1
725.413	6979.8
725.755	6973.47
726.097	7002.63
726.439	6952.01
726.782	6942.74
727.124	6995.62
727.465	6936.41
727.807	6916.75
728.149	6905.45
728.491	6902.52
728.833	6946.81
729.175	6910.43
729.516	6925.11
729.858	6935.51
730.199	6912.46
730.541	6901.84
730.882	6897.54
731.224	6910.43
731.565	6872.01
731.906	6852.57
732.248	6873.59
732.589	6848.28
732.93	6825.68
733.271	6871.1
733.612	6853.25
733.953	6914.04
734.294	6875.85
734.635	6850.31
734.976	6866.58
735.317	6793.82
735.658	6832.69
735.999	6879.47
736.339	6876.08
736.68	6886.7
737.021	6872.23
737.361	6813.03
737.702	6845.79
738.042	6824.1
738.383	6849.18
738.723	6841.27
739.063	6904.32
739.404	6879.24
739.744	6905
740.084	6898.67
740.424	6869.75
740.764	6925.79
741.104	6918.34
741.444	6873.36
741.784	6906.36
742.124	6919.01
742.464	6967.6
742.804	6988.62
743.143	6914.72
743.483	6981.38
743.823	6929.18
744.162	6941.61
744.502	7062.51
744.841	7040.59
745.181	7066.35
745.52	7094.38
745.86	7095.05
746.199	7171.44
746.538	7168.05
746.877	7243.07
747.216	7213.02
747.556	7181.6
747.895	7246.01
748.234	7283.98
748.573	7331.21
748.911	7377.98
749.25	7430.86
749.589	7431.54
749.928	7511.99
750.267	7613.01
750.605	7617.75
750.944	7672.89
751.283	7700.91
751.621	7808.48
751.96	7839.67
752.298	7920.57
752.636	7967.8
752.975	7980.23
753.313	8046.21
753.651	8185.87
753.989	8249.37
754.327	8387.45
754.666	8423.83
755.004	8492.08
755.342	8597.16
755.679	8710.83
756.017	8745.18
756.355	8827.89
756.693	8974.78
757.031	9028.11
757.368	9209.12
757.706	9253.19
758.044	9423.58
758.381	9530.24
758.719	9630.35
759.056	9821.31
759.394	9881.87
759.731	9937.92
760.068	10115.31
760.405	10164.8
760.743	10261.52
761.08	10463.78
761.417	10582.19
761.754	10725.24
762.091	10822.64
762.428	10932.69
762.765	11000.49
763.102	11206.13
763.438	11327.71
763.775	11354.15
764.112	11563.18
764.449	11757.08
764.785	11797.98
765.122	11909.84
765.458	12012.89
765.795	12065.54
766.131	12307.8
766.467	12378.98
766.804	12518.64
767.14	12599.77
767.476	12714.57
767.812	12738.75
768.148	12843.6
768.485	12876.14
768.821	12947.78
769.157	13169.47
769.492	13277.04
769.828	13375.79
770.164	13361.1
770.5	13477.03
770.836	13496.24
771.171	13539.86
771.507	13633.64
771.842	13683.35
772.178	13746.63
772.513	13843.35
772.849	13914.76
773.184	13986.17
773.519	14043.35
773.855	14079.73
774.19	14134.19
774.525	14188.65
774.86	14248.09
775.195	14321.53
775.53	14334.41
775.865	14307.29
776.2	14285.15
776.535	14361.3
776.87	14283.57
777.205	14467.06
777.539	14452.15
777.874	14478.59
778.209	14464.13
778.543	14493.5
778.878	14508.87
779.212	14459.38
779.547	14507.51
779.881	14554.29
780.215	14535.31
780.55	14562.88
780.884	14528.3
781.218	14592.71
781.552	14643.1
781.886	14561.3
782.22	14529.21
782.554	14526.95
782.888	14451.92
783.222	14501.41
783.556	14484.92
783.889	14490.79
784.223	14459.15
784.557	14432.04
784.89	14527.17
785.224	14471.81
785.557	14337.57
785.891	14370.57
786.224	14458.48
786.558	14419.38
786.891	14294.41
787.224	14286.5
787.557	14271.81
787.891	14378.7
788.224	14347.97
788.557	14326.05
788.89	14329.44
789.223	14357.69
789.556	14191.59
789.888	14169.22
790.221	14198.6
790.554	14113.85
790.887	14155.66
791.219	14099.16
791.552	14131.93
791.884	14063.46
792.217	14052.84
792.549	13968.09
792.882	13929.68
793.214	13942.56
793.546	13980.52
793.879	13910.24
794.211	13792.96
794.543	13833.18
794.875	13871.6
795.207	13906.4
795.539	13773.75
795.871	13729.91
796.203	13661.21
796.535	13557.48
796.867	13614.88
797.198	13556.58
797.53	13587.99
797.862	13493.08
798.193	13552.28
798.525	13391.84
798.856	13515.68
799.188	13272.52
799.519	13342.35
799.85	13264.16
800.182	13313.65
800.513	13304.61
800.844	13250.15
801.175	13249.02
801.506	13260.77
801.837	13135.12
802.168	13090.6
802.499	13173.54
802.83	12999.31
803.161	12985.29
803.491	13058.51
803.822	13061.22
804.153	12946.43
804.483	12915.69
804.814	12890.83
805.145	12885.41
805.475	12775.58
805.805	12743.27
806.136	12831.4
806.466	12818.74
806.796	12811.74
807.126	12644.06
807.457	12686.32
807.787	12718.18
808.117	12603.16
808.447	12554.35
808.777	12524.52
809.107	12508.02
809.436	12447
809.766	12581.46
810.096	12470.96
810.426	12414.69
810.755	12451.52
811.085	12427.34
811.414	12407.91
811.744	12290.4
812.073	12269.61
812.403	12308.02
812.732	12224.41
813.061	12225.99
813.39	12199.33
813.719	12153.68
814.049	12216.05
814.378	12179.89
814.707	12136.28
815.036	12039.56
815.365	12020.35
815.693	11955.04
816.022	11950.29
816.351	11925.89
816.68	11890.63
817.008	11959.56
817.337	11857.41
817.665	11823.29
817.994	11886.57
818.322	11859.45
818.651	11710.53
818.979	11673.24
819.307	11800.47
819.636	11736.29
819.964	11669.85
820.292	11728.38
820.62	11742.84
820.948	11704.42
821.276	11756.17
821.604	11621.04
821.932	11663.75
822.259	11675.05
822.587	11622.84
822.915	11632.34
823.243	11666.01
823.57	11720.02
823.898	11637.08
824.225	11601.38
824.553	11665.55
824.88	11721.37
825.207	11632.11
825.535	11669.17
825.862	11694.93
826.189	11639.11
826.516	11722.95
826.843	11724.54
827.17	11739.23
827.497	11695.38
827.824	11660.58
828.151	11740.13
828.478	11711.2
828.805	11798.43
829.131	11700.13
829.458	11682.73
829.785	11630.53
830.111	11691.32
830.438	11788.72
830.764	11746.68
831.09	11739.23
831.417	11686.57
831.743	11700.36
832.069	11729.73
832.395	11614.26
832.722	11747.59
833.048	11602.73
833.374	11715.72
833.7	11555.5
834.026	11578.33
834.351	11609.06
834.677	11525.22
835.003	11582.39
835.329	11550.53
835.654	11637.76
835.98	11481.83
836.306	11534.94
836.631	11499.01
836.956	11538.1
837.282	11544.43
837.607	11515.05
837.932	11420.82
838.258	11471.44
838.583	11408.16
838.908	11417.88
839.233	11409.97
839.558	11340.82
839.883	11336.52
840.208	11304.21
840.533	11354.6
840.858	11354.38
841.182	11345.34
841.507	11168.62
841.832	11253.59
842.156	11183.08
842.481	11216.3
842.805	11203.42
843.13	11117.77
843.454	11114.16
843.778	11079.13
844.103	11105.12
844.427	11070.54
844.751	11045.46
845.075	10998.91
845.399	10962.75
845.723	10813.15
846.047	10952.81
846.371	10834.16
846.695	10747.84
847.019	10736.99
847.343	10712.13
847.666	10627.84
847.99	10588.97
848.313	10567.5
848.637	10554.17
848.96	10531.35
849.284	10458.58
849.607	10387.4
849.931	10471.69
850.254	10359.37
850.577	10289.55
850.9	10214.07
851.223	10120.96
851.546	10145.14
851.869	10124.35
852.192	10167.97
852.515	10025.37
852.838	9996.22
853.161	9992.6
853.483	9978.82
853.806	9974.75
854.129	9884.81
854.451	9848.43
854.774	9828.32
855.096	9778.15
855.419	9704.7
855.741	9762.55
856.063	9638.94
856.385	9739.96
856.708	9711.93
857.03	9634.65
857.352	9623.12
857.674	9536.35
857.996	9547.87
858.318	9579.73
858.64	9601.43
858.961	9442.79
859.283	9467.42
859.605	9449.34
859.926	9387.2
860.248	9410.92
860.57	9369.34
860.891	9385.84
861.212	9299.97
861.534	9275.11
861.855	9221.1
862.176	9316.01
862.498	9225.62
862.819	9201.44
863.14	9175
863.461	9247.31
863.782	9146.53
864.103	9130.48
864.424	9138.16
864.745	9160.76
865.065	9082.35
865.386	9083.25
865.707	9016.81
866.027	9091.61
866.348	9053.65
866.668	9095.68
866.989	9031.27
867.309	8913.76
867.63	8974.33
867.95	8994.66
868.27	8892.29
868.59	8856.59
868.91	8870.15
869.23	8866.53
869.55	8832.63
869.87	8899.07
870.19	8861.33
870.51	8905.18
870.83	8870.6
871.15	8762.13
871.469	8830.38
871.789	8820.88
872.109	8774.78
872.428	8707.89
872.748	8732.75
873.067	8701.56
873.386	8738.63
873.706	8715.58
874.025	8671.74
874.344	8656.37
874.663	8695.24
874.982	8688.23
875.301	8641
875.62	8617.5
875.939	8570.95
876.258	8652.07
876.577	8625.41
876.896	8573.43
877.214	8472.87
877.533	8623.37
877.852	8472.19
878.17	8567.33
878.489	8568.24
878.807	8495.69
879.125	8475.36
879.444	8491.18
879.762	8454.57
880.08	8451.85
880.398	8395.36
880.716	8501.12
881.034	8339.77
881.352	8407.56
881.67	8387.67
881.988	8320.11
882.306	8326.21
882.624	8300.45
882.941	8275.81
883.259	8246.89
883.577	8254.57
883.894	8242.37
884.212	8200.79
884.529	8209.37
884.846	8206.44
885.164	8179.32
885.481	8114.69
885.798	8154.46
886.115	8068.81
886.432	8078.3
886.75	8046.89
887.067	8046.44
887.383	7994.01
887.7	7958.76
888.017	7984.97
888.334	8000.34
888.651	7909.04
888.967	7903.85
889.284	7895.03
889.6	7855.26
889.917	7806.9
890.233	7844.19
890.55	7783.17
890.866	7756.28
891.182	7774.81
891.498	7801.93
891.815	7733.91
892.131	7690.97
892.447	7717.64
892.763	7590.86
893.079	7605.55
893.395	7610.07
893.71	7585.89
894.026	7564.87
894.342	7557.64
894.657	7514.48
894.973	7467.47
895.289	7504.08
895.604	7431.77
895.92	7321.71
896.235	7383.86
896.55	7404.2
896.865	7333.92
897.181	7285.11
897.496	7295.05
897.811	7248.27
898.126	7221.83
898.441	7205.11
898.756	7166.69
899.071	7171.21
899.386	7178.89
899.7	7082.62
900.015	7053.92
900.33	7010.54
900.644	7005.56
900.959	6998.33
901.273	6965.79
901.588	6982.06
901.902	6935.74
902.216	6885.12
902.531	6906.58
902.845	6899.58
903.159	6804.89
903.473	6766.02
903.787	6743.88
904.101	6739.13
904.415	6690.32
904.729	6739.58
905.042	6664.78
905.356	6632.24
905.67	6649.19
905.984	6627.27
906.297	6552.24
906.611	6492.13
906.924	6532.58
907.237	6494.62
907.551	6475.18
907.864	6427.5
908.177	6440.61
908.491	6432.02
908.804	6376.65
909.117	6351.34
909.43	6319.93
909.743	6280.16
910.056	6293.04
910.368	6343.89
910.681	6221.63
910.994	6242.42
911.307	6167.39
911.619	6126.72
911.932	6173.27
912.244	6120.84
912.557	6084.46
912.869	6040.17
913.181	6039.26
913.494	6034.52
913.806	6008.75
914.118	5968.08
914.43	5919.27
914.742	5974.41
915.054	5878.14
915.366	5867.29
915.678	5850.11
915.99	5830.68
916.302	5782.55
916.613	5775.99
916.925	5720.63
917.236	5766.27
917.548	5695.99
917.859	5668.2
918.171	5663.45
918.482	5618.93
918.794	5598.14
919.105	5651.93
919.416	5526.96
919.727	5561.76
920.038	5557.69
920.349	5517.92
920.66	5511.59
920.971	5438.83
921.282	5503.68
921.593	5410.58
921.903	5380.3
922.214	5373.52
922.525	5333.29
922.835	5328.77
923.146	5301.43
923.456	5306.63
923.767	5259.85
924.077	5263.24
924.387	5256.91
924.697	5216.23
925.008	5183.47
925.318	5159.06
925.628	5122.22
925.938	5148.66
926.248	5125.16
926.558	5053.3
926.867	5074.99
927.177	5073.86
927.487	5002.45
927.796	5002.45
928.106	4963.36
928.416	4995.45
928.725	4920.42
929.034	4881.78
929.344	4957.26
929.653	4914.32
929.962	4820.99
930.271	4797.71
930.581	4855.79
930.89	4784.83
931.199	4798.62
931.508	4769.01
931.817	4764.95
932.125	4703.03
932.434	4700.54
932.743	4713.65
933.051	4627.77
933.36	4661.9
933.669	4618.73
933.977	4573.76
934.286	4574.22
934.594	4599.53
934.902	4578.74
935.21	4519.08
935.519	4516.82
935.827	4505.52
936.135	4489.7
936.443	4465.29
936.751	4428.68
937.059	4429.81
937.367	4375.8
937.674	4415.35
937.982	4366.54
938.29	4367.89
938.597	4385.52
938.905	4307.56
939.213	4288.57
939.52	4283.6
939.827	4322.02
940.135	4220.33
940.442	4199.31
940.749	4232.53
941.056	4230.95
941.363	4180.55
941.67	4139.65
941.977	4115.24
942.284	4113.89
942.591	4089.93
942.898	4070.5
943.205	4076.83
943.511	4071.86
943.818	4003.84
944.125	4000.9
944.431	4011.07
944.738	4016.26
945.044	3980.33
945.35	3936.72
945.657	3929.71
945.963	3947.34
946.269	3915.7
946.575	3905.08
946.881	3873.9
947.187	3874.57
947.493	3829.15
947.799	3814.46
948.105	3818.98
948.41	3751.19
948.716	3791.64
949.022	3723.16
949.327	3736.95
949.633	3699.44
949.938	3704.86
950.244	3702.15
950.549	3694.69
950.854	3668.25
951.16	3665.77
951.465	3601.59
951.77	3625.99
952.075	3601.13
952.38	3576.73
952.685	3603.62
952.99	3562.27
953.294	3531.53
953.599	3502.61
953.904	3532.21
954.209	3512.32
954.513	3501.25
954.818	3441.36
955.122	3427.13
955.426	3418.09
955.731	3412.89
956.035	3395.49
956.339	3393
956.643	3362.5
956.948	3343.74
957.252	3358.88
957.556	3310.75
957.86	3331.31
958.163	3279.56
958.467	3305.55
958.771	3300.35
959.075	3304.42
959.378	3246.34
959.682	3257.87
959.985	3237.08
960.289	3233.69
960.592	3196.62
960.896	3200.69
961.199	3172.44
961.502	3134.03
961.805	3156.85
962.108	3124.99
962.411	3136.29
962.714	3081.6
963.017	3080.92
963.32	3089.06
963.623	3075.5
963.926	3064.65
964.228	3028.49
964.531	3005.44
964.833	3040.24
965.136	3026.23
965.438	2986.01
965.741	2995.73
966.043	2967.25
966.345	2936.97
966.648	2940.13
966.95	2951.43
967.252	2925.45
967.554	2922.28
967.856	2910.98
968.158	2871.66
968.46	2890.42
968.761	2836.63
969.063	2853.81
969.365	2845.45
969.666	2842.74
969.968	2767.71
970.269	2744.21
970.571	2792.79
970.872	2780.59
971.174	2784.21
971.475	2740.82
971.776	2754.38
972.077	2761.61
972.378	2667.37
972.679	2693.14
972.98	2682.74
973.281	2663.53
973.582	2661.72
973.883	2636.64
974.183	2619.47
974.484	2617.66
974.785	2595.28
975.085	2587.38
975.386	2613.14
975.686	2577.43
975.986	2578.34
976.287	2604.1
976.587	2533.14
976.887	2557.32
977.187	2538.11
977.487	2514.61
977.787	2520.03
978.087	2513.48
978.387	2460.6
978.687	2469.19
978.987	2469.86
979.286	2433.71
979.586	2488.4
979.885	2449.07
980.185	2411.56
980.484	2403.65
980.784	2392.13
981.083	2388.51
981.382	2386.7
981.682	2400.94
981.981	2357.1
982.28	2382.18
982.579	2321.85
982.878	2379.25
983.177	2315.52
983.475	2303.54
983.774	2310.55
984.073	2294.28
984.372	2282.75
984.67	2273.26
984.969	2247.05
985.267	2266.03
985.566	2257.89
985.864	2205.46
986.162	2205.01
986.461	2212.02
986.759	2203.88
987.057	2183.32
987.355	2192.58
987.653	2139.25
987.951	2165.69
988.249	2178.35
988.547	2131.34
988.844	2118.01
989.142	2141.51
989.44	2116.65
989.737	2123.66
990.035	2110.1
990.332	2075.07
990.63	2075.07
990.927	2082.76
991.224	2053.6
991.521	2070.33
991.819	2038.01
992.116	2055.19
992.413	2027.62
992.71	2012.7
993.006	2017.9
993.303	2019.25
993.6	2010.89
993.897	1974.74
994.193	1989.65
994.49	1991.01
994.787	1965.47
995.083	1934.74
995.379	1935.64
995.676	1942.42
995.972	1920.73
996.268	1931.57
996.565	1902.2
996.861	1890.22
997.157	1859.71
997.453	1858.81
997.749	1871.46
998.044	1837.56
998.34	1819.71
998.636	1832.59
998.932	1838.47
999.227	1809.32
999.523	1834.85
999.818	1778.36
1000.114	1777.23
1000.409	1768.87
1000.704	1769.77
1001	1775.42
1001.295	1762.09
1001.59	1757.11
1001.885	1733.16
1002.18	1751.47
1002.475	1700.85
1002.77	1719.83
1003.065	1691.35
1003.359	1687.51
1003.654	1703.56
1003.949	1675.08
1004.243	1663.11
1004.538	1666.5
1004.832	1670.34
1005.127	1650.68
1005.421	1627.17
1005.715	1619.49
1006.009	1645.71
1006.304	1626.72
1006.598	1589.21
1006.892	1597.8
1007.186	1580.17
1007.48	1566.16
1007.773	1561.64
1008.067	1555.31
1008.361	1523.9
1008.655	1537.46
1008.948	1511.7
1009.242	1522.54
1009.535	1501.53
1009.829	1510.79
1010.122	1517.35
1010.415	1492.04
1010.708	1489.78
1011.001	1448.65
1011.295	1454.3
1011.588	1453.39
1011.881	1440.06
1012.173	1429.44
1012.466	1440.96
1012.759	1417.01
1013.052	1452.26
1013.344	1368.2
1013.637	1389.44
1013.93	1398.03
1014.222	1385.83
1014.514	1370.01
1014.807	1361.64
1015.099	1327.3
1015.391	1341.76
1015.683	1352.83
1015.976	1334.53
1016.268	1353.28
1016.56	1293.4
1016.851	1324.81
1017.143	1297.47
1017.435	1291.82
1017.727	1273.51
1018.018	1270.35
1018.31	1275.55
1018.602	1270.12
1018.893	1259.5
1019.185	1231.7
1019.476	1226.96
1019.767	1217.69
1020.058	1218.6
1020.35	1207.75
1020.641	1233.51
1020.932	1211.82
1021.223	1174.98
1021.514	1205.72
1021.804	1161.42
1022.095	1174.98
1022.386	1161.2
1022.677	1165.49
1022.967	1142.44
1023.258	1126.17
1023.548	1137.47
1023.839	1121.65
1024.129	1134.31
1024.419	1099.73
1024.709	1095.21
1025	1130.69
1025.29	1084.36
1025.58	1090.69
1025.87	1063.35
1026.16	1064.7
1026.449	1060.86
1026.739	1057.92
1027.029	1044.14
1027.319	1054.99
1027.608	1061.99
1027.898	1066.96
1028.187	1018.15
1028.477	993.97
1028.766	1029
1029.055	1031.94
1029.344	1007.08
1029.634	1007.76
1029.923	1024.7
1030.212	992.16
1030.501	971.37
1030.79	976.12
1031.078	986.51
1031.367	937.93
1031.656	966.85
1031.945	954.2
1032.233	952.39
1032.522	959.4
1032.81	934.31
1033.099	909
1033.387	912.84
1033.675	909.45
1033.963	942.9
1034.251	896.12
1034.54	908.32
1034.828	889.34
1035.116	889.12
1035.403	894.31
1035.691	879.62
1035.979	887.76
1036.267	875.56
1036.554	863.35
1036.842	857.25
1037.129	872.17
1037.417	860.42
1037.704	871.04
1037.992	859.06
1038.279	834.65
1038.566	832.17
1038.853	832.17
1039.14	832.17
