Data from hue_90_FLMS001491_9.txt Node
Date: Mon Feb 06 15:24:36 GMT 2017
User: dcchb
Spectrometer: FLMS00149
Trigger mode: 0
Integration Time (sec): 2.000000E-2
Scans to average: 10
Electric dark correction enabled: true
Nonlinearity correction enabled: false
Boxcar width: 0
XAxis mode: Wavelengths
Number of Pixels in Spectrum: 2048
>>>>>Begin Spectral Data<<<<<
341.393	-31.98
341.776	-31.98
342.16	-31.98
342.543	-58.42
342.927	-74.24
343.31	-59.09
343.693	-82.6
344.077	-62.71
344.46	-64.74
344.843	-55.93
345.226	-47.8
345.61	-36.04
345.993	-9.38
346.376	4.86
346.759	1.69
347.142	37.85
347.525	41.69
347.908	67.91
348.291	65.65
348.674	91.86
349.057	106.78
349.44	118.53
349.823	147.91
350.206	159.88
350.588	188.58
350.971	225.19
351.354	227.23
351.737	235.36
352.119	241.46
352.502	265.42
352.884	273.55
353.267	269.71
353.65	268.81
354.032	294.34
354.414	295.02
354.797	316.49
355.179	297.05
355.562	328.24
355.944	312.42
356.326	359.88
356.709	330.5
357.091	310.84
357.473	338.86
357.855	327.11
358.238	337.05
358.62	312.87
359.002	308.58
359.384	333.89
359.766	320.33
360.148	332.76
360.53	334.34
360.912	330.5
361.294	335.92
361.676	312.42
362.057	308.35
362.439	334.34
362.821	312.65
363.203	327.34
363.584	317.62
363.966	301.12
364.348	300.44
364.729	323.04
365.111	303.61
365.493	317.84
365.874	304.74
366.256	299.31
366.637	283.72
367.019	293.89
367.4	294.12
367.781	299.54
368.163	301.12
368.544	283.04
368.925	272.42
369.306	303.38
369.688	305.87
370.069	315.58
370.45	297.73
370.831	315.58
371.212	311.52
371.593	300.9
371.974	304.96
372.355	305.19
372.736	332.31
373.117	313.1
373.498	306.09
373.879	301.12
374.26	301.57
374.641	309.26
375.021	293.44
375.402	298.64
375.783	300.67
376.163	311.74
376.544	336.6
376.925	317.84
377.305	325.75
377.686	314
378.066	318.3
378.447	317.84
378.827	330.5
379.208	329.6
379.588	344.74
379.968	320.33
380.349	321.46
380.729	333.44
381.109	331.4
381.489	329.37
381.87	351.52
382.25	352.42
382.63	316.04
383.01	337.51
383.39	336.15
383.77	347.22
384.15	326.66
384.53	326.88
384.91	332.08
385.29	338.86
385.67	343.83
386.049	351.52
386.429	341.57
386.809	327.79
387.189	328.24
387.568	352.42
387.948	351.29
388.328	348.58
388.707	358.75
389.087	348.8
389.466	349.48
389.846	363.04
390.225	351.97
390.605	358.97
390.984	339.99
391.363	367.79
391.743	360.1
392.122	348.35
392.501	358.75
392.881	358.97
393.26	353.55
393.639	363.27
394.018	349.03
394.397	347.45
394.776	372.76
395.155	379.31
395.534	371.18
395.913	355.58
396.292	384.51
396.671	359.2
397.05	363.72
397.429	373.44
397.808	365.53
398.186	378.86
398.565	377.73
398.944	387.67
399.323	369.14
399.701	388.13
400.08	385.19
400.458	396.03
400.837	389.48
401.215	397.39
401.594	399.65
401.972	408.92
402.351	379.09
402.729	406.43
403.107	408.46
403.486	408.92
403.864	412.31
404.242	411.18
404.62	405.53
404.999	410.95
405.377	426.99
405.755	392.87
406.133	426.09
406.511	417.73
406.889	405.07
407.267	417.5
407.645	423.15
408.023	442.36
408.401	401.91
408.779	447.56
409.156	448.69
409.534	436.94
409.912	414.34
410.29	449.14
410.667	435.36
411.045	449.14
411.422	434.23
411.8	459.99
412.178	450.5
412.555	453.66
412.933	441.23
413.31	452.76
413.687	478.52
414.065	478.97
414.442	472.42
414.819	482.36
415.197	497.95
415.574	482.13
415.951	479.87
416.328	487.78
416.705	493.21
417.082	488.46
417.46	481.68
417.837	481.91
418.214	495.92
418.591	482.13
418.967	494.11
419.344	488.91
419.721	507.44
420.098	509.48
420.475	507.9
420.852	518.74
421.228	517.16
421.605	539.08
421.982	532.3
422.358	511.74
422.735	526.2
423.111	556.93
423.488	537.27
423.864	528.91
424.241	542.02
424.617	554.22
424.994	568.23
425.37	547.67
425.746	553.32
426.123	550.38
426.499	590.83
426.875	544.51
427.251	588.8
427.627	580.89
428.003	586.99
428.379	579.31
428.756	577.5
429.132	589.7
429.507	620.89
429.883	582.47
430.259	618.18
430.635	608.23
431.011	638.74
431.387	626.99
431.763	631.51
432.138	638.06
432.514	641.68
432.89	645.07
433.265	656.59
433.641	647.33
434.016	657.95
434.392	687.1
434.767	680.77
435.143	692.07
435.518	671.96
435.894	701.79
436.269	709.47
436.644	712.18
437.02	700.21
437.395	684.16
437.77	717.16
438.145	742.01
438.52	713.54
438.895	719.87
439.271	725.97
439.646	758.06
440.021	731.85
440.395	749.02
440.77	748.57
441.145	761.45
441.52	776.82
441.895	759.87
442.27	763.48
442.645	765.74
443.019	789.92
443.394	794.67
443.769	791.96
444.143	801
444.518	828.57
444.892	785.86
445.267	815.01
445.641	808.91
446.016	844.16
446.39	850.71
446.764	824.72
447.139	856.36
447.513	864.72
447.887	832.18
448.262	843.93
448.636	837.38
449.01	874.89
449.384	837.15
449.758	883.25
450.132	892.07
450.506	898.17
450.88	867.43
451.254	915.8
451.628	908.34
452.002	890.26
452.376	932.52
452.75	932.74
453.123	959.64
453.497	939.98
453.871	966.87
454.244	950.82
454.618	968
454.992	998.73
455.365	1000.09
455.739	998.28
456.112	1032.85
456.486	1026.98
456.859	1025.62
457.232	1072.63
457.606	1046.19
457.979	1094.32
458.352	1051.61
458.725	1114.43
459.099	1094.55
459.472	1107.43
459.845	1124.6
460.218	1108.78
460.591	1163.25
460.964	1162.34
461.337	1183.36
461.71	1206.41
462.083	1187.88
462.456	1208.67
462.829	1246.41
463.201	1261.55
463.574	1263.13
463.947	1292.51
464.32	1313.52
464.692	1318.5
465.065	1351.94
465.438	1325.5
465.81	1345.61
466.183	1365.27
466.555	1406.18
466.928	1405.05
467.3	1417.02
467.672	1443.69
468.045	1493.41
468.417	1521.43
468.789	1525.5
469.161	1516.46
469.534	1560.52
469.906	1605.04
470.278	1600.52
470.65	1639.62
471.022	1664.7
471.394	1693.85
471.766	1723.91
472.138	1750.35
472.51	1782.89
472.882	1815.21
473.253	1857.69
473.625	1895.66
473.997	1938.37
474.369	1982.89
474.74	2020.4
475.112	2041.64
475.484	2106.72
475.855	2152.15
476.227	2205.7
476.598	2255.65
476.97	2293.16
477.341	2359.6
477.713	2409.54
478.084	2406.15
478.455	2546.26
478.827	2588.29
479.198	2655.64
479.569	2691.57
479.94	2791.9
480.311	2859.25
480.682	2962.52
481.053	2996.42
481.424	3072.12
481.795	3154.38
482.166	3233.02
482.537	3320.03
482.908	3429.4
483.279	3492.45
483.65	3595.72
484.021	3663.29
484.391	3757.08
484.762	3816.06
485.133	3947.35
485.503	4007.69
485.874	4114.36
486.244	4221.24
486.615	4345.54
486.985	4453.33
487.356	4531.75
487.726	4636.83
488.097	4799.99
488.467	4835.69
488.837	4985.74
489.207	5111.84
489.578	5238.17
489.948	5313.42
490.318	5436.35
490.688	5514.54
491.058	5632.96
491.428	5811.26
491.798	5869.11
492.168	6024.81
492.538	6141.87
492.908	6220.97
493.278	6427.97
493.648	6503.9
494.017	6611.69
494.387	6669.54
494.757	6820.72
495.126	6939.82
495.496	6990.44
495.866	7123.99
496.235	7293.25
496.605	7357.21
496.974	7441.5
497.344	7575.28
497.713	7662.28
498.082	7691.44
498.452	7904.31
498.821	7993.12
499.19	8031.77
499.559	8129.16
499.928	8274.25
500.298	8339.1
500.667	8442.38
501.036	8552.2
501.405	8597.18
501.774	8675.37
502.143	8798.07
502.512	8802.14
502.88	8921.69
503.249	9034.68
503.618	9095.24
503.987	9168.01
504.356	9268.8
504.724	9324.16
505.093	9449.36
505.462	9381.79
505.83	9572.52
506.199	9607.32
506.567	9680.08
506.936	9723.47
507.304	9843.24
507.672	9899.97
508.041	9953.98
508.409	10005.5
508.777	10180.86
509.145	10157.36
509.514	10182.22
509.882	10218.15
510.25	10350.8
510.618	10362.78
510.986	10407.75
511.354	10484.36
511.722	10636.67
512.09	10607.07
512.458	10580.85
512.826	10675.99
513.193	10731.58
513.561	10772.49
513.929	10835.08
514.297	10925.48
514.664	10960.5
515.032	10929.77
515.4	10998.47
515.767	11062.42
516.135	11147.62
516.502	11068.07
516.869	11206.6
517.237	11177.9
517.604	11136.32
517.972	11253.6
518.339	11327.5
518.706	11309.65
519.073	11339.02
519.44	11391.9
519.808	11474.84
520.175	11385.8
520.542	11508.96
520.909	11573.37
521.276	11476.42
521.643	11610.43
522.009	11590.54
522.376	11681.39
522.743	11731.56
523.11	11773.36
523.477	11819.92
523.843	11828.95
524.21	11929.52
524.577	12000.93
524.943	11933.58
525.31	11989.18
525.676	12028.95
526.043	12022.17
526.409	12084.99
526.776	12127.25
527.142	12132.9
527.508	12134.48
527.874	12172.45
528.241	12205.44
528.607	12227.36
528.973	12338.09
529.339	12217.19
529.705	12300.81
530.071	12313.24
530.437	12277.76
530.803	12306.91
531.169	12335.16
531.535	12229.4
531.901	12297.19
532.267	12255.61
532.632	12287.25
532.998	12280.92
533.364	12310.52
533.73	12271.65
534.095	12308.26
534.461	12312.78
534.826	12256.06
535.192	12258.1
535.557	12356.85
535.923	12345.33
536.288	12223.97
536.653	12248.83
537.019	12210.41
537.384	12230.98
537.749	12149.4
538.114	12295.61
538.479	12062.85
538.845	12126.35
539.21	12042.28
539.575	12076.86
539.94	12061.72
540.305	12067.37
540.67	12013.13
541.034	12142.84
541.399	11990.76
541.764	12034.15
542.129	11909.4
542.494	11943.98
542.858	11936.52
543.223	11898.78
543.587	11928.84
543.952	11908.05
544.316	11833.02
544.681	11785.34
545.045	11857.43
545.41	11766.58
545.774	11789.86
546.138	11743.08
546.503	11690.43
546.867	11660.15
547.231	11738.11
547.595	11617.66
547.959	11548.51
548.324	11595.29
548.688	11634.84
549.052	11530.66
549.416	11499.92
549.779	11540.15
550.143	11465.57
550.507	11533.37
550.871	11518.23
551.235	11407.72
551.599	11499.47
551.962	11421.51
552.326	11424.9
552.689	11405.01
553.053	11380.83
553.417	11388.51
553.78	11410.66
554.143	11340.15
554.507	11344.45
554.87	11305.35
555.234	11360.94
555.597	11264.68
555.96	11294.96
556.323	11243.43
556.686	11216.77
557.05	11296.09
557.413	11253.38
557.776	11255.86
558.139	11332.92
558.502	11301.28
558.865	11252.25
559.228	11245.24
559.59	11296.31
559.953	11276.43
560.316	11381.73
560.679	11235.75
561.041	11309.42
561.404	11349.87
561.767	11330.44
562.129	11289.99
562.492	11331.34
562.854	11332.92
563.217	11295.86
563.579	11293.83
563.941	11371.79
564.304	11386.71
564.666	11371.34
565.028	11400.94
565.39	11399.81
565.753	11446.59
566.115	11457.89
566.477	11450.89
566.839	11403.88
567.201	11530.43
567.563	11493.37
567.925	11535.63
568.287	11551.67
568.648	11501.96
569.01	11539.47
569.372	11606.59
569.734	11533.37
570.095	11648.39
570.457	11609.07
570.819	11654.5
571.18	11621.73
571.542	11684.1
571.903	11601.39
572.265	11689.52
572.626	11709.64
572.987	11734.49
573.349	11707.6
573.71	11749.86
574.071	11704.89
574.432	11814.27
574.794	11809.97
575.155	11813.14
575.516	11788.05
575.877	11776.98
576.238	11776.3
576.599	11817.43
576.96	11837.54
577.32	11826.69
577.681	11864.21
578.042	11943.53
578.403	11863.76
578.763	11794.83
579.124	11925.9
579.485	11899.24
579.845	11883.19
580.206	11803.42
580.566	11871.89
580.927	11924.77
581.287	11883.42
581.648	11851.78
582.008	11952.79
582.368	11855.85
582.728	11866.24
583.089	11880.48
583.449	11803.42
583.809	11834.6
584.169	11881.38
584.529	11802.06
584.889	11961.15
585.249	11815.4
585.609	11819.46
585.969	11838.9
586.329	11842.29
586.688	11789.63
587.048	11783.53
587.408	11736.75
587.768	11756.19
588.127	11832.34
588.487	11697.88
588.846	11777.2
589.206	11700.37
589.565	11725.45
589.925	11795.74
590.284	11718
590.643	11710.31
591.003	11764.55
591.362	11736.98
591.721	11706.7
592.08	11743.76
592.44	11756.41
592.799	11742.86
593.158	11664.67
593.517	11729.97
593.876	11727.71
594.235	11699.69
594.593	11614.5
594.952	11716.42
595.311	11662.18
595.67	11732.46
596.029	11751.89
596.387	11668.28
596.746	11695.17
597.104	11679.58
597.463	11624.89
597.822	11640.71
598.18	11556.19
598.538	11609.3
598.897	11661.95
599.255	11567.49
599.613	11766.36
599.972	11612.69
600.33	11703.99
600.688	11566.59
601.046	11686.36
601.404	11727.26
601.762	11641.84
602.12	11668.96
602.478	11668.51
602.836	11634.84
603.194	11651.11
603.552	11621.28
603.91	11607.94
604.268	11627.83
604.625	11617.43
604.983	11698.11
605.341	11627.6
605.698	11647.26
606.056	11688.17
606.413	11707.83
606.771	11714.83
607.128	11692.23
607.485	11620.15
607.843	11653.37
608.2	11718
608.557	11758.22
608.914	11691.78
609.272	11752.12
609.629	11740.37
609.986	11734.49
610.343	11767.26
610.7	11863.3
611.057	11870.08
611.414	11810.88
611.771	11787.83
612.127	11782.4
612.484	11835.73
612.841	11898.56
613.198	11895.39
613.554	11799.35
613.911	11862.63
614.267	11873.25
614.624	11885.9
614.98	11858.56
615.337	11869.86
615.693	11885.68
616.05	11956.18
616.406	11991.66
616.762	11926.35
617.118	11977.65
617.475	11945.56
617.831	11966.35
618.187	12012.9
618.543	11962.51
618.899	11992.79
619.255	11971.32
619.611	12054.26
619.967	12024.43
620.323	12015.39
620.678	12006.35
621.034	12025.33
621.39	11951.89
621.746	12012
622.101	12116.18
622.457	12069.4
622.812	12033.92
623.168	12092
623.523	12061.72
623.879	12081.38
624.234	11974.04
624.589	12057.88
624.945	11971.78
625.3	12031.21
625.655	12083.86
626.01	12083.64
626.365	12066.24
626.72	11993.02
627.075	12019.91
627.43	12024.43
627.785	12005
628.14	12025.11
628.495	11976.97
628.85	12016.75
629.205	11922.51
629.559	12015.62
629.914	11915.05
630.269	12003.19
630.623	12005.67
630.978	11910.31
631.332	12000.02
631.687	11970.19
632.041	11872.12
632.396	11906.24
632.75	11798.67
633.104	11844.32
633.459	11855.17
633.813	11805
634.167	11814.49
634.521	11792.57
634.875	11771.33
635.229	11795.96
635.583	11763.42
635.937	11678
636.291	11778.11
636.645	11702.18
636.999	11719.8
637.352	11640.48
637.706	11659.69
638.06	11598
638.413	11712.12
638.767	11554.16
639.121	11648.85
639.474	11643.65
639.828	11584.44
640.181	11620.15
640.534	11633.71
640.888	11561.39
641.241	11609.53
641.594	11565.68
641.947	11569.75
642.301	11535.18
642.654	11517.55
643.007	11555.29
643.36	11490.88
643.713	11487.27
644.066	11542.41
644.419	11486.36
644.771	11429.87
645.124	11277.56
645.477	11280.95
645.83	11215.64
646.182	11229.65
646.535	11114.85
646.888	11169.08
647.24	11111.69
647.593	11126.37
647.945	11110.33
648.298	11158.01
648.65	11058.58
649.002	11015.87
649.355	11056.09
649.707	11105.81
650.059	11109.88
650.411	11230.1
650.763	11208.63
651.115	11340.61
651.467	11333.83
651.819	11334.05
652.171	11369.98
652.523	11329.76
652.875	11326.59
653.227	11215.64
653.578	11402.07
653.93	11326.14
654.282	11259.93
654.633	11267.84
654.985	11253.38
655.337	11251.34
655.688	11306.26
656.039	11331.34
656.391	11126.83
656.742	11314.39
657.094	11271.68
657.445	11347.61
657.796	11253.83
658.147	11256.99
658.498	11217.45
658.849	11270.33
659.2	11279.36
659.551	11339.48
659.902	11324.34
660.253	11229.42
660.604	11312.81
660.955	11273.04
661.306	11314.84
661.656	11282.75
662.007	11271.46
662.358	11296.31
662.708	11340.15
663.059	11324.79
663.409	11311.68
663.76	11307.84
664.11	11334.96
664.461	11345.13
664.811	11319.82
665.161	11334.96
665.511	11316.2
665.862	11317.78
666.212	11320.72
666.562	11377.44
666.912	11240.04
667.262	11350.1
667.612	11329.08
667.962	11365.24
668.312	11308.97
668.662	11345.8
669.011	11318.91
669.361	11321.4
669.711	11266.71
670.06	11303.54
670.41	11289.99
670.76	11307.16
671.109	11389.87
671.459	11332.24
671.808	11214.73
672.157	11216.77
672.507	11224.68
672.856	11189.65
673.205	11241.63
673.554	11294.28
673.904	11198.91
674.253	11306.48
674.602	11282.75
674.951	11081.18
675.3	11054.06
675.649	11182.87
675.998	11159.82
676.346	11122.31
676.695	11152.36
677.044	11097.67
677.393	11130.44
677.741	11171.57
678.09	11141.97
678.438	11081.4
678.787	11119.59
679.135	11090.44
679.484	11003.21
679.832	11024.23
680.181	10996.66
680.529	11067.84
680.877	10988.52
681.225	10977.68
681.573	10944.01
681.922	10938.58
682.27	10924.12
682.618	10851.35
682.966	10908.3
683.314	10897.68
683.661	10829.88
684.009	10742.2
684.357	10804.35
684.705	10654.75
685.053	10761.19
685.4	10702.2
685.748	10690.68
686.095	10661.98
686.443	10631.92
686.79	10619.27
687.138	10576.78
687.485	10646.84
687.832	10518.25
688.18	10588.54
688.527	10485.94
688.874	10521.19
689.221	10404.59
689.568	10397.58
689.915	10430.57
690.262	10440.74
690.609	10298.83
690.956	10307.19
691.303	10296.79
691.65	10172.05
691.997	10263.8
692.344	10211.82
692.69	10181.77
693.037	10227.87
693.383	10088.44
693.73	10117.36
694.077	10017.02
694.423	10053.41
694.769	10042.33
695.116	9968.44
695.462	9874.2
695.808	9877.14
696.155	9862.68
696.501	9828.56
696.847	9895.67
697.193	9752.17
697.539	9774.32
697.885	9647.99
698.231	9644.15
698.577	9605.96
698.923	9659.97
699.269	9526.19
699.614	9495.68
699.96	9499.75
700.306	9551.05
700.651	9437.15
700.997	9368.68
701.342	9438.96
701.688	9399.64
702.033	9315.12
702.379	9337.04
702.724	9253.65
703.069	9262.24
703.415	9138.86
703.76	9170.72
704.105	9126.43
704.45	9151.28
704.795	9102.25
705.14	9030.61
705.485	9043.72
705.83	9042.81
706.175	9038.07
706.52	8948.58
706.865	8975.92
707.209	8949.71
707.554	8904.74
707.899	8877.39
708.243	8838.3
708.588	8787.45
708.932	8729.15
709.277	8665.42
709.621	8719.43
709.966	8670.17
710.31	8743.16
710.654	8648.25
710.998	8628.13
711.342	8627.23
711.687	8622.26
712.031	8530.06
712.375	8615.03
712.719	8576.38
713.063	8557.85
713.407	8531.41
713.75	8508.36
714.094	8474.47
714.438	8434.92
714.782	8466.33
715.125	8440.34
715.469	8448.48
715.812	8438.76
716.156	8342.04
716.499	8361.7
716.843	8386.79
717.186	8351.08
717.53	8369.61
717.873	8302.04
718.216	8314.47
718.559	8330.97
718.902	8220.91
719.246	8291.87
719.589	8220.69
719.932	8230.18
720.275	8180.69
720.617	8198.32
720.96	8184.98
721.303	8220.91
721.646	8171.2
721.989	8143.18
722.331	8137.53
722.674	8169.84
723.016	8174.14
723.359	8092.78
723.701	8149.05
724.044	8048.49
724.386	8054.82
724.729	8117.64
725.071	8094.36
725.413	8149.05
725.755	8088.71
726.097	8064.08
726.439	8060.01
726.782	8039.45
727.124	8009.17
727.465	8021.15
727.807	7996.51
728.149	7999.45
728.491	8001.94
728.833	8015.95
729.175	7978.43
729.516	8017.53
729.858	7992.22
730.199	7961.26
730.541	8016.17
730.882	7996.96
731.224	7939.11
731.565	7903.41
731.906	7946.8
732.248	7972.78
732.589	7980.92
732.93	7949.28
733.271	7949.06
733.612	7967.59
733.953	8011.43
734.294	7946.34
734.635	7985.89
734.976	7950.86
735.317	7928.27
735.658	7909.96
735.999	7927.59
736.339	7909.74
736.68	7947.93
737.021	7916.74
737.361	7898.21
737.702	7968.49
738.042	7916.52
738.383	7924.88
738.723	7986.12
739.063	7937.08
739.404	8003.74
739.744	7989.51
740.084	7900.02
740.424	7968.72
740.764	7978.21
741.104	8063.18
741.444	7978.66
741.784	7956.74
742.124	7997.64
742.464	8001.03
742.804	8040.35
743.143	8091.88
743.483	8085.78
743.823	8065.66
744.162	8102.27
744.502	8128.03
744.841	8095.27
745.181	8204.64
745.52	8145.44
745.86	8245.09
746.199	8248.71
746.538	8255.72
746.877	8329.39
747.216	8300.46
747.556	8322.38
747.895	8397.18
748.234	8427.69
748.573	8439.44
748.911	8496.84
749.25	8551.75
749.589	8518.08
749.928	8669.72
750.267	8744.97
750.605	8788.13
750.944	8812.54
751.283	8871.52
751.621	8929.82
751.96	9051.63
752.298	9038.07
752.636	9195.35
752.975	9247.78
753.313	9355.35
753.651	9407.32
753.989	9455.46
754.327	9570.03
754.666	9711.95
755.004	9772.06
755.342	9860.42
755.679	9920.3
756.017	10053.41
756.355	10183.35
756.693	10239.39
757.031	10414.53
757.368	10450.91
757.706	10634.41
758.044	10760.51
758.381	10883.67
758.719	11000.73
759.056	11167.28
759.394	11225.81
759.731	11355.75
760.068	11442.52
760.405	11581.05
760.743	11624.89
761.08	11816.07
761.417	11879.12
761.754	12034.37
762.091	12203.86
762.428	12376.74
762.765	12460.8
763.102	12597.07
763.438	12800.23
763.775	12847.23
764.112	12950.05
764.449	13185.53
764.785	13287.67
765.122	13317.05
765.458	13429.36
765.795	13563.6
766.131	13664.84
766.467	13920.42
766.804	13993.19
767.14	13974.89
767.476	14170.81
767.812	14307.76
768.148	14429.56
768.485	14425.04
768.821	14589.56
769.157	14624.14
769.492	14752.49
769.828	14913.85
770.164	14895.54
770.5	15000.17
770.836	15101.86
771.171	15166.49
771.507	15255.08
771.842	15232.71
772.178	15274.29
772.513	15415.07
772.849	15520.16
773.184	15574.39
773.519	15603.32
773.855	15598.8
774.19	15763.31
774.525	15712.47
774.86	15830.43
775.195	15871.11
775.53	15944.33
775.865	15892.58
776.2	15901.16
776.535	15880.83
776.87	15962.18
777.205	15968.05
777.539	16013.25
777.874	16083.08
778.209	16040.6
778.543	16103.19
778.878	16039.24
779.212	16136.64
779.547	16100.03
779.881	16235.84
780.215	16184.32
780.55	16191.55
780.884	16141.61
781.218	16231.78
781.552	16251.66
781.886	16148.39
782.22	16211.21
782.554	16189.97
782.888	16136.86
783.222	16062.97
783.556	16027.26
783.889	16116.3
784.223	16043.76
784.557	15975.51
784.89	16056.41
785.224	15969.41
785.557	16061.16
785.891	16053.7
786.224	15944.78
786.558	15899.36
786.891	15926.25
787.224	15855.74
787.557	15799.02
787.891	15908.85
788.224	15867.27
788.557	15812.8
788.89	15789.75
789.223	15897.32
789.556	15772.35
789.888	15686.03
790.221	15638.57
790.554	15623.88
790.887	15671.79
791.219	15678.34
791.552	15593.83
791.884	15563.55
792.217	15533.72
792.549	15514.28
792.882	15394.51
793.214	15456.66
793.546	15426.6
793.879	15304.34
794.211	15348.64
794.543	15341.4
794.875	15336.43
795.207	15286.94
795.539	15261.63
795.871	15247.62
796.203	15198.81
796.535	15092.15
796.867	15021.19
797.198	15135.08
797.53	15062.32
797.862	15001.3
798.193	14943.45
798.525	14919.27
798.856	14970.11
799.188	14815.54
799.519	14790.46
799.85	14738.93
800.182	14723.57
800.513	14721.08
800.844	14523.35
801.175	14669.56
801.506	14628.2
801.837	14483.8
802.168	14566.74
802.499	14553.4
802.83	14427.3
803.161	14374.88
803.491	14441.99
803.822	14293.75
804.153	14340.75
804.483	14216.01
804.814	14124.26
805.145	14161.32
805.475	14157.25
805.805	14139.4
806.136	14217.37
806.466	14138.72
806.796	14019.41
807.126	14006.07
807.457	13957.71
807.787	13937.37
808.117	13941.67
808.447	13870.03
808.777	13892.63
809.107	13828
809.436	13843.82
809.766	13833.42
810.096	13778.96
810.426	13701
810.755	13764.72
811.085	13700.54
811.414	13697.83
811.744	13613.99
812.073	13564.73
812.403	13595.91
812.732	13484.73
813.061	13536.93
813.39	13482.02
813.719	13397.5
814.049	13474.56
814.378	13385.52
814.707	13360.21
815.036	13182.59
815.365	13309.59
815.693	13176.49
816.022	13211.74
816.351	13193.89
816.68	13084.29
817.008	13113.21
817.337	12962.48
817.665	12985.76
817.994	13076.15
818.322	13070.96
818.651	12988.92
818.979	12996.83
819.307	13037.96
819.636	12920.9
819.964	12793.22
820.292	12930.39
820.62	12970.39
820.948	12853.79
821.276	12927.91
821.604	12898.3
821.932	12896.5
822.259	12914.8
822.587	12873.67
822.915	12808.82
823.243	12833.67
823.57	12839.32
823.898	12807.23
824.225	12855.59
824.553	12796.39
824.88	12875.93
825.207	12895.82
825.535	12842.49
825.862	12856.5
826.189	12872.54
826.516	12842.49
826.843	12904.63
827.17	12909.15
827.497	12915.71
827.824	12924.07
828.151	12952.31
828.478	12783.05
828.805	12933.11
829.131	12817.4
829.458	12879.1
829.785	12797.06
830.111	12840.23
830.438	12825.54
830.764	12888.14
831.09	12881.58
831.417	12818.31
831.743	12813.11
832.069	12830.28
832.395	12777.4
832.722	12777.4
833.048	12793.67
833.374	12829.15
833.7	12726.78
834.026	12759.55
834.351	12791.42
834.677	12773.79
835.003	12807.23
835.329	12717.97
835.654	12666.45
835.98	12698.31
836.306	12622.15
836.631	12615.83
836.956	12728.14
837.282	12614.47
837.607	12586.45
837.932	12540.8
838.258	12537.18
838.583	12491.76
838.908	12513.91
839.233	12525.43
839.558	12505.55
839.883	12437.53
840.208	12383.74
840.533	12524.53
840.858	12447.02
841.182	12396.62
841.507	12325.66
841.832	12288.38
842.156	12289.96
842.481	12316.17
842.805	12303.07
843.13	12193.92
843.454	12136.52
843.778	12171.32
844.103	12188.49
844.427	12085.9
844.751	12131.09
845.075	12134.03
845.399	12033.02
845.723	11978.56
846.047	11915.73
846.371	11935.39
846.695	11897.65
847.019	11833.25
847.343	11749.86
847.666	11694.04
847.99	11682.29
848.313	11615.63
848.637	11605.91
848.96	11528.17
849.284	11509.19
849.607	11422.86
849.931	11434.39
850.254	11328.18
850.577	11270.33
850.9	11247.27
851.223	11234.85
851.546	11191.91
851.869	11081.63
852.192	11176.32
852.515	11070.33
852.838	11018.13
853.161	11017.45
853.483	10965.47
853.806	10934.74
854.129	10889.77
854.451	10808.42
854.774	10767.29
855.096	10754.41
855.419	10708.31
855.741	10613.39
856.063	10607.07
856.385	10620.85
856.708	10575.88
857.03	10517.8
857.352	10531.36
857.674	10489.78
857.996	10451.59
858.318	10467.63
858.64	10382.21
858.961	10409.78
859.283	10367.3
859.605	10265.83
859.926	10308.54
860.248	10319.84
860.57	10226.96
860.891	10180.18
861.212	10158.04
861.534	10072.62
861.855	10087.98
862.176	10141.32
862.498	10098.83
862.819	10097.47
863.14	10018.15
863.461	10007.53
863.782	9980.19
864.103	9997.59
864.424	9933.19
864.745	10050.92
865.065	9925.28
865.386	9886.18
865.707	9947.65
866.027	9884.6
866.348	9849.12
866.668	9887.31
866.989	9830.59
867.309	9776.81
867.63	9808.89
867.95	9752.4
868.27	9752.85
868.59	9754.88
868.91	9732.96
869.23	9724.38
869.55	9662.46
869.87	9685.51
870.19	9596.7
870.51	9690.03
870.83	9726.41
871.15	9557.83
871.469	9663.14
871.789	9635.11
872.109	9599.18
872.428	9539.07
872.748	9556.47
873.067	9544.04
873.386	9559.86
873.706	9480.99
874.025	9531.61
874.344	9436.93
874.663	9479.64
874.982	9488.9
875.301	9412.52
875.62	9374.33
875.939	9422.01
876.258	9373.2
876.577	9321
876.896	9309.02
877.214	9310.15
877.533	9296.37
877.852	9348.12
878.17	9306.76
878.489	9293.88
878.807	9231.28
879.125	9191.74
879.444	9291.62
879.762	9175.24
880.08	9244.39
880.398	9119.65
880.716	9144.51
881.034	9075.58
881.352	9108.35
881.67	9146.31
881.988	9100.89
882.306	9095.69
882.624	9088.01
882.941	9056.82
883.259	9001.23
883.577	8962.82
883.894	8979.99
884.212	8887.56
884.529	8921.91
884.846	8979.76
885.164	8902.03
885.481	8845.08
885.798	8878.52
886.115	8812.54
886.432	8809.6
886.75	8803.27
887.067	8801.69
887.383	8714.01
887.7	8733.22
888.017	8750.62
888.334	8692.09
888.651	8603.05
888.967	8641.47
889.284	8593.56
889.6	8611.64
889.917	8522.37
890.233	8490.96
890.55	8505.88
890.866	8552.43
891.182	8490.74
891.498	8459.1
891.815	8478.53
892.131	8401.02
892.447	8338.65
892.763	8288.93
893.079	8312.89
893.395	8323.51
893.71	8257.52
894.026	8232.44
894.342	8220.01
894.657	8192.67
894.973	8130.29
895.289	8125.55
895.604	8097.3
895.92	8083.06
896.235	7987.47
896.55	8054.82
896.865	7976.4
897.181	7954.03
897.496	7954.93
897.811	7896.4
898.126	7935.27
898.441	7883.3
898.756	7890.08
899.071	7803.75
899.386	7806.46
899.7	7721.94
900.015	7743.41
900.33	7673.13
900.644	7652.79
900.959	7611.44
901.273	7590.65
901.588	7540.71
901.902	7468.62
902.216	7476.3
902.531	7449.18
902.845	7391.56
903.159	7390.65
903.473	7356.98
903.787	7378.68
904.101	7347.94
904.415	7336.64
904.729	7320.82
905.042	7236.08
905.356	7206.7
905.67	7199.7
905.984	7179.81
906.297	7163.99
906.611	7131.45
906.924	7078.8
907.237	7083.09
907.551	7071.79
907.864	6977.78
908.177	7009.65
908.491	6978.23
908.804	6928.52
909.117	6866.15
909.43	6859.59
909.743	6821.63
910.056	6794.96
910.368	6810.1
910.681	6733.95
910.994	6714.06
911.307	6701.63
911.619	6689.43
911.932	6703.21
912.244	6663.44
912.557	6657.34
912.869	6559.49
913.181	6548.64
913.494	6587.28
913.806	6480.39
914.118	6439.49
914.43	6427.74
914.742	6430.68
915.054	6357.46
915.366	6400.17
915.678	6400.62
915.99	6317.24
916.302	6275.2
916.613	6208.76
916.925	6285.15
917.236	6192.94
917.548	6169.67
917.859	6164.7
918.171	6133.06
918.482	6097.13
918.794	6105.49
919.105	6110.69
919.416	5945.04
919.727	6020.97
920.038	5976.68
920.349	5990.24
920.66	5945.04
920.971	5947.98
921.282	5903.01
921.593	5913.86
921.903	5840.41
922.214	5823.01
922.525	5815.55
922.835	5767.42
923.146	5776.68
923.456	5756.8
923.767	5733.97
924.077	5715.89
924.387	5656.91
924.697	5703.92
925.008	5598.61
925.318	5621.66
925.628	5609.68
925.938	5585.05
926.248	5502.79
926.558	5471.38
926.867	5521.32
927.177	5518.39
927.487	5430.25
927.796	5369.01
928.106	5379.63
928.416	5387.32
928.725	5397.71
929.034	5291.95
929.344	5319.3
929.653	5279.07
929.962	5244.27
930.271	5255.79
930.581	5268
930.89	5133.09
931.199	5189.36
931.508	5149.36
931.817	5130.37
932.125	5111.62
932.434	5108.68
932.743	5046.08
933.051	5098.06
933.36	5043.37
933.669	4990.49
933.977	4966.76
934.286	4943.49
934.594	4938.51
934.902	4911.4
935.21	4896.93
935.519	4871.4
935.827	4837.73
936.135	4839.76
936.443	4810.83
936.751	4821.23
937.059	4797.27
937.367	4792.3
937.674	4782.13
937.982	4693.1
938.29	4723.15
938.597	4727.9
938.905	4605.42
939.213	4629.37
939.52	4625.08
939.827	4620.33
940.135	4592.08
940.442	4571.07
940.749	4523.38
941.056	4541.24
941.363	4502.82
941.67	4506.66
941.977	4516.83
942.284	4441.13
942.591	4432.76
942.898	4431.63
943.205	4389.83
943.511	4387.34
943.818	4359.09
944.125	4331.98
944.431	4339.43
944.738	4312.77
945.044	4296.72
945.35	4275.03
945.657	4231.19
945.963	4233.67
946.269	4205.65
946.575	4215.82
946.881	4198.87
947.187	4157.29
947.493	4160.46
947.799	4134.69
948.105	4103.28
948.41	4095.6
948.716	4073.9
949.022	3991.42
949.327	4090.85
949.633	3997.75
949.938	4039.33
950.244	3994.58
950.549	3990.97
950.854	3964.08
951.16	3953.68
951.465	3911.87
951.77	3941.48
952.075	3873.46
952.38	3900.58
952.685	3887.92
952.99	3819.22
953.294	3824.42
953.599	3836.17
953.904	3819
954.209	3783.52
954.513	3734.48
954.818	3723.4
955.122	3750.52
955.426	3703.52
955.731	3660.13
956.035	3637.08
956.339	3679.56
956.643	3662.62
956.948	3639.11
957.252	3621.03
957.556	3649.73
957.86	3548.95
958.163	3604.76
958.467	3552.34
958.771	3521.38
959.075	3523.41
959.378	3534.94
959.682	3524.31
959.985	3504.2
960.289	3459.46
960.592	3450.87
960.896	3451.32
961.199	3431.66
961.502	3421.04
961.805	3426.69
962.108	3385.79
962.411	3357.09
962.714	3320.03
963.017	3325
963.32	3326.58
963.623	3322.96
963.926	3314.38
964.228	3263.3
964.531	3287.71
964.833	3283.87
965.136	3204.1
965.438	3217.43
965.741	3227.37
966.043	3202.29
966.345	3175.17
966.648	3181.95
966.95	3172.68
967.252	3139.92
967.554	3112.57
967.856	3121.39
968.158	3092.24
968.46	3073.03
968.761	3084.33
969.063	3065.8
969.365	3045.68
969.666	3054.95
969.968	3003.42
970.269	3013.37
970.571	2981.28
970.872	2971.11
971.174	3002.29
971.475	2958.23
971.776	2964.33
972.077	2918.91
972.378	2922.75
972.679	2934.05
972.98	2900.83
973.281	2892.24
973.582	2886.82
973.883	2813.82
974.183	2880.49
974.484	2822.64
974.785	2811.79
975.085	2821.73
975.386	2802.07
975.686	2822.64
975.986	2779.25
976.287	2750.1
976.587	2723.43
976.887	2758.01
977.187	2685.92
977.487	2713.26
977.787	2699.7
978.087	2682.75
978.387	2632.59
978.687	2654.96
978.987	2671.23
979.286	2626.26
979.586	2640.72
979.885	2644.11
980.185	2607.5
980.484	2612.93
980.784	2557.56
981.083	2591.91
981.382	2579.93
981.682	2592.36
981.981	2555.07
982.28	2553.49
982.579	2490.22
982.878	2526.37
983.177	2489.99
983.475	2491.57
983.774	2453.61
984.073	2433.5
984.372	2431.01
984.67	2448.18
984.969	2435.3
985.267	2444.57
985.566	2417.68
985.864	2407.51
986.162	2344.46
986.461	2388.52
986.759	2358.02
987.057	2324.57
987.355	2369.77
987.653	2336.32
987.951	2322.09
988.249	2316.21
988.547	2297.45
988.844	2293.39
989.142	2283.67
989.44	2242.77
989.737	2268.53
990.035	2261.52
990.332	2238.02
990.63	2215.87
990.927	2200.51
991.224	2205.48
991.521	2205.48
991.819	2186.95
992.116	2173.16
992.413	2185.37
992.71	2163.22
993.006	2124.35
993.303	2125.71
993.6	2102.43
993.897	2130.23
994.193	2121.41
994.49	2100.85
994.787	2106.27
995.083	2054.97
995.379	2098.59
995.676	2058.14
995.972	2074.86
996.268	2012.04
996.565	2037.35
996.861	2012.72
997.157	2007.74
997.453	2026.5
997.749	2003
998.044	1977.69
998.34	1952.38
998.636	1948.99
998.932	1937.69
999.227	1950.34
999.523	1941.98
999.818	1908.09
1000.114	1867.18
1000.409	1911.7
1000.704	1907.41
1001	1868.54
1001.295	1879.16
1001.59	1883.68
1001.885	1849.33
1002.18	1857.69
1002.475	1827.18
1002.77	1833.74
1003.065	1791.03
1003.359	1786.73
1003.654	1816.11
1003.949	1804.59
1004.243	1782.21
1004.538	1761.87
1004.832	1740.86
1005.127	1738.82
1005.421	1762.78
1005.715	1737.02
1006.009	1723.01
1006.304	1709.45
1006.598	1727.3
1006.892	1703.35
1007.186	1693.18
1007.48	1660.86
1007.773	1658.6
1008.067	1698.6
1008.361	1636.68
1008.655	1630.8
1008.948	1630.13
1009.242	1610.92
1009.535	1615.89
1009.829	1608.21
1010.122	1597.13
1010.415	1580.86
1010.708	1594.42
1011.001	1538.38
1011.295	1576.34
1011.588	1569.11
1011.881	1520.3
1012.173	1490.24
1012.466	1527.08
1012.759	1508.1
1013.052	1513.29
1013.344	1519.62
1013.637	1512.16
1013.93	1463.35
1014.222	1455.67
1014.514	1474.2
1014.807	1436.91
1015.099	1441.88
1015.391	1436.46
1015.683	1407.31
1015.976	1414.54
1016.268	1408.89
1016.56	1406.63
1016.851	1356.46
1017.143	1395.33
1017.435	1393.3
1017.727	1352.17
1018.018	1358.95
1018.31	1356.69
1018.602	1358.72
1018.893	1373.41
1019.185	1332.28
1019.476	1320.53
1019.767	1309.91
1020.058	1323.69
1020.35	1295.9
1020.641	1275.11
1020.932	1282.11
1021.223	1307.2
1021.514	1253.87
1021.804	1260.19
1022.095	1214.09
1022.386	1224.94
1022.677	1211.61
1022.967	1218.61
1023.258	1220.87
1023.548	1236.92
1023.839	1228.1
1024.129	1179.29
1024.419	1172.96
1024.709	1165.51
1025	1179.74
1025.29	1175.9
1025.58	1143.81
1025.87	1163.92
1026.16	1143.59
1026.449	1156.01
1026.739	1129.57
1027.029	1126.19
1027.319	1122.12
1027.608	1111.72
1027.898	1105.39
1028.187	1113.3
1028.477	1078.73
1028.766	1082.34
1029.055	1084.38
1029.344	1097.71
1029.634	1076.02
1029.923	1065.62
1030.212	1070.14
1030.501	1052.06
1030.79	1039.63
1031.078	1033.31
1031.367	1016.36
1031.656	1026.07
1031.945	995.12
1032.233	1020.43
1032.522	1003.93
1032.81	977.04
1033.099	983.36
1033.387	998.5
1033.675	978.84
1033.963	968.22
1034.251	976.58
1034.54	947.43
1034.828	951.73
1035.116	944.95
1035.403	934.1
1035.691	922.35
1035.979	929.58
1036.267	925.74
1036.554	920.54
1036.842	901.11
1037.129	895
1037.417	931.61
1037.704	915.57
1037.992	886.64
1038.279	863.37
1038.566	853.65
1038.853	853.65
1039.14	853.65
