Data from hue_120_FLMS001491_00070.txt Node
Date: Tue Feb 07 16:59:50 GMT 2017
User: dcchb
Spectrometer: FLMS00149
Trigger mode: 0
Integration Time (sec): 2.000000E-2
Scans to average: 10
Electric dark correction enabled: true
Nonlinearity correction enabled: false
Boxcar width: 0
XAxis mode: Wavelengths
Number of Pixels in Spectrum: 2048
>>>>>Begin Spectral Data<<<<<
341.393	1.34
341.776	1.34
342.16	1.34
342.543	-65.32
342.927	-72.1
343.31	-61.71
343.693	-63.29
344.077	-76.17
344.46	-74.59
344.843	-51.76
345.226	-40.24
345.61	-23.29
345.993	-33.23
346.376	-3.86
346.759	22.36
347.142	43.15
347.525	27.1
347.908	48.8
348.291	72.98
348.674	99.87
349.057	113.88
349.44	143.03
349.823	158.85
350.206	172.18
350.588	208.57
350.971	219.64
351.354	237.27
351.737	232.52
352.119	240.88
352.502	286.76
352.884	268.45
353.267	307.32
353.65	296.93
354.032	290.6
354.414	300.77
354.797	308.68
355.179	315.23
355.562	320.66
355.944	338.06
356.326	328.56
356.709	331.95
357.091	348.68
357.473	350.49
357.855	375.34
358.238	363.82
358.62	337.83
359.002	353.2
359.384	344.38
359.766	352.29
360.148	333.31
360.53	352.29
360.912	329.92
361.294	349.81
361.676	346.42
362.057	345.29
362.439	339.19
362.821	329.02
363.203	314.33
363.584	333.99
363.966	325.18
364.348	298.51
364.729	333.08
365.111	322.01
365.493	342.58
365.874	320.88
366.256	328.79
366.637	299.19
367.019	315.68
367.4	308.45
367.781	322.46
368.163	330.6
368.544	315.68
368.925	323.59
369.306	326.3
369.688	344.84
370.069	335.57
370.45	329.24
370.831	310.03
371.212	322.69
371.593	340.77
371.974	333.08
372.355	319.98
372.736	335.12
373.117	320.2
373.498	301.22
373.879	320.88
374.26	322.01
374.641	322.46
375.021	316.14
375.402	331.28
375.783	339.64
376.163	333.99
376.544	333.31
376.925	335.12
377.305	332.63
377.686	336.7
378.066	341.22
378.447	354.78
378.827	350.26
379.208	341.9
379.588	345.74
379.968	333.08
380.349	331.95
380.729	339.19
381.109	336.25
381.489	353.87
381.87	352.07
382.25	337.6
382.63	335.12
383.01	355.46
383.39	368.79
383.77	348.45
384.15	335.12
384.53	359.75
384.91	376.93
385.29	365.85
385.67	368.11
386.049	372.86
386.429	363.82
386.809	369.47
387.189	354.1
387.568	363.37
387.948	365.85
388.328	379.41
388.707	362.24
389.087	355.23
389.466	361.33
389.846	363.82
390.225	381.44
390.605	384.83
390.984	391.84
391.363	372.86
391.743	395.68
392.122	380.54
392.501	369.92
392.881	399.3
393.26	394.78
393.639	388.45
394.018	387.77
394.397	401.11
394.776	388.22
395.155	410.6
395.534	413.99
395.913	414.21
396.292	396.59
396.671	396.13
397.05	420.31
397.429	423.03
397.808	391.61
398.186	421.67
398.565	398.39
398.944	406.98
399.323	429.13
399.701	430.48
400.08	427.77
400.458	422.8
400.837	423.03
401.215	398.85
401.594	434.78
401.972	429.13
402.351	433.42
402.729	441.78
403.107	422.12
403.486	432.97
403.864	452.4
404.242	425.29
404.62	443.14
404.999	450.14
405.377	449.69
405.755	445.17
406.133	448.11
406.511	472.97
406.889	461.44
407.267	459.41
407.645	469.13
408.023	458.05
408.401	463.93
408.779	478.84
409.156	500.31
409.534	487.43
409.912	485.85
410.29	486.3
410.667	496.7
411.045	515.23
411.422	496.24
411.8	529.01
412.178	505.74
412.555	511.84
412.933	522.91
413.31	528.56
413.687	502.8
414.065	524.72
414.442	523.81
414.819	532.4
415.197	538.5
415.574	537.6
415.951	545.96
416.328	549.12
416.705	552.06
417.082	546.86
417.46	557.26
417.837	556.13
418.214	564.04
418.591	565.62
418.967	570.37
419.344	567.43
419.721	580.08
420.098	575.34
420.475	576.92
420.852	596.13
421.228	595.68
421.605	581.67
421.982	592.74
422.358	615.34
422.735	621.44
423.111	612.85
423.488	613.3
423.864	607.88
424.241	627.99
424.617	629.57
424.994	646.52
425.37	628.9
425.746	634.77
426.123	638.39
426.499	655.11
426.875	668.89
427.251	659.86
427.627	657.14
428.003	674.54
428.379	678.16
428.756	688.1
429.132	695.56
429.507	704.83
429.883	705.96
430.259	695.56
430.635	714.54
431.011	707.54
431.387	737.14
431.763	745.73
432.138	755.9
432.514	749.8
432.89	747.31
433.265	760.64
433.641	770.81
434.016	773.3
434.392	822.79
434.767	791.15
435.143	777.82
435.518	780.08
435.894	799.96
436.269	824.82
436.644	804.03
437.02	852.39
437.395	822.56
437.77	843.58
438.145	862.79
438.52	868.89
438.895	887.65
439.271	894.88
439.646	883.8
440.021	904.14
440.395	897.36
440.77	873.41
441.145	904.37
441.52	930.58
441.895	915.67
442.27	928.78
442.645	917.93
443.019	942.56
443.394	944.82
443.769	951.83
444.143	911.15
444.518	969.23
444.892	952.5
445.267	985.04
445.641	988.21
446.016	973.07
446.39	1014.87
446.764	992.95
447.139	992.95
447.513	994.54
447.887	1016.23
448.262	1026.85
448.636	998.38
449.01	1054.65
449.384	1057.59
449.758	1062.1
450.132	1057.59
450.506	1056.46
450.88	1058.72
451.254	1056.68
451.628	1061.2
452.002	1103.91
452.376	1099.62
452.75	1116.57
453.123	1140.75
453.497	1104.14
453.871	1168.99
454.244	1183.68
454.618	1175.32
454.992	1185.49
455.365	1208.77
455.739	1224.13
456.112	1242.44
456.486	1236.34
456.859	1232.04
457.232	1264.81
457.606	1278.82
457.979	1284.7
458.352	1331.02
458.725	1325.6
459.099	1324.24
459.472	1371.02
459.845	1409.67
460.218	1455.99
460.591	1386.84
460.964	1420.06
461.337	1466.61
461.71	1449.21
462.083	1494.86
462.456	1487.63
462.829	1498.7
463.201	1528.08
463.574	1557.01
463.947	1592.94
464.32	1619.6
464.692	1613.28
465.065	1608.08
465.438	1649.66
465.81	1694.63
466.183	1719.71
466.555	1769.88
466.928	1765.82
467.3	1790.67
467.672	1812.37
468.045	1869.99
468.417	1885.59
468.789	1877.68
469.161	1929.2
469.534	1960.16
469.906	1973.49
470.278	2032.47
470.65	2055.53
471.022	2089.87
471.394	2152.25
471.766	2164.9
472.138	2234.5
472.51	2273.37
472.882	2306.82
473.253	2368.74
473.625	2387.27
473.997	2472.46
474.369	2486.93
474.74	2542.07
475.112	2594.72
475.484	2651.44
475.855	2711.55
476.227	2800.36
476.598	2861.61
476.97	2874.49
477.341	2979.12
477.713	3102.96
478.084	3146.8
478.455	3212.56
478.827	3304.98
479.198	3413.68
479.569	3419.78
479.94	3572.55
480.311	3637.18
480.682	3761.47
481.053	3888.92
481.424	3971.18
481.795	4083.72
482.166	4181.12
482.537	4267.9
482.908	4361.45
483.279	4468.12
483.65	4589.92
484.021	4749.92
484.391	4837.15
484.762	4964.6
485.133	5082.34
485.503	5195.33
485.874	5341.99
486.244	5445.72
486.615	5634.19
486.985	5723
487.356	5894.07
487.726	6025.59
488.097	6220.16
488.467	6302.19
488.837	6485.47
489.207	6569.08
489.578	6778.79
489.948	6874.16
490.318	7108.95
490.688	7199.8
491.058	7329.96
491.428	7529.96
491.798	7606.57
492.168	7855.6
492.538	8014.69
492.908	8100.79
493.278	8304.4
493.648	8371.74
494.017	8588.91
494.387	8752.07
494.757	8878.17
495.126	9034.1
495.496	9137.15
495.866	9275.45
496.235	9422.34
496.605	9628.43
496.974	9721.31
497.344	9906.39
497.713	10003.34
498.082	10127.86
498.452	10260.96
498.821	10300.73
499.19	10463.89
499.559	10589.99
499.928	10805.35
500.298	10777.78
500.667	10967.83
501.036	10991.79
501.405	11170.99
501.774	11267.71
502.143	11394.26
502.512	11424.32
502.88	11636.74
503.249	11634.71
503.618	11783.4
503.987	11921.71
504.356	12023.4
504.724	12068.6
505.093	12179.1
505.462	12276.05
505.83	12367.57
506.199	12524.85
506.567	12697.51
506.936	12665.19
507.304	12866.99
507.672	12855.02
508.041	13003.49
508.409	13006.65
508.777	13106.76
509.145	13251.61
509.514	13228.79
509.882	13412.97
510.25	13379.07
510.618	13507.88
510.986	13550.82
511.354	13733.64
511.722	13741.55
512.09	13899.28
512.458	13811.37
512.826	13942.44
513.193	13927.3
513.561	14089.33
513.929	14179.95
514.297	14282.32
514.664	14310.57
515.032	14362.09
515.4	14426.95
515.767	14494.97
516.135	14556.89
516.502	14393.96
516.869	14637.12
517.237	14674.63
517.604	14594.86
517.972	14802.76
518.339	14900.61
518.706	14796.88
519.073	14898.8
519.44	14948.29
519.808	15146.93
520.175	15092.24
520.542	15179.93
520.909	15213.6
521.276	15193.48
521.643	15372.01
522.009	15334.72
522.376	15368.17
522.743	15438.22
523.11	15519.8
523.477	15564.1
523.843	15676.18
524.21	15688.84
524.577	15773.81
524.943	15713.92
525.31	15831.43
525.676	16097.19
526.043	15943.97
526.409	15978.55
526.776	16107.81
527.142	16074.14
527.508	16132.9
527.874	16166.34
528.241	16222.16
528.607	16202.05
528.973	16233.68
529.339	16286.79
529.705	16287.69
530.071	16360.91
530.437	16415.37
530.803	16386.45
531.169	16484.52
531.535	16407.24
531.901	16344.87
532.267	16364.98
532.632	16345.54
532.998	16372.44
533.364	16462.83
533.73	16428.48
534.095	16485.2
534.461	16443.4
534.826	16461.47
535.192	16419.67
535.557	16565.88
535.923	16395.49
536.288	16432.1
536.653	16474.81
537.019	16381.7
537.384	16323.4
537.749	16340.35
538.114	16387.8
538.479	16235.94
538.845	16444.3
539.21	16246.34
539.575	16239.78
539.94	16190.97
540.305	16237.75
540.67	16127.02
541.034	16204.53
541.399	16113.91
541.764	16112.1
542.129	16160.01
542.494	16151.65
542.858	16068.94
543.223	15940.58
543.587	16039.11
543.952	15987.59
544.316	15980.58
544.681	15934.03
545.045	15877.99
545.41	15932.22
545.774	15823.3
546.138	15879.34
546.503	15849.96
546.867	15749.85
547.231	15795.95
547.595	15738.33
547.959	15646.58
548.324	15679.35
548.688	15641.61
549.052	15667.14
549.416	15575.4
549.779	15594.83
550.143	15600.03
550.507	15572.46
550.871	15574.27
551.235	15454.49
551.599	15460.6
551.962	15567.26
552.326	15405.68
552.689	15516.87
553.053	15342.41
553.417	15348.96
553.78	15522.97
554.143	15313.26
554.507	15358
554.87	15369.07
555.234	15480.71
555.597	15313.71
555.96	15301.28
556.323	15222.41
556.686	15297.89
557.05	15417.89
557.413	15263.09
557.776	15236.2
558.139	15346.02
558.502	15293.6
558.865	15309.41
559.228	15373.37
559.59	15365.91
559.953	15294.05
560.316	15336.76
560.679	15341.5
561.041	15423.76
561.404	15362.75
561.767	15404.33
562.129	15333.37
562.492	15456.08
562.854	15404.33
563.217	15321.16
563.579	15358.9
563.941	15480.03
564.304	15412.01
564.666	15595.28
565.028	15471.9
565.39	15523.87
565.753	15542.63
566.115	15616.07
566.477	15567.49
566.839	15602.51
567.201	15701.72
567.563	15600.71
567.925	15695.17
568.287	15650.87
568.648	15674.83
569.01	15822.17
569.372	15801.15
569.734	15690.65
570.095	15742.17
570.457	15767.25
570.819	15767.03
571.18	15833.02
571.542	15851.55
571.903	15845.9
572.265	15833.47
572.626	15793.69
572.987	15817.2
573.349	15892
573.71	15902.84
574.071	15879.12
574.432	15948.04
574.794	16080.92
575.155	16012.67
575.516	16059.22
575.877	16094.25
576.238	16023.97
576.599	16038.66
576.96	16078.43
577.32	15967.93
577.681	16183.29
578.042	16154.82
578.403	16046.8
578.763	16157.53
579.124	16130.86
579.485	16112.56
579.845	16179.45
580.206	16109.62
580.566	16157.98
580.927	16114.36
581.287	16207.47
581.648	16044.76
582.008	16143.52
582.368	16017.87
582.728	16089.28
583.089	16034.82
583.449	16096.96
583.809	16084.08
584.169	16076.17
584.529	16099
584.889	16137.19
585.249	16111.43
585.609	15957.76
585.969	16111.88
586.329	16049.73
586.688	16074.82
587.048	16014.71
587.408	15942.62
587.768	16023.52
588.127	15944.2
588.487	15886.12
588.846	15977.19
589.206	15770.42
589.565	15984.2
589.925	16011.77
590.284	15995.05
590.643	15941.26
591.003	16008.6
591.362	15960.47
591.721	15964.76
592.08	15885.22
592.44	16019
592.799	15903.3
593.158	15919.34
593.517	15882.51
593.876	15867.37
594.235	15856.74
594.593	15841.6
594.952	15832.11
595.311	15791.89
595.67	15831.43
596.029	15928.83
596.387	15888.61
596.746	15875.73
597.104	15778.1
597.463	15803.64
597.822	15891.09
598.18	15854.26
598.538	15767.93
598.897	15901.71
599.255	15755.5
599.613	16022.39
599.972	15828.95
600.33	15860.81
600.688	15780.59
601.046	15914.6
601.404	15913.47
601.762	15911.43
602.12	15904.2
602.478	15859.46
602.836	15873.24
603.194	15754.15
603.552	15840.47
603.91	15852
604.268	15864.65
604.625	15762.06
604.983	15957.98
605.341	15815.39
605.698	15855.16
606.056	15810.64
606.413	15826.24
606.771	15877.53
607.128	15893.35
607.485	15831.66
607.843	15852.45
608.2	15957.76
608.557	16011.54
608.914	15939
609.272	16025.33
609.629	16096.29
609.986	16127.25
610.343	16024.42
610.7	16081.37
611.057	16076.63
611.414	16051.32
611.771	16028.72
612.127	16113.46
612.484	16125.21
612.841	16209.73
613.198	16044.99
613.554	16053.58
613.911	16165.21
614.267	16078.43
614.624	16151.88
614.98	16125.89
615.337	16240.24
615.693	16168.15
616.05	16127.47
616.406	16162.95
616.762	16113.91
617.118	16138.77
617.475	16148.71
617.831	16271.65
618.187	16312.1
618.543	16320.23
618.899	16384.41
619.255	16286.56
619.611	16305.55
619.967	16423.51
620.323	16375.6
620.678	16354.36
621.034	16327.24
621.39	16282.95
621.746	16308.71
622.101	16483.39
622.457	16301.03
622.812	16400.23
623.168	16351.42
623.523	16311.65
623.879	16422.15
624.234	16250.18
624.589	16425.54
624.945	16376.28
625.3	16384.64
625.655	16418.76
626.01	16308.71
626.365	16329.05
626.72	16392.32
627.075	16341.7
627.43	16332.21
627.785	16291.99
628.14	16283.17
628.495	16418.31
628.85	16351.42
629.205	16249.28
629.559	16406.56
629.914	16280.24
630.269	16296.73
630.623	16192.55
630.978	16251.54
631.332	16305.09
631.687	16289.73
632.041	16213.57
632.396	16268.71
632.75	16181.26
633.104	16094.03
633.459	16118.21
633.813	16056.06
634.167	16142.61
634.521	16036.63
634.875	15991.2
635.229	16045.44
635.583	16011.09
635.937	15995.95
636.291	15957.53
636.645	16023.97
636.999	16015.61
637.352	15899.91
637.706	15924.09
638.06	15919.79
638.413	15821.49
638.767	15839.57
639.121	15817.88
639.474	15791.89
639.828	15748.95
640.181	15813.36
640.534	15874.14
640.888	15711.21
641.241	15706.01
641.594	15700.59
641.947	15734.71
642.301	15762.74
642.654	15715.73
643.007	15705.56
643.36	15741.04
643.713	15666.92
644.066	15716.63
644.419	15580.59
644.771	15520.48
645.124	15370.43
645.477	15392.8
645.83	15331.79
646.182	15212.69
646.535	15122.98
646.888	15153.49
647.24	15096.09
647.593	15253.37
647.945	15145.58
648.298	15094.96
648.65	15016.09
649.002	14957.78
649.355	15088.63
649.707	15087.27
650.059	15150.77
650.411	15413.37
650.763	15342.41
651.115	15422.18
651.467	15390.54
651.819	15429.18
652.171	15406.81
652.523	15315.06
652.875	15349.41
653.227	15437.32
653.578	15498.79
653.93	15456.08
654.282	15390.09
654.633	15371.79
654.985	15409.98
655.337	15418.34
655.688	15410.65
656.039	15518.67
656.391	15364.33
656.742	15447.72
657.094	15344.89
657.445	15506.47
657.796	15459.69
658.147	15456.3
658.498	15391.22
658.849	15495.17
659.2	15464.89
659.551	15436.19
659.902	15477.77
660.253	15460.6
660.604	15464.44
660.955	15361.39
661.306	15426.02
661.656	15405.91
662.007	15395.29
662.358	15436.19
662.708	15494.95
663.059	15431.9
663.409	15358.9
663.76	15479.35
664.11	15398.9
664.461	15515.74
664.811	15505.11
665.161	15427.83
665.511	15423.31
665.862	15462.18
666.212	15445.23
666.562	15498.79
666.912	15468.73
667.262	15461.27
667.612	15464.89
667.962	15489.75
668.312	15442.29
668.662	15471.22
669.011	15483.87
669.361	15432.8
669.711	15368.4
670.06	15472.12
670.41	15362.97
670.76	15402.29
671.109	15484.1
671.459	15275.06
671.808	15384.67
672.157	15426.25
672.507	15263.09
672.856	15312.35
673.205	15399.81
673.554	15331.33
673.904	15237.55
674.253	15436.64
674.602	15216.76
674.951	15122.3
675.3	14979.25
675.649	15272.8
675.998	15252.24
676.346	15226.03
676.695	15341.73
677.044	15144.22
677.393	15164.33
677.741	15101.28
678.09	15192.35
678.438	15078.69
678.787	15178.8
679.135	15064.45
679.484	14962.98
679.832	15015.86
680.181	14988.97
680.529	14993.72
680.877	14986.26
681.225	14869.43
681.573	14937.9
681.922	14865.13
682.27	14889.09
682.618	14924.11
682.966	14800.27
683.314	14781.74
683.661	14808.64
684.009	14684.57
684.357	14716.89
684.705	14729.77
685.053	14707.85
685.4	14627.62
685.748	14581.3
686.095	14535.65
686.443	14526.16
686.79	14548.53
687.138	14469.89
687.485	14402.77
687.832	14381.75
688.18	14268.76
688.527	14348.54
688.874	14278.03
689.221	14212.04
689.568	14219.5
689.915	14165.04
690.262	14185.83
690.609	14093.17
690.956	14052.05
691.303	14014.98
691.65	14003.91
691.997	13926.85
692.344	13859.96
692.69	13853.18
693.037	13860.86
693.383	13709
693.73	13736.35
694.077	13702.68
694.423	13710.36
694.769	13655.67
695.116	13676.24
695.462	13557.82
695.808	13621.55
696.155	13585.84
696.501	13369.58
696.847	13460.87
697.193	13327.09
697.539	13401.89
697.885	13259.07
698.231	13218.62
698.577	13148.34
698.923	13193.54
699.269	13061.79
699.614	12974.33
699.96	12964.84
700.306	12955.13
700.651	12914.67
700.997	12886.2
701.342	12722.82
701.688	12698.64
702.033	12686.88
702.379	12670.39
702.724	12674
703.069	12658.18
703.415	12561.01
703.76	12468.13
704.105	12525.76
704.45	12448.47
704.795	12302.49
705.14	12274.01
705.485	12236.05
705.83	12249.83
706.175	12188.37
706.52	12196.05
706.865	12142.27
707.209	12067.69
707.554	12017.07
707.899	12091.65
708.243	11913.57
708.588	11923.06
708.932	11925.32
709.277	11916.28
709.621	11862.05
709.966	11754.03
710.31	11850.97
710.654	11743.86
710.998	11670.87
711.342	11695.5
711.687	11715.16
712.031	11628.38
712.375	11691.43
712.719	11610.3
713.063	11584.54
713.407	11678.77
713.75	11560.81
714.094	11586.57
714.438	11476.52
714.782	11522.62
715.125	11436.3
715.469	11485.11
715.812	11404.66
716.156	11289.86
716.499	11350.87
716.843	11327.37
717.186	11269.52
717.53	11365.34
717.873	11313.59
718.216	11299.12
718.559	11157.88
718.902	11126.7
719.246	11228.17
719.589	11187.71
719.932	11080.6
720.275	11136.64
720.617	11119.47
720.96	11110.43
721.303	11140.94
721.646	11108.39
721.989	11022.97
722.331	11030.66
722.674	11024.78
723.016	11022.29
723.359	11099.13
723.701	11074.27
724.044	11014.16
724.386	10911.56
724.729	11071.11
725.071	10965.35
725.413	11007.15
725.755	10949.3
726.097	10905.24
726.439	10850.32
726.782	10885.8
727.124	10892.13
727.465	10800.83
727.807	10819.14
728.149	10876.76
728.491	10900.26
728.833	10875.18
729.175	10824.56
729.516	10764
729.858	10849.19
730.199	10826.14
730.541	10824.11
730.882	10778.01
731.224	10837.22
731.565	10742.98
731.906	10789.98
732.248	10805.35
732.589	10729.87
732.93	10738.23
733.271	10724.68
733.612	10739.82
733.953	10775.97
734.294	10729.65
734.635	10695.52
734.976	10698.46
735.317	10690.33
735.658	10650.33
735.999	10717.22
736.339	10693.72
736.68	10691.23
737.021	10689.87
737.361	10702.08
737.702	10801.51
738.042	10726.71
738.383	10721.51
738.723	10745.47
739.063	10827.72
739.404	10872.92
739.744	10759.03
740.084	10753.83
740.424	10804.22
740.764	10709.76
741.104	10785.01
741.444	10805.13
741.784	10810.32
742.124	10869.53
742.464	10853.03
742.804	10887.61
743.143	10880.83
743.483	10932.58
743.823	10839.47
744.162	10895.52
744.502	10913.15
744.841	11020.26
745.181	11015.52
745.52	11057.32
745.86	11057.55
746.199	11097.77
746.538	11181.61
746.877	11290.76
747.216	11257.32
747.556	11363.75
747.895	11352.68
748.234	11317.88
748.573	11497.76
748.911	11469.74
749.25	11526.91
749.589	11573.69
749.928	11686.23
750.267	11801.94
750.605	11829.96
750.944	11914.93
751.283	11981.14
751.621	12151.53
751.96	12106.56
752.298	12223.62
752.636	12352.2
752.975	12471.75
753.313	12448.02
753.651	12658.86
753.989	12722.59
754.327	12834.68
754.666	12969.36
755.004	13048.46
755.342	13227.89
755.679	13396.47
756.017	13440.54
756.355	13642.79
756.693	13717.59
757.031	13937.02
757.368	14042.78
757.706	14191.7
758.044	14323
758.381	14460.4
758.719	14637.79
759.056	14775.64
759.394	14938.58
759.731	15041.4
760.068	15239.59
760.405	15343.09
760.743	15496.08
761.08	15730.19
761.417	15889.51
761.754	16060.58
762.091	16189.62
762.428	16440.46
762.765	16457.18
763.102	16760.45
763.438	16819.43
763.775	17013.55
764.112	17194.56
764.449	17365.4
764.785	17572.63
765.122	17533.31
765.458	17766.52
765.795	17855.56
766.131	18011.49
766.467	18191.6
766.804	18264.59
767.14	18406.96
767.476	18676.56
767.812	18610.34
768.148	18960.62
768.485	18991.58
768.821	18992.25
769.157	19153.61
769.492	19291.23
769.828	19496.2
770.164	19322.42
770.5	19501.62
770.836	19633.37
771.171	19562.64
771.507	19848.96
771.842	19756.53
772.178	19891.21
772.513	19914.94
772.849	20098.89
773.184	20092.79
773.519	20236.52
773.855	20164.88
774.19	20305.21
774.525	20407.36
774.86	20461.14
775.195	20514.93
775.53	20505.89
775.865	20493.68
776.2	20476.06
776.535	20479.22
776.87	20495.04
777.205	20629.73
777.539	20571.2
777.874	20781.36
778.209	20704.07
778.543	20709.05
778.878	20582.04
779.212	20725.32
779.547	20657.75
779.881	20811.87
780.215	20621.36
780.55	20810.96
780.884	20735.26
781.218	20728.71
781.552	20868.36
781.886	20779.33
782.22	20698.65
782.554	20699.78
782.888	20538.43
783.222	20563.29
783.556	20575.04
783.889	20481.03
784.223	20492.33
784.557	20523.51
784.89	20584.76
785.224	20506.11
785.557	20421.6
785.891	20389.73
786.224	20308.83
786.558	20439
786.891	20239.91
787.224	20240.81
787.557	20203.97
787.891	20171.88
788.224	20219.12
788.557	20163.52
788.89	20173.69
789.223	20297.76
789.556	20054.6
789.888	19941.38
790.221	19976.18
790.554	19874.72
790.887	19895.28
791.219	19897.54
791.552	19842.4
791.884	19649.86
792.217	19747.72
792.549	19580.94
792.882	19631.56
793.214	19504.56
793.546	19565.57
793.879	19556.08
794.211	19383.88
794.543	19508.17
794.875	19435.63
795.207	19452.58
795.539	19402.64
795.871	19358.57
796.203	19204.68
796.535	19092.59
796.867	19170.33
797.198	19115.19
797.53	19087.85
797.862	18964.68
798.193	18992.71
798.525	18942.99
798.856	19028.19
799.188	18875.65
799.519	18816.67
799.85	18642.66
800.182	18691.02
800.513	18755.42
800.844	18556.56
801.175	18657.8
801.506	18625.71
801.837	18482.44
802.168	18435.66
802.499	18482.44
802.83	18331.71
803.161	18300.97
803.491	18346.17
803.822	18313.4
804.153	18268.88
804.483	18143.46
804.814	18052.84
805.145	18026.86
805.475	17974.88
805.805	18001.32
806.136	17949.34
806.466	17955.9
806.796	17891.04
807.126	17761.55
807.457	17763.13
807.787	17762.23
808.117	17642.91
808.447	17606.75
808.777	17592.07
809.107	17527.43
809.436	17396.14
809.766	17509.36
810.096	17357.27
810.426	17329.47
810.755	17413.31
811.085	17312.53
811.414	17284.73
811.744	17139.87
812.073	17141.68
812.403	17200.89
812.732	17065.98
813.061	17062.36
813.39	17029.59
813.719	17060.1
814.049	17164.96
814.378	17052.19
814.707	16884.51
815.036	16869.37
815.365	16800.45
815.693	16690.85
816.022	16778.75
816.351	16620.11
816.68	16624.86
817.008	16679.1
817.337	16500.34
817.665	16434.36
817.994	16511.19
818.322	16507.35
818.651	16343.28
818.979	16373.11
819.307	16456.73
819.636	16451.53
819.964	16292.44
820.292	16319.1
820.62	16335.15
820.948	16300.35
821.276	16285.43
821.604	16207.7
821.932	16267.58
822.259	16256.96
822.587	16291.31
822.915	16221.03
823.243	16241.82
823.57	16205.44
823.898	16306.68
824.225	16145.55
824.553	16245.21
824.88	16202.95
825.207	16300.12
825.535	16193.46
825.862	16226
826.189	16123.4
826.516	16256.51
826.843	16343.06
827.17	16267.13
827.497	16314.13
827.824	16329.5
828.151	16383.74
828.478	16294.25
828.805	16320.23
829.131	16312.33
829.458	16199.56
829.785	16260.58
830.111	16222.16
830.438	16330.86
830.764	16265.09
831.09	16306
831.417	16166.11
831.743	16330.63
832.069	16267.13
832.395	16227.13
832.722	16188.03
833.048	16097.87
833.374	16156.17
833.7	16125.21
834.026	16199.56
834.351	16125.44
834.677	16129.28
835.003	16123.18
835.329	16127.7
835.654	16110.07
835.98	15938.1
836.306	15952.33
836.631	15929.06
836.956	15958.21
837.282	16073.24
837.607	15984.2
837.932	15884.99
838.258	15882.96
838.583	15881.15
838.908	15804.54
839.233	15836.63
839.558	15764.77
839.883	15706.24
840.208	15714.37
840.533	15746.24
840.858	15704.21
841.182	15637.77
841.507	15651.78
841.832	15517.54
842.156	15571.78
842.481	15509.86
842.805	15468.96
843.13	15498.34
843.454	15460.14
843.778	15393.03
844.103	15318
844.427	15309.87
844.751	15308.74
845.075	15278.45
845.399	15158.23
845.723	15217.44
846.047	15231
846.371	15035.97
846.695	15056.77
847.019	14967.73
847.343	14832.14
847.666	14727.51
847.99	14739.03
848.313	14764.34
848.637	14611.35
848.96	14620.39
849.284	14581.52
849.607	14492.03
849.931	14453.39
850.254	14358.03
850.577	14233.06
850.9	14184.7
851.223	14205.49
851.546	14100.41
851.869	13978.38
852.192	14039.39
852.515	13959.39
852.838	13930.24
853.161	13944.7
853.483	13770.47
853.806	13801.2
854.129	13700.42
854.451	13713.75
854.774	13657.48
855.096	13604.37
855.419	13569.57
855.741	13511.27
856.063	13519.63
856.385	13379.52
856.708	13410.03
857.03	13279.64
857.352	13267.43
857.674	13273.08
857.996	13213.65
858.318	13083.94
858.64	13133.2
858.961	13202.8
859.283	13054.56
859.605	13025.41
859.926	12987.22
860.248	12979.98
860.57	12888.01
860.891	12895.47
861.212	12875.58
861.534	12844.85
861.855	12792.64
862.176	12730.5
862.498	12746.09
862.819	12734.57
863.14	12681.69
863.461	12622.93
863.782	12648.92
864.103	12624.06
864.424	12599.2
864.745	12520.11
865.065	12580.22
865.386	12513.33
865.707	12509.94
866.027	12448.7
866.348	12452.31
866.668	12434.01
866.989	12418.42
867.309	12333.9
867.63	12357.85
867.95	12335.71
868.27	12327.12
868.59	12374.35
868.91	12222.04
869.23	12300
869.55	12208.03
869.87	12230.62
870.19	12257.97
870.51	12278.53
870.83	12237.86
871.15	12193.56
871.469	12168.25
871.789	12122.83
872.109	12115.6
872.428	12031.99
872.748	12053
873.067	12051.42
873.386	12046.9
873.706	12012.1
874.025	11973.23
874.344	11912.67
874.663	11964.87
874.982	11928.03
875.301	11940.24
875.62	11897.98
875.939	11844.19
876.258	11772.11
876.577	11846.68
876.896	11832.67
877.214	11726.01
877.533	11678.1
877.852	11727.81
878.17	11742.5
878.489	11726.91
878.807	11720.36
879.125	11713.12
879.444	11641.26
879.762	11656.63
880.08	11634.71
880.398	11637.42
880.716	11594.71
881.034	11474.26
881.352	11441.27
881.67	11484.43
881.988	11464.77
882.306	11462.06
882.624	11384.77
882.941	11323.98
883.259	11380.25
883.577	11325.79
883.894	11211.44
884.212	11309.74
884.529	11196.75
884.846	11230.65
885.164	11144.55
885.481	11113.14
885.798	11197.43
886.115	11129.86
886.432	11154.49
886.75	11085.12
887.067	11074.5
887.383	11063.2
887.7	11011.9
888.017	10961.28
888.334	11008.28
888.651	10914.73
888.967	10926.03
889.284	10880.38
889.6	10870.66
889.917	10753.6
890.233	10799.93
890.55	10660.04
890.866	10727.16
891.182	10702.76
891.498	10598.58
891.815	10621.18
892.131	10589.09
892.447	10551.35
892.763	10484.23
893.079	10495.53
893.395	10397.9
893.71	10466.6
894.026	10333.27
894.342	10439.71
894.657	10287.4
894.973	10353.16
895.289	10254.63
895.604	10208.76
895.92	10135.99
896.235	10075.88
896.55	10141.64
896.865	10059.38
897.181	9988.2
897.496	10039.27
897.811	10013.28
898.126	9909.1
898.441	9967.86
898.756	9935.54
899.071	9816.68
899.386	9792.72
899.7	9701.65
900.015	9660.97
900.33	9634.08
900.644	9668.66
900.959	9638.83
901.273	9655.78
901.588	9592.05
901.902	9497.36
902.216	9468.21
902.531	9436.35
902.845	9417.59
903.159	9392.73
903.473	9324.94
903.787	9272.96
904.101	9236.13
904.415	9254.43
904.729	9196.35
905.042	9195.9
905.356	9089.69
905.67	9069.35
905.984	9080.88
906.297	9065.51
906.611	8977.83
906.924	8969.69
907.237	8938.73
907.551	8876.81
907.864	8815.35
908.177	8813.54
908.491	8790.26
908.804	8755.69
909.117	8708.23
909.43	8688.12
909.743	8673.2
910.056	8582.59
910.368	8597.27
910.681	8545.98
910.994	8535.35
911.307	8431.18
911.619	8387.56
911.932	8408.13
912.244	8339.65
912.557	8372.42
912.869	8278.19
913.181	8246.55
913.494	8228.92
913.806	8185.76
914.118	8206.78
914.43	8110.06
914.742	8087.46
915.054	8050.62
915.366	8016.05
915.678	7981.02
915.99	7962.04
916.302	7894.24
916.613	7881.36
916.925	7867.12
917.236	7835.03
917.548	7780.12
917.859	7784.19
918.171	7732.66
918.482	7614.7
918.794	7654.93
919.105	7650.86
919.416	7569.96
919.727	7605.21
920.038	7520.01
920.349	7462.39
920.66	7496.29
920.971	7468.94
921.282	7431.88
921.593	7453.35
921.903	7342.62
922.214	7288.16
922.525	7371.09
922.835	7275.95
923.146	7259.46
923.456	7230.53
923.767	7102.85
924.077	7154.37
924.387	7100.59
924.697	7061.04
925.008	7028.95
925.318	7011.55
925.628	7006.13
925.938	6977.2
926.248	6928.84
926.558	6900.37
926.867	6863.99
927.177	6916.19
927.487	6844.78
927.796	6750.32
928.106	6739.24
928.416	6720.04
928.725	6746.02
929.034	6661.73
929.344	6631
929.653	6628.51
929.962	6561.17
930.271	6568.63
930.581	6532.47
930.89	6513.71
931.199	6477.56
931.508	6483.88
931.817	6415.64
932.125	6452.02
932.434	6410.21
932.743	6279.59
933.051	6357.11
933.36	6300.61
933.669	6229.43
933.977	6225.58
934.286	6212.48
934.594	6196.43
934.902	6114.18
935.21	6126.15
935.519	6100.16
935.827	6142.65
936.135	5977
936.443	6001.86
936.751	5990.79
937.059	5977.91
937.367	6004.8
937.674	5923.22
937.982	5909.89
938.29	5860.62
938.597	5903.33
938.905	5824.92
939.213	5787.63
939.52	5778.14
939.827	5765.94
940.135	5753.96
940.442	5762.77
940.749	5681.42
941.056	5694.98
941.363	5598.26
941.67	5621.98
941.977	5596.9
942.284	5565.26
942.591	5563
942.898	5536.79
943.205	5521.2
943.511	5465.38
943.818	5455.44
944.125	5419.5
944.431	5410.01
944.738	5319.17
945.044	5384.48
945.35	5290.02
945.657	5276.01
945.963	5324.14
946.269	5229.9
946.575	5222.45
946.881	5223.8
947.187	5151.71
947.493	5146.74
947.799	5137.48
948.105	5098.38
948.41	5105.84
948.716	5053.64
949.022	5087.99
949.327	5039.85
949.633	5030.59
949.938	5015.9
950.244	4992.62
950.549	4927.99
950.854	4960.99
951.16	4896.58
951.465	4920.08
951.77	4901.55
952.075	4869.01
952.38	4829.24
952.685	4827.43
952.99	4765.28
953.294	4721.22
953.599	4705.17
953.904	4749.92
954.209	4718.96
954.513	4739.07
954.818	4707.88
955.122	4652.52
955.426	4631.28
955.731	4605.29
956.035	4557.83
956.339	4556.02
956.643	4570.26
956.948	4523.26
957.252	4496.36
957.556	4468.57
957.86	4492.52
958.163	4430.15
958.467	4404.84
958.771	4401.9
959.075	4401.9
959.378	4396.48
959.682	4351.51
959.985	4368.46
960.289	4307.22
960.592	4296.14
960.896	4293.43
961.199	4281.23
961.502	4246.88
961.805	4249.14
962.108	4180.67
962.411	4208.46
962.714	4177.05
963.017	4149.93
963.32	4159.88
963.623	4114.23
963.926	4097.28
964.228	3992.88
964.531	4070.16
964.833	4074.91
965.136	4041.69
965.438	4040.11
965.741	4026.09
966.043	3949.71
966.345	3977.73
966.648	3967.11
966.95	3937.06
967.252	3891.86
967.554	3856.83
967.856	3881.01
968.158	3828.81
968.46	3831.07
968.761	3787
969.063	3790.39
969.365	3757.63
969.666	3787.23
969.968	3771.19
970.269	3726.67
970.571	3744.97
970.872	3721.92
971.174	3665.43
971.475	3656.39
971.776	3648.93
972.077	3627.46
972.378	3627.69
972.679	3596.28
972.98	3596.05
973.281	3577.74
973.582	3585.65
973.883	3531.42
974.183	3535.94
974.484	3518.31
974.785	3496.39
975.085	3500.23
975.386	3509.27
975.686	3437.41
975.986	3394.7
976.287	3429.5
976.587	3367.58
976.887	3370.29
977.187	3411.42
977.487	3395.38
977.787	3330.52
978.087	3336.62
978.387	3277.19
978.687	3274.7
978.987	3307.02
979.286	3297.07
979.586	3225.21
979.885	3230.64
980.185	3214.82
980.484	3210.52
980.784	3192.67
981.083	3135.95
981.382	3161.03
981.682	3150.41
981.981	3167.13
982.28	3132.11
982.579	3063.41
982.878	3111.77
983.177	3083.29
983.475	3036.97
983.774	3042.84
984.073	3058.89
984.372	3014.37
984.67	3008.72
984.969	3017.76
985.267	2990.64
985.566	2978.44
985.864	2923.07
986.162	2958.55
986.461	2947.48
986.759	2925.33
987.057	2871.77
987.355	2877.42
987.653	2858.22
987.951	2897.54
988.249	2869.51
988.547	2849.4
988.844	2833.13
989.142	2808.5
989.44	2795.84
989.737	2765.79
990.035	2742.51
990.332	2722.17
990.63	2745
990.927	2710.65
991.224	2716.3
991.521	2741.83
991.819	2717.2
992.116	2688.05
992.413	2705.45
992.71	2631.1
993.006	2652.57
993.303	2651.44
993.6	2638.79
993.897	2594.95
994.193	2606.02
994.49	2588.62
994.787	2589.75
995.083	2571.22
995.379	2532.8
995.676	2531.22
995.972	2542.29
996.268	2489.64
996.565	2518.11
996.861	2488.73
997.157	2485.57
997.453	2465.91
997.749	2407.83
998.044	2463.88
998.34	2403.09
998.636	2426.59
998.932	2366.48
999.227	2371.9
999.523	2379.58
999.818	2347.04
1000.114	2372.58
1000.409	2325.35
1000.704	2304.11
1001	2305.69
1001.295	2271.56
1001.59	2273.6
1001.885	2260.27
1002.18	2226.82
1002.475	2243.77
1002.77	2239.93
1003.065	2205.35
1003.359	2215.97
1003.654	2212.58
1003.949	2207.39
1004.243	2214.39
1004.538	2159.7
1004.832	2180.04
1005.127	2160.38
1005.421	2095.3
1005.715	2088.74
1006.009	2106.82
1006.304	2072.02
1006.598	2088.07
1006.892	2082.87
1007.186	2064.79
1007.48	2024.57
1007.773	1980.72
1008.067	2009.42
1008.361	2022.08
1008.655	2003.32
1008.948	1954.51
1009.242	1983.44
1009.535	1960.16
1009.829	1953.83
1010.122	1928.52
1010.415	1926.71
1010.708	1909.99
1011.001	1876.32
1011.295	1890.56
1011.588	1890.56
1011.881	1854.4
1012.173	1873.61
1012.466	1868.41
1012.759	1826.38
1013.052	1837.23
1013.344	1790
1013.637	1799.03
1013.93	1787.96
1014.222	1763.33
1014.514	1774.4
1014.807	1781.18
1015.099	1757
1015.391	1761.3
1015.683	1737.34
1015.976	1717.91
1016.268	1692.6
1016.56	1707.96
1016.851	1696.44
1017.143	1658.93
1017.435	1702.09
1017.727	1644.91
1018.018	1623.67
1018.31	1625.25
1018.602	1632.03
1018.893	1592.94
1019.185	1616.44
1019.476	1608.98
1019.767	1586.84
1020.058	1598.14
1020.35	1553.17
1020.641	1535.09
1020.932	1573.28
1021.223	1548.65
1021.514	1528.76
1021.804	1506.16
1022.095	1504.35
1022.386	1485.6
1022.677	1492.15
1022.967	1432.94
1023.258	1446.73
1023.548	1461.64
1023.839	1431.59
1024.129	1450.57
1024.419	1447.41
1024.709	1402.21
1025	1398.82
1025.29	1390.01
1025.58	1394.3
1025.87	1383.23
1026.16	1378.48
1026.449	1365.37
1026.739	1354.53
1027.029	1336.9
1027.319	1330.35
1027.608	1310.91
1027.898	1321.76
1028.187	1319.27
1028.477	1303.23
1028.766	1308.88
1029.055	1284.25
1029.344	1273.4
1029.634	1261.2
1029.923	1259.16
1030.212	1257.13
1030.501	1251.48
1030.79	1225.72
1031.078	1222.78
1031.367	1208.99
1031.656	1218.71
1031.945	1182.33
1032.233	1201.76
1032.522	1177.81
1032.81	1183.01
1033.099	1184.14
1033.387	1164.02
1033.675	1152.05
1033.963	1166.51
1034.251	1144.36
1034.54	1117.7
1034.828	1124.7
1035.116	1091.48
1035.403	1090.58
1035.691	1095.78
1035.979	1112.72
1036.267	1109.11
1036.554	1079.05
1036.842	1062.56
1037.129	1076.34
1037.417	1053.29
1037.704	1006.29
1037.992	1049
1038.279	1029.56
1038.566	1052.39
1038.853	1052.39
1039.14	1052.39
