Data from hue_150_FLMS001491_00049.txt Node
Date: Tue Feb 07 16:54:06 GMT 2017
User: dcchb
Spectrometer: FLMS00149
Trigger mode: 0
Integration Time (sec): 2.000000E-2
Scans to average: 10
Electric dark correction enabled: true
Nonlinearity correction enabled: false
Boxcar width: 0
XAxis mode: Wavelengths
Number of Pixels in Spectrum: 2048
>>>>>Begin Spectral Data<<<<<
341.393	-23.54
341.776	-23.54
342.16	-23.54
342.543	-48.63
342.927	-65.8
343.31	-84.56
343.693	-81.62
344.077	-63.32
344.46	-65.58
344.843	-40.49
345.226	-51.57
345.61	-45.46
345.993	-14.51
346.376	9.9
346.759	-9.08
347.142	39.5
347.525	44.93
347.908	58.94
348.291	95.1
348.674	106.4
349.057	101.42
349.44	119.28
349.823	149.56
350.206	160.63
350.588	176.9
350.971	207.86
351.354	238.82
351.737	238.14
352.119	242.89
352.502	249.44
352.884	261.42
353.267	286.28
353.65	293.96
354.032	307.75
354.414	300.97
354.797	307.07
355.179	305.03
355.562	310.46
355.944	311.36
356.326	337.58
356.709	347.29
357.091	346.39
357.473	345.94
357.855	354.3
358.238	357.01
358.62	350
359.002	356.11
359.384	332.38
359.766	343.23
360.148	342.1
360.53	350.23
360.912	338.03
361.294	327.63
361.676	302.1
362.057	333.06
362.439	331.7
362.821	329.89
363.203	328.31
363.584	324.24
363.966	312.94
364.348	322.66
364.729	316.11
365.111	316.33
365.493	326.73
365.874	312.27
366.256	329.44
366.637	296.9
367.019	273.62
367.4	308.88
367.781	310.01
368.163	324.69
368.544	321.98
368.925	307.29
369.306	329.89
369.688	326.05
370.069	317.24
370.45	324.24
370.831	301.19
371.212	324.92
371.593	308.2
371.974	318.14
372.355	336.67
372.736	310.91
373.117	311.59
373.498	291.02
373.879	322.89
374.26	287.41
374.641	310.68
375.021	293.06
375.402	302.77
375.783	303.23
376.163	313.4
376.544	338.71
376.925	340.51
377.305	329.21
377.686	338.48
378.066	331.02
378.447	330.12
378.827	340.74
379.208	302.55
379.588	345.49
379.968	341.64
380.349	342.55
380.729	337.35
381.109	327.86
381.489	357.91
381.87	327.41
382.25	338.48
382.63	320.4
383.01	328.08
383.39	346.84
383.77	340.06
384.15	334.41
384.53	373.06
384.91	342.55
385.29	349.33
385.67	351.81
386.049	339.84
386.429	350.46
386.809	351.36
387.189	356.78
387.568	366.28
387.948	348.2
388.328	358.59
388.707	334.41
389.087	350
389.466	355.65
389.846	364.47
390.225	354.52
390.605	363.79
390.984	382.09
391.363	368.31
391.743	362.89
392.122	352.04
392.501	366.73
392.881	381.19
393.26	370.57
393.639	397.91
394.018	370.8
394.397	361.3
394.776	371.93
395.155	376.22
395.534	381.42
395.913	422.77
396.292	372.15
396.671	369.44
397.05	392.72
397.429	372.15
397.808	385.48
398.186	393.62
398.565	399.72
398.944	390.23
399.323	403.79
399.701	398.14
400.08	397.46
400.458	411.7
400.837	401.3
401.215	391.81
401.594	394.3
401.972	409.21
402.351	387.52
402.729	402.21
403.107	433.84
403.486	426.84
403.864	427.07
404.242	418.03
404.62	410.12
404.999	445.14
405.377	415.31
405.755	444.92
406.133	428.87
406.511	439.95
406.889	436.78
407.267	440.62
407.645	426.16
408.023	436.56
408.401	448.99
408.779	462.77
409.156	483.33
409.534	447.86
409.912	473.62
410.29	441.53
410.667	449.66
411.045	455.54
411.422	441.08
411.8	489.21
412.178	461.64
412.555	477.01
412.933	488.31
413.31	475.65
413.687	499.15
414.065	502.32
414.442	481.07
414.819	500.74
415.197	498.25
415.574	508.64
415.951	521.07
416.328	512.03
416.705	507.51
417.082	524.46
417.46	509.32
417.837	511.13
418.214	507.29
418.591	517.46
418.967	513.62
419.344	531.7
419.721	534.41
420.098	532.82
420.475	564.46
420.852	548.19
421.228	552.03
421.605	550.23
421.982	541.64
422.358	571.02
422.735	562.43
423.111	578.47
423.488	580.51
423.864	571.47
424.241	592.71
424.617	568.53
424.994	597.91
425.37	556.33
425.746	611.24
426.123	613.05
426.499	591.81
426.875	600.39
427.251	607.4
427.627	608.53
428.003	621.41
428.379	631.35
428.756	617.34
429.132	630.45
429.507	651.24
429.883	645.82
430.259	643.1
430.635	645.14
431.011	653.27
431.387	690.11
431.763	664.12
432.138	685.82
432.514	679.26
432.89	695.98
433.265	703.22
433.641	742.09
434.016	710.45
434.392	700.5
434.767	733.95
435.143	724.23
435.518	716.77
435.894	740.96
436.269	767.85
436.644	759.49
437.02	754.74
437.395	767.62
437.77	778.02
438.145	796.55
438.52	797
438.895	795.42
439.271	794.96
439.646	831.35
440.021	804.23
440.395	832.25
440.77	798.35
441.145	807.17
441.52	817.11
441.895	844.91
442.27	857.11
442.645	859.37
443.019	872.48
443.394	842.87
443.769	862.99
444.143	881.74
444.518	876.77
444.892	871.8
445.267	867.73
445.641	906.6
446.016	882.87
446.39	919.71
446.764	905.02
447.139	913.38
447.513	884.91
447.887	928.97
448.262	933.72
448.636	947.73
449.01	942.98
449.384	971.23
449.758	949.09
450.132	980.04
450.506	990.21
450.88	981.63
451.254	972.36
451.628	1012.81
452.002	1002.19
452.376	1013.72
452.75	1038.8
453.123	1019.59
453.497	1067.73
453.871	1040.16
454.244	1060.27
454.618	1085.8
454.992	1076.09
455.365	1093.26
455.739	1126.48
456.112	1111.11
456.486	1146.82
456.859	1153.15
457.232	1162.19
457.606	1190.21
457.979	1201.51
458.352	1206.93
458.725	1225.46
459.099	1212.36
459.472	1243.54
459.845	1239.93
460.218	1250.55
460.591	1288.06
460.964	1257.33
461.337	1335.06
461.71	1314.73
462.083	1352.46
462.456	1364.22
462.829	1388.62
463.201	1399.69
463.574	1411.22
463.947	1414.84
464.32	1468.85
464.692	1466.13
465.065	1475.4
465.438	1526.92
465.81	1560.37
466.183	1553.59
466.555	1592.46
466.928	1605.11
467.3	1601.05
467.672	1664.32
468.045	1667.03
468.417	1725.11
468.789	1699.8
469.161	1741.83
469.534	1788.61
469.906	1796.29
470.278	1848.95
470.65	1889.63
471.022	1920.36
471.394	1943.86
471.766	1974.37
472.138	2009.17
472.51	2044.42
472.882	2099.34
473.253	2123.52
473.625	2181.6
473.997	2234.93
474.369	2239.67
474.74	2304.3
475.112	2363.96
475.484	2409.61
475.855	2504.52
476.227	2492.77
476.598	2568.93
476.97	2632.2
477.341	2691.86
477.713	2797.62
478.084	2788.13
478.455	2903.16
478.827	2976.15
479.198	3068.8
479.569	3130.95
479.94	3217.05
480.311	3287.55
480.682	3367.55
481.053	3482.8
481.424	3563.93
481.795	3675.79
482.166	3743.81
482.537	3827.43
482.908	3922.57
483.279	3988.1
483.65	4160.07
484.021	4278.49
484.391	4282.56
484.762	4439.16
485.133	4510.57
485.503	4621.76
485.874	4760.74
486.244	4822.2
486.615	4994.63
486.985	5131.35
487.356	5217.22
487.726	5369.53
488.097	5498.8
488.467	5565.69
488.837	5736.3
489.207	5887.94
489.578	6002.06
489.948	6111.21
490.318	6318.89
490.688	6361.6
491.058	6512.55
491.428	6664.64
491.798	6738.09
492.168	6947.57
492.538	7013.56
492.908	7152.31
493.278	7323.61
493.648	7421.23
494.017	7477.28
494.387	7711.39
494.757	7885.17
495.126	7874.78
495.496	8053.31
495.866	8201.78
496.235	8205.62
496.605	8380.53
496.974	8481.54
497.344	8581.65
497.713	8717.47
498.082	8773.06
498.452	8970.12
498.821	9104.35
499.19	9067.06
499.559	9294.85
499.928	9344.57
500.298	9500.72
500.667	9571.91
501.036	9583.89
501.405	9706.14
501.774	9635.18
502.143	9851.68
502.512	9897.32
502.88	10040.37
503.249	10098.68
503.618	10191.78
503.987	10253.25
504.356	10329.4
504.724	10413.47
505.093	10516.52
505.462	10548.15
505.83	10696.63
506.199	10726.23
506.567	10972.32
506.936	10962.61
507.304	11090.74
507.672	11082.6
508.041	11089.38
508.409	11215.48
508.777	11290.73
509.145	11292.77
509.514	11392.2
509.882	11494.12
510.25	11466.32
510.618	11585.87
510.986	11526.43
511.354	11643.04
511.722	11732.53
512.09	11796.03
512.458	11813.43
512.826	11973.43
513.193	11933.2
513.561	11920.77
513.929	12076.93
514.297	12208.68
514.664	12209.81
515.032	12252.74
515.4	12298.39
515.767	12324.83
516.135	12403.7
516.502	12279.63
516.869	12455.22
517.237	12499.29
517.604	12410.7
517.972	12538.16
518.339	12605.05
518.706	12556.46
519.073	12633.75
519.44	12646.18
519.808	12780.64
520.175	12749.45
520.542	12806.63
520.909	12854.53
521.276	12846.63
521.643	12969.11
522.009	12958.49
522.376	13053.63
522.743	13060.41
523.11	13063.34
523.477	13138.14
523.843	13199.61
524.21	13176.79
524.577	13329.78
524.943	13360.96
525.31	13275.99
525.676	13364.35
526.043	13389.44
526.409	13467.85
526.776	13451.81
527.142	13489.77
527.508	13461.98
527.874	13502.2
528.241	13556.89
528.607	13522.99
528.973	13651.58
529.339	13552.82
529.705	13658.36
530.071	13630.56
530.437	13695.64
530.803	13772.02
531.169	13696.09
531.535	13600.28
531.901	13715.98
532.267	13665.36
532.632	13684.8
532.998	13608.41
533.364	13721.63
533.73	13653.84
534.095	13674.85
534.461	13733.38
534.826	13774.51
535.192	13602.99
535.557	13659.49
535.923	13648.86
536.288	13695.42
536.653	13671.69
537.019	13602.31
537.384	13534.29
537.749	13552.14
538.114	13525.93
538.479	13547.85
538.845	13487.96
539.21	13406.38
539.575	13366.16
539.94	13388.31
540.305	13354.41
540.67	13321.42
541.034	13353.96
541.399	13322.09
541.764	13289.55
542.129	13255.43
542.494	13261.76
542.858	13176.33
543.223	13144.24
543.587	13163.45
543.952	13079.61
544.316	13170.68
544.681	13130.69
545.045	13061.54
545.41	13056.79
545.774	13083
546.138	12967.53
546.503	12979.73
546.867	12954.42
547.231	12962.33
547.595	12863.12
547.959	12871.03
548.324	12830.13
548.688	12800.75
549.052	12783.12
549.416	12694.31
549.779	12800.53
550.143	12685.95
550.507	12799.17
550.871	12710.58
551.235	12605.05
551.599	12678.95
551.962	12607.76
552.326	12591.26
552.689	12618.38
553.053	12509.69
553.417	12459.97
553.78	12621.09
554.143	12477.6
554.507	12574.54
554.87	12522.11
555.234	12512.17
555.597	12495.22
555.96	12427.65
556.323	12403.7
556.686	12444.15
557.05	12469.69
557.413	12490.48
557.776	12475.56
558.139	12416.58
558.502	12465.84
558.865	12379.07
559.228	12419.74
559.59	12418.39
559.953	12424.04
560.316	12451.61
560.679	12462.23
561.041	12474.43
561.404	12463.36
561.767	12476.24
562.129	12402.57
562.492	12518.05
562.854	12495.22
563.217	12426.3
563.579	12526.18
563.941	12495.67
564.304	12483.92
564.666	12495.22
565.028	12507.43
565.39	12488.44
565.753	12574.54
566.115	12565.5
566.477	12551.94
566.839	12587.2
567.201	12661.09
567.563	12580.19
567.925	12635.11
568.287	12658.61
568.648	12629
569.01	12707.42
569.372	12772.28
569.734	12745.61
570.095	12755.1
570.457	12740.19
570.819	12669.23
571.18	12770.24
571.542	12761.43
571.903	12745.61
572.265	12836.23
572.626	12848.43
572.987	12812.05
573.349	12793.07
573.71	12883.23
574.071	12856.57
574.432	12908.09
574.794	12935.44
575.155	12920.3
575.516	12816.8
575.877	12834.2
576.238	12965.04
576.599	13011.82
576.96	12968.88
577.32	12876.91
577.681	12944.02
578.042	12957.81
578.403	12948.09
578.763	12947.19
579.124	12906.28
579.485	13006.4
579.845	12990.12
580.206	12981.54
580.566	12916.23
580.927	12931.37
581.287	12959.62
581.648	12995.1
582.008	13015.66
582.368	12993.06
582.728	13017.02
583.089	13063.34
583.449	12904.7
583.809	12974.76
584.169	12965.72
584.529	12963.23
584.889	13025.83
585.249	12855.89
585.609	12936.79
585.969	12944.25
586.329	12880.07
586.688	12880.3
587.048	12888.43
587.408	12834.65
587.768	12745.61
588.127	12844.82
588.487	12809.56
588.846	12899.28
589.206	12814.54
589.565	12755.33
589.925	12855.21
590.284	12828.77
590.643	12833.52
591.003	12854.31
591.362	12851.6
591.721	12843.46
592.08	12852.28
592.44	12899.51
592.799	12831.48
593.158	12842.78
593.517	12789.68
593.876	12870.58
594.235	12750.36
594.593	12731.15
594.952	12735.89
595.311	12666.74
595.67	12718.95
596.029	12750.81
596.387	12761.2
596.746	12822.45
597.104	12700.41
597.463	12756.01
597.822	12721.88
598.18	12690.25
598.538	12671.94
598.897	12699.96
599.255	12665.39
599.613	12844.59
599.972	12725.95
600.33	12705.84
600.688	12687.08
601.046	12817.02
601.404	12801.65
601.762	12741.77
602.12	12795.1
602.478	12806.4
602.836	12756.46
603.194	12691.38
603.552	12741.54
603.91	12612.73
604.268	12746.97
604.625	12737.93
604.983	12784.71
605.341	12659.96
605.698	12759.4
606.056	12805.5
606.413	12727.08
606.771	12805.04
607.128	12768.21
607.485	12737.93
607.843	12736.35
608.2	12716.46
608.557	12790.58
608.914	12739.51
609.272	12864.03
609.629	12814.76
609.986	12868.32
610.343	12810.92
610.7	12882.33
611.057	12889.56
611.414	12852.95
611.771	12898.83
612.127	12950.8
612.484	12938.6
612.841	13017.47
613.198	12857.47
613.554	12897.7
613.911	12993.29
614.267	12964.59
614.624	12997.36
614.98	12946.96
615.337	12944.02
615.693	12978.83
616.05	12982.22
616.406	13028.32
616.762	13036.68
617.118	12932.5
617.475	12994.87
617.831	13056.56
618.187	13026.96
618.543	13058.15
618.899	13067.41
619.255	13113.06
619.611	13089.78
619.967	13172.94
620.323	13173.85
620.678	13096.11
621.034	13098.37
621.39	13198.71
621.746	13050.01
622.101	13184.02
622.457	13045.04
622.812	13129.56
623.168	13194.64
623.523	13150.12
623.879	13230.57
624.234	13073.51
624.589	13194.41
624.945	13182.21
625.3	13180.85
625.655	13093.17
626.01	13152.83
626.365	13155.09
626.72	13145.15
627.075	13125.04
627.43	13008.2
627.785	13036
628.14	13120.52
628.495	13144.24
628.85	13060.63
629.205	12974.31
629.559	13109.44
629.914	13017.02
630.269	13081.42
630.623	12990.12
630.978	13037.81
631.332	13013.4
631.687	13056.79
632.041	13005.04
632.396	13065.15
632.75	12908.77
633.104	12936.57
633.459	12924.59
633.813	12920.52
634.167	12870.81
634.521	12960.75
634.875	12902.22
635.229	12939.96
635.583	12826.74
635.937	12853.18
636.291	12817.93
636.645	12838.04
636.999	12760.75
637.352	12734.76
637.706	12701.54
638.06	12770.02
638.413	12721.66
638.767	12648.89
639.121	12711.04
639.474	12660.42
639.828	12567.31
640.181	12705.61
640.534	12696.57
640.888	12639.63
641.241	12598.27
641.594	12613.19
641.947	12693.41
642.301	12572.51
642.654	12602.56
643.007	12578.38
643.36	12590.81
643.713	12501.78
644.066	12624.03
644.419	12517.82
644.771	12393.76
645.124	12341.1
645.477	12268.79
645.83	12237.83
646.182	12157.6
646.535	12199.41
646.888	12151.05
647.24	12070.15
647.593	12194.89
647.945	12081.22
648.298	12091.62
648.65	12050.49
649.002	12010.49
649.355	12137.49
649.707	12056.36
650.059	12232.63
650.411	12383.36
650.763	12358.05
651.115	12476.01
651.467	12412.06
651.819	12442.34
652.171	12401.89
652.523	12356.02
652.875	12298.17
653.227	12363.25
653.578	12396.69
653.93	12370.93
654.282	12364.83
654.633	12298.17
654.985	12386.07
655.337	12383.59
655.688	12338.62
656.039	12420.87
656.391	12356.24
656.742	12377.49
657.094	12337.26
657.445	12369.58
657.796	12305.62
658.147	12303.59
658.498	12271.27
658.849	12360.76
659.2	12362.57
659.551	12302.91
659.902	12309.01
660.253	12352.85
660.604	12385.39
660.955	12302.46
661.306	12407.09
661.656	12379.07
662.007	12364.83
662.358	12374.55
662.708	12410.93
663.059	12381.55
663.409	12360.31
663.76	12414.32
664.11	12394.66
664.461	12385.39
664.811	12387.65
665.161	12463.81
665.511	12366.41
665.862	12409.57
666.212	12439.4
666.562	12425.62
666.912	12441.66
667.262	12437.37
667.612	12446.18
667.962	12346.75
668.312	12355.34
668.662	12433.08
669.011	12356.92
669.361	12395.34
669.711	12340.2
670.06	12288.22
670.41	12360.76
670.76	12282.8
671.109	12385.17
671.459	12368.45
671.808	12293.19
672.157	12321.89
672.507	12188.79
672.856	12234.89
673.205	12304.49
673.554	12311.95
673.904	12264.72
674.253	12267.88
674.602	12271.95
674.951	12033.99
675.3	12083.26
675.649	12295.91
675.998	12214.78
676.346	12239.86
676.695	12260.88
677.044	12185.4
677.393	12260.88
677.741	12173.87
678.09	12160.99
678.438	12127.32
678.787	12179.07
679.135	12197.83
679.484	12028.79
679.832	12163.03
680.181	11996.48
680.529	12025.18
680.877	12006.87
681.225	11960.32
681.573	12032.41
681.922	11936.14
682.27	11946.31
682.618	11976.14
682.966	11905.18
683.314	11907.22
683.661	11760.33
684.009	11707.67
684.357	11762.36
684.705	11683.49
685.053	11746.54
685.4	11709.93
685.748	11643.72
686.095	11652.53
686.443	11605.98
686.79	11634.45
687.138	11592.65
687.485	11634
687.832	11563.04
688.18	11481.46
688.527	11517.39
688.874	11456.61
689.221	11506.77
689.568	11381.35
689.915	11342.71
690.262	11342.94
690.609	11247.57
690.956	11267.91
691.303	11262.03
691.65	11286.67
691.997	11249.38
692.344	11124.86
692.69	11142.49
693.037	11081.02
693.383	11027.69
693.73	11039.89
694.077	10964.87
694.423	10961.93
694.769	10958.31
695.116	10844.64
695.462	10838.77
695.808	10852.33
696.155	10795.38
696.501	10708.83
696.847	10758.77
697.193	10640.81
697.539	10736.17
697.885	10584.09
698.231	10545.44
698.577	10558.32
698.923	10506.57
699.269	10451.66
699.614	10439.68
699.96	10310.2
700.306	10368.27
700.651	10272.68
700.997	10300.03
701.342	10226.36
701.688	10158.11
702.033	10160.14
702.379	10171.89
702.724	10110.65
703.069	10090.54
703.415	9982.97
703.76	10018.45
704.105	10015.97
704.45	9954.27
704.795	9901.84
705.14	9884.44
705.485	9891.22
705.83	9799.7
706.175	9780.04
706.52	9828.85
706.865	9745.24
707.209	9721.74
707.554	9702.75
707.899	9717.22
708.243	9632.7
708.588	9615.07
708.932	9520.84
709.277	9525.58
709.621	9534.62
709.966	9530.55
710.31	9500.5
710.654	9397.9
710.998	9481.97
711.342	9407.85
711.687	9426.38
712.031	9429.31
712.375	9322.88
712.719	9331.92
713.063	9310.45
713.407	9332.37
713.75	9239.71
714.094	9245.59
714.438	9235.42
714.782	9265.93
715.125	9167.4
715.469	9235.65
715.812	9139.83
716.156	9090.57
716.499	9112.03
716.843	9096.89
717.186	9052.6
717.53	9073.62
717.873	9098.93
718.216	9035.65
718.559	9036.1
718.902	8994.3
719.246	9007.86
719.589	8924.47
719.932	8990.23
720.275	8976.22
720.617	8908.88
720.96	8876.33
721.303	8945.49
721.646	8881.08
721.989	8868.88
722.331	8902.1
722.674	8860.06
723.016	8863.91
723.359	8880.85
723.701	8853.74
724.044	8782.55
724.386	8812.16
724.729	8828.88
725.071	8769.22
725.413	8803.79
725.755	8747.3
726.097	8801.76
726.439	8738.26
726.782	8702.1
727.124	8806.28
727.465	8688.77
727.807	8709.56
728.149	8700.29
728.491	8673.4
728.833	8688.32
729.175	8735.1
729.516	8684.02
729.858	8685.15
730.199	8643.8
730.541	8651.26
730.882	8711.37
731.224	8700.07
731.565	8639.5
731.906	8627.75
732.248	8670.69
732.589	8631.6
732.93	8592.27
733.271	8639.28
733.612	8610.58
733.953	8666.17
734.294	8656.68
734.635	8612.39
734.976	8702.55
735.317	8669.11
735.658	8646.96
735.999	8597.92
736.339	8649
736.68	8627.3
737.021	8633.4
737.361	8570.81
737.702	8693.29
738.042	8649.67
738.383	8658.04
738.723	8632.5
739.063	8620.07
739.404	8701.88
739.744	8674.31
740.084	8604.03
740.424	8705.72
740.764	8758.15
741.104	8713.4
741.444	8741.42
741.784	8677.7
742.124	8742.55
742.464	8719.28
742.804	8728.77
743.143	8739.61
743.483	8884.24
743.823	8828.2
744.162	8862.1
744.502	8912.27
744.841	8896.22
745.181	8911.59
745.52	8897.12
745.86	8955.88
746.199	9054.63
746.538	9015.77
746.877	9044.01
747.216	9094.41
747.556	9091.24
747.895	9222.77
748.234	9225.93
748.573	9266.38
748.911	9344.12
749.25	9359.03
749.589	9403.55
749.928	9572.36
750.267	9567.84
750.605	9587.05
750.944	9651.46
751.283	9732.36
751.621	9841.73
751.96	9845.8
752.298	9972.12
752.636	10042.63
752.975	10058
753.313	10192.46
753.651	10284.43
753.989	10375.28
754.327	10560.81
754.666	10512
755.004	10681.48
755.342	10795.15
755.679	10926.45
756.017	10976.39
756.355	11165.77
756.693	11225.88
757.031	11357.4
757.368	11498.19
757.706	11629.71
758.044	11729.14
758.381	11952.41
758.719	12067.66
759.056	12202.57
759.394	12365.06
759.731	12487.31
760.068	12593.07
760.405	12772.05
760.743	12971.37
761.08	13091.36
761.417	13277.57
761.754	13477.34
762.091	13588.75
762.428	13671.91
762.765	13844.57
763.102	13965.47
763.438	14109.87
763.775	14263.31
764.112	14508.5
764.449	14615.84
764.785	14702.4
765.122	14813.58
765.458	14911.2
765.795	15140.58
766.131	15233.23
766.467	15412.89
766.804	15468.7
767.14	15525.43
767.476	15702.82
767.812	15860.78
768.148	15966.77
768.485	16108.46
768.821	16256.71
769.157	16181.23
769.492	16456.02
769.828	16536.92
770.164	16521.56
770.5	16599.3
770.836	16784.38
771.171	16857.82
771.507	16951.38
771.842	16976.23
772.178	17138.94
772.513	17211.48
772.849	17218.04
773.184	17301.65
773.519	17434.98
773.855	17498.03
774.19	17498.03
774.525	17598.14
774.86	17772.15
775.195	17708.87
775.53	17742.32
775.865	17791.13
776.2	17717.68
776.535	17727.85
776.87	17752.49
777.205	17857.79
777.539	17779.15
777.874	18006.04
778.209	17820.05
778.543	17882.65
778.878	17879.49
779.212	17961.97
779.547	17989.32
779.881	18145.47
780.215	18006.94
780.55	18138.01
780.884	18082.65
781.218	17953.84
781.552	18107.05
781.886	18078.35
782.22	18132.36
782.554	17986.83
782.888	17930.11
783.222	17884.01
783.556	17924.91
783.889	17922.88
784.223	17830.9
784.557	17883.1
784.89	17880.17
785.224	17933.27
785.557	17838.58
785.891	17854.18
786.224	17835.19
786.558	17915.64
786.891	17779.6
787.224	17789.32
787.557	17687.18
787.891	17799.04
788.224	17791.81
788.557	17731.92
788.89	17787.96
789.223	17736.44
789.556	17658.02
789.888	17614.18
790.221	17604.24
790.554	17405.6
790.887	17575.31
791.219	17411.7
791.552	17400.63
791.884	17378.03
792.217	17259.62
792.549	17299.84
792.882	17218.04
793.214	17173.74
793.546	17267.07
793.879	17139.39
794.211	17096.23
794.543	17170.58
794.875	17053.07
795.207	17074.08
795.539	17018.27
795.871	17045.16
796.203	16827.09
796.535	16924.26
796.867	16795
797.198	16781.89
797.53	16843.36
797.862	16725.39
798.193	16701.21
798.525	16680.87
798.856	16685.85
799.188	16498.51
799.519	16546.42
799.85	16324.73
800.182	16435.01
800.513	16523.14
800.844	16268.46
801.175	16391.62
801.506	16316.82
801.837	16243.15
802.168	16191.85
802.499	16280.43
802.83	16101.91
803.161	16155.01
803.491	16137.39
803.822	16101
804.153	16093.09
804.483	15962.25
804.814	15874.12
805.145	15887.22
805.475	15863.5
805.805	15737.85
806.136	15835.93
806.466	15832.76
806.796	15773.55
807.126	15642.26
807.457	15715.7
807.787	15604.07
808.117	15485.65
808.447	15517.97
808.777	15520.91
809.107	15474.13
809.436	15451.98
809.766	15376.73
810.096	15339.22
810.426	15334.7
810.755	15410.63
811.085	15304.19
811.414	15266.67
811.744	15211.31
812.073	15186.68
812.403	15183.29
812.732	15077.08
813.061	15073.46
813.39	14988.49
813.719	14983.74
814.049	14981.48
814.378	14972.67
814.707	15017.19
815.036	14981.03
815.365	14861.94
815.693	14784.65
816.022	14840.47
816.351	14712.79
816.68	14599.12
817.008	14743.3
817.337	14642.28
817.665	14549.18
817.994	14561.61
818.322	14616.97
818.651	14572.68
818.979	14492.46
819.307	14513.7
819.636	14587.14
819.964	14463.08
820.292	14441.16
820.62	14418.34
820.948	14393.25
821.276	14392.8
821.604	14413.82
821.932	14463.08
822.259	14418.79
822.587	14376.3
822.915	14381.05
823.243	14478.45
823.57	14326.13
823.898	14388.73
824.225	14358.22
824.553	14404.32
824.88	14347.15
825.207	14339.24
825.535	14386.25
825.862	14418.79
826.189	14443.19
826.516	14422.63
826.843	14478.9
827.17	14416.98
827.497	14462.85
827.824	14489.07
828.151	14438.9
828.478	14386.25
828.805	14448.17
829.131	14333.14
829.458	14352.57
829.785	14304.89
830.111	14412.69
830.438	14486.13
830.764	14386.25
831.09	14440.93
831.417	14366.36
831.743	14334.27
832.069	14349.18
832.395	14274.16
832.722	14352.35
833.048	14301.05
833.374	14273.25
833.7	14135.18
834.026	14340.15
834.351	14264.22
834.677	14271.45
835.003	14290.66
835.329	14296.08
835.654	14204.78
835.98	14122.52
836.306	14187.38
836.631	14144.22
836.956	14296.3
837.282	14167.49
837.607	14117.55
837.932	14084.33
838.258	14131.56
838.583	14028.29
838.908	14068.97
839.233	14005.69
839.558	14003.88
839.883	14017.89
840.208	13911
840.533	13880.95
840.858	13962.53
841.182	13811.12
841.507	13884.56
841.832	13806.15
842.156	13741.97
842.481	13765.92
842.805	13763.21
843.13	13715.08
843.454	13648.41
843.778	13594.4
844.103	13523.67
844.427	13575.42
844.751	13636.44
845.075	13488.19
845.399	13498.81
845.723	13393.96
846.047	13471.92
846.371	13276.9
846.695	13367.97
847.019	13238.71
847.343	13161.19
847.666	13132.49
847.99	13058.15
848.313	13048.43
848.637	12974.76
848.96	12965.72
849.284	12897.92
849.607	12854.76
849.931	12847.3
850.254	12719.17
850.577	12652.51
850.9	12612.06
851.223	12550.59
851.546	12518.5
851.869	12447.31
852.192	12436.24
852.515	12382.91
852.838	12323.7
853.161	12296.36
853.483	12217.26
853.806	12167.77
854.129	12203.7
854.451	12136.81
854.774	12068.11
855.096	12069.7
855.419	11920.1
855.741	11955.58
856.063	11828.8
856.385	11893.2
856.708	11854.56
857.03	11742.7
857.352	11780.89
857.674	11781.34
857.996	11636.71
858.318	11630.16
858.64	11655.7
858.961	11597.84
859.283	11555.59
859.605	11452.09
859.926	11552.2
860.248	11516.94
860.57	11479.43
860.891	11415.93
861.212	11314.24
861.534	11354.91
861.855	11308.13
862.176	11344.29
862.498	11361.01
862.819	11368.92
863.14	11260.45
863.461	11245.76
863.782	11218.65
864.103	11247.57
864.424	11151.75
864.745	11238.31
865.065	11156.27
865.386	11103.39
865.707	11047.58
866.027	11080.12
866.348	11049.38
866.668	10974.13
866.989	11056.16
867.309	10974.58
867.63	10984.98
867.95	11042.38
868.27	10894.59
868.59	10991.31
868.91	10884.19
869.23	10851.2
869.55	10803.74
869.87	10946.56
870.19	10779.79
870.51	10846.45
870.83	10901.82
871.15	10766.23
871.469	10808.94
871.789	10825.44
872.109	10781.82
872.428	10724.42
872.748	10721.26
873.067	10661.82
873.386	10713.35
873.706	10635.61
874.025	10602.39
874.344	10579.11
874.663	10590.19
874.982	10555.16
875.301	10543.64
875.62	10555.84
875.939	10435.62
876.258	10513.81
876.577	10511.55
876.896	10554.03
877.214	10428.38
877.533	10424.09
877.852	10501.15
878.17	10347.48
878.489	10455.05
878.807	10355.17
879.125	10391.1
879.444	10393.13
879.762	10387.48
880.08	10347.26
880.398	10303.42
880.716	10269.07
881.034	10250.99
881.352	10243.98
881.67	10175.06
881.988	10193.59
882.306	10122.63
882.624	10108.39
882.941	10109.07
883.259	10062.29
883.577	10059.58
883.894	10034.72
884.212	10063.2
884.529	10011.45
884.846	10027.94
885.164	9950.66
885.481	9919.7
885.798	9910.43
886.115	9810.32
886.432	9937.1
886.75	9828.85
887.067	9880.6
887.383	9836.08
887.7	9732.81
888.017	9724.67
888.334	9785.92
888.651	9636.99
888.967	9652.36
889.284	9670.21
889.6	9631.79
889.917	9555.64
890.233	9548.63
890.55	9520.84
890.866	9518.35
891.182	9431.35
891.498	9489.88
891.815	9411.01
892.131	9406.04
892.447	9352.25
892.763	9357.23
893.079	9315.42
893.395	9276.55
893.71	9304.12
894.026	9281.07
894.342	9173.05
894.657	9170.34
894.973	9141.64
895.289	9091.02
895.604	9126.72
895.92	9048.99
896.235	8961.3
896.55	9021.64
896.865	8988.42
897.181	8927.41
897.496	8931.7
897.811	8856.22
898.126	8879.72
898.441	8889.67
898.756	8838.6
899.071	8743.91
899.386	8693.51
899.7	8710.46
900.015	8657.36
900.33	8589.56
900.644	8591.37
900.959	8578.49
901.273	8529.68
901.588	8442.45
901.902	8491.49
902.216	8418.27
902.531	8354.54
902.845	8427.98
903.159	8289.68
903.473	8304.82
903.787	8255.79
904.101	8164.94
904.415	8225.5
904.729	8143.02
905.042	8077.03
905.356	8144.6
905.67	8040.2
905.984	8082.01
906.297	8066.86
906.611	7974.89
906.924	7981.67
907.237	7962.01
907.551	7947.77
907.864	7883.14
908.177	7771.96
908.491	7838.85
908.804	7783.71
909.117	7755.23
909.43	7672.98
909.743	7686.54
910.056	7618.29
910.368	7582.36
910.681	7553.43
910.994	7547.1
911.307	7502.13
911.619	7478.18
911.932	7506.2
912.244	7390.72
912.557	7331.29
912.869	7330.61
913.181	7275.02
913.494	7331.74
913.806	7211.75
914.118	7278.64
914.43	7169.71
914.742	7197.73
915.054	7201.58
915.366	7134.01
915.678	7078.42
915.99	7073.44
916.302	6961.81
916.613	6974.01
916.925	6986.21
917.236	6926.33
917.548	6944.86
917.859	6947.12
918.171	6919.55
918.482	6835.48
918.794	6787.58
919.105	6833.22
919.416	6785.09
919.727	6740.12
920.038	6718.65
920.349	6691.08
920.66	6668.03
920.971	6630.07
921.282	6611.76
921.593	6619.67
921.903	6491.99
922.214	6524.31
922.525	6521.59
922.835	6445.44
923.146	6454.7
923.456	6418.55
923.767	6393.24
924.077	6367.7
924.387	6336.97
924.697	6295.84
925.008	6264.43
925.318	6257.65
925.628	6279.79
925.938	6254.93
926.248	6157.99
926.558	6120.7
926.867	6122.73
927.177	6079.57
927.487	6149.85
927.796	6021.27
928.106	6054.04
928.416	5971.55
928.725	5995.73
929.034	5996.64
929.344	5941.72
929.653	5946.69
929.962	5862.18
930.271	5798
930.581	5809.07
930.89	5798.68
931.199	5765.23
931.508	5760.26
931.817	5797.32
932.125	5748.96
932.434	5719.13
932.743	5602.3
933.051	5635.06
933.36	5668.28
933.669	5537.89
933.977	5568.62
934.286	5523.43
934.594	5572.24
934.902	5547.38
935.21	5500.83
935.519	5488.63
935.827	5448.63
936.135	5399.36
936.443	5409.53
936.751	5326.37
937.059	5396.2
937.367	5331.79
937.674	5337.22
937.982	5300.16
938.29	5244.79
938.597	5247.5
938.905	5249.31
939.213	5188.3
939.52	5191.23
939.827	5164.34
940.135	5113.04
940.442	5126.6
940.749	5101.97
941.056	5071.01
941.363	5035.08
941.67	5037.34
941.977	5006.61
942.284	4947.85
942.591	4968.87
942.898	4948.98
943.205	4936.1
943.511	4915.53
943.818	4860.17
944.125	4870.11
944.431	4860.62
944.738	4822.88
945.044	4796.67
945.35	4762.32
945.657	4717.57
945.963	4755.31
946.269	4685.94
946.575	4639.16
946.881	4625.82
947.187	4620.63
947.493	4646.39
947.799	4583.11
948.105	4611.36
948.41	4572.27
948.716	4539.95
949.022	4506.28
949.327	4498.82
949.633	4495.21
949.938	4484.13
950.244	4490.46
950.549	4359.17
950.854	4426.28
951.16	4396.68
951.465	4374.08
951.77	4377.7
952.075	4345.61
952.38	4326.85
952.685	4329.34
952.99	4259.05
953.294	4280.52
953.599	4217.25
953.904	4202.78
954.209	4234.65
954.513	4185.61
954.818	4151.71
955.122	4169.11
955.426	4126.85
955.731	4172.96
956.035	4116.01
956.339	4094.54
956.643	4091.83
956.948	4038.72
957.252	4051.15
957.556	4019.06
957.86	3959.63
958.163	4001.43
958.467	3949.68
958.771	3950.36
959.075	3944.26
959.378	3943.58
959.682	3938.39
959.985	3921.21
960.289	3861.78
960.592	3831.27
960.896	3855.68
961.199	3821.55
961.502	3830.14
961.805	3817.94
962.108	3804.83
962.411	3751.5
962.714	3747.2
963.017	3665.85
963.32	3761.67
963.623	3696.81
963.926	3725.74
964.228	3704.04
964.531	3629.92
964.833	3639.41
965.136	3569.13
965.438	3609.35
965.741	3565.97
966.043	3578.62
966.345	3533.42
966.648	3527.32
966.95	3505.18
967.252	3453.2
967.554	3492.97
967.856	3475.8
968.158	3429.47
968.46	3434.9
968.761	3414.78
969.063	3431.51
969.365	3368
969.666	3364.39
969.968	3338.17
970.269	3330.49
970.571	3298.85
970.872	3293.43
971.174	3299.08
971.475	3318.06
971.776	3317.38
972.077	3269.93
972.378	3245.52
972.679	3263.83
972.98	3238.97
973.281	3211.17
973.582	3181.34
973.883	3158.29
974.183	3143.15
974.484	3154.45
974.785	3155.13
975.085	3145.64
975.386	3108.8
975.686	3078.75
975.986	3093.44
976.287	3071.97
976.587	3099.54
976.887	3055.02
977.187	3052.31
977.487	3033.78
977.787	2981.12
978.087	3012.76
978.387	2994.46
978.687	2945.42
978.987	2990.16
979.286	2948.13
979.586	2944.51
979.885	2904.97
980.185	2893.44
980.484	2879.43
980.784	2855.48
981.083	2863.61
981.382	2856.15
981.682	2857.28
981.981	2800.11
982.28	2819.54
982.579	2811.64
982.878	2796.27
983.177	2800.11
983.475	2779.32
983.774	2780
984.073	2704.52
984.372	2703.16
984.67	2719.43
984.969	2707.46
985.267	2713.33
985.566	2686.67
985.864	2690.06
986.162	2684.41
986.461	2610.96
986.759	2651.41
987.057	2633.33
987.355	2583.84
987.653	2575.48
987.951	2588.36
988.249	2587.69
988.547	2562.15
988.844	2537.97
989.142	2501.36
989.44	2499.78
989.737	2516.73
990.035	2473.11
990.332	2457.52
990.63	2487.12
990.927	2427.01
991.224	2447.12
991.521	2445.09
991.819	2426.56
992.116	2452.32
992.413	2422.04
992.71	2405.09
993.006	2382.27
993.303	2373.68
993.6	2376.17
993.897	2349.5
994.193	2324.64
994.49	2298.2
994.787	2290.52
995.083	2317.18
995.379	2304.08
995.676	2282.16
995.972	2299.78
996.268	2260.46
996.565	2241.25
996.861	2236.28
997.157	2253.01
997.453	2193.12
997.749	2226.57
998.044	2166.45
998.34	2191.76
998.636	2193.8
998.932	2148.83
999.227	2138.66
999.523	2152.44
999.818	2143.4
1000.114	2113.57
1000.409	2105.66
1000.704	2092.56
1001	2102.05
1001.295	2053.69
1001.59	2064.99
1001.885	2079.68
1002.18	2027.02
1002.475	2069.51
1002.77	2020.7
1003.065	2012.11
1003.359	2014.82
1003.654	1992.67
1003.949	1995.84
1004.243	1989.96
1004.538	1969.17
1004.832	1949.96
1005.127	1917.2
1005.421	1918.33
1005.715	1912.22
1006.009	1925.78
1006.304	1893.02
1006.598	1887.82
1006.892	1864.77
1007.186	1874.71
1007.48	1859.34
1007.773	1868.16
1008.067	1834.71
1008.361	1845.33
1008.655	1817.54
1008.948	1797.65
1009.242	1773.02
1009.535	1780.93
1009.829	1766.92
1010.122	1791.77
1010.415	1743.41
1010.708	1733.47
1011.001	1734.83
1011.295	1719.69
1011.588	1744.77
1011.881	1726.47
1012.173	1703.87
1012.466	1687.37
1012.759	1684.21
1013.052	1654.38
1013.344	1633.14
1013.637	1617.09
1013.93	1639.46
1014.222	1636.52
1014.514	1587.26
1014.807	1618.67
1015.099	1582.51
1015.391	1577.54
1015.683	1587.94
1015.976	1578
1016.268	1573.02
1016.56	1545.68
1016.851	1540.48
1017.143	1535.96
1017.435	1567.6
1017.727	1500.03
1018.018	1516.98
1018.31	1483.76
1018.602	1499.35
1018.893	1438.79
1019.185	1480.14
1019.476	1437.66
1019.767	1446.93
1020.058	1405.12
1020.35	1422.52
1020.641	1416.42
1020.932	1419.36
1021.223	1401.73
1021.514	1387.04
1021.804	1368.06
1022.095	1378.23
1022.386	1381.84
1022.677	1347.49
1022.967	1344.1
1023.258	1317.21
1023.548	1322.63
1023.839	1309.75
1024.129	1321.96
1024.419	1318.12
1024.709	1313.82
1025	1269.53
1025.29	1288.29
1025.58	1287.83
1025.87	1235.18
1026.16	1242.64
1026.449	1239.02
1026.739	1251.45
1027.029	1236.08
1027.319	1214.39
1027.608	1219.59
1027.898	1203.77
1028.187	1181.4
1028.477	1183.88
1028.766	1200.38
1029.055	1183.66
1029.344	1163.77
1029.634	1139.14
1029.923	1161.28
1030.212	1159.02
1030.501	1142.53
1030.79	1157.67
1031.078	1143.2
1031.367	1112.47
1031.656	1074.96
1031.945	1110.89
1032.233	1099.82
1032.522	1111.57
1032.81	1065.47
1033.099	1055.07
1033.387	1067.5
1033.675	1063.88
1033.963	1022.3
1034.251	1031.34
1034.54	1051.46
1034.828	1057.78
1035.116	1017.33
1035.403	1031.12
1035.691	1003.32
1035.979	1025.02
1036.267	980.27
1036.554	1010.55
1036.842	992.47
1037.129	976.88
1037.417	986.82
1037.704	987.5
1037.992	967.39
1038.279	970.78
1038.566	944.79
1038.853	944.79
1039.14	944.79
