Data from hue_110_FLMS001491_00029.txt Node
Date: Tue Feb 07 17:01:06 GMT 2017
User: dcchb
Spectrometer: FLMS00149
Trigger mode: 0
Integration Time (sec): 2.000000E-2
Scans to average: 10
Electric dark correction enabled: true
Nonlinearity correction enabled: false
Boxcar width: 0
XAxis mode: Wavelengths
Number of Pixels in Spectrum: 2048
>>>>>Begin Spectral Data<<<<<
341.393	-9.18
341.776	-9.18
342.16	-9.18
342.543	-56.86
342.927	-60.7
343.31	-67.48
343.693	-72.46
344.077	-66.58
344.46	-62.29
344.843	-62.51
345.226	-47.37
345.61	-30.2
345.993	-8.5
346.376	-10.08
346.759	9.12
347.142	16.13
347.525	43.02
347.908	64.72
348.291	71.04
348.674	99.97
349.057	123.47
349.44	132.74
349.823	157.59
350.206	173.64
350.588	200.08
350.971	202.57
351.354	232.62
351.737	215.22
352.119	244.15
352.502	259.74
352.884	269.46
353.267	285.5
353.65	309.68
354.032	303.13
354.414	312.84
354.797	341.32
355.179	320.75
355.562	330.02
355.944	317.36
356.326	321.21
356.709	312.39
357.091	322.56
357.473	352.84
357.855	339.51
358.238	343.58
358.62	357.82
359.002	335.67
359.384	334.99
359.766	342.67
360.148	344.48
360.53	351.04
360.912	345.61
361.294	329.34
361.676	325.05
362.057	312.39
362.439	342.22
362.821	313.75
363.203	340.64
363.584	338.38
363.966	332.51
364.348	332.51
364.729	309.91
365.111	315.33
365.493	320.98
365.874	313.07
366.256	313.52
366.637	333.64
367.019	315.78
367.4	292.96
367.781	298.61
368.163	307.42
368.544	319.17
368.925	317.36
369.306	310.13
369.688	317.82
370.069	327.76
370.45	334.54
370.831	325.05
371.212	315.33
371.593	320.53
371.974	311.94
372.355	311.94
372.736	327.08
373.117	323.47
373.498	337.93
373.879	335.44
374.26	326.18
374.641	312.17
375.021	325.27
375.402	321.21
375.783	328.66
376.163	323.24
376.544	324.14
376.925	314.88
377.305	318.27
377.686	322.56
378.066	346.06
378.447	340.64
378.827	351.04
379.208	317.14
379.588	330.92
379.968	325.73
380.349	328.89
380.729	338.15
381.109	346.74
381.489	333.64
381.87	347.65
382.25	336.8
382.63	330.7
383.01	331.6
383.39	320.08
383.77	337.93
384.15	343.13
384.53	355.33
384.91	331.83
385.29	361.21
385.67	353.75
386.049	380.19
386.429	332.96
386.809	362.11
387.189	339.74
387.568	369.11
387.948	357.14
388.328	365.5
388.707	346.52
389.087	351.94
389.466	353.52
389.846	361.21
390.225	356.91
390.605	351.49
390.984	352.62
391.363	379.28
391.743	351.04
392.122	351.49
392.501	363.92
392.881	368.66
393.26	349
393.639	384.03
394.018	386.06
394.397	377.7
394.776	378.38
395.155	368.44
395.534	379.74
395.913	367.31
396.292	385.39
396.671	397.14
397.05	371.37
397.429	405.5
397.808	375.67
398.186	389.68
398.565	389
398.944	382.9
399.323	390.36
399.701	410.92
400.08	387.19
400.458	427.19
400.837	396.68
401.215	398.49
401.594	410.92
401.972	390.58
402.351	386.97
402.729	421.77
403.107	418.6
403.486	414.76
403.864	407.31
404.242	414.54
404.62	411.37
404.999	410.02
405.377	416.57
405.755	416.34
406.133	414.54
406.511	419.06
406.889	422.22
407.267	414.76
407.645	412.28
408.023	434.88
408.401	427.19
408.779	458.38
409.156	435.33
409.534	456.34
409.912	425.16
410.29	439.4
410.667	462.45
411.045	443.69
411.422	428.32
411.8	476
412.178	449.11
412.555	456.8
412.933	476
413.31	471.26
413.687	468.32
414.065	475.78
414.442	473.07
414.819	478.72
415.197	497.47
415.574	484.59
415.951	470.35
416.328	495.21
416.705	487.76
417.082	507.42
417.46	501.99
417.837	506.74
418.214	513.52
418.591	504.25
418.967	493.63
419.344	518.72
419.721	507.64
420.098	506.96
420.475	517.81
420.852	506.06
421.228	520.52
421.605	516.46
421.982	538.38
422.358	501.31
422.735	543.57
423.111	551.71
423.488	520.98
423.864	570.01
424.241	551.48
424.617	540.41
424.994	542.22
425.37	562.1
425.746	543.12
426.123	582.44
426.499	562.78
426.875	564.82
427.251	575.21
427.627	570.01
428.003	581.31
428.379	591.71
428.756	617.24
429.132	597.58
429.507	611.37
429.883	608.2
430.259	616.57
430.635	598.49
431.011	619.96
431.387	628.77
431.763	642.78
432.138	632.84
432.514	644.14
432.89	625.38
433.265	651.82
433.641	651.37
434.016	643.01
434.392	658.37
434.767	662.67
435.143	672.84
435.518	702.67
435.894	679.16
436.269	701.99
436.644	701.08
437.02	696.56
437.395	698.6
437.77	705.15
438.145	707.18
438.52	721.65
438.895	726.85
439.271	735.21
439.646	747.86
440.021	744.25
440.395	763.45
440.77	734.3
441.145	751.7
441.52	746.96
441.895	760.52
442.27	784.92
442.645	772.04
443.019	801.65
443.394	811.14
443.769	765.04
444.143	794.64
444.518	804.13
444.892	804.13
445.267	791.93
445.641	805.94
446.016	828.31
446.39	829.44
446.764	840.51
447.139	838.71
447.513	819.72
447.887	854.53
448.262	858.82
448.636	840.29
449.01	853.62
449.384	860.18
449.758	856.11
450.132	873.51
450.506	874.64
450.88	890.46
451.254	870.34
451.628	909.21
452.002	917.12
452.376	927.97
452.75	913.06
453.123	914.41
453.497	950.34
453.871	926.84
454.244	965.03
454.618	971.13
454.992	970
455.365	974.3
455.739	1005.26
456.112	1002.77
456.486	1039.15
456.859	1044.13
457.232	1034.86
457.606	1042.54
457.979	1055.2
458.352	1089.1
458.725	1074.18
459.099	1097.68
459.472	1093.62
459.845	1141.75
460.218	1112.15
460.591	1136.33
460.964	1149.43
461.337	1159.6
461.71	1172.03
462.083	1202.76
462.456	1232.82
462.829	1212.03
463.201	1256.55
463.574	1245.7
463.947	1228.98
464.32	1274.18
464.692	1323.89
465.065	1321.86
465.438	1326.83
465.81	1347.39
466.183	1409.31
466.555	1432.14
466.928	1398.24
467.3	1428.07
467.672	1455.64
468.045	1480.27
468.417	1514.85
468.789	1514.62
469.161	1531.57
469.534	1555.07
469.906	1605.69
470.278	1647.27
470.65	1651.34
471.022	1676.42
471.394	1727.27
471.766	1729.3
472.138	1774.05
472.51	1842.07
472.882	1870.09
473.253	1911.45
473.625	1971.56
473.997	1967.72
474.369	2007.26
474.74	2037.77
475.112	2104.44
475.484	2132.91
475.855	2190.08
476.227	2269.86
476.598	2312.57
476.97	2387.82
477.341	2431.66
477.713	2471.21
478.084	2555.95
478.455	2617.19
478.827	2662.39
479.198	2781.93
479.569	2791.65
479.94	2911.19
480.311	2999.55
480.682	3091.3
481.053	3210.4
481.424	3256.72
481.795	3340.11
482.166	3426.21
482.537	3517.96
482.908	3639.31
483.279	3708.46
483.65	3824.84
484.021	3963.6
484.391	4006.53
484.762	4118.85
485.133	4227.32
485.503	4354.55
485.874	4502.79
486.244	4605.84
486.615	4705.95
486.985	4811.03
487.356	4956.56
487.726	5148.2
488.097	5190.46
488.467	5318.36
488.837	5480.84
489.207	5634.06
489.578	5749.76
489.948	5860.27
490.318	6017.1
490.688	6128.51
491.058	6285.8
491.428	6380.48
491.798	6580.48
492.168	6758.33
492.538	6773.69
492.908	7026.34
493.278	7180.91
493.648	7173.46
494.017	7434.92
494.387	7483.28
494.757	7626.55
495.126	7803.04
495.496	7902.48
495.866	8062.7
496.235	8153.09
496.605	8332.07
496.974	8398.73
497.344	8599.63
497.713	8678.73
498.082	8731.61
498.452	9000.07
498.821	9005.27
499.19	9071.48
499.559	9301.76
499.928	9329.78
500.298	9485.94
500.667	9599.61
501.036	9610.23
501.405	9820.62
501.774	9780.62
502.143	9994.62
502.512	10106.26
502.88	10144
503.249	10211.79
503.618	10326.14
503.987	10407.27
504.356	10469.87
504.724	10644.78
505.093	10658.34
505.462	10699.69
505.83	10861.95
506.199	10990.53
506.567	11155.72
506.936	11112.56
507.304	11219.45
507.672	11285.21
508.041	11353.68
508.409	11521.36
508.777	11546.67
509.145	11634.13
509.514	11626.9
509.882	11649.95
510.25	11822.15
510.618	11845.87
510.986	11887.91
511.354	12017.4
511.722	12080.22
512.09	12123.16
512.458	12064.17
512.826	12253.55
513.193	12301.68
513.561	12276.37
513.929	12373.54
514.297	12519.3
514.664	12572.18
515.032	12548.91
515.4	12674.55
515.767	12690.37
516.135	12670.03
516.502	12635.01
516.869	12794.78
517.237	12864.83
517.604	12836.81
517.972	12877.03
518.339	12988.9
518.706	12900.99
519.073	12953.87
519.44	13024.15
519.808	13115.22
520.175	13130.13
520.542	13229.12
520.909	13226.4
521.276	13199.96
521.643	13306.85
522.009	13380.98
522.376	13384.59
522.743	13402.67
523.11	13582.78
523.477	13590.24
523.843	13569.9
524.21	13608.09
524.577	13732.15
524.943	13746.84
525.31	13717.46
525.676	13840.62
526.043	13830.91
526.409	13847.86
526.776	13923.11
527.142	13936.22
527.508	13936.22
527.874	13948.87
528.241	13972.37
528.607	13988.42
528.973	14004.01
529.339	14000.17
529.705	14070.45
530.071	14148.64
530.437	14086.49
530.803	14109.32
531.169	14134.85
531.535	14048.75
531.901	14032.03
532.267	14052.37
532.632	13934.86
532.998	14048.98
533.364	14084.91
533.73	14030.68
534.095	14105.25
534.461	14051.69
534.826	14091.92
535.192	13986.84
535.557	14032.26
535.923	13978.25
536.288	13971.47
536.653	13942.32
537.019	13971.92
537.384	13940.96
537.749	13900.74
538.114	13905.93
538.479	13906.84
538.845	13844.47
539.21	13817.57
539.575	13813.96
539.94	13827.74
540.305	13747.97
540.67	13737.8
541.034	13767.86
541.399	13764.02
541.764	13608.54
542.129	13695.09
542.494	13540.07
542.858	13604.7
543.223	13512.72
543.587	13618.03
543.952	13533.29
544.316	13486.51
544.681	13473.85
545.045	13513.18
545.41	13432.95
545.774	13425.49
546.138	13316.12
546.503	13319.96
546.867	13300.53
547.231	13361.09
547.595	13294.65
547.959	13251.49
548.324	13259.17
548.688	13072.28
549.052	13169.46
549.416	13084.03
549.779	13063.47
550.143	13025.5
550.507	13034.77
550.871	13052.4
551.235	13011.72
551.599	13024.38
551.962	12937.37
552.326	12919.29
552.689	12958.16
553.053	12813.76
553.417	12789.35
553.78	12863.25
554.143	12794.1
554.507	12863.25
554.87	12813.76
555.234	12849.01
555.597	12782.8
555.96	12748.68
556.323	12731.05
556.686	12688.79
557.05	12770.82
557.413	12728.79
557.776	12673.65
558.139	12754.55
558.502	12746.64
558.865	12644.72
559.228	12652.41
559.59	12644.5
559.953	12798.39
560.316	12768.11
560.679	12727.89
561.041	12745.51
561.404	12761.33
561.767	12795.45
562.129	12703.93
562.492	12851.27
562.854	12790.71
563.217	12695.34
563.579	12742.12
563.941	12746.19
564.304	12767.88
564.666	12887.2
565.028	12836.13
565.39	12827.09
565.753	12857.15
566.115	12852.85
566.477	13001.78
566.839	12891.27
567.201	12978.05
567.563	12944.15
567.925	12947.31
568.287	12860.54
568.648	12921.78
569.01	12973.53
569.372	13016.47
569.734	12938.5
570.095	12995.68
570.457	13045.39
570.819	13028.44
571.18	13007.43
571.542	13065.96
571.903	13033.87
572.265	13038.39
572.626	13104.6
572.987	13046.75
573.349	13087.42
573.71	13102.11
574.071	13165.16
574.432	13125.62
574.794	13132.85
575.155	13165.16
575.516	13142.79
575.877	13201.77
576.238	13112.73
576.599	13229.57
576.96	13130.36
577.32	13142.11
577.681	13260.53
578.042	13264.14
578.403	13246.52
578.763	13161.55
579.124	13220.3
579.485	13274.31
579.845	13235.67
580.206	13178.95
580.566	13241.32
580.927	13283.35
581.287	13267.53
581.648	13230.92
582.008	13238.38
582.368	13243.13
582.728	13182.34
583.089	13210.36
583.449	13240.19
583.809	13208.33
584.169	13246.97
584.529	13167.87
584.889	13213.07
585.249	13136.69
585.609	13020.76
585.969	13144.37
586.329	13070.7
586.688	13175.56
587.048	13072.51
587.408	13094.43
587.768	13109.12
588.127	13044.26
588.487	13041.78
588.846	13137.82
589.206	13031.38
589.565	13036.8
589.925	13093.53
590.284	13033.64
590.643	13004.04
591.003	13049.91
591.362	13046.07
591.721	13082.23
592.08	13031.83
592.44	13095.56
592.799	13067.76
593.158	13073.87
593.517	13023.02
593.876	13000.65
594.235	12978.5
594.593	12932.17
594.952	12952.29
595.311	12876.58
595.67	12948.22
596.029	13108.44
596.387	12995
596.746	12897.37
597.104	12899.18
597.463	12945.06
597.822	12976.69
598.18	12916.58
598.538	12902.34
598.897	12984.15
599.255	12873.42
599.613	13010.59
599.972	12935.56
600.33	12918.16
600.688	12853.31
601.046	12967.65
601.404	12976.01
601.762	12907.32
602.12	12893.53
602.478	12999.74
602.836	12936.02
603.194	12886.98
603.552	12946.64
603.91	12902.8
604.268	13005.17
604.625	12889.24
604.983	12930.59
605.341	12893.76
605.698	12939.41
606.056	12933.98
606.413	12967.88
606.771	13057.82
607.128	12979.18
607.485	12924.49
607.843	12990.03
608.2	12964.94
608.557	12991.61
608.914	13002
609.272	13076.58
609.629	13064.15
609.986	13099.63
610.343	13022.57
610.7	13061.89
611.057	13085.84
611.414	13077.26
611.771	13055.11
612.127	13136.91
612.484	13133.07
612.841	13090.36
613.198	13062.79
613.554	13130.81
613.911	13159.96
614.267	13182.79
614.624	13143.47
614.98	13180.53
615.337	13209.91
615.693	13163.35
616.05	13143.69
616.406	13220.08
616.762	13152.73
617.118	13189.12
617.475	13238.61
617.831	13243.35
618.187	13291.49
618.543	13260.53
618.899	13390.47
619.255	13339.17
619.611	13285.39
619.967	13368.09
620.323	13365.16
620.678	13242.45
621.034	13239.74
621.39	13141.21
621.746	13347.3
622.101	13383.24
622.457	13287.64
622.812	13371.03
623.168	13361.77
623.523	13332.84
623.879	13401.77
624.234	13339.4
624.589	13430.24
624.945	13396.34
625.3	13373.07
625.655	13333.97
626.01	13371.94
626.365	13333.97
626.72	13346.63
627.075	13357.02
627.43	13378.49
627.785	13283.35
628.14	13381.43
628.495	13413.74
628.85	13270.92
629.205	13330.36
629.559	13301.2
629.914	13216.91
630.269	13251.04
630.623	13225.05
630.978	13189.79
631.332	13167.87
631.687	13242.9
632.041	13256.23
632.396	13255.33
632.75	13180.53
633.104	13151.38
633.459	13148.44
633.813	13139.4
634.167	13123.36
634.521	13101.44
634.875	13099.18
635.229	13074.54
635.583	12963.59
635.937	13063.02
636.291	13026.41
636.645	13081.32
636.999	13074.32
637.352	13081.1
637.706	12953.42
638.06	12971.04
638.413	12952.06
638.767	12986.64
639.121	12954.09
639.474	12845.85
639.828	12852.4
640.181	12857.6
640.534	12817.15
640.888	12790.93
641.241	12814.21
641.594	12747.09
641.947	12876.36
642.301	12812.18
642.654	12912.06
643.007	12839.75
643.36	12795.91
643.713	12754.78
644.066	12792.52
644.419	12720.65
644.771	12671.16
645.124	12562.24
645.477	12487.21
645.83	12440.89
646.182	12404.28
646.535	12335.13
646.888	12444.5
647.24	12360.66
647.593	12404.05
647.945	12388.46
648.298	12318.4
648.65	12308.69
649.002	12317.73
649.355	12389.14
649.707	12306.88
650.059	12438.18
650.411	12588
650.763	12629.13
651.115	12604.27
651.467	12649.02
651.819	12547.55
652.171	12632.07
652.523	12535.12
652.875	12631.62
653.227	12504.61
653.578	12676.36
653.93	12622.13
654.282	12569.7
654.633	12584.39
654.985	12571.05
655.337	12667.77
655.688	12650.83
656.039	12664.16
656.391	12526.99
656.742	12674.1
657.094	12541.68
657.445	12720.88
657.796	12655.12
658.147	12673.88
658.498	12639.53
658.849	12632.52
659.2	12655.8
659.551	12550.72
659.902	12743.25
660.253	12665.74
660.604	12667.55
660.955	12580.32
661.306	12638.85
661.656	12679.3
662.007	12734.44
662.358	12663.25
662.708	12726.3
663.059	12705.06
663.409	12633.65
663.76	12726.76
664.11	12750.94
664.461	12730.6
664.811	12741.67
665.161	12739.41
665.511	12718.17
665.862	12719.75
666.212	12758.39
666.562	12719.07
666.912	12732.18
667.262	12683.14
667.612	12646.76
667.962	12756.59
668.312	12727.89
668.662	12807.43
669.011	12660.99
669.361	12787.32
669.711	12655.35
670.06	12643.14
670.41	12639.53
670.76	12662.58
671.109	12679.98
671.459	12672.07
671.808	12642.92
672.157	12675.91
672.507	12426.65
672.856	12618.06
673.205	12663.71
673.554	12670.94
673.904	12611.96
674.253	12621.45
674.602	12557.04
674.951	12373.54
675.3	12316.37
675.649	12551.85
675.998	12535.12
676.346	12545.29
676.695	12512.3
677.044	12451.28
677.393	12482.47
677.741	12519.98
678.09	12466.88
678.438	12416.71
678.787	12411.51
679.135	12457.38
679.484	12235.7
679.832	12409.93
680.181	12327.22
680.529	12343.04
680.877	12235.92
681.225	12268.69
681.573	12314.34
681.922	12258.75
682.27	12218.29
682.618	12156.15
682.966	12211.97
683.314	12179.2
683.661	12205.87
684.009	12062.14
684.357	12060.33
684.705	12035.02
685.053	12085.87
685.4	11965.65
685.748	12002.03
686.095	11933.33
686.443	11898.75
686.79	11913.22
687.138	11860.11
687.485	11946.44
687.832	11862.6
688.18	11886.33
688.527	11769.94
688.874	11782.83
689.221	11763.84
689.568	11664.41
689.915	11692.43
690.262	11599.55
690.609	11648.59
690.956	11523.85
691.303	11581.48
691.65	11554.13
691.997	11478.43
692.344	11374.47
692.69	11461.48
693.037	11359.79
693.383	11247.02
693.73	11362.05
694.077	11285.44
694.423	11197.98
694.769	11149.4
695.116	11154.59
695.462	11161.6
695.808	11025.11
696.155	11120.7
696.501	10933.13
696.847	11004.77
697.193	10881.15
697.539	10951.89
697.885	10801.61
698.231	10819.46
698.577	10866.92
698.923	10801.83
699.269	10755.28
699.614	10635.29
699.96	10637.77
700.306	10599.35
700.651	10548.06
700.997	10496.76
701.342	10476.42
701.688	10513.25
702.033	10367.27
702.379	10443.65
702.724	10311.23
703.069	10348.74
703.415	10269.87
703.76	10253.6
704.105	10269.65
704.45	10238.69
704.795	10133.83
705.14	10102.42
705.485	10111.01
705.83	10046.83
706.175	9993.27
706.52	10042.76
706.865	9992.36
707.209	9951.46
707.554	9897
707.899	9878.47
708.243	9845.48
708.588	9845.02
708.932	9774.07
709.277	9747.85
709.621	9733.61
709.966	9683.9
710.31	9701.75
710.654	9657.91
710.998	9617.91
711.342	9579.04
711.687	9590.12
712.031	9581.53
712.375	9537.69
712.719	9501.98
713.063	9471.47
713.407	9563.22
713.75	9480.97
714.094	9505.15
714.438	9402.78
714.782	9468.76
715.125	9347.18
715.469	9379.5
715.812	9271.71
716.156	9348.77
716.499	9314.87
716.843	9287.75
717.186	9294.76
717.53	9311.03
717.873	9228.99
718.216	9287.98
718.559	9228.09
718.902	9199.39
719.246	9183.8
719.589	9172.27
719.932	9123.91
720.275	9124.59
720.617	9134.76
720.96	9093.63
721.303	9171.37
721.646	9128.43
721.989	9046.85
722.331	9087.53
722.674	9127.08
723.016	9102.22
723.359	9088.43
723.701	9086.85
724.044	9039.17
724.386	9039.85
724.729	9021.32
725.071	9107.19
725.413	8965.95
725.755	8982.22
726.097	9004.59
726.439	8937.7
726.782	8957.59
727.124	8978.38
727.465	8926.63
727.807	8912.62
728.149	8937.93
728.491	8909
728.833	8921.43
729.175	8925.27
729.516	8883.92
729.858	8847.76
730.199	8901.77
730.541	8913.75
730.882	8899.96
731.224	8853.41
731.565	8811.15
731.906	8899.74
732.248	8843.47
732.589	8796.24
732.93	8802.57
733.271	8821.1
733.612	8898.61
733.953	8843.69
734.294	8806.18
734.635	8866.07
734.976	8928.66
735.317	8855.9
735.658	8838.72
735.999	8823.13
736.339	8837.82
736.68	8931.6
737.021	8859.51
737.361	8890.47
737.702	8883.24
738.042	8852.51
738.383	8854.54
738.723	8923.01
739.063	8924.37
739.404	8903.35
739.744	8876.91
740.084	9010.24
740.424	8960.98
740.764	8971.6
741.104	8977.93
741.444	8896.35
741.784	8987.65
742.124	9016.12
742.464	9019.73
742.804	9018.83
743.143	9067.87
743.483	9109
743.823	9088.43
744.162	9126.62
744.502	9184.93
744.841	9244.59
745.181	9299.5
745.52	9215.66
745.86	9283.46
746.199	9321.65
746.538	9350.12
746.877	9413.85
747.216	9506.05
747.556	9447.75
747.895	9579.49
748.234	9580.85
748.573	9659.94
748.911	9715.31
749.25	9763.9
749.589	9742.65
749.928	9889.77
750.267	9980.16
750.605	10057.67
750.944	10097.45
751.283	10146.03
751.621	10221.51
751.96	10339.93
752.298	10427.83
752.636	10574.27
752.975	10631.44
753.313	10701.5
753.651	10879.57
753.989	10886.58
754.327	11062.84
754.666	11095.16
755.004	11234.82
755.342	11391.42
755.679	11537.86
756.017	11590.74
756.355	11831.64
756.693	11880.68
757.031	11984.63
757.368	12053.78
757.706	12284.06
758.044	12437.05
758.381	12620.32
758.719	12706.87
759.056	12907.77
759.394	13086.75
759.731	13172.62
760.068	13364.25
760.405	13456.23
760.743	13606.05
761.08	13810.34
761.417	13929.66
761.754	14150.22
762.091	14312.7
762.428	14428.63
762.765	14542.75
763.102	14814.61
763.438	14934.38
763.775	15069.29
764.112	15318.55
764.449	15424.31
764.785	15601.93
765.122	15597.41
765.458	15778.43
765.795	15886.67
766.131	16168.25
766.467	16245.99
766.804	16370.95
767.14	16430.39
767.476	16602.81
767.812	16658.18
768.148	16939.53
768.485	17018.17
768.821	17035.57
769.157	17240.54
769.492	17230.82
769.828	17471.49
770.164	17419.29
770.5	17579.74
770.836	17684.37
771.171	17775.21
771.507	17839.39
771.842	17833.51
772.178	17955.32
772.513	18023.79
772.849	18158.7
773.184	18185.14
773.519	18273.73
773.855	18282.99
774.19	18283.45
774.525	18302.65
774.86	18424.91
775.195	18541.97
775.53	18544.68
775.865	18556.21
776.2	18471.69
776.535	18522.31
776.87	18562.31
777.205	18687.5
777.539	18541.97
777.874	18682.76
778.209	18648.41
778.543	18727.73
778.878	18727.73
779.212	18681.85
779.547	18638.24
779.881	18706.26
780.215	18692.93
780.55	18779.25
780.884	18758.24
781.218	18714.85
781.552	18766.6
781.886	18762.3
782.22	18788.07
782.554	18736.09
782.888	18643.21
783.222	18584.91
783.556	18626.04
783.889	18620.16
784.223	18473.72
784.557	18533.38
784.89	18500.84
785.224	18590.78
785.557	18458.81
785.891	18365.03
786.224	18485.93
786.558	18500.16
786.891	18409.32
787.224	18355.31
787.557	18297
787.891	18299.49
788.224	18358.25
788.557	18364.8
788.89	18285.93
789.223	18277.34
789.556	18265.14
789.888	18154.18
790.221	18127.07
790.554	18065.15
790.887	18043
791.219	18001.65
791.552	18044.58
791.884	17960.97
792.217	17887.75
792.549	17937.92
792.882	17764.82
793.214	17707.64
793.546	17795.55
793.879	17799.84
794.211	17580.87
794.543	17663.58
794.875	17623.12
795.207	17620.19
795.539	17556.23
795.871	17575.89
796.203	17489.12
796.535	17285.28
796.867	17397.59
797.198	17291.83
797.53	17320.76
797.862	17210.48
798.193	17214.32
798.525	17076.7
798.856	17103.36
799.188	17028.79
799.519	16972.07
799.85	16834.22
800.182	16937.27
800.513	16907.21
800.844	16824.73
801.175	16842.13
801.506	16803.71
801.837	16821.11
802.168	16710.38
802.499	16659.76
802.83	16602.13
803.161	16485.08
803.491	16534.57
803.822	16611.17
804.153	16532.08
804.483	16421.8
804.814	16333.67
805.145	16384.96
805.475	16300.22
805.805	16253.44
806.136	16248.92
806.466	16276.72
806.796	16205.76
807.126	16110.85
807.457	16114.92
807.787	16039.44
808.117	16005.31
808.447	16020.91
808.777	15961.92
809.107	15884.19
809.436	15871.31
809.766	15897.52
810.096	15835.15
810.426	15786.34
810.755	15661.82
811.085	15782.95
811.414	15754.92
811.744	15737.52
812.073	15603.06
812.403	15502.95
812.732	15419.11
813.061	15486.68
813.39	15389.74
813.719	15369.85
814.049	15475.84
814.378	15415.27
814.707	15279.01
815.036	15222.96
815.365	15187.48
815.693	15053.02
816.022	15168.95
816.351	15085.56
816.68	15060.25
817.008	15033.36
817.337	14994.49
817.665	14938.22
817.994	14985
818.322	14944.32
818.651	14823.2
818.979	14919.01
819.307	14919.69
819.636	14891.44
819.964	14685.8
820.292	14860.26
820.62	14822.75
820.948	14836.98
821.276	14806.7
821.604	14819.58
821.932	14883.08
822.259	14824.55
822.587	14816.19
822.915	14700.94
823.243	14792.92
823.57	14679.47
823.898	14808.51
824.225	14719.92
824.553	14669.53
824.88	14705.91
825.207	14755.63
825.535	14803.54
825.862	14750.88
826.189	14721.73
826.516	14787.04
826.843	14771
827.17	14772.8
827.497	14806.48
827.824	14718.12
828.151	14778.45
828.478	14697.55
828.805	14773.26
829.131	14695.52
829.458	14806.48
829.785	14608.51
830.111	14711.79
830.438	14807.61
830.764	14769.87
831.09	14751.56
831.417	14667.72
831.743	14774.16
832.069	14725.35
832.395	14751.56
832.722	14710.21
833.048	14632.02
833.374	14645.35
833.7	14574.16
834.026	14665.46
834.351	14593.37
834.677	14662.07
835.003	14679.7
835.329	14582.75
835.654	14625.01
835.98	14513.38
836.306	14544.34
836.631	14548.63
836.956	14548.85
837.282	14539.59
837.607	14468.4
837.932	14454.17
838.258	14380.05
838.583	14397.9
838.908	14315.64
839.233	14298.69
839.558	14274.96
839.883	14262.76
840.208	14258.24
840.533	14305.92
840.858	14295.98
841.182	14213.72
841.507	14209.2
841.832	14144.35
842.156	14123.1
842.481	14095.08
842.805	14056.89
843.13	13977.8
843.454	14110.67
843.778	14009.43
844.103	14008.76
844.427	13903.9
844.751	13896.22
845.075	13921.53
845.399	13817.35
845.723	13655.54
846.047	13745.71
846.371	13647.86
846.695	13672.27
847.019	13458.94
847.343	13503.91
847.666	13365.16
847.99	13356.12
848.313	13398.6
848.637	13261.43
848.96	13244.03
849.284	13257.59
849.607	13153.64
849.931	13101.21
850.254	13004.94
850.577	12911.38
850.9	12899.41
851.223	12951.16
851.546	12781.22
851.869	12650.15
852.192	12862.8
852.515	12667.77
852.838	12609.47
853.161	12637.72
853.483	12532.86
853.806	12477.27
854.129	12482.02
854.451	12439.53
854.774	12412.41
855.096	12314.34
855.419	12265.3
855.741	12312.98
856.063	12220.55
856.385	12176.71
856.708	12195.02
857.03	12117.51
857.352	12137.84
857.674	12054.23
857.996	11963.16
858.318	11910.05
858.64	11957.96
858.961	11921.58
859.283	11842.94
859.605	11813.79
859.926	11790.28
860.248	11745.54
860.57	11756.16
860.891	11776.5
861.212	11725.88
861.534	11683.39
861.855	11602.94
862.176	11593.68
862.498	11550.06
862.819	11530.4
863.14	11591.19
863.461	11506.9
863.782	11433.68
864.103	11527.24
864.424	11472.55
864.745	11450.63
865.065	11381.93
865.386	11344.65
865.707	11265.1
866.027	11364.98
866.348	11305.1
866.668	11310.3
866.989	11319.56
867.309	11194.82
867.63	11180.36
867.95	11253.12
868.27	11116.63
868.59	11136.29
868.91	11177.42
869.23	11160.47
869.55	11040.47
869.87	11142.39
870.19	11009.96
870.51	11104.88
870.83	11071.21
871.15	11002.28
871.469	11030.53
871.789	11026.24
872.109	11021.72
872.428	10869.63
872.748	10948.05
873.067	10908.27
873.386	10882.96
873.706	10908.05
874.025	10802.51
874.344	10837.99
874.663	10839.57
874.982	10856.97
875.301	10860.14
875.62	10814.72
875.939	10703.08
876.258	10747.6
876.577	10647.26
876.896	10611.78
877.214	10619.69
877.533	10666.92
877.852	10628.51
878.17	10628.28
878.489	10663.76
878.807	10602.74
879.125	10607.94
879.444	10621.05
879.762	10506.7
880.08	10555.06
880.398	10525.46
880.716	10584.67
881.034	10500.83
881.352	10516.42
881.67	10445.01
881.988	10417.44
882.306	10317.33
882.624	10386.48
882.941	10345.12
883.259	10267.16
883.577	10260.61
883.894	10281.62
884.212	10202.98
884.529	10227.61
884.846	10157.33
885.164	10100.84
885.481	10160.04
885.798	10165.02
886.115	10016.77
886.432	10110.55
886.75	9988.97
887.067	10063.32
887.383	9996.66
887.7	10062.65
888.017	9927.28
888.334	9936.77
888.651	9931.35
888.967	9927.51
889.284	9895.42
889.6	9808.64
889.917	9809.77
890.233	9756.44
890.55	9770.22
890.866	9723.67
891.182	9670.56
891.498	9637.57
891.815	9628.53
892.131	9542.66
892.447	9536.56
892.763	9573.84
893.079	9479.38
893.395	9515.77
893.71	9509.89
894.026	9470.34
894.342	9438.71
894.657	9334.3
894.973	9329.33
895.289	9322.33
895.604	9342.66
895.92	9174.98
896.235	9212.5
896.55	9202.55
896.865	9157.36
897.181	9176.79
897.496	9149
897.811	9077.36
898.126	9087.08
898.441	9023.58
898.756	8939.96
899.071	8883.24
899.386	8961.66
899.7	8829.46
900.015	8821.32
900.33	8767.54
900.644	8703.58
900.959	8670.82
901.273	8690.48
901.588	8625.39
901.902	8642.34
902.216	8564.83
902.531	8566.19
902.845	8578.39
903.159	8480.54
903.473	8546.98
903.787	8498.17
904.101	8393.31
904.415	8308.11
904.729	8387.43
905.042	8295.01
905.356	8295.46
905.67	8335.01
905.984	8209.36
906.297	8231.05
906.611	8137.27
906.924	8173.2
907.237	8139.98
907.551	8081.23
907.864	8011.85
908.177	8055.92
908.491	7981.12
908.804	7957.16
909.117	7905.64
909.43	7853.66
909.743	7845.75
910.056	7808.69
910.368	7776.6
910.681	7739.54
910.994	7737.96
911.307	7702.48
911.619	7619.55
911.932	7636.49
912.244	7605.99
912.557	7572.54
912.869	7440.34
913.181	7422.71
913.494	7483.28
913.806	7459.55
914.118	7405.54
914.43	7379.1
914.742	7362.83
915.054	7305.43
915.366	7281.7
915.678	7291.42
915.99	7216.62
916.302	7154.02
916.613	7146.56
916.925	7102.27
917.236	7107.24
917.548	7092.1
917.859	7042.61
918.171	6972.33
918.482	6959
918.794	6923.74
919.105	6932.33
919.416	6877.87
919.727	6895.95
920.038	6868.15
920.349	6856.85
920.66	6838.32
920.971	6745.9
921.282	6696.86
921.593	6759
921.903	6626.35
922.214	6645.33
922.525	6614.83
922.835	6584.32
923.146	6545
923.456	6572.12
923.767	6481.5
924.077	6548.61
924.387	6466.36
924.697	6411.44
925.008	6392.69
925.318	6358.79
925.628	6391.1
925.938	6335.74
926.248	6262.97
926.558	6283.76
926.867	6229.75
927.177	6223.2
927.487	6193.37
927.796	6152.69
928.106	6142.07
928.416	6091.22
928.725	6071.79
929.034	6000.15
929.344	6081.51
929.653	6093.71
929.962	6029.53
930.271	5967.39
930.581	5978.23
930.89	5929.19
931.199	5889.87
931.508	5897.1
931.817	5897.1
932.125	5820.72
932.434	5833.38
932.743	5790.44
933.051	5753.83
933.36	5754.06
933.669	5717
933.977	5695.98
934.286	5719.93
934.594	5638.35
934.902	5624.8
935.21	5615.08
935.519	5581.18
935.827	5554.06
936.135	5516.32
936.443	5486.49
936.751	5437
937.059	5492.37
937.367	5411.02
937.674	5424.8
937.982	5376.21
938.29	5378.93
938.597	5366.5
938.905	5346.16
939.213	5247.18
939.52	5280.17
939.827	5275.65
940.135	5211.7
940.442	5177.35
940.749	5176.67
941.056	5157.46
941.363	5113.4
941.67	5126.28
941.977	5096.22
942.284	5055.77
942.591	5042.21
942.898	5053.06
943.205	5025.04
943.511	5010.8
943.818	4997.24
944.125	4887.87
944.431	4905.49
944.738	4898.71
945.044	4929.9
945.35	4913.18
945.657	4822.56
945.963	4823.01
946.269	4787.53
946.575	4766.74
946.881	4719.51
947.187	4750.24
947.493	4691.71
947.799	4712.05
948.105	4672.5
948.41	4634.99
948.716	4639.06
949.022	4603.81
949.327	4564.26
949.633	4549.57
949.938	4541.66
950.244	4531.49
950.549	4497.14
950.854	4480.87
951.16	4476.58
951.465	4454.43
951.77	4470.7
952.075	4394.77
952.38	4407.65
952.685	4432.06
952.99	4321.55
953.294	4376.92
953.599	4319.29
953.904	4294.66
954.209	4218.96
954.513	4329.91
954.818	4275
955.122	4224.61
955.426	4231.84
955.731	4190.03
956.035	4183.03
956.339	4141.22
956.643	4173.08
956.948	4154.1
957.252	4089.69
957.556	4091.28
957.86	4085.85
958.163	4058.74
958.467	4027.55
958.771	4020.09
959.075	4018.51
959.378	3954.33
959.682	4007.89
959.985	3975.8
960.289	3972.41
960.592	3963.82
960.896	3892.86
961.199	3886.99
961.502	3896.48
961.805	3836.82
962.108	3833.88
962.411	3833.43
962.714	3783.71
963.017	3780.78
963.32	3811.96
963.623	3734.45
963.926	3722.25
964.228	3739.42
964.531	3665.3
964.833	3701.23
965.136	3682.47
965.438	3687.67
965.741	3636.83
966.043	3654.45
966.345	3645.86
966.648	3627.56
966.95	3573.1
967.252	3563.83
967.554	3568.35
967.856	3542.36
968.158	3482.71
968.46	3556.83
968.761	3464.4
969.063	3502.37
969.365	3453.1
969.666	3463.04
969.968	3405.64
970.269	3440.22
970.571	3402.48
970.872	3401.58
971.174	3361.13
971.475	3329.26
971.776	3328.58
972.077	3305.76
972.378	3290.39
972.679	3298.3
972.98	3283.61
973.281	3235.25
973.582	3285.2
973.883	3273.22
974.183	3251.3
974.484	3193
974.785	3211.75
975.085	3221.24
975.386	3175.14
975.686	3171.07
975.986	3146.67
976.287	3142.83
976.587	3089.5
976.887	3132.66
977.187	3101.7
977.487	3064.64
977.787	3064.18
978.087	3060.12
978.387	3017.41
978.687	3051.3
978.987	3043.85
979.286	2995.49
979.586	2995.03
979.885	2965.66
980.185	2955.26
980.484	2916.39
980.784	2918.88
981.083	2899.22
981.382	2908.26
981.682	2867.35
981.981	2861.93
982.28	2880.69
982.579	2844.08
982.878	2857.41
983.177	2814.02
983.475	2837.3
983.774	2816.06
984.073	2792.1
984.372	2787.81
984.67	2774.02
984.969	2728.15
985.267	2772.44
985.566	2715.27
985.864	2712.33
986.162	2723.18
986.461	2679.56
986.759	2680.47
987.057	2645.66
987.355	2651.31
987.653	2628.04
987.951	2609.06
988.249	2614.93
988.547	2593.91
988.844	2600.47
989.142	2602.05
989.44	2615.84
989.737	2585.33
990.035	2534.48
990.332	2515.27
990.63	2521.15
990.927	2513.46
991.224	2468.49
991.521	2512.56
991.819	2473.47
992.116	2449.96
992.413	2469.4
992.71	2411.55
993.006	2430.53
993.303	2422.62
993.6	2415.84
993.897	2380.59
994.193	2385.78
994.49	2380.81
994.787	2366.12
995.083	2350.76
995.379	2325.22
995.676	2294.71
995.972	2330.87
996.268	2299.69
996.565	2288.84
996.861	2296.52
997.157	2280.48
997.453	2267.6
997.749	2264.43
998.044	2212.23
998.34	2226.92
998.636	2187.37
998.932	2175.39
999.227	2229.86
999.523	2201.83
999.818	2163.64
1000.114	2165.45
1000.409	2168.16
1000.704	2099.01
1001	2118.9
1001.295	2122.29
1001.59	2111.22
1001.885	2130.42
1002.18	2072.12
1002.475	2058.11
1002.77	2051.56
1003.065	2038.68
1003.359	2035.06
1003.654	2028.05
1003.949	2016.53
1004.243	1994.38
1004.538	1993.03
1004.832	1960.03
1005.127	1960.71
1005.421	1951.22
1005.715	1936.31
1006.009	1930.2
1006.304	1904.44
1006.598	1910.54
1006.892	1921.39
1007.186	1909.41
1007.48	1855.63
1007.773	1870.77
1008.067	1864.67
1008.361	1837.78
1008.655	1838
1008.948	1845.91
1009.242	1818.34
1009.535	1811.34
1009.829	1805.46
1010.122	1799.59
1010.415	1794.61
1010.708	1749.87
1011.001	1776.31
1011.295	1739.93
1011.588	1754.61
1011.881	1729.3
1012.173	1736.54
1012.466	1691.79
1012.759	1684.11
1013.052	1708.29
1013.344	1675.07
1013.637	1680.72
1013.93	1641.62
1014.222	1667.16
1014.514	1621.06
1014.807	1634.84
1015.099	1604.56
1015.391	1582.87
1015.683	1617.44
1015.976	1571.34
1016.268	1593.72
1016.56	1564.34
1016.851	1555.98
1017.143	1574.96
1017.435	1536.32
1017.727	1516.66
1018.018	1544
1018.31	1533.38
1018.602	1507.84
1018.893	1492.7
1019.185	1489.54
1019.476	1491.12
1019.767	1443.89
1020.058	1441.85
1020.35	1444.57
1020.641	1449.54
1020.932	1436.21
1021.223	1391.46
1021.514	1443.66
1021.804	1406.15
1022.095	1406.15
1022.386	1367.28
1022.677	1376.55
1022.967	1367.73
1023.258	1374.74
1023.548	1345.13
1023.839	1346.26
1024.129	1312.37
1024.419	1335.64
1024.709	1297.68
1025	1296.32
1025.29	1279.6
1025.58	1290.67
1025.87	1273.95
1026.16	1269.43
1026.449	1257.45
1026.739	1247.28
1027.029	1236.66
1027.319	1231.69
1027.608	1240.73
1027.898	1214.29
1028.187	1179.71
1028.477	1212.71
1028.766	1183.56
1029.055	1182.43
1029.344	1194.4
1029.634	1180.62
1029.923	1144.91
1030.212	1148.08
1030.501	1151.47
1030.79	1170.45
1031.078	1140.39
1031.367	1148.08
1031.656	1118.47
1031.945	1125.03
1032.233	1105.14
1032.522	1090.68
1032.81	1104.69
1033.099	1077.8
1033.387	1081.19
1033.675	1055.2
1033.963	1043.22
1034.251	1066.72
1034.54	1050.23
1034.828	1046.61
1035.116	1026.72
1035.403	1056.1
1035.691	1033.73
1035.979	1021.98
1036.267	1018.59
1036.554	991.7
1036.842	983.11
1037.129	1015.2
1037.417	980.62
1037.704	979.95
1037.992	958.48
1038.279	991.92
1038.566	960.74
1038.853	960.74
1039.14	960.74
