Data from hue_220_FLMS001491_00022.txt Node
Date: Tue Feb 07 16:39:10 GMT 2017
User: dcchb
Spectrometer: FLMS00149
Trigger mode: 0
Integration Time (sec): 2.000000E-2
Scans to average: 10
Electric dark correction enabled: true
Nonlinearity correction enabled: false
Boxcar width: 0
XAxis mode: Wavelengths
Number of Pixels in Spectrum: 2048
>>>>>Begin Spectral Data<<<<<
341.393	-19.53
341.776	-19.53
342.16	-19.53
342.543	-55.92
342.927	-48.91
343.31	-71.06
343.693	-65.86
344.077	-67.67
344.46	-70.38
344.843	-52.75
345.226	-58.18
345.61	-28.8
345.993	-17.27
346.376	13.91
346.759	15.04
347.142	11.65
347.525	53.69
347.908	44.19
348.291	87.36
348.674	105.44
349.057	100.69
349.44	118.54
349.823	137.98
350.206	173.46
350.588	210.07
350.971	189.73
351.354	216.84
351.737	238.31
352.119	241.48
352.502	251.65
352.884	262.95
353.267	262.27
353.65	291.64
354.032	291.19
354.414	318.99
354.797	309.05
355.179	324.64
355.562	325.54
355.944	316.5
356.326	315.37
356.709	311.76
357.091	336.62
357.473	349.5
357.855	324.64
358.238	339.55
358.62	340.01
359.002	334.36
359.384	351.98
359.766	311.08
360.148	351.53
360.53	335.71
360.912	323.28
361.294	337.52
361.676	342.27
362.057	331.64
362.439	328.03
362.821	333.45
363.203	332.55
363.584	316.05
363.966	309.5
364.348	323.06
364.729	311.31
365.111	318.08
365.493	313.11
365.874	291.87
366.256	325.32
366.637	325.32
367.019	328.25
367.4	303.62
367.781	318.54
368.163	310.63
368.544	303.85
368.925	317.41
369.306	320.12
369.688	307.46
370.069	310.4
370.45	330.29
370.831	319.21
371.212	311.31
371.593	321.47
371.974	320.34
372.355	302.04
372.736	320.12
373.117	314.47
373.498	325.99
373.879	317.41
374.26	297.07
374.641	325.54
375.021	327.35
375.402	313.11
375.783	314.7
376.163	299.33
376.544	303.85
376.925	320.8
377.305	318.54
377.686	325.54
378.066	324.64
378.447	318.99
378.827	326.22
379.208	319.21
379.588	330.06
379.968	321.7
380.349	333.45
380.729	335.26
381.109	336.84
381.489	331.87
381.87	326.45
382.25	335.94
382.63	312.21
383.01	350.4
383.39	349.5
383.77	323.51
384.15	330.51
384.53	334.13
384.91	327.58
385.29	329.38
385.67	344.3
386.049	339.1
386.429	324.86
386.809	345.43
387.189	356.5
387.568	349.5
387.948	339.33
388.328	342.72
388.707	363.73
389.087	347.46
389.466	337.52
389.846	338.42
390.225	373.22
390.605	342.27
390.984	358.76
391.363	365.32
391.743	365.32
392.122	370.29
392.501	349.95
392.881	371.19
393.26	367.12
393.639	372.77
394.018	369.61
394.397	363.73
394.776	375.26
395.155	386.78
395.534	380.91
395.913	364.19
396.292	350.17
396.671	376.84
397.05	388.59
397.429	375.71
397.808	417.97
398.186	418.65
398.565	408.25
398.944	411.64
399.323	389.27
399.701	404.41
400.08	396.95
400.458	398.08
400.837	395.14
401.215	400.12
401.594	393.79
401.972	410.29
402.351	409.83
402.729	408.93
403.107	429.27
403.486	424.52
403.864	414.58
404.242	431.53
404.62	426.78
404.999	432.66
405.377	426.78
405.755	428.36
406.133	453.45
406.511	443.28
406.889	453.9
407.267	467.46
407.645	465.2
408.023	459.1
408.401	477.18
408.779	457.74
409.156	466.33
409.534	452.09
409.912	470.4
410.29	490.74
410.667	514.24
411.045	506.55
411.422	512.2
411.8	518.31
412.178	525.99
412.555	548.36
412.933	550.62
413.31	547.91
413.687	552.65
414.065	553.11
414.442	575.48
414.819	594.69
415.197	579.77
415.574	598.08
415.951	601.02
416.328	610.05
416.705	601.47
417.082	623.16
417.46	633.78
417.837	626.33
418.214	665.87
418.591	645.99
418.967	652.99
419.344	645.99
419.721	662.48
420.098	675.36
420.475	704.74
420.852	705.19
421.228	723.05
421.605	713.55
421.982	731.63
422.358	777.73
422.735	762.14
423.111	780.67
423.488	791.52
423.864	806.43
424.241	808.69
424.617	853.44
424.994	830.61
425.37	861.57
425.746	842.36
426.123	860.22
426.499	856.38
426.875	884.62
427.251	934.34
427.627	924.4
428.003	916.49
428.379	924.62
428.756	939.76
429.132	968.92
429.507	963.04
429.883	995.13
430.259	988.35
430.635	991.74
431.011	1022.25
431.387	1025.86
431.763	1051.17
432.138	1055.47
432.514	1053.66
432.89	1092.98
433.265	1096.37
433.641	1143.6
434.016	1160.55
434.392	1175.46
434.767	1213.88
435.143	1176.82
435.518	1227.21
435.894	1231.51
436.269	1285.29
436.644	1281.22
437.02	1326.65
437.395	1328.45
437.77	1362.8
438.145	1363.48
438.52	1357.83
438.895	1379.3
439.271	1423.82
439.646	1466.76
440.021	1481.44
440.395	1482.8
440.77	1466.98
441.145	1526.64
441.52	1533.42
441.895	1562.12
442.27	1583.59
442.645	1586.07
443.019	1610.25
443.394	1582.46
443.769	1613.87
444.143	1641.67
444.518	1668.78
444.892	1665.39
445.267	1684.83
445.641	1682.12
446.016	1690.25
446.39	1709.23
446.764	1699.07
447.139	1724.6
447.513	1744.04
447.887	1756.01
448.262	1756.47
448.636	1762.11
449.01	1767.09
449.384	1789.46
449.758	1837.82
450.132	1850.25
450.506	1882.56
450.88	1895.9
451.254	1871.04
451.628	1909.46
452.002	1922.56
452.376	1950.58
452.75	1955.33
453.123	1967.08
453.497	1978.61
453.871	1989
454.244	2056.12
454.618	2076
454.992	2057.7
455.365	2079.62
455.739	2140.64
456.112	2154.19
456.486	2122.78
456.859	2191.71
457.232	2227.19
457.606	2217.02
457.979	2238.03
458.352	2264.93
458.725	2283.91
459.099	2308.54
459.472	2368.88
459.845	2357.81
460.218	2414.53
460.591	2398.26
460.964	2374.08
461.337	2486.62
461.71	2492.26
462.083	2531.36
462.456	2536.11
462.829	2539.5
463.201	2581.3
463.574	2591.7
463.947	2629.66
464.32	2705.37
464.692	2710.79
465.065	2713.73
465.438	2782.65
465.81	2797.12
466.183	2794.4
466.555	2861.75
466.928	2863.33
467.3	2873.27
467.672	2920.73
468.045	3000.5
468.417	3004.12
468.789	3018.35
469.161	3046.37
469.534	3107.62
469.906	3113.27
470.278	3143.1
470.65	3197.11
471.022	3223.32
471.394	3330.89
471.766	3314.39
472.138	3344.45
472.51	3395.52
472.882	3502.63
473.253	3498.34
473.625	3483.43
473.997	3567.04
474.369	3634.61
474.74	3638
475.112	3682.52
475.484	3708.28
475.855	3790.99
476.227	3829.86
476.598	3904.88
476.97	3927.71
477.341	4028.72
477.713	4084.09
478.084	4062.85
478.455	4196.17
478.827	4203.41
479.198	4306.68
479.569	4322.95
479.94	4416.51
480.311	4466.9
480.682	4520.69
481.053	4629.84
481.424	4656.05
481.795	4688.59
482.166	4769.04
482.537	4803.84
482.908	4897.63
483.279	4924.07
483.65	4958.19
484.021	5075.02
484.391	5116.38
484.762	5149.82
485.133	5250.84
485.503	5273.21
485.874	5393.66
486.244	5419.65
486.615	5480.89
486.985	5523.15
487.356	5645.4
487.726	5609.7
488.097	5766.08
488.467	5718.62
488.837	5869.58
489.207	5887.88
489.578	5981.21
489.948	6062.57
490.318	6097.14
490.688	6096.24
491.058	6209.91
491.428	6267.98
491.798	6231.15
492.168	6363.12
492.538	6447.64
492.908	6470.47
493.278	6510.24
493.648	6504.36
494.017	6590.46
494.387	6622.1
494.757	6630.69
495.126	6707.97
495.496	6778.03
495.866	6714.98
496.235	6816.45
496.605	6895.31
496.974	6899.38
497.344	6935.31
497.713	7003.78
498.082	7067.06
498.452	7019.6
498.821	7044.69
499.19	7043.56
499.559	7122.2
499.928	7177.57
500.298	7150.22
500.667	7280.16
501.036	7267.96
501.405	7257.11
501.774	7254.85
502.143	7269.77
502.512	7340.73
502.88	7391.35
503.249	7369.88
503.618	7408.75
503.987	7435.64
504.356	7475.18
504.724	7490.78
505.093	7422.3
505.462	7497.78
505.83	7477.9
506.199	7585.92
506.567	7631.79
506.936	7590.66
507.304	7659.59
507.672	7652.36
508.041	7761.28
508.409	7746.82
508.777	7813.93
509.145	7790.2
509.514	7738
509.882	7728.74
510.25	7784.33
510.618	7775.29
510.986	7792.01
511.354	7846.93
511.722	7824.78
512.09	7926.7
512.458	7928.96
512.826	7939.58
513.193	7927.83
513.561	7869.75
513.929	7926.92
514.297	7995.85
514.664	8038.56
515.032	7987.94
515.4	7966.47
515.767	7970.31
516.135	8006.47
516.502	7939.81
516.869	8020.48
517.237	8045.11
517.604	7990.65
517.972	8057.54
518.339	8097.99
518.706	8098.67
519.073	8092.57
519.44	8021.84
519.808	8123.53
520.175	8039.69
520.542	8112.23
520.909	8135.96
521.276	8082.85
521.643	8166.69
522.009	8131.44
522.376	8124.89
522.743	8152.46
523.11	8147.71
523.477	8192.91
523.843	8244.88
524.21	8251.21
524.577	8244.88
524.943	8231.32
525.31	8197.65
525.676	8246.92
526.043	8210.53
526.409	8243.07
526.776	8300.02
527.142	8310.64
527.508	8168.27
527.874	8307.25
528.241	8286.46
528.607	8296.86
528.973	8315.16
529.339	8280.36
529.705	8259.12
530.071	8289.63
530.437	8323.07
530.803	8241.04
531.169	8333.02
531.535	8303.41
531.901	8204.88
532.267	8216.86
532.632	8183.87
532.998	8208.27
533.364	8260.93
533.73	8196.3
534.095	8243.53
534.461	8185.9
534.826	8249.63
535.192	8213.47
535.557	8234.26
535.923	8130.08
536.288	8090.08
536.653	8117.2
537.019	8078.78
537.384	8067.49
537.749	8082.85
538.114	8040.82
538.479	8044.44
538.845	7975.06
539.21	7959.24
539.575	7952.23
539.94	7950.2
540.305	7915.85
540.67	7914.27
541.034	7896.64
541.399	7880.37
541.764	7816.19
542.129	7801.96
542.494	7778
542.858	7800.15
543.223	7774.16
543.587	7815.51
543.952	7699.59
544.316	7762.63
544.681	7678.57
545.045	7697.78
545.41	7635.18
545.774	7675.41
546.138	7593.6
546.503	7586.82
546.867	7533.71
547.231	7669.76
547.595	7549.76
547.959	7516.77
548.324	7526.71
548.688	7415.07
549.052	7461.4
549.416	7401.29
549.779	7408.29
550.143	7393.61
550.507	7405.36
550.871	7314.96
551.235	7301.4
551.599	7323.32
551.962	7288.3
552.326	7272.03
552.689	7251.01
553.053	7215.3
553.417	7169.2
553.78	7285.81
554.143	7189.77
554.507	7234.74
554.87	7188.41
555.234	7218.69
555.597	7216.66
555.96	7137.79
556.323	7128.3
556.686	7104.57
557.05	7080.84
557.413	7100.28
557.776	7058.92
558.139	7110
558.502	7105.03
558.865	7074.52
559.228	7039.94
559.59	7153.16
559.953	7037.68
560.316	7119.94
560.679	7084.69
561.041	7076.33
561.404	7109.32
561.767	7097.79
562.129	7029.77
562.492	7065.7
562.854	7033.39
563.217	7073.84
563.579	7086.04
563.941	7046.27
564.304	7077
564.666	7043.56
565.028	7070.22
565.39	7076.1
565.753	7094.63
566.115	7132.37
566.477	7137.34
566.839	7164.91
567.201	7084.69
567.563	7140.05
567.925	7120.62
568.287	7168.3
568.648	7139.6
569.01	7133.72
569.372	7221.41
569.734	7126.27
570.095	7152.03
570.457	7233.61
570.819	7196.55
571.18	7206.04
571.542	7244.23
571.903	7218.69
572.265	7252.37
572.626	7276.32
572.987	7313.38
573.349	7277.22
573.71	7317.45
574.071	7328.07
574.432	7295.08
574.794	7420.27
575.155	7343.89
575.516	7303.89
575.877	7357.67
576.238	7368.97
576.599	7402.87
576.96	7432.7
577.32	7416.66
577.681	7410.78
578.042	7481.29
578.403	7441.74
578.763	7518.35
579.124	7472.25
579.485	7484.45
579.845	7515.41
580.206	7555.41
580.566	7585.46
580.927	7532.81
581.287	7597.67
581.648	7565.13
582.008	7584.33
582.368	7629.08
582.728	7688.29
583.089	7684.9
583.449	7651.23
583.809	7647.61
584.169	7742.07
584.529	7654.16
584.889	7778.91
585.249	7712.69
585.609	7655.75
585.969	7760.6
586.329	7709.53
586.688	7708.85
587.048	7748.62
587.408	7749.75
587.768	7809.87
588.127	7799.24
588.487	7802.18
588.846	7860.03
589.206	7790.43
589.565	7813.71
589.925	7839.47
590.284	7852.8
590.643	7895.74
591.003	7898.9
591.362	7933.48
591.721	7992.23
592.08	7907.94
592.44	7979.35
592.799	7996.08
593.158	7969.64
593.517	7991.1
593.876	8038.11
594.235	7984.1
594.593	7974.83
594.952	7973.48
595.311	7918.56
595.67	7926.02
596.029	8041.5
596.387	8079.91
596.746	8055.96
597.104	8008.28
597.463	8039.92
597.822	8069.75
598.18	8027.49
598.538	8074.72
598.897	8070.2
599.255	8044.89
599.613	8131.21
599.972	8087.6
600.33	8094.6
600.688	8110.42
601.046	8114.49
601.404	8186.13
601.762	8079.91
602.12	8209.18
602.478	8141.38
602.836	8195.62
603.194	8158.1
603.552	8195.17
603.91	8123.98
604.268	8129.18
604.625	8121.72
604.983	8180.48
605.341	8057.09
605.698	8215.28
606.056	8174.6
606.413	8138.67
606.771	8173.92
607.128	8219.35
607.485	8129.63
607.843	8180.03
608.2	8210.08
608.557	8224.09
608.914	8247.82
609.272	8285.33
609.629	8276.75
609.986	8300.25
610.343	8218.22
610.7	8291.43
611.057	8300.93
611.414	8251.21
611.771	8254.15
612.127	8323.52
612.484	8309.29
612.841	8330.76
613.198	8359.91
613.554	8328.95
613.911	8378.21
614.267	8336.41
614.624	8319.68
614.98	8349.74
615.337	8357.87
615.693	8388.38
616.05	8352.22
616.406	8416.63
616.762	8450.98
617.118	8396.52
617.475	8430.87
617.831	8396.74
618.187	8429.06
618.543	8406.91
618.899	8490.98
619.255	8494.82
619.611	8408.27
619.967	8410.3
620.323	8475.16
620.678	8477.87
621.034	8501.82
621.39	8424.09
621.746	8397.19
622.101	8545.89
622.457	8502.28
622.812	8494.82
623.168	8465.67
623.523	8470.41
623.879	8511.77
624.234	8404.88
624.589	8418.66
624.945	8496.63
625.3	8528.04
625.655	8500.24
626.01	8544.08
626.365	8455.5
626.72	8466.57
627.075	8502.73
627.43	8460.47
627.785	8412.34
628.14	8434.03
628.495	8486.68
628.85	8458.89
629.205	8466.35
629.559	8479.68
629.914	8404.2
630.269	8419.79
630.623	8372.34
630.978	8334.15
631.332	8444.88
631.687	8453.01
632.041	8370.3
632.396	8442.62
632.75	8334.15
633.104	8283.98
633.459	8295.73
633.813	8271.55
634.167	8351.32
634.521	8349.51
634.875	8373.92
635.229	8303.64
635.583	8272.45
635.937	8290.98
636.291	8315.39
636.645	8212.79
636.999	8288.95
637.352	8307.93
637.706	8207.82
638.06	8253.92
638.413	8249.18
638.767	8214.6
639.121	8191.78
639.474	8167.37
639.828	8139.12
640.181	8216.41
640.534	8163.08
640.888	8143.19
641.241	8164.88
641.594	8125.79
641.947	8176.18
642.301	8110.2
642.654	8117.2
643.007	8160.59
643.36	8115.39
643.713	8119.46
644.066	8104.32
644.419	8124.66
644.771	8038.11
645.124	7933.7
645.477	7938.45
645.83	7940.03
646.182	7897.77
646.535	7867.04
646.888	7869.98
647.24	7871.11
647.593	7905
647.945	7889.41
648.298	7822.52
648.65	7811.45
649.002	7802.86
649.355	7836.53
649.707	7874.27
650.059	7927.6
650.411	8003.08
650.763	7971.67
651.115	8053.93
651.467	8027.03
651.819	8018.22
652.171	8067.94
652.523	7994.04
652.875	8001.5
653.227	7956.53
653.578	8013.93
653.93	8000.14
654.282	7983.65
654.633	7994.95
654.985	7971.44
655.337	8037.88
655.688	7990.43
656.039	8090.54
656.391	7979.13
656.742	8003.31
657.094	8007.6
657.445	8016.19
657.796	8009.41
658.147	7995.17
658.498	7981.61
658.849	8057.09
659.2	8030.65
659.551	8012.57
659.902	8075.4
660.253	8005.34
660.604	8065.9
660.955	7988.84
661.306	8059.58
661.656	8027.03
662.007	8096.19
662.358	8053.7
662.708	8113.13
663.059	8094.83
663.409	8054.6
663.76	8096.86
664.11	8061.38
664.461	8120.82
664.811	8088.28
665.161	8059.12
665.511	8089.63
665.862	8102.29
666.212	8166.92
666.562	8138.44
666.912	8067.49
667.262	8099.58
667.612	8021.39
667.962	8102.06
668.312	8126.47
668.662	8084.21
669.011	8074.94
669.361	8018.45
669.711	8035.85
670.06	8032.91
670.41	8016.41
670.76	8050.54
671.109	8029.75
671.459	8057.32
671.808	8003.08
672.157	8065.68
672.507	7981.84
672.856	7969.18
673.205	8019.35
673.554	8030.65
673.904	8004.66
674.253	8046.47
674.602	8014.38
674.951	7829.07
675.3	7881.95
675.649	7983.42
675.998	7949.07
676.346	7960.14
676.695	7974.15
677.044	7960.6
677.393	7920.37
677.741	7929.86
678.09	7889.41
678.438	7919.24
678.787	7835.85
679.135	7869.52
679.484	7876.08
679.832	7832.01
680.181	7885.12
680.529	7811.45
680.877	7748.85
681.225	7843.08
681.573	7828.85
681.922	7789.3
682.27	7723.31
682.618	7774.16
682.966	7784.33
683.314	7744.33
683.661	7690.55
684.009	7685.8
684.357	7701.85
684.705	7645.8
685.053	7692.13
685.4	7628.85
685.748	7643.09
686.095	7637.21
686.443	7606.71
686.79	7531.23
687.138	7526.93
687.485	7612.36
687.832	7507.95
688.18	7547.05
688.527	7433.6
688.874	7469.76
689.221	7456.43
689.568	7446.48
689.915	7334.17
690.262	7366.26
690.609	7332.82
690.956	7273.38
691.303	7360.39
691.65	7248.3
691.997	7303.89
692.344	7220.28
692.69	7192.71
693.037	7188.86
693.383	7196.32
693.73	7131.47
694.077	7128.08
694.423	7148.19
694.769	7040.85
695.116	7079.49
695.462	7008.53
695.808	7016.67
696.155	7010.34
696.501	6918.14
696.847	6926.27
697.193	6905.93
697.539	6931.92
697.885	6890.12
698.231	6820.51
698.577	6853.05
698.923	6862.32
699.269	6799.5
699.614	6779.84
699.96	6707.75
700.306	6714.53
700.651	6665.94
700.997	6643.57
701.342	6636.11
701.688	6633.4
702.033	6603.57
702.379	6594.08
702.724	6560.18
703.069	6536
703.415	6524.02
703.76	6475.89
704.105	6473.63
704.45	6450.13
704.795	6447.42
705.14	6366.74
705.485	6406.29
705.83	6306.4
706.175	6345.5
706.52	6319.28
706.865	6267.76
707.209	6305.95
707.554	6308.66
707.899	6255.33
708.243	6203.81
708.588	6207.42
708.932	6207.65
709.277	6156.8
709.621	6156.12
709.966	6147.76
710.31	6128.78
710.654	6137.14
710.998	6087.65
711.342	6111.83
711.687	6108.89
712.031	6077.93
712.375	6012.17
712.719	5992.96
713.063	5974.21
713.407	5979.63
713.75	5932.17
714.094	5912.51
714.438	5845.62
714.782	5945.96
715.125	5906.19
715.469	5950.03
715.812	5903.25
716.156	5868
716.499	5889.46
716.843	5879.29
717.186	5823.02
717.53	5883.59
717.873	5839.52
718.216	5842.23
718.559	5829.13
718.902	5790.03
719.246	5801.33
719.589	5804.04
719.932	5790.03
720.275	5810.82
720.617	5786.87
720.96	5773.53
721.303	5771.05
721.646	5804.04
721.989	5747.55
722.331	5728.56
722.674	5740.54
723.016	5745.96
723.359	5704.61
723.701	5737.6
724.044	5741.45
724.386	5699.86
724.729	5721.33
725.071	5744.61
725.413	5703.93
725.755	5702.8
726.097	5639.98
726.439	5679.75
726.782	5682.01
727.124	5713.65
727.465	5630.71
727.807	5716.14
728.149	5723.82
728.491	5662.58
728.833	5672.29
729.175	5699.41
729.516	5640.88
729.858	5648.79
730.199	5667.55
730.541	5668.9
730.882	5617.15
731.224	5676.14
731.565	5653.31
731.906	5604.27
732.248	5667.77
732.589	5674.55
732.93	5614.44
733.271	5633.43
733.612	5662.13
733.953	5711.84
734.294	5689.02
734.635	5670.03
734.976	5653.54
735.317	5623.26
735.658	5710.03
735.999	5619.64
736.339	5677.72
736.68	5685.4
737.021	5701.22
737.361	5689.92
737.702	5764.27
738.042	5700.32
738.383	5683.59
738.723	5684.95
739.063	5734.44
739.404	5729.47
739.744	5700.09
740.084	5762.69
740.424	5695.57
740.764	5756.81
741.104	5819.86
741.444	5763.82
741.784	5809.69
742.124	5796.36
742.464	5820.54
742.804	5777.83
743.143	5819.86
743.483	5869.35
743.823	5878.16
744.162	5872.29
744.502	5875.45
744.841	5988.67
745.181	6038.16
745.52	6022.57
745.86	6014.88
746.199	6043.13
746.538	6119.51
746.877	6118.16
747.216	6192.73
747.556	6205.39
747.895	6218.27
748.234	6252.84
748.573	6368.1
748.911	6390.47
749.25	6458.71
749.589	6526.51
749.928	6545.72
750.267	6590.46
750.605	6698.71
750.944	6706.39
751.283	6790.01
751.621	6860.06
751.96	6957.46
752.298	6991.36
752.636	7138.92
752.975	7212.82
753.313	7258.24
753.651	7361.74
753.989	7506.6
754.327	7564.9
754.666	7674.05
755.004	7790.66
755.342	7898.9
755.679	8003.53
756.017	8174.83
756.355	8325.78
756.693	8358.1
757.031	8507.7
757.368	8655.94
757.706	8873.34
758.044	8887.58
758.381	9114.24
758.719	9189.26
759.056	9387
759.394	9557.62
759.731	9648.46
760.068	9908.57
760.405	10002.58
760.743	10153.76
761.08	10341.55
761.417	10507.87
761.754	10687.98
762.091	10749.67
762.428	10966.84
762.765	11090.91
763.102	11361.18
763.438	11485.93
763.775	11566.6
764.112	11764.56
764.449	11966.14
764.785	12108.51
765.122	12185.12
765.458	12339.01
765.795	12580.59
766.131	12694.93
766.467	12892.9
766.804	13034.81
767.14	13108.48
767.476	13276.16
767.812	13469.38
768.148	13609.26
768.485	13625.53
768.821	13726.77
769.157	13969.48
769.492	14067.55
769.828	14188.45
770.164	14274.78
770.5	14384.83
770.836	14559.52
771.171	14620.99
771.507	14657.14
771.842	14827.99
772.178	14998.15
772.513	15016.46
772.849	15121.54
773.184	15231.14
773.519	15293.28
773.855	15308.88
774.19	15436.11
774.525	15570.79
774.86	15670.22
775.195	15690.79
775.53	15723.1
775.865	15792.71
776.2	15776.21
776.535	15859.15
776.87	15920.16
777.205	15954.28
777.539	16046.48
777.874	16194.05
778.209	16021.85
778.543	16203.09
778.878	16077.67
779.212	16283.54
779.547	16302.75
779.881	16230.66
780.215	16294.61
780.55	16419.36
780.884	16331.68
781.218	16356.99
781.552	16473.59
781.886	16362.63
782.22	16399.02
782.554	16407.15
782.888	16402.41
783.222	16406.93
783.556	16458
783.889	16345.01
784.223	16255.52
784.557	16321.51
784.89	16396.31
785.224	16364.89
785.557	16346.59
785.891	16364.67
786.224	16336.65
786.558	16385.68
786.891	16249.87
787.224	16264.78
787.557	16274.73
787.891	16247.38
788.224	16319.47
788.557	16406.02
788.89	16385.23
789.223	16354.73
789.556	16236.99
789.888	16245.12
790.221	16274.95
790.554	16157.67
790.887	16176.65
791.219	16175.52
791.552	16198.12
791.884	16100.49
792.217	16059.14
792.549	16054.39
792.882	15965.13
793.214	15942.76
793.546	15964.23
793.879	15929.43
794.211	15804.01
794.543	15937.34
794.875	15867.05
795.207	15858.47
795.539	15807.17
795.871	15868.86
796.203	15705.48
796.535	15690.11
796.867	15673.84
797.198	15659.83
797.53	15626.16
797.862	15538.48
798.193	15623.9
798.525	15547.29
798.856	15510.45
799.188	15333.74
799.519	15384.81
799.85	15323.57
800.182	15279.5
800.513	15354.07
800.844	15206.73
801.175	15245.38
801.506	15288.76
801.837	15268.65
802.168	15129.67
802.499	15170.58
802.83	15089.9
803.161	15094.42
803.491	15067.08
803.822	15079.96
804.153	15001.54
804.483	14947.08
804.814	14856.91
805.145	14888.1
805.475	14863.24
805.805	14850.13
806.136	14823.24
806.466	14848.55
806.796	14740.76
807.126	14642.23
807.457	14648.78
807.787	14617.14
808.117	14616.01
808.447	14569.46
808.777	14578.5
809.107	14508.67
809.436	14484.72
809.766	14555.9
810.096	14414.44
810.426	14370.82
810.755	14386.19
811.085	14345.96
811.414	14265.29
811.744	14199.3
812.073	14213.31
812.403	14272.75
812.732	14145.97
813.061	14061.23
813.39	14099.87
813.719	14039.76
814.049	14077.5
814.378	14157.27
814.707	14034.56
815.036	13943.04
815.365	13942.36
815.693	13929.03
816.022	13927.67
816.351	13839.09
816.68	13764.51
817.008	13830.27
817.337	13609.03
817.665	13688.35
817.994	13753.21
818.322	13734.68
818.651	13651.52
818.979	13594.57
819.307	13631.18
819.636	13669.15
819.964	13557.28
820.292	13651.07
820.62	13652.88
820.948	13565.87
821.276	13627.34
821.604	13461.02
821.932	13573.33
822.259	13535.36
822.587	13505.53
822.915	13482.48
823.243	13604.29
823.57	13600.45
823.898	13596.15
824.225	13485.65
824.553	13538.75
824.88	13604.06
825.207	13615.81
825.535	13510.28
825.862	13629.83
826.189	13536.95
826.516	13628.7
826.843	13695.59
827.17	13667.79
827.497	13646.77
827.824	13609.26
828.151	13646.32
828.478	13579.66
828.805	13671.41
829.131	13596.83
829.458	13585.53
829.785	13546.21
830.111	13558.64
830.438	13598.64
830.764	13582.59
831.09	13566.55
831.417	13516.38
831.743	13579.66
832.069	13559.77
832.395	13528.36
832.722	13613.78
833.048	13544.63
833.374	13600.9
833.7	13541.92
834.026	13467.57
834.351	13497.4
834.677	13540.56
835.003	13558.19
835.329	13410.17
835.654	13564.74
835.98	13404.75
836.306	13485.2
836.631	13455.14
836.956	13423.5
837.282	13445.42
837.607	13334.01
837.932	13326.1
838.258	13309.38
838.583	13316.84
838.908	13233.9
839.233	13235.94
839.558	13317.07
839.883	13223.51
840.208	13215.37
840.533	13111.87
840.858	13160.46
841.182	13129.95
841.507	13179.44
841.832	13097.64
842.156	13101.93
842.481	13061.93
842.805	13030.97
843.13	12933.35
843.454	12937.19
843.778	12929.28
844.103	12942.39
844.427	12912.33
844.751	12890.64
845.075	12876.85
845.399	12783.52
845.723	12733.35
846.047	12680.02
846.371	12684.77
846.695	12663.97
847.019	12598.67
847.343	12531.1
847.666	12407.48
847.99	12329.52
848.313	12346.47
848.637	12285.68
848.96	12300.37
849.284	12150.77
849.607	12101.96
849.931	12107.15
850.254	12041.39
850.577	11979.93
850.9	11819.03
851.223	11894.96
851.546	11813.6
851.869	11814.28
852.192	11809.53
852.515	11700.61
852.838	11653.61
853.161	11629.88
853.483	11516.43
853.806	11558.92
854.129	11532.03
854.451	11541.07
854.774	11470.33
855.096	11442.31
855.419	11440.5
855.741	11504.68
856.063	11235.31
856.385	11264.92
856.708	11264.24
857.03	11187.4
857.352	11137.91
857.674	11215.2
857.996	11146.73
858.318	11051.59
858.64	11040.74
858.961	11041.42
859.283	10967.52
859.605	10889.78
859.926	10924.81
860.248	10899.95
860.57	10891.37
860.891	10837.58
861.212	10805.49
861.534	10727.75
861.855	10795.78
862.176	10758.04
862.498	10636.91
862.819	10851.82
863.14	10715.78
863.461	10683.91
863.782	10631.26
864.103	10614.54
864.424	10678.26
864.745	10579.96
865.065	10511.04
865.386	10407.99
865.707	10475.33
866.027	10506.97
866.348	10475.78
866.668	10432.4
866.989	10445.95
867.309	10397.37
867.63	10431.27
867.95	10436.46
868.27	10348.33
868.59	10323.92
868.91	10412.28
869.23	10319.4
869.55	10225.85
869.87	10380.42
870.19	10223.81
870.51	10306.3
870.83	10280.08
871.15	10191.95
871.469	10130.71
871.789	10208.9
872.109	10193.31
872.428	10148.11
872.748	10124.38
873.067	10148.56
873.386	10150.37
873.706	10054.55
874.025	10114.21
874.344	10052.97
874.663	10054.33
874.982	10093.42
875.301	10053.42
875.62	9985.18
875.939	10032.63
876.258	9918.51
876.577	9913.54
876.896	9961.67
877.214	9957.61
877.533	9878.74
877.852	9872.41
878.17	9894.78
878.489	9920.09
878.807	9904.27
879.125	9821.79
879.444	9852.3
879.762	9823.15
880.08	9906.76
880.398	9730.04
880.716	9845.97
881.034	9713.32
881.352	9776.37
881.67	9721.23
881.988	9671.74
882.306	9611.63
882.624	9601.68
882.941	9610.04
883.259	9591.06
883.577	9570.72
883.894	9595.36
884.212	9516.04
884.529	9518.07
884.846	9554.45
885.164	9425.87
885.481	9421.57
885.798	9421.12
886.115	9364.17
886.432	9396.49
886.75	9296.38
887.067	9336.83
887.383	9354.23
887.7	9363.72
888.017	9335.47
888.334	9202.37
888.651	9217.96
888.967	9181.81
889.284	9164.86
889.6	9087.57
889.917	9048.7
890.233	9071.75
890.55	8980.91
890.866	9032.43
891.182	9033.11
891.498	8998.53
891.815	8963.73
892.131	8852.55
892.447	8900.01
892.763	8848.71
893.079	8828.6
893.395	8801.48
893.71	8766
894.026	8781.59
894.342	8758.99
894.657	8717.19
894.973	8666.11
895.289	8664.31
895.604	8636.96
895.92	8561.71
896.235	8573.46
896.55	8561.48
896.865	8520.36
897.181	8459.11
897.496	8410.3
897.811	8380.47
898.126	8388.83
898.441	8368.72
898.756	8323.98
899.071	8269.97
899.386	8282.4
899.7	8204.88
900.015	8219.12
900.33	8115.17
900.644	8127.37
900.959	8148.16
901.273	8088.05
901.588	8065
901.902	8015.06
902.216	8029.07
902.531	7971.67
902.845	7937.09
903.159	7886.02
903.473	7940.26
903.787	7871.78
904.101	7757.66
904.415	7784.1
904.729	7819.36
905.042	7648.51
905.356	7688.96
905.67	7639.25
905.984	7718.79
906.297	7608.97
906.611	7605.12
906.924	7516.99
907.237	7528.06
907.551	7507.95
907.864	7429.99
908.177	7442.19
908.491	7453.04
908.804	7384.57
909.117	7327.62
909.43	7288.3
909.743	7278.81
910.056	7228.64
910.368	7258.47
910.681	7151.8
910.994	7128.98
911.307	7121.07
911.619	7083.78
911.932	7079.04
912.244	6990.45
912.557	6996.78
912.869	6977.8
913.181	6992.49
913.494	6866.61
913.806	6843.56
914.118	6855.09
914.43	6750.68
914.742	6781.64
915.054	6782.77
915.366	6758.59
915.678	6774.41
915.99	6703.45
916.302	6652.38
916.613	6636.79
916.925	6660.74
917.236	6622.78
917.548	6506.62
917.859	6569.22
918.171	6546.4
918.482	6503.68
918.794	6500.97
919.105	6531.03
919.416	6419.62
919.727	6422.56
920.038	6362.22
920.349	6339.4
920.66	6287.87
920.971	6299.17
921.282	6291.71
921.593	6267.08
921.903	6244.93
922.214	6156.58
922.525	6210.13
922.835	6146.18
923.146	6108.44
923.456	6083.36
923.767	6121.77
924.077	6061.21
924.387	6056.92
924.697	5989.35
925.008	5968.33
925.318	5915.68
925.628	5962
925.938	5938.95
926.248	5859.41
926.558	5836.13
926.867	5855.57
927.177	5837.94
927.487	5764.5
927.796	5691.5
928.106	5752.07
928.416	5737.83
928.725	5652.41
929.034	5673.65
929.344	5654.22
929.653	5662.13
929.962	5597.49
930.271	5572.64
930.581	5512.3
930.89	5509.36
931.199	5479.53
931.508	5493.32
931.817	5443.37
932.125	5435.24
932.434	5438.4
932.743	5377.61
933.051	5371.06
933.36	5352.53
933.669	5336.26
933.977	5334.45
934.286	5277.5
934.594	5269.59
934.902	5260.55
935.21	5230.72
935.519	5207
935.827	5205.19
936.135	5120.9
936.443	5131.52
936.751	5102.14
937.059	5073.67
937.367	5041.12
937.674	5092.87
937.982	5039.09
938.29	5031.41
938.597	4958.64
938.905	4951.41
939.213	4930.39
939.52	4905.99
939.827	4894.91
940.135	4898.53
940.442	4895.59
940.749	4896.72
941.056	4829.83
941.363	4811.53
941.67	4820.11
941.977	4750.51
942.284	4717.52
942.591	4709.38
942.898	4712.77
943.205	4659.44
943.511	4632.32
943.818	4673.22
944.125	4604.3
944.431	4637.07
944.738	4590.97
945.044	4605.43
945.35	4495.83
945.657	4550.52
945.963	4475.72
946.269	4483.85
946.575	4483.63
946.881	4482.5
947.187	4439.33
947.493	4421.25
947.799	4389.62
948.105	4366.57
948.41	4357.3
948.716	4351.88
949.022	4326.79
949.327	4332.22
949.633	4261.48
949.938	4295.83
950.244	4288.15
950.549	4216.29
950.854	4215.61
951.16	4169.28
951.465	4169.06
951.77	4186.01
952.075	4112.79
952.38	4097.87
952.685	4114.37
952.99	4069.85
953.294	4068.72
953.599	4059.23
953.904	4064.43
954.209	3972.45
954.513	4020.13
954.818	3969.74
955.122	4001.15
955.426	3935.16
955.731	3958.44
956.035	3940.14
956.339	3917.31
956.643	3900.36
956.948	3879.12
957.252	3896.07
957.556	3824.43
957.86	3812.91
958.163	3833.02
958.467	3801.38
958.771	3812
959.075	3724.1
959.378	3754.38
959.682	3746.02
959.985	3756.64
960.289	3721.16
960.592	3709.86
960.896	3678.22
961.199	3659.01
961.502	3638.68
961.805	3619.24
962.108	3578.79
962.411	3564.33
962.714	3516.42
963.017	3561.84
963.32	3547.83
963.623	3539.47
963.926	3527.72
964.228	3513.71
964.531	3488.17
964.833	3469.19
965.136	3432.35
965.438	3447.27
965.741	3421.96
966.043	3397.55
966.345	3391.22
966.648	3386.25
966.95	3363.88
967.252	3349.19
967.554	3349.42
967.856	3329.98
968.158	3278.91
968.46	3284.33
968.761	3268.06
969.063	3249.99
969.365	3238.69
969.666	3255.41
969.968	3201.62
970.269	3219.48
970.571	3165.47
970.872	3217.44
971.174	3132.93
971.475	3133.38
971.776	3104.23
972.077	3160.95
972.378	3092.25
972.679	3089.31
972.98	3093.83
973.281	3085.7
973.582	3052.02
973.883	3014.74
974.183	3028.07
974.484	3032.36
974.785	3010.9
975.085	3036.88
975.386	2986.26
975.686	2983.55
975.986	2904.46
976.287	2952.37
976.587	2934.74
976.887	2936.77
977.187	2870.56
977.487	2908.98
977.787	2863.1
978.087	2882.76
978.387	2836.89
978.687	2855.19
978.987	2838.47
979.286	2819.94
979.586	2814.29
979.885	2793.5
980.185	2770.9
980.484	2748.08
980.784	2738.36
981.083	2753.28
981.382	2722.54
981.682	2710.34
981.981	2692.94
982.28	2707.63
982.579	2681.19
982.878	2675.31
983.177	2680.73
983.475	2624.46
983.774	2600.74
984.073	2640.51
984.372	2602.54
984.67	2576.33
984.969	2605.03
985.267	2583.79
985.566	2587.63
985.864	2545.37
986.162	2592.83
986.461	2561.19
986.759	2520.96
987.057	2497.46
987.355	2480.51
987.653	2478.25
987.951	2439.61
988.249	2456.56
988.547	2442.77
988.844	2396.45
989.142	2445.03
989.44	2409.1
989.737	2408.43
990.035	2366.84
990.332	2397.8
990.63	2361.19
990.927	2351.48
991.224	2330.91
991.521	2337.01
991.819	2311.25
992.116	2308.32
992.413	2290.24
992.71	2293.85
993.006	2300.41
993.303	2295.21
993.6	2260.86
993.897	2244.36
994.193	2261.99
994.49	2216.11
994.787	2224.7
995.083	2192.84
995.379	2232.61
995.676	2210.92
995.972	2154.42
996.268	2158.49
996.565	2166.85
996.861	2136.57
997.157	2183.8
997.453	2100.86
997.749	2101.77
998.044	2107.87
998.34	2076.91
998.636	2074.2
998.932	2087.98
999.227	2081.2
999.523	2068.55
999.818	2035.78
1000.114	2023.12
1000.409	2040.75
1000.704	1975.89
1001	1984.71
1001.295	2003.46
1001.59	1998.27
1001.885	1979.06
1002.18	1997.59
1002.475	1938.61
1002.77	1956.23
1003.065	1926.63
1003.359	1937.93
1003.654	1909.68
1003.949	1893.86
1004.243	1895.22
1004.538	1869.46
1004.832	1860.87
1005.127	1870.81
1005.421	1878.5
1005.715	1836.24
1006.009	1825.84
1006.304	1812.73
1006.598	1802.34
1006.892	1796.92
1007.186	1785.16
1007.48	1774.54
1007.773	1775.67
1008.067	1706.07
1008.361	1703.36
1008.655	1753.75
1008.948	1743.81
1009.242	1772.96
1009.535	1706.75
1009.829	1708.78
1010.122	1678.28
1010.415	1674.89
1010.708	1676.24
1011.001	1652.06
1011.295	1631.72
1011.588	1653.42
1011.881	1633.08
1012.173	1619.29
1012.466	1603.47
1012.759	1604.38
1013.052	1579.75
1013.344	1605.06
1013.637	1569.8
1013.93	1593.08
1014.222	1552.63
1014.514	1563.02
1014.807	1555.11
1015.099	1542.01
1015.391	1527.09
1015.683	1494.33
1015.976	1507.43
1016.268	1495
1016.56	1471.5
1016.851	1480.54
1017.143	1485.74
1017.435	1452.29
1017.727	1441.67
1018.018	1435.8
1018.31	1423.82
1018.602	1428.11
1018.893	1402.8
1019.185	1418.62
1019.476	1417.26
1019.767	1411.84
1020.058	1389.7
1020.35	1382.46
1020.641	1346.08
1020.932	1344.72
1021.223	1368.23
1021.514	1348.11
1021.804	1313.76
1022.095	1321
1022.386	1292.97
1022.677	1293.65
1022.967	1304.73
1023.258	1268.57
1023.548	1299.3
1023.839	1273.99
1024.129	1282.35
1024.419	1234.22
1024.709	1243.94
1025	1256.59
1025.29	1222.69
1025.58	1200.32
1025.87	1215.01
1026.16	1218.17
1026.449	1197.38
1026.739	1186.08
1027.029	1201.68
1027.319	1168.68
1027.608	1166.42
1027.898	1169.14
1028.187	1161.45
1028.477	1131.62
1028.766	1147.67
1029.055	1118.52
1029.344	1115.13
1029.634	1124.17
1029.923	1089.59
1030.212	1118.74
1030.501	1112.64
1030.79	1075.35
1031.078	1070.16
1031.367	1072.64
1031.656	1071.06
1031.945	1063.38
1032.233	1038.74
1032.522	1050.04
1032.81	1057.95
1033.099	1044.62
1033.387	1048.46
1033.675	1020.89
1033.963	991.06
1034.251	1000.33
1034.54	988.12
1034.828	1007.56
1035.116	961.68
1035.403	972.76
1035.691	982.47
1035.979	976.37
1036.267	966.88
1036.554	967.79
1036.842	943.61
1037.129	945.41
1037.417	925.98
1037.704	940.89
1037.992	930.95
1038.279	915.81
1038.566	911.29
1038.853	911.29
1039.14	911.29
