Data from hue_270_FLMS001491_00045.txt Node
Date: Tue Feb 07 15:57:14 GMT 2017
User: dcchb
Spectrometer: FLMS00149
Trigger mode: 0
Integration Time (sec): 2.000000E-2
Scans to average: 10
Electric dark correction enabled: true
Nonlinearity correction enabled: false
Boxcar width: 0
XAxis mode: Wavelengths
Number of Pixels in Spectrum: 2048
>>>>>Begin Spectral Data<<<<<
341.393	-17.9
341.776	-17.9
342.16	-17.9
342.543	-75.52
342.927	-60.38
343.31	-58.8
343.693	-50.66
344.077	-57.67
344.46	-67.16
344.843	-59.7
345.226	-43.43
345.61	-31
345.993	-27.84
346.376	-2.3
346.759	24.14
347.142	25.04
347.525	36.57
347.908	56.68
348.291	65.72
348.674	80.41
349.057	110.01
349.44	109.33
349.823	156.56
350.206	156.56
350.588	181.87
350.971	197.01
351.354	214.19
351.737	237.47
352.119	240.63
352.502	262.78
352.884	255.32
353.267	276.79
353.65	288.31
354.032	318.82
354.414	297.8
354.797	300.29
355.179	309.78
355.562	303.9
355.944	324.24
356.326	327.41
356.709	336.9
357.091	330.12
357.473	337.8
357.855	323.56
358.238	333.96
358.62	336.45
359.002	335.32
359.384	341.64
359.766	308.2
360.148	320.18
360.53	343.9
360.912	339.38
361.294	326.73
361.676	332.83
362.057	325.37
362.439	332.15
362.821	315.88
363.203	327.63
363.584	308.42
363.966	319.5
364.348	301.19
364.729	319.72
365.111	312.04
365.493	320.63
365.874	313.4
366.256	305.49
366.637	307.75
367.019	297.12
367.4	294.87
367.781	322.44
368.163	291.48
368.544	316.33
368.925	315.2
369.306	311.14
369.688	308.65
370.069	285.15
370.45	302.1
370.831	311.14
371.212	319.5
371.593	307.52
371.974	314.98
372.355	312.94
372.736	317.24
373.117	293.51
373.498	318.59
373.879	314.75
374.26	307.07
374.641	328.54
375.021	306.84
375.402	319.72
375.783	327.18
376.163	333.06
376.544	337.12
376.925	322.66
377.305	299.38
377.686	329.44
378.066	341.42
378.447	343.45
378.827	326.5
379.208	328.54
379.588	338.71
379.968	326.95
380.349	315.43
380.729	341.64
381.109	329.89
381.489	328.54
381.87	335.77
382.25	348.88
382.63	350
383.01	332.38
383.39	326.28
383.77	345.94
384.15	341.87
384.53	345.49
384.91	357.46
385.29	324.24
385.67	352.04
386.049	359.5
386.429	378.25
386.809	346.62
387.189	358.82
387.568	351.59
387.948	350.23
388.328	350.46
388.707	345.49
389.087	366.95
389.466	389.1
389.846	348.65
390.225	376.22
390.605	373.51
390.984	353.39
391.363	366.95
391.743	368.08
392.122	374.41
392.501	355.43
392.881	387.29
393.26	384.58
393.639	387.97
394.018	397.24
394.397	398.59
394.776	414.41
395.155	401.08
395.534	388.2
395.913	387.52
396.292	379.83
396.671	390.46
397.05	391.36
397.429	407.86
397.808	410.79
398.186	409.66
398.565	404.47
398.944	403.56
399.323	383.68
399.701	395.43
400.08	408.76
400.458	404.01
400.837	454.63
401.215	433.84
401.594	400.85
401.972	422.32
402.351	435.43
402.729	445.82
403.107	448.76
403.486	441.98
403.864	439.04
404.242	444.24
404.62	460.74
404.999	463
405.377	455.09
405.755	459.83
406.133	462.09
406.511	451.92
406.889	456.89
407.267	458.93
407.645	482.66
408.023	489.66
408.401	513.84
408.779	498.7
409.156	505.93
409.534	507.97
409.912	498.25
410.29	519.72
410.667	520.17
411.045	531.02
411.422	532.37
411.8	528.76
412.178	536.21
412.555	549.77
412.933	574.41
413.31	560.62
413.687	560.62
414.065	572.82
414.442	575.08
414.819	581.41
415.197	601.07
415.574	608.53
415.951	601.75
416.328	641.75
416.705	615.08
417.082	616.44
417.46	619.38
417.837	645.14
418.214	651.47
418.591	671.13
418.967	660.51
419.344	665.7
419.721	688.53
420.098	683.1
420.475	687.4
420.852	711.35
421.228	718.36
421.605	696.66
421.982	726.94
422.358	729.43
422.735	743.21
423.111	769.43
423.488	753.84
423.864	778.02
424.241	811.46
424.617	804.23
424.994	823.44
425.37	841.97
425.746	821.18
426.123	831.57
426.499	851.01
426.875	846.49
427.251	850.78
427.627	879.03
428.003	893.95
428.379	905.02
428.756	914.96
429.132	917.9
429.507	926.26
429.883	944.57
430.259	942.76
430.635	948.63
431.011	956.54
431.387	1017.11
431.763	997.67
432.138	1007.61
432.514	1032.47
432.89	1043.09
433.265	1036.31
433.641	1058.46
434.016	1071.57
434.392	1100.72
434.767	1111.57
435.143	1139.59
435.518	1161.51
435.894	1170.77
436.269	1188.85
436.644	1211
437.02	1197.21
437.395	1220.49
437.77	1211.9
438.145	1239.7
438.52	1276.99
438.895	1296.65
439.271	1296.65
439.646	1331.9
440.021	1321.5
440.395	1335.74
440.77	1337.55
441.145	1360.37
441.52	1381.62
441.895	1367.61
442.27	1396.76
442.645	1433.59
443.019	1439.92
443.394	1416.87
443.769	1463.87
444.143	1436.98
444.518	1495.74
444.892	1488.28
445.267	1496.42
445.641	1506.58
446.016	1516.98
446.39	1509.75
446.764	1560.37
447.139	1535.28
447.513	1560.82
447.887	1565.57
448.262	1548.17
448.636	1600.82
449.01	1596.75
449.384	1628.16
449.758	1603.53
450.132	1607.15
450.506	1626.13
450.88	1635.85
451.254	1648.5
451.628	1679.46
452.002	1652.57
452.376	1693.02
452.75	1708.84
453.123	1693.25
453.497	1735.05
453.871	1757.43
454.244	1809.63
454.618	1793.36
454.992	1788.16
455.365	1826.35
455.739	1851.43
456.112	1876.07
456.486	1869.29
456.859	1888.27
457.232	1903.41
457.606	1925.56
457.979	1973.01
458.352	2001.94
458.725	1999.45
459.099	1996.29
459.472	2025.67
459.845	2059.79
460.218	2062.95
460.591	2096.63
460.964	2086.46
461.337	2105.89
461.71	2154.7
462.083	2208.26
462.456	2191.54
462.829	2191.31
463.201	2212.1
463.574	2241.03
463.947	2245.77
464.32	2294.13
464.692	2335.94
465.065	2333.91
465.438	2330.74
465.81	2389.5
466.183	2431.98
466.555	2428.59
466.928	2446.45
467.3	2416.17
467.672	2488.03
468.045	2549.04
468.417	2529.16
468.789	2521.25
469.161	2576.84
469.534	2580
469.906	2680.11
470.278	2657.51
470.65	2679.21
471.022	2714.24
471.394	2765.99
471.766	2803.95
472.138	2819.32
472.51	2923.27
472.882	2916.27
473.253	2960.56
473.625	2965.98
473.997	3004.17
474.369	3022.93
474.74	3067.45
475.112	3111.06
475.484	3145.86
475.855	3190.38
476.227	3212.75
476.598	3296.37
476.97	3296.14
477.341	3354.45
477.713	3368.91
478.084	3437.16
478.455	3507.66
478.827	3526.19
479.198	3585.4
479.569	3618.62
479.94	3649.35
480.311	3704.27
480.682	3774.55
481.053	3801.89
481.424	3906.3
481.795	3909.91
482.166	3918.95
482.537	4005.95
482.908	4057.25
483.279	4060.87
483.65	4121.66
484.021	4140.64
484.391	4219.73
484.762	4273.52
485.133	4297.02
485.503	4330.69
485.874	4456.79
486.244	4501.76
486.615	4503.57
486.985	4555.54
487.356	4655.88
487.726	4644.36
488.097	4738.36
488.467	4786.05
488.837	4837.57
489.207	4842.32
489.578	4931.13
489.948	4926.83
490.318	5029.2
490.688	5057.45
491.058	5082.08
491.428	5141.74
491.798	5144.46
492.168	5303.77
492.538	5263.1
492.908	5319.82
493.278	5366.82
493.648	5365.24
494.017	5447.95
494.387	5473.49
494.757	5547.38
495.126	5596.19
495.496	5521.39
495.866	5568.62
496.235	5625.57
496.605	5689.98
496.974	5711.9
497.344	5747.83
497.713	5712.58
498.082	5806.81
498.452	5866.92
498.821	5894.49
499.19	5835.28
499.559	5877.09
499.928	5963.19
500.298	5971.33
500.667	6045
501.036	5965.68
501.405	6087.03
501.774	5959.8
502.143	6031.89
502.512	6103.98
502.88	6094.94
503.249	6145.11
503.618	6122.51
503.987	6176.29
504.356	6247.7
504.724	6263.97
505.093	6242.28
505.462	6289.96
505.83	6258.1
506.199	6317.31
506.567	6456.74
506.936	6369.51
507.304	6428.94
507.672	6488.83
508.041	6435.72
508.409	6494.02
508.777	6447.25
509.145	6532.22
509.514	6569.05
509.882	6504.19
510.25	6562.5
510.618	6637.07
510.986	6608.37
511.354	6612.67
511.722	6710.52
512.09	6724.53
512.458	6702.83
512.826	6765.66
513.193	6712.32
513.561	6775.37
513.929	6787.35
514.297	6810.4
514.664	6871.42
515.032	6863.05
515.4	6886.78
515.767	6914.8
516.135	6905.54
516.502	6842.94
516.869	6962.71
517.237	6968.36
517.604	6919.32
517.972	6996.61
518.339	7019.21
518.706	7004.07
519.073	7004.52
519.44	7040.45
519.808	7090.39
520.175	7068.02
520.542	7095.82
520.909	7189.6
521.276	7081.58
521.643	7174.01
522.009	7206.77
522.376	7209.03
522.743	7259.43
523.11	7297.39
523.477	7281.35
523.843	7371.29
524.21	7430.5
524.577	7409.71
524.943	7457.61
525.31	7418.29
525.676	7494.68
526.043	7519.99
526.409	7584.84
526.776	7596.14
527.142	7590.72
527.508	7581.91
527.874	7618.51
528.241	7627.33
528.607	7670.72
528.973	7652.64
529.339	7691.28
529.705	7753.65
530.071	7818.74
530.437	7843.14
530.803	7811.5
531.169	7827.55
531.535	7801.11
531.901	7831.62
532.267	7846.98
532.632	7871.62
532.998	7891.95
533.364	7951.16
533.73	7974.66
534.095	7976.47
534.461	8010.14
534.826	8051.72
535.192	8034.55
535.557	8049.46
535.923	8008.79
536.288	8072.29
536.653	8054.44
537.019	8040.42
537.384	8049.46
537.749	8136.24
538.114	8101.89
538.479	8062.8
538.845	8103.02
539.21	8096.47
539.575	8126.52
539.94	8115.9
540.305	8169.91
540.67	8090.82
541.034	8129.91
541.399	8115.9
541.764	8136.92
542.129	8159.97
542.494	8202.23
542.858	8193.19
543.223	8193.64
543.587	8258.5
543.952	8194.77
544.316	8230.7
544.681	8211.04
545.045	8226.86
545.41	8260.98
545.774	8325.39
546.138	8299.63
546.503	8317.93
546.867	8271.83
547.231	8311.83
547.595	8362.45
547.959	8322.45
548.324	8335.56
548.688	8337.59
549.052	8392.28
549.416	8302.56
549.779	8362
550.143	8426.85
550.507	8422.56
550.871	8499.62
551.235	8395.67
551.599	8433.63
551.962	8472.05
552.326	8456.46
552.689	8474.09
553.053	8391.38
553.417	8471.37
553.78	8587.98
554.143	8556.79
554.507	8510.69
554.87	8585.49
555.234	8628.66
555.597	8548.89
555.96	8615.1
556.323	8623.46
556.686	8619.17
557.05	8742.78
557.413	8724.47
557.776	8733.06
558.139	8792.49
558.502	8759.95
558.865	8731.03
559.228	8790.46
559.59	8808.77
559.953	8835.66
560.316	8897.8
560.679	8866.17
561.041	8936.22
561.404	8991.13
561.767	8999.27
562.129	8955.43
562.492	9021.87
562.854	9061.41
563.217	9043.11
563.579	9094.41
563.941	9125.14
564.304	9152.71
564.666	9258.92
565.028	9195.65
565.39	9220.96
565.753	9260.96
566.115	9294.85
566.477	9324.46
566.839	9400.39
567.201	9432.93
567.563	9438.13
567.925	9459.14
568.287	9502.98
568.648	9529.42
569.01	9497.11
569.372	9609.2
569.734	9604.68
570.095	9619.14
570.457	9655.52
570.819	9655.75
571.18	9742.3
571.542	9749.76
571.903	9800.6
572.265	9804.9
572.626	9753.6
572.987	9886.03
573.349	9895.97
573.71	9968.96
574.071	9969.86
574.432	9979.13
574.794	10089.18
575.155	10118.11
575.516	10081.5
575.877	10109.3
576.238	10148.62
576.599	10146.81
576.96	10166.24
577.32	10252.12
577.681	10246.02
578.042	10280.14
578.403	10302.51
578.763	10263.42
579.124	10305.68
579.485	10415.5
579.845	10464.77
580.206	10462.96
580.566	10483.3
580.927	10526.01
581.287	10532.56
581.648	10523.07
582.008	10625.67
582.368	10641.26
582.728	10671.54
583.089	10727.13
583.449	10712.9
583.809	10730.07
584.169	10805.1
584.529	10818.2
584.889	10845.55
585.249	10808.94
585.609	10792.89
585.969	10930.97
586.329	10933
586.688	10916.73
587.048	10878.77
587.408	11032.21
587.768	11008.48
588.127	11053
588.487	11020.01
588.846	11066.79
589.206	11095.03
589.565	11084.64
589.925	11156.27
590.284	11219.55
590.643	11207.8
591.003	11201.47
591.362	11287.34
591.721	11238.08
592.08	11290.96
592.44	11363.95
592.799	11324.86
593.158	11405.76
593.517	11390.17
593.876	11440.33
594.235	11368.25
594.593	11370.28
594.952	11431.97
595.311	11459.09
595.67	11473.33
596.029	11607.79
596.387	11658.18
596.746	11583.61
597.104	11570.5
597.463	11636.94
597.822	11634.23
598.18	11586.55
598.538	11561.24
598.897	11662.25
599.255	11602.59
599.613	11702.02
599.972	11697.5
600.33	11700.44
600.688	11778.86
601.046	11704.73
601.404	11795.58
601.762	11775.92
602.12	11809.59
602.478	11862.02
602.836	11800.78
603.194	11786.99
603.552	11893.2
603.91	11847.1
604.268	11811.17
604.625	11796.48
604.983	11860.44
605.341	11824.05
605.698	11859.31
606.056	11914.67
606.413	11903.37
606.771	11901.34
607.128	11913.77
607.485	11827.9
607.843	11927.1
608.2	11975.24
608.557	11984.5
608.914	11920.32
609.272	12019.08
609.629	12023.14
609.986	12034.67
610.343	12060.88
610.7	12128.23
611.057	12119.64
611.414	12104.72
611.771	12116.7
612.127	12212.97
612.484	12192.41
612.841	12210.71
613.198	12152.86
613.554	12189.24
613.911	12230.82
614.267	12165.06
614.624	12241.22
614.98	12181.11
615.337	12310.37
615.693	12342.46
616.05	12284.15
616.406	12366.19
616.762	12363.25
617.118	12290.03
617.475	12366.64
617.831	12412.51
618.187	12410.48
618.543	12383.81
618.899	12378.16
619.255	12358.28
619.611	12487.31
619.967	12431.27
620.323	12482.57
620.678	12360.99
621.034	12390.37
621.39	12354.21
621.746	12448.9
622.101	12585.62
622.457	12439.18
622.812	12441.44
623.168	12483.25
623.523	12454.09
623.879	12503.81
624.234	12335.9
624.589	12466.3
624.945	12522.79
625.3	12493.41
625.655	12474.88
626.01	12471.95
626.365	12484.83
626.72	12446.41
627.075	12438.5
627.43	12512.85
627.785	12430.37
628.14	12520.98
628.495	12402.8
628.85	12457.94
629.205	12338.84
629.559	12449.35
629.914	12337.94
630.269	12378.62
630.623	12322.35
630.978	12343.59
631.332	12377.71
631.687	12463.58
632.041	12371.38
632.396	12342.01
632.75	12344.72
633.104	12286.19
633.459	12286.41
633.813	12259.07
634.167	12204.16
634.521	12280.54
634.875	12347.88
635.229	12214.1
635.583	12231.95
635.937	12179.07
636.291	12244.61
636.645	12149.47
636.999	12137.27
637.352	12199.64
637.706	12076.48
638.06	12134.1
638.413	12111.5
638.767	12074.67
639.121	12072.18
639.474	12085.97
639.828	12023.14
640.181	12023.82
640.534	12067.21
640.888	11999.19
641.241	12000.77
641.594	12029.92
641.947	11992.86
642.301	11984.5
642.654	12048.91
643.007	11923.94
643.36	11882.13
643.713	11940.43
644.066	11996.03
644.419	11884.84
644.771	11882.58
645.124	11765.98
645.477	11704.51
645.83	11625.64
646.182	11659.54
646.535	11531.63
646.888	11525.3
647.24	11494.34
647.593	11565.98
647.945	11525.3
648.298	11511.52
648.65	11511.29
649.002	11441.24
649.355	11506.55
649.707	11590.39
650.059	11577.73
650.411	11722.81
650.763	11688.69
651.115	11793.55
651.467	11771.17
651.819	11694.57
652.171	11699.31
652.523	11657.28
652.875	11678.97
653.227	11645.08
653.578	11763.26
653.93	11733.43
654.282	11671.97
654.633	11736.82
654.985	11678.75
655.337	11736.82
655.688	11735.47
656.039	11763.49
656.391	11597.17
656.742	11662.25
657.094	11678.97
657.445	11675.81
657.796	11716.49
658.147	11749.71
658.498	11612.31
658.849	11781.34
659.2	11619.77
659.551	11690.27
659.902	11740.67
660.253	11702.47
660.604	11776.82
660.955	11684.4
661.306	11720.78
661.656	11681.91
662.007	11725.75
662.358	11704.51
662.708	11718.29
663.059	11653.89
663.409	11718.75
663.76	11715.81
664.11	11721.01
664.461	11706.99
664.811	11711.06
665.161	11760.78
665.511	11668.13
665.862	11729.37
666.212	11745.64
666.562	11720.78
666.912	11770.5
667.262	11718.07
667.612	11755.35
667.962	11757.16
668.312	11700.89
668.662	11743.38
669.011	11745.64
669.361	11648.24
669.711	11733.89
670.06	11721.01
670.41	11715.36
670.76	11673.55
671.109	11751.51
671.459	11657.5
671.808	11697.73
672.157	11698.41
672.507	11599.2
672.856	11598.07
673.205	11647.79
673.554	11643.49
673.904	11610.5
674.253	11655.24
674.602	11577.73
674.951	11425.87
675.3	11381.81
675.649	11580.22
675.998	11595.36
676.346	11536.38
676.695	11561.69
677.044	11586.09
677.393	11448.47
677.741	11531.41
678.09	11497.06
678.438	11450.96
678.787	11459.54
679.135	11476.04
679.484	11437.4
679.832	11442.82
680.181	11330.51
680.529	11387.23
680.877	11403.73
681.225	11422.26
681.573	11359.66
681.922	11270.62
682.27	11255.25
682.618	11312.65
682.966	11176.39
683.314	11210.06
683.661	11215.26
684.009	11162.38
684.357	11206.67
684.705	11192.43
685.053	11169.38
685.4	11057.07
685.748	11016.84
686.095	11109.27
686.443	10994.7
686.79	10931.2
687.138	11009.61
687.485	10965.77
687.832	10959.44
688.18	10958.09
688.527	10807.81
688.874	10917.41
689.221	10830.63
689.568	10827.7
689.915	10848.94
690.262	10748.83
690.609	10787.47
690.956	10707.25
691.303	10641.03
691.65	10619.57
691.997	10573.24
692.344	10531.66
692.69	10509.51
693.037	10565.78
693.383	10439.01
693.73	10475.39
694.077	10417.08
694.423	10400.59
694.769	10390.19
695.116	10353.36
695.462	10293.92
695.808	10227.26
696.155	10292.57
696.501	10148.17
696.847	10176.64
697.193	10168.05
697.539	10143.87
697.885	10025.23
698.231	10014.84
698.577	10029.52
698.923	9970.77
699.269	9911.11
699.614	9845.57
699.96	9863.43
700.306	9838.34
700.651	9844.22
700.997	9720.15
701.342	9750.21
701.688	9679.48
702.033	9673.15
702.379	9636.31
702.724	9589.08
703.069	9631.12
703.415	9523.32
703.76	9567.16
704.105	9481.74
704.45	9451.23
704.795	9356.1
705.14	9420.73
705.485	9365.81
705.83	9332.82
706.175	9356.32
706.52	9375.08
706.865	9193.84
707.209	9258.7
707.554	9220.96
707.899	9286.27
708.243	9093.28
708.588	9149.77
708.932	9084.24
709.277	9122.88
709.621	9123.11
709.966	9047.63
710.31	9073.39
710.654	8964.47
710.998	9019.61
711.342	9075.88
711.687	8974.64
712.031	8928.08
712.375	8877.24
712.719	8932.83
713.063	8828.88
713.407	8879.27
713.75	8877.92
714.094	8830.46
714.438	8748.2
714.782	8793.17
715.125	8829.78
715.469	8832.27
715.812	8715.43
716.156	8640.18
716.499	8747.07
716.843	8678.15
717.186	8641.76
717.53	8691.03
717.873	8733.29
718.216	8743.91
718.559	8612.84
718.902	8620.3
719.246	8607.64
719.589	8526.29
719.932	8508.66
720.275	8563.35
720.617	8579.62
720.96	8513.63
721.303	8529.45
721.646	8507.3
721.989	8518.38
722.331	8536.68
722.674	8561.54
723.016	8456.01
723.359	8394.54
723.701	8473.41
724.044	8408.78
724.386	8319.29
724.729	8416.46
725.071	8353.86
725.413	8410.36
725.755	8363.35
726.097	8334.43
726.439	8309.57
726.782	8326.07
727.124	8373.97
727.465	8319.96
727.807	8301.89
728.149	8305.05
728.491	8339.85
728.833	8300.53
729.175	8382.79
729.516	8261.89
729.858	8299.17
730.199	8298.27
730.541	8266.63
730.882	8283.58
731.224	8316.8
731.565	8312.51
731.906	8224.37
732.248	8287.88
732.589	8271.38
732.93	8279.06
733.271	8230.7
733.612	8295.56
733.953	8242.68
734.294	8223.47
734.635	8170.14
734.976	8239.51
735.317	8183.25
735.658	8218.05
735.999	8252.62
736.339	8202
736.68	8222.34
737.021	8174.66
737.361	8190.7
737.702	8313.64
738.042	8189.57
738.383	8242
738.723	8263.92
739.063	8277.25
739.404	8267.99
739.744	8242.23
740.084	8310.47
740.424	8281.1
740.764	8273.64
741.104	8305.73
741.444	8276.35
741.784	8232.28
742.124	8282.23
742.464	8379.62
742.804	8281.1
743.143	8338.95
743.483	8262.11
743.823	8363.13
744.162	8375.33
744.502	8392.96
744.841	8418.04
745.181	8508.89
745.52	8446.06
745.86	8499.17
746.199	8625.95
746.538	8548.66
746.877	8550.24
747.216	8618.71
747.556	8641.09
747.895	8728.09
748.234	8661.42
748.573	8754.98
748.911	8792.49
749.25	8873.85
749.589	8835.21
749.928	8982.77
750.267	9020.06
750.605	9034.75
750.944	9091.47
751.283	9100.28
751.621	9244.01
751.96	9260.28
752.298	9391.35
752.636	9492.14
752.975	9477.67
753.313	9582.98
753.651	9707.05
753.989	9713.83
754.327	9809.64
754.666	9954.27
755.004	10022.74
755.342	10180.93
755.679	10273.59
756.017	10337.99
756.355	10555.16
756.693	10581.15
757.031	10746.79
757.368	10819.33
757.706	10971.42
758.044	11124.18
758.381	11218.65
758.719	11328.47
759.056	11532.54
759.394	11670.61
759.731	11673.55
760.068	11924.84
760.405	11959.64
760.743	12191.05
761.08	12411.38
761.417	12453.87
761.754	12612.96
762.091	12726.18
762.428	12984.02
762.765	13017.92
763.102	13220.4
763.438	13303.11
763.775	13497.23
764.112	13660.16
764.449	13868.07
764.785	13958.46
765.122	14006.82
765.458	14168.4
765.795	14383.31
766.131	14566.13
766.467	14607.94
766.804	14702.62
767.14	14768.83
767.476	14958.89
767.812	15101.48
768.148	15300.57
768.485	15354.13
768.821	15425.09
769.157	15575.14
769.492	15763.16
769.828	15870.05
770.164	15814.46
770.5	16089.93
770.836	16112.3
771.171	16156.82
771.507	16256.93
771.842	16397.94
772.178	16408.57
772.513	16570.6
772.849	16694.21
773.184	16691.27
773.519	16797.26
773.855	16836.13
774.19	16835.22
774.525	16956.8
774.86	17092.39
775.195	17186.85
775.53	17076.57
775.865	17218.49
776.2	17185.27
776.535	17150.69
776.87	17309.56
777.205	17324.25
777.539	17298.03
777.874	17411.25
778.209	17334.42
778.543	17473.4
778.878	17332.38
779.212	17458.71
779.547	17461.42
779.881	17670.23
780.215	17515.88
780.55	17652.37
780.884	17586.84
781.218	17681.07
781.552	17684.01
781.886	17720.85
782.22	17606.5
782.554	17637.23
782.888	17542.77
783.222	17553.62
783.556	17585.94
783.889	17543.23
784.223	17503.23
784.557	17541.64
784.89	17524.24
785.224	17615.99
785.557	17420.06
785.891	17463.68
786.224	17420.97
786.558	17506.16
786.891	17393.85
787.224	17353.17
787.557	17410.12
787.891	17405.15
788.224	17350.46
788.557	17371.7
788.89	17476.79
789.223	17432.72
789.556	17342.1
789.888	17263.68
790.221	17259.39
790.554	17191.14
790.887	17276.79
791.219	17163.12
791.552	17133.52
791.884	17197.47
792.217	17024.37
792.549	17052.62
792.882	16976.91
793.214	16853.98
793.546	16945.5
793.879	16818.5
794.211	16795
794.543	16905.05
794.875	16825.73
795.207	16893.75
795.539	16859.85
795.871	16756.35
796.203	16626.87
796.535	16750.03
796.867	16685.17
797.198	16692.4
797.53	16626.87
797.862	16524.49
798.193	16544.83
798.525	16435.91
798.856	16444.72
799.188	16261.68
799.519	16291.28
799.85	16162.92
800.182	16327.44
800.513	16274.11
800.844	16124.96
801.175	16237.27
801.506	16188.01
801.837	16132.41
802.168	16120.89
802.499	16099.87
802.83	15907.56
803.161	15940.78
803.491	15865.3
803.822	15893.55
804.153	15872.08
804.483	15778.75
804.814	15683.61
805.145	15734.69
805.475	15745.53
805.805	15579.66
806.136	15593.67
806.466	15656.95
806.796	15513.9
807.126	15493.34
807.457	15454.01
807.787	15487.23
808.117	15367.92
808.447	15416.5
808.777	15464.86
809.107	15260.12
809.436	15210.86
809.766	15224.19
810.096	15278.2
810.426	15110.52
810.755	15249.05
811.085	15170.86
811.414	15142.38
811.744	15071.65
812.073	15065.32
812.403	14999.56
812.732	14938.32
813.061	14997.3
813.39	14862.62
813.719	14842.28
814.049	14988.49
814.378	14844.99
814.707	14861.71
815.036	14812.45
815.365	14725.9
815.693	14588.27
816.022	14641.83
816.351	14619.69
816.68	14555.28
817.008	14579.01
817.337	14487.94
817.665	14461.72
817.994	14541.72
818.322	14462.85
818.651	14387.38
818.979	14320.49
819.307	14433.02
819.636	14440.93
819.964	14392.57
820.292	14411.78
820.62	14373.14
820.948	14288.85
821.276	14375.17
821.604	14326.13
821.932	14295.4
822.259	14268.51
822.587	14245.46
822.915	14187.38
823.243	14236.87
823.57	14269.64
823.898	14351.44
824.225	14208.17
824.553	14281.62
824.88	14266.93
825.207	14313.71
825.535	14296.98
825.862	14310.99
826.189	14309.64
826.516	14373.14
826.843	14308.73
827.17	14320.94
827.497	14435.51
827.824	14432.8
828.151	14336.76
828.478	14392.57
828.805	14432.35
829.131	14342.18
829.458	14303.08
829.785	14291.56
830.111	14320.71
830.438	14345.57
830.764	14325.46
831.09	14297.66
831.417	14301.95
831.743	14312.8
832.069	14310.32
832.395	14266.25
832.722	14414.72
833.048	14255.85
833.374	14279.13
833.7	14239.13
834.026	14257.44
834.351	14265.57
834.677	14181.05
835.003	14226.48
835.329	14226.7
835.654	14255.63
835.98	14098.34
836.306	14183.77
836.631	14014.28
836.956	14073.26
837.282	14091.79
837.607	14035.97
837.932	14068.06
838.258	14092.02
838.583	14010.89
838.908	13894.51
839.233	13944.68
839.558	13895.41
839.883	13873.49
840.208	13888.41
840.533	13781.74
840.858	13909.65
841.182	13871.68
841.507	13844.34
841.832	13728.41
842.156	13791.69
842.481	13687.06
842.805	13717.34
843.13	13719.82
843.454	13679.37
843.778	13601.18
844.103	13549.43
844.427	13540.39
844.751	13486.38
845.075	13495.2
845.399	13428.31
845.723	13409.77
846.047	13334.52
846.371	13241.42
846.695	13294.07
847.019	13151.25
847.343	13115.09
847.666	13033.29
847.99	12978.83
848.313	12990.12
848.637	12927.53
848.96	12905.16
849.284	12788.1
849.607	12784.03
849.931	12758.94
850.254	12672.39
850.577	12602.79
850.9	12451.83
851.223	12465.39
851.546	12414.09
851.869	12361.89
852.192	12471.27
852.515	12325.74
852.838	12202.57
853.161	12295.68
853.483	12081.45
853.806	12125.97
854.129	12132.97
854.451	12097.27
854.774	12069.02
855.096	12049.81
855.419	11964.39
855.741	11884.62
856.063	11868.8
856.385	11832.64
856.708	11773.66
857.03	11695.02
857.352	11790.16
857.674	11674.9
857.996	11579.31
858.318	11583.16
858.64	11602.82
858.961	11528.92
859.283	11556.04
859.605	11473.1
859.926	11551.74
860.248	11516.49
860.57	11425.65
860.891	11438.75
861.212	11316.04
861.534	11313.33
861.855	11344.52
862.176	11323.73
862.498	11315.59
862.819	11257.74
863.14	11228.59
863.461	11148.14
863.782	11151.75
864.103	11183.84
864.424	11142.94
864.745	11132.32
865.065	11056.16
865.386	11002.38
865.707	10959.67
866.027	11042.83
866.348	11007.35
866.668	10983.85
866.989	11011.65
867.309	10849.84
867.63	10913.79
867.95	10916.05
868.27	10876.96
868.59	10862.5
868.91	10842.61
869.23	10801.26
869.55	10830.63
869.87	10844.64
870.19	10739.56
870.51	10822.27
870.83	10798.32
871.15	10661.6
871.469	10758.09
871.789	10792.22
872.109	10709.28
872.428	10592
872.748	10661.15
873.067	10690.3
873.386	10640.81
873.706	10583.63
874.025	10559
874.344	10485.56
874.663	10593.35
874.982	10543.86
875.301	10550.87
875.62	10443.07
875.939	10472
876.258	10547.02
876.577	10380.25
876.896	10404.66
877.214	10369.85
877.533	10442.62
877.852	10335.96
878.17	10467.93
878.489	10406.69
878.807	10343.19
879.125	10340.48
879.444	10298.9
879.762	10235.39
880.08	10246.69
880.398	10281.5
880.716	10297.09
881.034	10168.73
881.352	10180.93
881.67	10174.61
881.988	10168.73
882.306	10091.44
882.624	10036.3
882.941	10075.85
883.259	10031.33
883.577	10051.9
883.894	10022.52
884.212	10023.87
884.529	9948.85
884.846	9914.95
885.164	9946.14
885.481	9936.87
885.798	9951.56
886.115	9853.03
886.432	9896.19
886.75	9780.04
887.067	9794.95
887.383	9780.49
887.7	9714.05
888.017	9698.23
888.334	9689.19
888.651	9644.22
888.967	9683.54
889.284	9579.59
889.6	9581.4
889.917	9504.79
890.233	9533.94
890.55	9513.38
890.866	9497.79
891.182	9456.88
891.498	9364.46
891.815	9375.76
892.131	9287.17
892.447	9299.6
892.763	9274.06
893.079	9316.1
893.395	9278.13
893.71	9286.49
894.026	9186.16
894.342	9180.51
894.657	9096.89
894.973	9152.94
895.289	9060.74
895.604	9039.72
895.92	8966.05
896.235	8919.05
896.55	8958.59
896.865	8916.79
897.181	8904.81
897.496	8938.93
897.811	8836.79
898.126	8798.82
898.441	8754.08
898.756	8730.8
899.071	8679.05
899.386	8705.27
899.7	8583.01
900.015	8644.93
900.33	8496.01
900.644	8449.45
900.959	8528.55
901.273	8478.6
901.588	8488.32
901.902	8432.28
902.216	8377.82
902.531	8349.57
902.845	8332.85
903.159	8227.99
903.473	8215.79
903.787	8182.57
904.101	8125.39
904.415	8182.79
904.729	8103.47
905.042	8036.81
905.356	8041.55
905.67	7933.31
905.984	8027.09
906.297	7979.18
906.611	7971.05
906.924	7958.62
907.237	7925.85
907.551	7901.22
907.864	7807.21
908.177	7774.22
908.491	7735.12
908.804	7748.68
909.117	7660.1
909.43	7649.7
909.743	7594.11
910.056	7615.58
910.368	7570.61
910.681	7535.58
910.994	7472.53
911.307	7465.75
911.619	7431.85
911.932	7393.44
912.244	7385.07
912.557	7338.07
912.869	7295.59
913.181	7344.17
913.494	7246.32
913.806	7201.12
914.118	7188.24
914.43	7162.71
914.742	7154.35
915.054	7123.39
915.366	7033.45
915.678	7051.07
915.99	7006.33
916.302	6985.31
916.613	6991.19
916.925	6957.97
917.236	6921.13
917.548	6898.76
917.859	6878.42
918.171	6830.29
918.482	6835.94
918.794	6735.83
919.105	6796.62
919.416	6680.46
919.727	6694.02
920.038	6707.13
920.349	6623.29
920.66	6600.24
920.971	6590.29
921.282	6619.67
921.593	6491.09
921.903	6529.05
922.214	6439.34
922.525	6438.21
922.835	6376.06
923.146	6361.37
923.456	6356.4
923.767	6329.96
924.077	6322.73
924.387	6295.39
924.697	6276.18
925.008	6267.14
925.318	6246.35
925.628	6250.64
925.938	6161.15
926.248	6155.95
926.558	6101.49
926.867	6053.36
927.177	6118.67
927.487	6030.53
927.796	6006.13
928.106	6010.42
928.416	5986.24
928.725	5969.97
929.034	5872.57
929.344	5880.25
929.653	5898.11
929.962	5835.28
930.271	5819.69
930.581	5833.25
930.89	5793.7
931.199	5773.59
931.508	5702.18
931.817	5708.96
932.125	5700.15
932.434	5676.64
932.743	5631.45
933.051	5610.88
933.36	5601.84
933.669	5547.83
933.977	5556.87
934.286	5488.85
934.594	5497.67
934.902	5499.93
935.21	5403.88
935.519	5379.48
935.827	5402.98
936.135	5430.32
936.443	5373.15
936.751	5318.24
937.059	5338.8
937.367	5294.73
937.674	5258.35
937.982	5245.24
938.29	5268.75
938.597	5228.29
938.905	5160.05
939.213	5097.22
939.52	5127.96
939.827	5181.74
940.135	5080.5
940.442	5070.33
940.749	4980.17
941.056	5080.73
941.363	4987.17
941.67	4983.56
941.977	4933.39
942.284	4947.17
942.591	4997.79
942.898	4894.29
943.205	4904.91
943.511	4911.92
943.818	4821.98
944.125	4807.51
944.431	4766.84
944.738	4815.42
945.044	4754.63
945.35	4767.74
945.657	4730.68
945.963	4698.59
946.269	4637.35
946.575	4698.37
946.881	4626.95
947.187	4641.19
947.493	4599.84
947.799	4577.92
948.105	4551.02
948.41	4525.94
948.716	4565.04
949.022	4492.95
949.327	4488.43
949.633	4391.25
949.938	4459.05
950.244	4405.94
950.549	4395.1
950.854	4353.29
951.16	4388.77
951.465	4320.75
951.77	4328.21
952.075	4284.82
952.38	4272.39
952.685	4261.31
952.99	4210.02
953.294	4196.01
953.599	4193.29
953.904	4195.1
954.209	4147.42
954.513	4144.93
954.818	4113.75
955.122	4101.09
955.426	4116.46
955.731	4094.31
956.035	4097.7
956.339	4061.32
956.643	4075.56
956.948	4012.51
957.252	4017.93
957.556	3991.94
957.86	3990.14
958.163	3921.21
958.467	3936.13
958.771	3928.67
959.075	3917.37
959.378	3908.33
959.682	3936.58
959.985	3838.73
960.289	3836.24
960.592	3799.41
960.896	3855.68
961.199	3814.77
961.502	3768.67
961.805	3785.17
962.108	3756.92
962.411	3695.91
962.714	3703.36
963.017	3678.73
963.32	3712.4
963.623	3661.78
963.926	3672.86
964.228	3599.64
964.531	3630.14
964.833	3610.48
965.136	3567.77
965.438	3571.62
965.741	3539.75
966.043	3499.98
966.345	3521.67
966.648	3508.34
966.95	3448.91
967.252	3455.69
967.554	3479.19
967.856	3493.2
968.158	3422.92
968.46	3432.86
968.761	3424.73
969.063	3384.05
969.365	3361
969.666	3375.46
969.968	3311.06
970.269	3327.55
970.571	3314.45
970.872	3258.18
971.174	3306.76
971.475	3314.45
971.776	3304.28
972.077	3267.67
972.378	3278.06
972.679	3201
972.98	3175.02
973.281	3204.85
973.582	3149.93
973.883	3179.31
974.183	3131.17
974.484	3128.69
974.785	3099.54
975.085	3094.57
975.386	3103.15
975.686	3065.87
975.986	3067.22
976.287	3049.14
976.587	3002.82
976.887	3029.71
977.187	2981.35
977.487	3009.37
977.787	2982.25
978.087	2975.47
978.387	2927.11
978.687	2975.7
978.987	2909.71
979.286	2930.05
979.586	2896.83
979.885	2879.2
980.185	2822.26
980.484	2823.84
980.784	2847.11
981.083	2856.61
981.382	2787.23
981.682	2827.68
981.981	2774.57
982.28	2803.05
982.579	2775.03
982.878	2770.05
983.177	2760.56
983.475	2757.63
983.774	2741.81
984.073	2742.48
984.372	2684.86
984.67	2701.13
984.969	2714.69
985.267	2663.39
985.566	2689.15
985.864	2662.49
986.162	2623.62
986.461	2627.23
986.759	2596.95
987.057	2603.28
987.355	2575.94
987.653	2581.36
987.951	2560.57
988.249	2556.95
988.547	2544.98
988.844	2515.82
989.142	2523.28
989.44	2511.3
989.737	2461.14
990.035	2477.18
990.332	2469.95
990.63	2440.8
990.927	2443.96
991.224	2434.47
991.521	2450.06
991.819	2389.5
992.116	2399.89
992.413	2378.2
992.71	2383.85
993.006	2376.62
993.303	2353.57
993.6	2375.71
993.897	2334.36
994.193	2356.96
994.49	2301.82
994.787	2276.73
995.083	2269.28
995.379	2269.05
995.676	2262.95
995.972	2253.91
996.268	2238.77
996.565	2260.92
996.861	2227.7
997.157	2206.68
997.453	2247.58
997.749	2176.62
998.044	2171.2
998.34	2160.35
998.636	2149.05
998.932	2151.99
999.227	2112.44
999.523	2100.69
999.818	2103.41
1000.114	2069.73
1000.409	2122.84
1000.704	2048.27
1001	2051.43
1001.295	2036.06
1001.59	2024.54
1001.885	2018.89
1002.18	2042.39
1002.475	1999.68
1002.77	2028.6
1003.065	1972.34
1003.359	1979.34
1003.654	1963.07
1003.949	1965.56
1004.243	1956.74
1004.538	1914.48
1004.832	1896.63
1005.127	1895.28
1005.421	1874.26
1005.715	1881.72
1006.009	1874.94
1006.304	1883.75
1006.598	1876.97
1006.892	1841.49
1007.186	1837.88
1007.48	1819.57
1007.773	1834.26
1008.067	1795.62
1008.361	1810.76
1008.655	1774.15
1008.948	1762.85
1009.242	1744.54
1009.535	1757.88
1009.829	1717.65
1010.122	1726.69
1010.415	1727.6
1010.708	1730.76
1011.001	1699.8
1011.295	1694.38
1011.588	1688.27
1011.881	1694.6
1012.173	1671.55
1012.466	1654.83
1012.759	1656.19
1013.052	1641.95
1013.344	1625.9
1013.637	1621.61
1013.93	1619.12
1014.222	1615.06
1014.514	1582.29
1014.807	1584.1
1015.099	1560.37
1015.391	1580.03
1015.683	1536.19
1015.976	1517.88
1016.268	1519.69
1016.56	1517.21
1016.851	1504.32
1017.143	1516.98
1017.435	1480.14
1017.727	1452.12
1018.018	1475.85
1018.31	1480.14
1018.602	1439.02
1018.893	1443.76
1019.185	1446.02
1019.476	1406.02
1019.767	1422.07
1020.058	1427.26
1020.35	1405.12
1020.641	1403.08
1020.932	1418
1021.223	1378.45
1021.514	1385.46
1021.804	1347.49
1022.095	1340.71
1022.386	1353.82
1022.677	1334.61
1022.967	1335.74
1023.258	1285.57
1023.548	1300.49
1023.839	1307.27
1024.129	1298.91
1024.419	1275.63
1024.709	1276.99
1025	1262.98
1025.29	1240.38
1025.58	1254.16
1025.87	1222.3
1026.16	1219.59
1026.449	1221.17
1026.739	1205.58
1027.029	1184.33
1027.319	1185.92
1027.608	1209.19
1027.898	1188.4
1028.187	1174.84
1028.477	1148.85
1028.766	1148.18
1029.055	1163.77
1029.344	1166.25
1029.634	1152.7
1029.923	1142.53
1030.212	1122.41
1030.501	1089.19
1030.79	1123.32
1031.078	1112.47
1031.367	1081.06
1031.656	1094.84
1031.945	1095.97
1032.233	1090.78
1032.522	1090.32
1032.81	1063.66
1033.099	1041.51
1033.387	1058.23
1033.675	1060.95
1033.963	1038.8
1034.251	1030.21
1034.54	1012.81
1034.828	1047.16
1035.116	1022.08
1035.403	1034.96
1035.691	992.02
1035.979	1005.81
1036.267	991.8
1036.554	981.4
1036.842	949.99
1037.129	983.89
1037.417	959.71
1037.704	937.11
1037.992	950.22
1038.279	975.3
1038.566	945.02
1038.853	945.02
1039.14	945.02
