Data from hue_190_FLMS001491_00068.txt Node
Date: Tue Feb 07 16:45:37 GMT 2017
User: dcchb
Spectrometer: FLMS00149
Trigger mode: 0
Integration Time (sec): 2.000000E-2
Scans to average: 10
Electric dark correction enabled: true
Nonlinearity correction enabled: false
Boxcar width: 0
XAxis mode: Wavelengths
Number of Pixels in Spectrum: 2048
>>>>>Begin Spectral Data<<<<<
341.393	-31.76
341.776	-31.76
342.16	-31.76
342.543	-68.6
342.927	-83.97
343.31	-70.63
343.693	-71.09
344.077	-81.48
344.46	-60.01
344.843	-52.78
345.226	-22.05
345.61	-28.15
345.993	-10.3
346.376	-8.26
346.759	5.52
347.142	34.22
347.525	37.61
347.908	61.79
348.291	62.47
348.674	87.78
349.057	115.35
349.44	109.25
349.823	134.78
350.206	175.69
350.588	187.21
350.971	203.48
351.354	228.79
351.737	221.11
352.119	242.35
352.502	234.22
352.884	271.28
353.267	283.93
353.65	303.37
354.032	308.79
354.414	309.02
354.797	303.82
355.179	325.51
355.562	307.89
355.944	320.09
356.326	302.01
356.709	324.61
357.091	332.97
357.473	332.75
357.855	336.81
358.238	345.17
358.62	321.9
359.002	354.89
359.384	329.36
359.766	355.8
360.148	322.12
360.53	320.32
360.912	330.26
361.294	348.79
361.676	313.08
362.057	343.82
362.439	309.02
362.821	320.54
363.203	318.06
363.584	357.83
363.966	325.51
364.348	324.38
364.729	320.77
365.111	326.19
365.493	322.35
365.874	309.92
366.256	290.49
366.637	295.46
367.019	319.86
367.4	324.38
367.781	318.06
368.163	301.33
368.544	312.41
368.925	318.96
369.306	299.3
369.688	303.59
370.069	300.88
370.45	312.18
370.831	318.96
371.212	308.79
371.593	309.02
371.974	311.28
372.355	301.79
372.736	309.02
373.117	297.72
373.498	305.63
373.879	318.28
374.26	304.5
374.641	295.91
375.021	305.18
375.402	311.28
375.783	313.99
376.163	316.7
376.544	332.52
376.925	309.7
377.305	316.25
377.686	334.1
378.066	302.01
378.447	322.12
378.827	325.06
379.208	312.63
379.588	306.08
379.968	327.1
380.349	334.78
380.729	331.84
381.109	327.55
381.489	332.52
381.87	363.03
382.25	325.97
382.63	330.26
383.01	328.68
383.39	323.03
383.77	327.1
384.15	336.59
384.53	344.04
384.91	356.02
385.29	344.95
385.67	346.08
386.049	332.29
386.429	344.72
386.809	342.91
387.189	347.89
387.568	351.28
387.948	345.85
388.328	333.65
388.707	334.33
389.087	354.67
389.466	355.12
389.846	363.71
390.225	371.84
390.605	348.56
390.984	367.77
391.363	345.63
391.743	342.69
392.122	393.08
392.501	358.51
392.881	375.23
393.26	368.22
393.639	386.53
394.018	378.85
394.397	373.87
394.776	367.55
395.155	388.11
395.534	374.33
395.913	372.97
396.292	368.9
396.671	385.17
397.05	373.42
397.429	386.98
397.808	371.61
398.186	402.12
398.565	376.81
398.944	398.73
399.323	390.82
399.701	407.09
400.08	403.03
400.458	384.5
400.837	401.44
401.215	417.94
401.594	420.2
401.972	411.61
402.351	417.49
402.729	423.59
403.107	414.78
403.486	431.73
403.864	404.83
404.242	423.82
404.62	446.64
404.999	423.36
405.377	433.76
405.755	448.22
406.133	473.08
406.511	440.31
406.889	442.12
407.267	459.07
407.645	483.48
408.023	456.81
408.401	471.5
408.779	495.68
409.156	499.97
409.534	486.19
409.912	497.94
410.29	513.98
410.667	499.29
411.045	527.99
411.422	529.58
411.8	519.86
412.178	538.84
412.555	532.74
412.933	555.34
413.31	562.12
413.687	552.63
414.065	575.45
414.442	571.61
414.819	607.99
415.197	598.95
415.574	614.55
415.951	636.92
416.328	616.13
416.705	638.27
417.082	625.39
417.46	642.79
417.837	644.6
418.214	667.43
418.591	669.23
418.967	696.8
419.344	688.89
419.721	671.72
420.098	715.11
420.475	686.86
420.852	702.68
421.228	738.61
421.605	748.1
421.982	737.93
422.358	790.59
422.735	784.94
423.111	824.03
423.488	797.14
423.864	836.01
424.241	846.86
424.617	854.54
424.994	887.76
425.37	872.39
425.746	896.12
426.123	930.47
426.499	914.65
426.875	950.13
427.251	957.81
427.627	966.85
428.003	985.38
428.379	977.7
428.756	983.12
429.132	1026.96
429.507	1010.92
429.883	1015.21
430.259	1029.45
430.635	1064.7
431.011	1067.19
431.387	1061.31
431.763	1102.89
432.138	1109.45
432.514	1136.34
432.89	1134.76
433.265	1153.51
433.641	1171.14
434.016	1205.26
434.392	1203.23
434.767	1254.76
435.143	1267.86
435.518	1273.74
435.894	1333.85
436.269	1332.27
436.644	1373.4
437.02	1348.99
437.395	1373.4
437.77	1403
438.145	1433.06
438.52	1450.46
438.895	1472.83
439.271	1493.62
439.646	1556.67
440.021	1537.23
440.395	1576.55
440.77	1554.18
441.145	1591.92
441.52	1641.19
441.895	1626.95
442.27	1671.24
442.645	1689.77
443.019	1709.66
443.394	1699.49
443.769	1723.67
444.143	1725.93
444.518	1782.2
444.892	1776.32
445.267	1782.65
445.641	1829.43
446.016	1791.24
446.39	1836.21
446.764	1837.34
447.139	1863.1
447.513	1904.91
447.887	1897.22
448.262	1923.21
448.636	1953.04
449.01	1920.95
449.384	1974.51
449.758	1983.55
450.132	1991.68
450.506	2005.02
450.88	2032.59
451.254	2064
451.628	2115.75
452.002	2092.02
452.376	2109.2
452.75	2125.92
453.123	2139.25
453.497	2162.3
453.871	2232.36
454.244	2263.77
454.618	2231.9
454.992	2310.55
455.365	2307.61
455.739	2374.05
456.112	2353.03
456.486	2379.02
456.859	2402.3
457.232	2455.18
457.606	2444.78
457.979	2497.21
458.352	2502.63
458.725	2563.2
459.099	2582.18
459.472	2605
459.845	2604.1
460.218	2687.49
460.591	2741.04
460.964	2734.49
461.337	2786.92
461.71	2833.02
462.083	2853.81
462.456	2862.85
462.829	2923.19
463.201	2962.96
463.574	2969.74
463.947	3004.77
464.32	3081.83
464.692	3112.11
465.065	3143.97
465.438	3193.01
465.81	3226.68
466.183	3246.79
466.555	3324.98
466.928	3342.16
467.3	3372.89
467.672	3393
468.045	3524.07
468.417	3531.53
468.789	3561.36
469.161	3591.42
469.534	3676.16
469.906	3677.29
470.278	3732.2
470.65	3820.79
471.022	3867.57
471.394	3935.36
471.766	3956.15
472.138	4042.48
472.51	4067.11
472.882	4157.5
473.253	4197.28
473.625	4274.56
473.997	4320.44
474.369	4372.41
474.74	4431.39
475.112	4520.66
475.484	4604.05
475.855	4666.64
476.227	4751.16
476.598	4805.17
476.97	4898.95
477.341	4986.41
477.713	5017.59
478.084	5084.71
478.455	5157.48
478.827	5262.11
479.198	5400.86
479.569	5430.92
479.94	5629.33
480.311	5639.5
480.682	5758.14
481.053	5914.52
481.424	5948.42
481.795	6020.96
482.166	6143.67
482.537	6198.35
482.908	6364
483.279	6392.47
483.65	6510.66
484.021	6640.38
484.391	6666.36
484.762	6768.06
485.133	6806.47
485.503	6921.5
485.874	7083.08
486.244	7188.38
486.615	7272.22
486.985	7393.58
487.356	7492.33
487.726	7547.25
488.097	7684.87
488.467	7751.53
488.837	7842.38
489.207	7968.02
489.578	8081.69
489.948	8100.22
490.318	8302.03
490.688	8311.97
491.058	8464.28
491.428	8549.03
491.798	8558.29
492.168	8755.57
492.538	8776.59
492.908	8859.98
493.278	9001.44
493.648	8981.56
494.017	9117.37
494.387	9183.36
494.757	9236.69
495.126	9318.5
495.496	9342.68
495.866	9405.5
496.235	9509.91
496.605	9536.12
496.974	9614.08
497.344	9681.65
497.713	9771.59
498.082	9715.55
498.452	9792.61
498.821	9900.4
499.19	9889.1
499.559	9937.46
499.928	10028.99
500.298	10052.26
500.667	10142.66
501.036	10130.91
501.405	10126.16
501.774	10141.3
502.143	10273.28
502.512	10258.81
502.88	10391.69
503.249	10337.23
503.618	10328.41
503.987	10379.94
504.356	10393.05
504.724	10384.68
505.093	10466.26
505.462	10490.9
505.83	10527.51
506.199	10577.45
506.567	10679.14
506.936	10696.09
507.304	10721.85
507.672	10692.7
508.041	10689.54
508.409	10825.35
508.777	10899.02
509.145	10915.52
509.514	10893.37
509.882	10927.04
510.25	10875.07
510.618	10938.57
510.986	10891.79
511.354	11018.57
511.722	10999.36
512.09	11082.07
512.458	11039.81
512.826	11118.45
513.193	11059.92
513.561	11098.56
513.929	11159.35
514.297	11234.38
514.664	11174.04
515.032	11195.06
515.4	11282.51
515.767	11252.91
516.135	11267.15
516.502	11196.87
516.869	11301.95
517.237	11290.88
517.604	11208.84
517.972	11201.84
518.339	11305.11
518.706	11267.83
519.073	11291.33
519.44	11343.98
519.808	11330.87
520.175	11331.1
520.542	11385.34
520.909	11416.75
521.276	11332
521.643	11410.19
522.009	11432.57
522.376	11344.21
522.743	11318.45
523.11	11476.18
523.477	11512.11
523.843	11455.62
524.21	11537.42
524.577	11605.67
524.943	11546.91
525.31	11519.8
525.676	11552.34
526.043	11504.88
526.409	11596.63
526.776	11598.44
527.142	11590.53
527.508	11473.92
527.874	11550.08
528.241	11553.47
528.607	11517.54
528.973	11530.87
529.339	11462.17
529.705	11458.55
530.071	11450.87
530.437	11459.91
530.803	11487.03
531.169	11438.89
531.535	11360.7
531.901	11327.26
532.267	11300.59
532.632	11323.87
532.998	11285
533.364	11347.37
533.73	11204.55
534.095	11232.57
534.461	11171.56
534.826	11186.47
535.192	11064.67
535.557	11083.65
535.923	11064.44
536.288	11021.96
536.653	11014.5
537.019	10922.75
537.384	10873.26
537.749	10802.07
538.114	10781.06
538.479	10662.19
538.845	10726.37
539.21	10601.4
539.575	10639.82
539.94	10551.23
540.305	10527.51
540.67	10480.73
541.034	10471.24
541.399	10436.89
541.764	10323.22
542.129	10349.43
542.494	10324.12
542.858	10247.29
543.223	10184.24
543.587	10156.22
543.952	10086.39
544.316	9974.07
544.681	9972.04
545.045	10000.29
545.41	9911.48
545.774	9951.25
546.138	9835.32
546.503	9741.09
546.867	9702.89
547.231	9714.19
547.595	9664.48
547.959	9571.82
548.324	9570.47
548.688	9516.01
549.052	9541.32
549.416	9365.73
549.779	9419.96
550.143	9297.93
550.507	9322.79
550.871	9311.27
551.235	9280.76
551.599	9162.34
551.962	9086.64
552.326	9096.13
552.689	9070.14
553.053	9011.84
553.417	8947.21
553.78	9062.69
554.143	8872.86
554.507	8865.18
554.87	8788.57
555.234	8922.12
555.597	8759.64
555.96	8775.24
556.323	8791.96
556.686	8634.9
557.05	8679.64
557.413	8684.84
557.776	8612.75
558.139	8598.29
558.502	8584.96
558.865	8539.54
559.228	8554.68
559.59	8547.9
559.953	8456.6
560.316	8549.03
560.679	8440.33
561.041	8465.86
561.404	8428.35
561.767	8393.55
562.129	8351.52
562.492	8417.96
562.854	8384.51
563.217	8359.43
563.579	8363.27
563.941	8400.33
564.304	8404.62
564.666	8313.33
565.028	8307.23
565.39	8333.67
565.753	8273.1
566.115	8353.55
566.477	8239.2
566.839	8261.35
567.201	8302.25
567.563	8270.84
567.925	8331.63
568.287	8262.93
568.648	8300.67
569.01	8275.59
569.372	8256.83
569.734	8329.82
570.095	8284.85
570.457	8288.02
570.819	8235.59
571.18	8310.39
571.542	8304.29
571.903	8261.35
572.265	8218.87
572.626	8282.82
572.987	8213.89
573.349	8263.61
573.71	8268.58
574.071	8279.2
574.432	8264.97
574.794	8313.78
575.155	8276.94
575.516	8255.02
575.877	8222.71
576.238	8262.71
576.599	8278.07
576.96	8214.35
577.32	8220.45
577.681	8261.12
578.042	8218.64
578.403	8193.56
578.763	8207.79
579.124	8155.82
579.485	8198.53
579.845	8189.94
580.206	8147.23
580.566	8196.04
580.927	8190.84
581.287	8240.11
581.648	8177.51
582.008	8188.81
582.368	8125.31
582.728	8171.86
583.089	8191.3
583.449	8159.21
583.809	8121.47
584.169	8168.92
584.529	8084.63
584.889	8161.24
585.249	8091.19
585.609	8086.67
585.969	8115.59
586.329	8046.44
586.688	8105.42
587.048	8038.08
587.408	8082.37
587.768	8027.46
588.127	8003.28
588.487	8000.79
588.846	8058.87
589.206	8033.33
589.565	7991.08
589.925	8027.46
590.284	7970.74
590.643	7975.93
591.003	8001.24
591.362	7911.08
591.721	7978.65
592.08	7928.93
592.44	7901.13
592.799	7936.39
593.158	7883.06
593.517	7949.72
593.876	7931.87
594.235	7906.11
594.593	7894.13
594.952	7866.56
595.311	7887.8
595.67	7870.17
596.029	7915.6
596.387	7869.72
596.746	7937.07
597.104	7878.76
597.463	7826.79
597.822	7862.94
598.18	7826.79
598.538	7799.67
598.897	7835.15
599.255	7747.01
599.613	7850.06
599.972	7803.06
600.33	7805.32
600.688	7782.95
601.046	7793.34
601.404	7801.93
601.762	7814.36
602.12	7805.32
602.478	7820.23
602.836	7808.71
603.194	7778.88
603.552	7784.53
603.91	7757.18
604.268	7805.32
604.625	7716.73
604.983	7744.08
605.341	7718.09
605.698	7770.06
606.056	7751.53
606.413	7738.88
606.771	7749.05
607.128	7820.91
607.485	7745.88
607.843	7720.35
608.2	7796.73
608.557	7787.92
608.914	7783.4
609.272	7775.26
609.629	7818.65
609.986	7850.29
610.343	7824.53
610.7	7847.12
611.057	7812.77
611.414	7833.79
611.771	7841.93
612.127	7798.76
612.484	7809.84
612.841	7926.9
613.198	7813.45
613.554	7806.67
613.911	7825.43
614.267	7884.41
614.624	7881.02
614.98	7831.31
615.337	7831.31
615.693	7835.83
616.05	7871.08
616.406	7907.46
616.762	7808.71
617.118	7833.11
617.475	7857.75
617.831	7893.9
618.187	7879.44
618.543	7860.91
618.899	7886.22
619.255	7877.41
619.611	7860.23
619.967	7932.77
620.323	7913.34
620.678	7888.93
621.034	7910.4
621.39	7914.24
621.746	7869.27
622.101	7945.43
622.457	7835.83
622.812	7852.77
623.168	7938.42
623.523	7862.72
623.879	7880.8
624.234	7857.52
624.589	7867.69
624.945	7907.01
625.3	7918.31
625.655	7877.41
626.01	7810.06
626.365	7888.03
626.72	7869.95
627.075	7883.28
627.43	7827.69
627.785	7882.15
628.14	7864.3
628.495	7891.87
628.85	7843.06
629.205	7866.33
629.559	7872.43
629.914	7785.66
630.269	7833.57
630.623	7850.29
630.978	7839.89
631.332	7766.22
631.687	7843.73
632.041	7801.25
632.396	7782.27
632.75	7783.17
633.104	7744.53
633.459	7766.67
633.813	7747.24
634.167	7747.47
634.521	7662.72
634.875	7743.85
635.229	7718.31
635.583	7644.87
635.937	7718.54
636.291	7631.76
636.645	7631.08
636.999	7647.81
637.352	7577.98
637.706	7589.73
638.06	7631.08
638.413	7572.1
638.767	7580.24
639.121	7548.6
639.474	7556.51
639.828	7551.54
640.181	7564.65
640.534	7560.8
640.888	7500.47
641.241	7492.78
641.594	7527.58
641.947	7590.41
642.301	7523.74
642.654	7518.09
643.007	7520.81
643.36	7479.22
643.713	7483.97
644.066	7514.48
644.419	7430.41
644.771	7410.07
645.124	7372.33
645.477	7360.36
645.83	7339.79
646.182	7321.26
646.535	7239.91
646.888	7322.39
647.24	7252.34
647.593	7250.98
647.945	7243.75
648.298	7208.95
648.65	7229.51
649.002	7198.33
649.355	7222.96
649.707	7293.24
650.059	7296.63
650.411	7327.59
650.763	7343.41
651.115	7419.56
651.467	7437.64
651.819	7394.03
652.171	7430.64
652.523	7405.1
652.875	7415.5
653.227	7373.24
653.578	7414.59
653.93	7375.95
654.282	7417.76
654.633	7334.6
654.985	7346.35
655.337	7412.33
655.688	7419.34
656.039	7434.25
656.391	7425.89
656.742	7404.65
657.094	7440.13
657.445	7430.19
657.796	7424.08
658.147	7409.62
658.498	7474.93
658.849	7450.52
659.2	7439.9
659.551	7423.86
659.902	7495.5
660.253	7438.32
660.604	7432.67
660.955	7411.66
661.306	7473.12
661.656	7412.33
662.007	7480.58
662.358	7474.93
662.708	7442.16
663.059	7493.01
663.409	7420.02
663.76	7460.69
664.11	7510.64
664.461	7564.19
664.811	7499.79
665.161	7509.51
665.511	7493.91
665.862	7479.22
666.212	7496.17
666.562	7537.53
666.912	7515.61
667.262	7526.91
667.612	7500.47
667.962	7488.26
668.312	7430.41
668.662	7507.7
669.011	7540.92
669.361	7538.66
669.711	7512.22
670.06	7446
670.41	7489.85
670.76	7475.61
671.109	7535.72
671.459	7437.42
671.808	7455.5
672.157	7537.3
672.507	7404.2
672.856	7435.38
673.205	7478.32
673.554	7469.73
673.904	7467.93
674.253	7503.63
674.602	7464.76
674.951	7385.89
675.3	7328.49
675.649	7374.37
675.998	7397.87
676.346	7445.1
676.695	7414.59
677.044	7326.01
677.393	7405.33
677.741	7379.57
678.09	7363.3
678.438	7353.8
678.787	7316.97
679.135	7391.77
679.484	7321.04
679.832	7280.81
680.181	7264.09
680.529	7255.05
680.877	7266.8
681.225	7293.24
681.573	7284.2
681.922	7210.53
682.27	7174.37
682.618	7161.04
682.966	7181.83
683.314	7186.58
683.661	7162.85
684.009	7137.31
684.357	7154.49
684.705	7133.7
685.053	7103.87
685.4	7080.14
685.748	7105.45
686.095	7047.37
686.443	7007.82
686.79	6994.49
687.138	7050.31
687.485	7030.65
687.832	6930.54
688.18	6981.38
688.527	6930.76
688.874	7010.08
689.221	6927.37
689.568	6858.68
689.915	6908.17
690.262	6875.4
690.609	6877.21
690.956	6795.63
691.303	6822.74
691.65	6747.49
691.997	6781.16
692.344	6650.32
692.69	6674.05
693.037	6712.69
693.383	6683.31
693.73	6600.38
694.077	6583.2
694.423	6623.65
694.769	6540.04
695.116	6556.31
695.462	6541.4
695.808	6488.97
696.155	6491.45
696.501	6489.65
696.847	6461.4
697.193	6399.93
697.539	6440.61
697.885	6286.71
698.231	6367.62
698.577	6316.54
698.923	6313.15
699.269	6301.18
699.614	6183.21
699.96	6233.16
700.306	6208.75
700.651	6148.19
700.997	6161.97
701.342	6152.93
701.688	6059.6
702.033	6075.65
702.379	6028.87
702.724	6026.16
703.069	6060.73
703.415	5935.99
703.76	5981.86
704.105	5947.97
704.45	5939.6
704.795	5910.45
705.14	5891.47
705.485	5910.45
705.83	5846.72
706.175	5895.09
706.52	5870.23
706.865	5843.79
707.209	5783.22
707.554	5781.87
707.899	5785.71
708.243	5762.66
708.588	5739.61
708.932	5671.36
709.277	5702.77
709.621	5687.86
709.966	5683.11
710.31	5650.35
710.654	5669.33
710.998	5634.75
711.342	5631.82
711.687	5603.57
712.031	5576.22
712.375	5568.54
712.719	5564.47
713.063	5526.28
713.407	5564.47
713.75	5485.83
714.094	5540.52
714.438	5501.42
714.782	5556.56
715.125	5477.47
715.469	5481.54
715.812	5457.58
716.156	5417.36
716.499	5469.56
716.843	5424.14
717.186	5406.06
717.53	5422.1
717.873	5395.44
718.216	5406.74
718.559	5406.28
718.902	5343.91
719.246	5376.68
719.589	5378.04
719.932	5312.73
720.275	5306.63
720.617	5357.7
720.96	5380.52
721.303	5319.96
721.646	5359.05
721.989	5290.36
722.331	5326.06
722.674	5333.74
723.016	5301.43
723.359	5337.13
723.701	5315.89
724.044	5297.59
724.386	5240.87
724.729	5292.39
725.071	5272.95
725.413	5278.6
725.755	5245.16
726.097	5236.35
726.439	5205.61
726.782	5217.14
727.124	5282.22
727.465	5210.13
727.807	5247.64
728.149	5257.14
728.491	5189.34
728.833	5239.28
729.175	5196.57
729.516	5239.74
729.858	5239.28
730.199	5298.72
730.541	5243.35
730.882	5239.28
731.224	5237.93
731.565	5259.62
731.906	5278.83
732.248	5264.82
732.589	5232.05
732.93	5212.62
733.271	5199.06
733.612	5249.45
733.953	5253.75
734.294	5259.4
734.635	5204.03
734.976	5272.5
735.317	5256.46
735.658	5244.25
735.999	5283.35
736.339	5291.26
736.68	5322.67
737.021	5310.69
737.361	5291.94
737.702	5299.17
738.042	5249.9
738.383	5271.6
738.723	5351.82
739.063	5360.18
739.404	5382.56
739.744	5313.86
740.084	5337.59
740.424	5360.86
740.764	5373.52
741.104	5411.03
741.444	5376.91
741.784	5362.67
742.124	5392.05
742.464	5445.83
742.804	5510.91
743.143	5454.64
743.483	5531.48
743.823	5535.55
744.162	5519.05
744.502	5566.05
744.841	5583.23
745.181	5561.31
745.52	5655.09
745.86	5714.98
746.199	5675.88
746.538	5789.55
746.877	5839.95
747.216	5844.69
747.556	5912.03
747.895	5928.76
748.234	5940.06
748.573	6024.35
748.911	6018.47
749.25	6096.89
749.589	6154.74
749.928	6272.48
750.267	6270.44
750.605	6335.75
750.944	6403.09
751.283	6493.49
751.621	6546.82
751.96	6689.64
752.298	6714.5
752.636	6858.68
752.975	6892.35
753.313	6987.03
753.651	7153.81
753.989	7162.85
754.327	7304.77
754.666	7420.02
755.004	7533.23
755.342	7671.76
755.679	7814.36
756.017	7879.67
756.355	8036.95
756.693	8222.48
757.031	8358.3
757.368	8380.22
757.706	8580.44
758.044	8751.51
758.381	8862.46
758.719	9060.2
759.056	9264.71
759.394	9328.89
759.731	9462.67
760.068	9612.73
760.405	9846.17
760.743	9931.82
761.08	10127.06
761.417	10283.22
761.754	10475.53
762.091	10587.17
762.428	10796.65
762.765	10943.31
763.102	11213.82
763.438	11376.07
763.775	11504.66
764.112	11746
764.449	11909.62
764.785	12086.56
765.122	12247.23
765.458	12253.11
765.795	12479.09
766.131	12661.01
766.467	12901.45
766.804	13002.47
767.14	13078.17
767.476	13294.89
767.812	13441.1
768.148	13657.82
768.485	13700.76
768.821	13802
769.157	13961.99
769.492	14179.39
769.828	14271.14
770.164	14334.41
770.5	14518.59
770.836	14582.99
771.171	14657.57
771.507	14740.95
771.842	14822.76
772.178	15036.54
772.513	15154.28
772.849	15218
773.184	15205.12
773.519	15345.23
773.855	15432.01
774.19	15476.53
774.525	15598.11
774.86	15766.01
775.195	15799.91
775.53	15845.56
775.865	15957.42
776.2	15933.24
776.535	15987.25
776.87	16078.55
777.205	16094.82
777.539	16215.49
777.874	16221.14
778.209	16243.06
778.543	16211.88
778.878	16277.41
779.212	16393.34
779.547	16267.69
779.881	16431.31
780.215	16465.2
780.55	16435.15
780.884	16399.22
781.218	16470.17
781.552	16509.04
781.886	16498.2
782.22	16445.09
782.554	16529.38
782.888	16455.71
783.222	16523.96
783.556	16488.93
783.889	16473.79
784.223	16477.18
784.557	16501.36
784.89	16582.04
785.224	16553.34
785.557	16503.39
785.891	16535.94
786.224	16499.55
786.558	16565.54
786.891	16457.97
787.224	16348.6
787.557	16445.09
787.891	16457.97
788.224	16445.99
788.557	16577.06
788.89	16565.54
789.223	16540.91
789.556	16416.39
789.888	16346.11
790.221	16286
790.554	16375.26
790.887	16327.35
791.219	16304.53
791.552	16373.91
791.884	16132.1
792.217	16239.22
792.549	16196.28
792.882	16189.96
793.214	16047.81
793.546	16149.05
793.879	16076.06
794.211	16055.72
794.543	16159.45
794.875	16071.99
795.207	16093.01
795.539	16036.29
795.871	15954.71
796.203	15931.21
796.535	15917.65
796.867	15874.94
797.198	15826.12
797.53	15827.71
797.862	15849.4
798.193	15803.07
798.525	15685.34
798.856	15721.95
799.188	15663.19
799.519	15483.08
799.85	15500.03
800.182	15517.66
800.513	15506.13
800.844	15425.68
801.175	15548.84
801.506	15495.28
801.837	15410.09
802.168	15307.49
802.499	15371.45
802.83	15244.44
803.161	15268.85
803.491	15217.55
803.822	15314.95
804.153	15163.09
804.483	15083.54
804.814	15019.59
805.145	14975.98
805.475	14954.96
805.805	14946.82
806.136	14887.62
806.466	14886.04
806.796	14853.95
807.126	14771.01
807.457	14818.01
807.787	14841.52
808.117	14750.45
808.447	14691.01
808.777	14781.41
809.107	14690.79
809.436	14731.24
809.766	14622.77
810.096	14594.97
810.426	14496.89
810.755	14588.19
811.085	14581.64
811.414	14477.68
811.744	14338.25
812.073	14407.86
812.403	14324.47
812.732	14353.17
813.061	14264.81
813.39	14266.84
813.719	14228.43
814.049	14298.93
814.378	14279.27
814.707	14227.07
815.036	14168.77
815.365	14204.47
815.693	14004.93
816.022	14071.37
816.351	13985.95
816.68	13983.23
817.008	14037.02
817.337	13894.65
817.665	13788.66
817.994	13916.12
818.322	13890.81
818.651	13818.49
818.979	13782.56
819.307	13875.44
819.636	13831.37
819.964	13768.1
820.292	13778.27
820.62	13746.63
820.948	13760.42
821.276	13779.62
821.604	13790.47
821.932	13736.46
822.259	13735.1
822.587	13750.25
822.915	13768.78
823.243	13818.94
823.57	13689.68
823.898	13694.43
824.225	13676.35
824.553	13741.43
824.88	13710.92
825.207	13845.16
825.535	13685.16
825.862	13794.31
826.189	13719.96
826.516	13759.96
826.843	13729
827.17	13797.48
827.497	13829.57
827.824	13777.82
828.151	13737.36
828.478	13764.48
828.805	13805.61
829.131	13733.3
829.458	13760.64
829.785	13681.32
830.111	13773.75
830.438	13810.81
830.764	13791.6
831.09	13792.73
831.417	13726.74
831.743	13780.53
832.069	13784.14
832.395	13706.86
832.722	13779.17
833.048	13728.55
833.374	13706.18
833.7	13622.34
834.026	13797.7
834.351	13686.97
834.677	13709.79
835.003	13769.91
835.329	13631.15
835.654	13761.32
835.98	13565.39
836.306	13668.67
836.631	13585.28
836.956	13608.55
837.282	13650.36
837.607	13536.69
837.932	13552.51
838.258	13435.9
838.583	13499.18
838.908	13356.13
839.233	13456.69
839.558	13381.22
839.883	13452.63
840.208	13360.43
840.533	13381.89
840.858	13349.13
841.182	13314.78
841.507	13342.12
841.832	13316.36
842.156	13224.61
842.481	13226.42
842.805	13182.8
843.13	13112.52
843.454	13203.14
843.778	13084.5
844.103	13057.83
844.427	13095.8
844.751	13020.77
845.075	12983.03
845.399	12949.81
845.723	12876.82
846.047	12914.11
846.371	12801.34
846.695	12764.28
847.019	12724.28
847.343	12635.92
847.666	12557.06
847.99	12575.36
848.313	12564.51
848.637	12427.12
848.96	12415.14
849.284	12454.01
849.607	12253.56
849.931	12237.07
850.254	12215.14
850.577	12165.65
850.9	12096.5
851.223	12116.62
851.546	12054.92
851.869	11962.5
852.192	12002.04
852.515	11838.66
852.838	11796.4
853.161	11870.07
853.483	11763.86
853.806	11658.32
854.129	11747.36
854.451	11651.54
854.774	11536.07
855.096	11577.65
855.419	11526.8
855.741	11466.46
856.063	11463.75
856.385	11456.97
856.708	11387.14
857.03	11374.04
857.352	11336.75
857.674	11313.25
857.996	11247.49
858.318	11153.93
858.64	11228.96
858.961	11168.62
859.283	11135.63
859.605	11060.15
859.926	11080.94
860.248	11116.87
860.57	11056.53
860.891	10995.97
861.212	10933.6
861.534	10953.94
861.855	10906.48
862.176	10886.14
862.498	10852.47
862.819	10902.64
863.14	10838.01
863.461	10799.36
863.782	10787.61
864.103	10762.3
864.424	10750.32
864.745	10798.91
865.065	10683.89
865.386	10683.66
865.707	10616.77
866.027	10664.68
866.348	10641.63
866.668	10680.04
866.989	10560.5
867.309	10473.95
867.63	10561.86
867.95	10583.55
868.27	10503.78
868.59	10515.3
868.91	10482.31
869.23	10505.36
869.55	10373.16
869.87	10359.15
870.19	10449.09
870.51	10383.55
870.83	10392.59
871.15	10280.96
871.469	10424.23
871.789	10422.65
872.109	10315.76
872.428	10296.78
872.748	10348.98
873.067	10352.37
873.386	10351.24
873.706	10306.49
874.025	10256.1
874.344	10189.44
874.663	10226.72
874.982	10223.33
875.301	10213.39
875.62	10166.39
875.939	10140.17
876.258	10210.45
876.577	10142.66
876.896	10092.49
877.214	10026.5
877.533	10134.75
877.852	10097.69
878.17	10105.82
878.489	10046.61
878.807	10030.12
879.125	10042.55
879.444	9961.19
879.762	9961.64
880.08	9992.83
880.398	9909.89
880.716	9886.62
881.034	9871.25
881.352	9811.14
881.67	9843.46
881.988	9843.91
882.306	9798.94
882.624	9767.07
882.941	9718.04
883.259	9607.08
883.577	9708.32
883.894	9651.82
884.212	9741.09
884.529	9618.38
884.846	9577.25
885.164	9560.53
885.481	9515.1
885.798	9612.05
886.115	9482.11
886.432	9489.34
886.75	9396.46
887.067	9447.76
887.383	9427.2
887.7	9404.82
888.017	9375.9
888.334	9444.37
888.651	9307.88
888.967	9340.87
889.284	9272.85
889.6	9267.43
889.917	9183.59
890.233	9162.34
890.55	9163.93
890.866	9192.63
891.182	9123.93
891.498	9116.02
891.815	9022.01
892.131	9048.9
892.447	9015.46
892.763	8958.73
893.079	8893.42
893.395	8933.42
893.71	8928.9
894.026	8875.12
894.342	8861.33
894.657	8825.18
894.973	8857.49
895.289	8749.93
895.604	8764.61
895.92	8638.52
896.235	8651.17
896.55	8655.24
896.865	8625.63
897.181	8615.01
897.496	8603.49
897.811	8589.93
898.126	8515.36
898.441	8497.73
898.756	8477.62
899.071	8383.38
899.386	8413.89
899.7	8299.32
900.015	8295.25
900.33	8235.36
900.644	8255.93
900.959	8255.25
901.273	8194.23
901.588	8167.12
901.902	8123.05
902.216	8096.16
902.531	8115.82
902.845	8080.34
903.159	7938.87
903.473	8002.37
903.787	7970.51
904.101	7922.83
904.415	7882.83
904.729	7850.51
905.042	7801.93
905.356	7841.02
905.67	7768.93
905.984	7754.25
906.297	7719.67
906.611	7646.45
906.924	7662.04
907.237	7641.25
907.551	7587.02
907.864	7585.89
908.177	7541.82
908.491	7523.06
908.804	7487.36
909.117	7434.25
909.43	7360.81
909.743	7399.23
910.056	7356.06
910.368	7297.31
910.681	7344.31
910.994	7288.04
911.307	7303.41
911.619	7222.06
911.932	7221.6
912.244	7170.08
912.557	7128.05
912.869	7112.68
913.181	7032.23
913.494	7015.73
913.806	7027.48
914.118	6997.43
914.43	6882.63
914.742	6976.64
915.054	6911.78
915.366	6881.27
915.678	6799.69
915.99	6815.51
916.302	6787.04
916.613	6754.05
916.925	6663.2
917.236	6712.69
917.548	6700.94
917.859	6652.58
918.171	6607.38
918.482	6555.41
918.794	6569.64
919.105	6574.16
919.416	6494.62
919.727	6480.61
920.038	6500.04
920.349	6488.06
920.66	6398.12
920.971	6403.32
921.282	6414.85
921.593	6357.9
921.903	6264.79
922.214	6283.1
922.525	6260.73
922.835	6209.88
923.146	6139.6
923.456	6196.77
923.767	6171.46
924.077	6115.19
924.387	6061.86
924.697	6081.29
925.008	6062.99
925.318	6017.79
925.628	6026.61
925.938	5978.25
926.248	5939.38
926.558	5904.8
926.867	5902.54
927.177	5832.71
927.487	5917.23
927.796	5806.73
928.106	5816.67
928.416	5785.48
928.725	5761.76
929.034	5750
929.344	5725.82
929.653	5687.18
929.962	5681.76
930.271	5586.84
930.581	5638.14
930.89	5598.37
931.199	5571.03
931.508	5608.09
931.817	5515.89
932.125	5494.64
932.434	5541.42
932.743	5469.79
933.051	5445.38
933.36	5416
933.669	5401.54
933.977	5380.07
934.286	5415.55
934.594	5350.69
934.902	5292.62
935.21	5251.94
935.519	5241.54
935.827	5275.44
936.135	5187.99
936.443	5201.54
936.751	5162.67
937.059	5180.98
937.367	5090.59
937.674	5114.99
937.982	5111.15
938.29	5089.23
938.597	5077.03
938.905	4979.18
939.213	4984.83
939.52	4985.05
939.827	4979.63
940.135	4956.35
940.442	4938.95
940.749	4898.95
941.056	4924.04
941.363	4828.45
941.67	4839.29
941.977	4810.59
942.284	4791.84
942.591	4792.97
942.898	4751.16
943.205	4746.64
943.511	4749.8
943.818	4749.35
944.125	4644.95
944.431	4681.11
944.738	4688.34
945.044	4674.55
945.35	4599.07
945.657	4571.5
945.963	4546.19
946.269	4536.02
946.575	4551.17
946.881	4516.82
947.187	4481.56
947.493	4413.54
947.799	4428.01
948.105	4447.44
948.41	4401.11
948.716	4414.67
949.022	4397.05
949.327	4353.43
949.633	4345.75
949.938	4327.89
950.244	4341.68
950.549	4298.52
950.854	4247.44
951.16	4286.77
951.465	4264.17
951.77	4238.63
952.075	4210.16
952.38	4190.27
952.685	4199.54
952.99	4134.68
953.294	4121.35
953.599	4084.74
953.904	4063.27
954.209	4068.69
954.513	4055.13
954.818	4043.38
955.122	4050.16
955.426	4012.2
955.731	4000.45
956.035	3975.14
956.339	3950.73
956.643	3964.51
956.948	3906.66
957.252	3908.24
957.556	3872.31
957.86	3835.03
958.163	3847
958.467	3795.71
958.771	3806.55
959.075	3825.99
959.378	3790.28
959.682	3776.95
959.985	3782.15
960.289	3740.34
960.592	3716.84
960.896	3728.81
961.199	3706.22
961.502	3656.27
961.805	3624.64
962.108	3675.71
962.411	3571.76
962.714	3573.11
963.017	3612.43
963.32	3598.2
963.623	3539.44
963.926	3602.94
964.228	3511.64
964.531	3564.75
964.833	3494.7
965.136	3488.37
965.438	3484.08
965.741	3507.35
966.043	3457.86
966.345	3428.26
966.648	3444.75
966.95	3452.66
967.252	3380.12
967.554	3364.3
967.856	3353.68
968.158	3323.18
968.46	3339.22
968.761	3324.76
969.063	3310.07
969.365	3282.5
969.666	3292.89
969.968	3260.58
970.269	3218.09
970.571	3230.97
970.872	3219.45
971.174	3180.81
971.475	3176.51
971.776	3183.74
972.077	3188.72
972.378	3147.36
972.679	3132.22
972.98	3135.84
973.281	3070.75
973.582	3096.97
973.883	3059.45
974.183	3072.79
974.484	3064.65
974.785	3036.63
975.085	3016.97
975.386	3078.21
975.686	2972.9
975.986	2996.18
976.287	2991.66
976.587	2942.85
976.887	2942.39
977.187	2914.15
977.487	2905.11
977.787	2885.9
978.087	2889.51
978.387	2860.81
978.687	2850.19
978.987	2831.66
979.286	2849.52
979.586	2824.21
979.885	2833.47
980.185	2783.08
980.484	2825.11
980.784	2764.32
981.083	2781.04
981.382	2768.84
981.682	2748.5
981.981	2731.1
982.28	2710.31
982.579	2680.03
982.878	2667.15
983.177	2709.18
983.475	2690.42
983.774	2678.45
984.073	2636.87
984.372	2607.26
984.67	2614.27
984.969	2623.53
985.267	2657.43
985.566	2585.57
985.864	2601.39
986.162	2569.52
986.461	2510.09
986.759	2570.65
987.057	2536.76
987.355	2521.84
987.653	2516.64
987.951	2459.24
988.249	2453.14
988.547	2490.43
988.844	2434.39
989.142	2453.82
989.44	2419.47
989.737	2428.06
990.035	2428.28
990.332	2406.59
990.63	2420.15
990.927	2365.01
991.224	2381.73
991.521	2407.72
991.819	2374.95
992.116	2384.22
992.413	2373.14
992.71	2346.7
993.006	2322.52
993.303	2289.98
993.6	2294.73
993.897	2299.02
994.193	2289.3
994.49	2257.67
994.787	2242.07
995.083	2251.57
995.379	2216.76
995.676	2207.05
995.972	2215.41
996.268	2176.09
996.565	2157.33
996.861	2164.56
997.157	2173.6
997.453	2130.44
997.749	2152.58
998.044	2137.44
998.34	2138.57
998.636	2109.42
998.932	2091.8
999.227	2080.04
999.523	2096.77
999.818	2062.64
1000.114	2080.72
1000.409	2045.92
1000.704	2045.69
1001	2016.54
1001.295	2022.87
1001.59	2004.57
1001.885	2008.18
1002.18	1972.93
1002.475	1973.61
1002.77	1970.89
1003.065	1935.19
1003.359	1925.02
1003.654	1940.39
1003.949	1915.08
1004.243	1905.13
1004.538	1896.77
1004.832	1877.79
1005.127	1857.68
1005.421	1889.99
1005.715	1852.25
1006.009	1836.21
1006.304	1843.67
1006.598	1834.17
1006.892	1835.08
1007.186	1812.93
1007.48	1782.42
1007.773	1798.24
1008.067	1758.02
1008.361	1760.5
1008.655	1735.19
1008.948	1767.28
1009.242	1743.78
1009.535	1726.16
1009.829	1718.47
1010.122	1723.44
1010.415	1703.1
1010.708	1673.5
1011.001	1673.28
1011.295	1659.72
1011.588	1645.03
1011.881	1621.98
1012.173	1649.32
1012.466	1639.38
1012.759	1595.54
1013.052	1598.93
1013.344	1603.22
1013.637	1591.24
1013.93	1580.62
1014.222	1600.51
1014.514	1585.14
1014.807	1539.49
1015.099	1575.2
1015.391	1553.5
1015.683	1517.12
1015.976	1496.78
1016.268	1494.07
1016.56	1527.97
1016.851	1496.78
1017.143	1496.56
1017.435	1472.83
1017.727	1471.02
1018.018	1457.01
1018.31	1440.51
1018.602	1442.09
1018.893	1421.98
1019.185	1419.72
1019.476	1430.12
1019.767	1423.11
1020.058	1393.51
1020.35	1371.36
1020.641	1374.3
1020.932	1370.46
1021.223	1339.95
1021.514	1327.3
1021.804	1338.14
1022.095	1319.84
1022.386	1316.67
1022.677	1317.13
1022.967	1313.28
1023.258	1306.51
1023.548	1295.88
1023.839	1265.83
1024.129	1309.67
1024.419	1237.13
1024.709	1224.93
1025	1244.59
1025.29	1227.19
1025.58	1264.92
1025.87	1218.15
1026.16	1204.14
1026.449	1211.59
1026.739	1218.82
1027.029	1197.13
1027.319	1173.63
1027.608	1180.63
1027.898	1162.78
1028.187	1174.31
1028.477	1180.18
1028.766	1164.81
1029.055	1123.23
1029.344	1134.53
1029.634	1147.19
1029.923	1102.67
1030.212	1115.32
1030.501	1100.86
1030.79	1084.14
1031.078	1108.32
1031.367	1060.18
1031.656	1092.27
1031.945	1085.72
1032.233	1040.52
1032.522	1057.02
1032.81	1025.38
1033.099	1046.4
1033.387	1047.75
1033.675	1035.78
1033.963	1006.63
1034.251	1008.66
1034.54	1020.19
1034.828	981.09
1035.116	1022.9
1035.403	1009.11
1035.691	984.71
1035.979	954.88
1036.267	982.67
1036.554	961.88
1036.842	976.8
1037.129	938.61
1037.417	946.06
1037.704	952.16
1037.992	950.81
1038.279	945.38
1038.566	920.75
1038.853	920.75
1039.14	920.75
