Data from hue_140_FLMS001491_00019.txt Node
Date: Tue Feb 07 16:55:30 GMT 2017
User: dcchb
Spectrometer: FLMS00149
Trigger mode: 0
Integration Time (sec): 2.000000E-2
Scans to average: 10
Electric dark correction enabled: true
Nonlinearity correction enabled: false
Boxcar width: 0
XAxis mode: Wavelengths
Number of Pixels in Spectrum: 2048
>>>>>Begin Spectral Data<<<<<
341.393	-11.77
341.776	-11.77
342.16	-11.77
342.543	-72.1
342.927	-59.22
343.31	-58.54
343.693	-80.69
344.077	-85.66
344.46	-57.64
344.843	-58.77
345.226	-42.72
345.61	-31.65
345.993	-21.48
346.376	2.92
346.759	17.84
347.142	9.25
347.525	44.28
347.908	77.05
348.291	72.07
348.674	91.96
349.057	121.79
349.44	125.63
349.823	146.42
350.206	165.18
350.588	192.52
350.971	209.92
351.354	222.8
351.737	246.08
352.119	249.47
352.502	284.5
352.884	282.92
353.267	295.35
353.65	290.15
354.032	314.33
354.414	293.99
354.797	314.1
355.179	318.4
355.562	315.01
355.944	314.78
356.326	338.06
356.709	342.12
357.091	336.47
357.473	370.6
357.855	331.95
358.238	326.08
358.62	342.58
359.002	329.02
359.384	345.51
359.766	354.1
360.148	348.23
360.53	339.19
360.912	342.8
361.294	331.05
361.676	344.61
362.057	338.28
362.439	324.72
362.821	330.37
363.203	329.92
363.584	342.12
363.966	329.24
364.348	323.82
364.729	334.21
365.111	317.72
365.493	327.21
365.874	328.11
366.256	305.29
366.637	325.85
367.019	327.66
367.4	329.24
367.781	334.44
368.163	332.41
368.544	311.62
368.925	329.02
369.306	338.06
369.688	336.25
370.069	318.62
370.45	304.61
370.831	334.89
371.212	305.74
371.593	337.38
371.974	307.1
372.355	323.37
372.736	327.43
373.117	311.16
373.498	305.74
373.879	352.74
374.26	313.42
374.641	317.94
375.021	318.17
375.402	332.63
375.783	333.99
376.163	349.81
376.544	327.89
376.925	324.95
377.305	320.88
377.686	337.38
378.066	340.54
378.447	328.56
378.827	344.84
379.208	323.59
379.588	337.38
379.968	340.99
380.349	355.46
380.729	324.95
381.109	332.18
381.489	348.9
381.87	362.01
382.25	338.51
382.63	360.65
383.01	348.9
383.39	353.65
383.77	344.61
384.15	340.99
384.53	346.64
384.91	365.4
385.29	358.39
385.67	349.36
386.049	367.89
386.429	345.06
386.809	361.11
387.189	358.17
387.568	352.29
387.948	358.17
388.328	353.2
388.707	350.49
389.087	353.65
389.466	377.15
389.846	361.78
390.225	371.05
390.605	380.54
390.984	365.17
391.363	367.89
391.743	357.26
392.122	375.8
392.501	378.06
392.881	378.06
393.26	403.14
393.639	405.62
394.018	372.86
394.397	359.52
394.776	390.71
395.155	387.32
395.534	382.12
395.913	377.38
396.292	375.34
396.671	380.09
397.05	396.36
397.429	415.34
397.808	397.72
398.186	388.68
398.565	386.19
398.944	398.85
399.323	388.9
399.701	390.94
400.08	389.35
400.458	403.82
400.837	407.88
401.215	412.63
401.594	396.59
401.972	408.11
402.351	405.17
402.729	405.17
403.107	419.41
403.486	434.78
403.864	423.48
404.242	424.61
404.62	417.38
404.999	425.96
405.377	442.91
405.755	414.21
406.133	448.34
406.511	442.91
406.889	447.66
407.267	439.52
407.645	415.12
408.023	441.78
408.401	436.58
408.779	433.87
409.156	458.05
409.534	457.6
409.912	440.2
410.29	469.8
410.667	446.3
411.045	464.15
411.422	463.7
411.8	486.07
412.178	487.43
412.555	454.44
412.933	484.72
413.31	527.2
413.687	473.42
414.065	471.84
414.442	487.88
414.819	513.42
415.197	520.65
415.574	514.55
415.951	512.74
416.328	507.54
416.705	513.64
417.082	528.11
417.46	508.45
417.837	505.51
418.214	519.29
418.591	523.36
418.967	534.66
419.344	527.43
419.721	529.92
420.098	536.47
420.475	547.54
420.852	559.75
421.228	536.92
421.605	555
421.982	578.05
422.358	549.8
422.735	551.38
423.111	563.36
423.488	555.45
423.864	564.49
424.241	580.99
424.617	573.08
424.994	572.17
425.37	584.83
425.746	551.84
426.123	578.5
426.499	601.33
426.875	607.43
427.251	587.77
427.627	600.2
428.003	606.75
428.379	633.19
428.756	637.03
429.132	635.45
429.507	641.78
429.883	637.94
430.259	633.87
430.635	653.75
431.011	645.84
431.387	654.66
431.763	671.38
432.138	683.81
432.514	662.12
432.89	669.8
433.265	681.1
433.641	691.27
434.016	693.3
434.392	692.4
434.767	710.25
435.143	729.01
435.518	706.63
435.894	732.4
436.269	760.42
436.644	720.19
437.02	754.09
437.395	760.42
437.77	764.26
438.145	745.73
438.52	755.45
438.895	738.27
439.271	760.42
439.646	779.63
440.021	808.1
440.395	793.19
440.77	789.8
441.145	781.66
441.52	798.61
441.895	828.21
442.27	856.46
442.645	810.81
443.019	829.79
443.394	835.67
443.769	833.18
444.143	817.14
444.518	841.32
444.892	865.95
445.267	849.23
445.641	861.88
446.016	866.63
446.39	864.82
446.764	909.34
447.139	885.61
447.513	896.91
447.887	895.1
448.262	899.62
448.636	905.5
449.01	897.36
449.384	933.97
449.758	917.93
450.132	909.34
450.506	925.84
450.88	953.18
451.254	954.31
451.628	941.43
452.002	963.8
452.376	969.45
452.75	980.53
453.123	978.27
453.497	999.73
453.871	1013.52
454.244	1031.15
454.618	1040.64
454.992	1044.48
455.365	1014.2
455.739	1058.04
456.112	1051.03
456.486	1085.61
456.859	1103.69
457.232	1106.85
457.606	1108.21
457.979	1098.04
458.352	1142.78
458.725	1153.85
459.099	1165.15
459.472	1226.85
459.845	1203.34
460.218	1194.3
460.591	1226.39
460.964	1239.05
461.337	1258.71
461.71	1229.78
462.083	1294.87
462.456	1302.55
462.829	1313.62
463.201	1336.22
463.574	1342.55
463.947	1357.92
464.32	1398.14
464.692	1404.69
465.065	1411.02
465.438	1428.87
465.81	1445.82
466.183	1476.78
466.555	1490.34
466.928	1504.58
467.3	1513.84
467.672	1552.94
468.045	1586.16
468.417	1599.27
468.789	1610.34
469.161	1620.73
469.534	1678.36
469.906	1720.39
470.278	1740.28
470.65	1759.49
471.022	1798.13
471.394	1860.5
471.766	1842.88
472.138	1899.6
472.51	1931.23
472.882	1995.64
473.253	2019.59
473.625	2058.24
473.997	2112.02
474.369	2122.19
474.74	2170.78
475.112	2224.11
475.484	2304.11
475.855	2342.75
476.227	2351.79
476.598	2413.93
476.97	2498
477.341	2542.07
477.713	2627.26
478.084	2661.38
478.455	2760.82
478.827	2849.4
479.198	2903.86
479.569	2954.03
479.94	3064.54
480.311	3153.12
480.682	3204.65
481.053	3316.51
481.424	3417.98
481.795	3509.05
482.166	3596.95
482.537	3619.78
482.908	3735.48
483.279	3824.52
483.65	3976.15
484.021	4099.54
484.391	4186.77
484.762	4248.01
485.133	4361.68
485.503	4459.08
485.874	4577.04
486.244	4703.37
486.615	4836.92
486.985	4974.54
487.356	5103.35
487.726	5193.3
488.097	5349.45
488.467	5422.44
488.837	5548.54
489.207	5734.75
489.578	5860.62
489.948	5948.08
490.318	6119.37
490.688	6231.46
491.058	6331.12
491.428	6501.28
491.798	6553.26
492.168	6809.52
492.538	6836.64
492.908	6981.72
493.278	7157.31
493.648	7190.98
494.017	7449.73
494.387	7500.35
494.757	7618.32
495.126	7821.48
495.496	7908.03
495.866	7999.1
496.235	8174.46
496.605	8233.89
496.974	8334.23
497.344	8491.74
497.713	8597.5
498.082	8690.38
498.452	8787.1
498.821	8948.68
499.19	8988
499.559	9097.15
499.928	9247.65
500.298	9324.26
500.667	9434.31
501.036	9470.47
501.405	9636.57
501.774	9710.92
502.143	9858.48
502.512	9956.79
502.88	9976.9
503.249	10045.6
503.618	10170.57
503.987	10246.72
504.356	10291.24
504.724	10347.74
505.093	10419.82
505.462	10494.17
505.83	10591.12
506.199	10682.19
506.567	10850.55
506.936	10865.69
507.304	10947.72
507.672	11057.32
508.041	11076.98
508.409	11180.71
508.777	11203.76
509.145	11275.62
509.514	11399.46
509.882	11456.41
510.25	11415.96
510.618	11548.38
510.986	11527.14
511.354	11695.95
511.722	11736.17
512.09	11780.47
512.458	11808.26
512.826	11835.61
513.193	11932.33
513.561	11957.19
513.929	12012.55
514.297	12115.6
514.664	12184.3
515.032	12288.7
515.4	12301.36
515.767	12331.64
516.135	12376.38
516.502	12333.9
516.869	12479.21
517.237	12513.33
517.604	12442.6
517.972	12488.25
518.339	12620.9
518.706	12629.03
519.073	12604.17
519.44	12654.79
519.808	12715.36
520.175	12715.36
520.542	12899.31
520.909	12828.12
521.276	12868.8
521.643	12914.22
522.009	12979.76
522.376	12999.19
522.743	13064.73
523.11	13028.34
523.477	13177.94
523.843	13257.04
524.21	13278.73
524.577	13197.83
524.943	13308.34
525.31	13243.48
525.676	13386.53
526.043	13418.84
526.409	13454.55
526.776	13541.55
527.142	13424.49
527.508	13472.17
527.874	13576.58
528.241	13549.46
528.607	13459.52
528.973	13626.52
529.339	13551.04
529.705	13630.36
530.071	13637.37
530.437	13661.32
530.803	13660.64
531.169	13725.5
531.535	13531.61
531.901	13594.43
532.267	13643.92
532.632	13610.02
532.998	13678.5
533.364	13643.02
533.73	13683.02
534.095	13716.91
534.461	13587.88
534.826	13680.98
535.192	13619.74
535.557	13694.09
535.923	13585.84
536.288	13568.22
536.653	13645.73
537.019	13455.68
537.384	13431.27
537.749	13580.19
538.114	13429.24
538.479	13359.18
538.845	13455
539.21	13365.51
539.575	13370.93
539.94	13363.02
540.305	13405.51
540.67	13385.17
541.034	13307.66
541.399	13276.02
541.764	13269.02
542.129	13251.61
542.494	13154.89
542.858	13201.67
543.223	13163.03
543.587	13145.85
543.952	13033.09
544.316	13054.56
544.681	13025.63
545.045	12965.07
545.41	12989.93
545.774	12919.87
546.138	12859.99
546.503	12840.55
546.867	12793.32
547.231	12859.31
547.595	12883.71
547.959	12834.22
548.324	12795.36
548.688	12781.34
549.052	12671.52
549.416	12657.05
549.779	12640.56
550.143	12550.62
550.507	12598.52
550.871	12660.44
551.235	12547.45
551.599	12489.6
551.962	12496.83
552.326	12476.04
552.689	12507.23
553.053	12357.4
553.417	12371.64
553.78	12492.31
554.143	12376.84
554.507	12420.68
554.87	12366.21
555.234	12412.99
555.597	12281.92
555.96	12267.91
556.323	12419.32
556.686	12304.07
557.05	12307.91
557.413	12363.5
557.776	12224.07
558.139	12275.6
558.502	12288.25
558.865	12301.13
559.228	12257.29
559.59	12266.33
559.953	12317.4
560.316	12303.84
560.679	12301.13
561.041	12272.88
561.404	12325.09
561.767	12307.46
562.129	12275.82
562.492	12306.33
562.854	12364.41
563.217	12274.47
563.579	12369.38
563.941	12360.56
564.304	12375.25
564.666	12368.47
565.028	12370.06
565.39	12374.58
565.753	12405.08
566.115	12355.59
566.477	12464.52
566.839	12378.64
567.201	12479.88
567.563	12394.91
567.925	12525.76
568.287	12400.56
568.648	12431.3
569.01	12501.13
569.372	12557.85
569.734	12460.22
570.095	12451.86
570.457	12584.74
570.819	12588.58
571.18	12565.98
571.542	12591.97
571.903	12544.06
572.265	12667.22
572.626	12633.78
572.987	12613.89
573.349	12603.72
573.71	12688.47
574.071	12723.72
574.432	12662.7
574.794	12728.01
575.155	12760.33
575.516	12596.72
575.877	12678.75
576.238	12769.14
576.599	12744.28
576.96	12774.11
577.32	12702.48
577.681	12722.36
578.042	12745.41
578.403	12819.76
578.763	12784.28
579.124	12747.45
579.485	12755.36
579.845	12798.97
580.206	12758.97
580.566	12728.01
580.927	12729.37
581.287	12826.54
581.648	12690.73
582.008	12778.86
582.368	12803.04
582.728	12807.56
583.089	12735.47
583.449	12730.5
583.809	12722.82
584.169	12735.24
584.529	12725.75
584.889	12712.87
585.249	12723.04
585.609	12638.07
585.969	12728.46
586.329	12697.28
586.688	12654.57
587.048	12638.07
587.408	12603.27
587.768	12600.56
588.127	12632.2
588.487	12612.31
588.846	12678.52
589.206	12538.64
589.565	12549.94
589.925	12657.51
590.284	12657.28
590.643	12585.19
591.003	12659.99
591.362	12572.08
591.721	12590.62
592.08	12549.03
592.44	12588.36
592.799	12536.61
593.158	12541.13
593.517	12571.41
593.876	12627.22
594.235	12523.5
594.593	12588.81
594.952	12491.86
595.311	12486.89
595.67	12464.52
596.029	12573.21
596.387	12540.22
596.746	12545.87
597.104	12432.65
597.463	12482.82
597.822	12423.39
598.18	12465.42
598.538	12459.32
598.897	12546.77
599.255	12403.05
599.613	12556.49
599.972	12453.22
600.33	12506.78
600.688	12456.83
601.046	12573.89
601.404	12541.35
601.762	12587.9
602.12	12522.59
602.478	12460
602.836	12577.06
603.194	12481.92
603.552	12559.66
603.91	12522.14
604.268	12531.63
604.625	12493.67
604.983	12532.99
605.341	12372.54
605.698	12569.15
606.056	12596.94
606.413	12565.08
606.771	12498.64
607.128	12516.27
607.485	12447.12
607.843	12497.28
608.2	12490.28
608.557	12618.64
608.914	12552.42
609.272	12652.53
609.629	12582.25
609.986	12601.46
610.343	12539.77
610.7	12641.91
611.057	12626.55
611.414	12600.11
611.771	12604.17
612.127	12652.76
612.484	12681.69
612.841	12779.76
613.198	12608.02
613.554	12700.67
613.911	12698.64
614.267	12725.53
614.624	12724.62
614.98	12805.75
615.337	12796.03
615.693	12796.49
616.05	12693.21
616.406	12852.3
616.762	12777.05
617.118	12785.64
617.475	12762.81
617.831	12824.73
618.187	12861.79
618.543	12878.74
618.899	12930.49
619.255	12854.11
619.611	12805.3
619.967	12910.83
620.323	12891.17
620.678	12924.17
621.034	12851.17
621.39	12861.57
621.746	12845.52
622.101	12922.58
622.457	12820.44
622.812	12910.83
623.168	12937.05
623.523	12891.85
623.879	12961
624.234	12826.09
624.589	12936.59
624.945	12924.62
625.3	12932.08
625.655	12838.29
626.01	12899.76
626.365	12916.03
626.72	12902.7
627.075	12837.61
627.43	12952.19
627.785	12845.98
628.14	12862.47
628.495	12957.39
628.85	12917.16
629.205	12837.39
629.559	12821.8
629.914	12741.8
630.269	12920.78
630.623	12822.93
630.978	12804.17
631.332	12749.03
631.687	12834.45
632.041	12737.5
632.396	12829.03
632.75	12731.63
633.104	12737.96
633.459	12668.81
633.813	12723.27
634.167	12740.22
634.521	12631.74
634.875	12730.72
635.229	12628.35
635.583	12610.95
635.937	12539.77
636.291	12662.48
636.645	12596.94
636.999	12580.67
637.352	12592.2
637.706	12566.44
638.06	12572.99
638.413	12519.66
638.767	12543.38
639.121	12493.67
639.474	12417.06
639.828	12434.24
640.181	12381.58
640.534	12413.9
640.888	12347.68
641.241	12384.97
641.594	12380
641.947	12436.27
642.301	12348.14
642.654	12439.21
643.007	12290.51
643.36	12373.9
643.713	12274.24
644.066	12382.26
644.419	12314.69
644.771	12230.85
645.124	12158.99
645.477	12107.92
645.83	12073.34
646.182	12015.26
646.535	11921.93
646.888	11999.44
647.24	11929.62
647.593	11999.9
647.945	11859.56
648.298	11831.09
648.65	11849.39
649.002	11907.7
649.355	11972.55
649.707	11966.22
650.059	12015.26
650.411	12089.16
650.763	12028.37
651.115	12215.71
651.467	12175.94
651.819	12184.52
652.171	12206.22
652.523	12156.05
652.875	12140.68
653.227	12105.66
653.578	12246.67
653.93	12256.39
654.282	12165.32
654.633	12144.98
654.985	12179.78
655.337	12111.53
655.688	12201.02
656.039	12259.1
656.391	12106.79
656.742	12187.01
657.094	12160.57
657.445	12218.2
657.796	12189.95
658.147	12210.29
658.498	12146.33
658.849	12220.46
659.2	12194.02
659.551	12189.27
659.902	12191.3
660.253	12127.58
660.604	12203.05
660.955	12133.23
661.306	12189.27
661.656	12274.92
662.007	12175.94
662.358	12283.05
662.708	12208.25
663.059	12189.5
663.409	12162.83
663.76	12268.82
664.11	12249.38
664.461	12260.45
664.811	12221.13
665.161	12196.05
665.511	12165.77
665.862	12220.68
666.212	12229.27
666.562	12280.11
666.912	12138.88
667.262	12258.19
667.612	12239.89
667.962	12203.51
668.312	12258.87
668.662	12274.24
669.011	12251.64
669.361	12182.72
669.711	12151.76
670.06	12200.57
670.41	12198.76
670.76	12127.58
671.109	12208.03
671.459	12233.34
671.808	12210.96
672.157	12226.11
672.507	12143.62
672.856	12121.7
673.205	12149.5
673.554	12171.87
673.904	12143.62
674.253	12147.01
674.602	12071.98
674.951	11924.19
675.3	11931.88
675.649	12092.32
675.998	12123.73
676.346	12100.01
676.695	12095.71
677.044	11979.56
677.393	12019.1
677.741	12002.38
678.09	12028.82
678.438	12001.7
678.787	11956.51
679.135	11961.03
679.484	11886
679.832	11989.73
680.181	11902.27
680.529	11944.76
680.877	11925.77
681.225	11861.14
681.573	11908.15
681.922	11812.33
682.27	11772.33
682.618	11722.84
682.966	11724.88
683.314	11743.41
683.661	11693.01
684.009	11635.84
684.357	11629.28
684.705	11602.39
685.053	11571.66
685.4	11527.59
685.748	11592.9
686.095	11570.53
686.443	11469.29
686.79	11430.19
687.138	11474.03
687.485	11459.35
687.832	11408.5
688.18	11430.65
688.527	11323.3
688.874	11355.62
689.221	11405.34
689.568	11284.66
689.915	11260.48
690.262	11229.52
690.609	11227.94
690.956	11176.64
691.303	11198.79
691.65	11106.13
691.997	11037.21
692.344	10994.73
692.69	10973.71
693.037	10962.86
693.383	10876.08
693.73	10941.85
694.077	10871.11
694.423	10842.19
694.769	10817.1
695.116	10759.48
695.462	10725.58
695.808	10684
696.155	10681.74
696.501	10564.23
696.847	10605.36
697.193	10533.27
697.539	10553.61
697.885	10468.41
698.231	10464.57
698.577	10402.65
698.923	10372.14
699.269	10344.35
699.614	10226.84
699.96	10259.83
700.306	10237
700.651	10220.51
700.997	10086.27
701.342	10145.93
701.688	10119.04
702.033	10074.75
702.379	10079.72
702.724	9930.57
703.069	9964.47
703.415	9933.96
703.76	9860.97
704.105	9931.48
704.45	9840.18
704.795	9779.84
705.14	9746.4
705.485	9717.24
705.83	9660.3
706.175	9691.03
706.52	9689.22
706.865	9651.26
707.209	9644.03
707.554	9539.4
707.899	9604.03
708.243	9485.84
708.588	9564.93
708.932	9471.6
709.277	9429.12
709.621	9519.06
709.966	9430.92
710.31	9385.5
710.654	9328.1
710.998	9301.21
711.342	9338.5
711.687	9354.77
712.031	9205.85
712.375	9185.96
712.719	9197.71
713.063	9176.24
713.407	9229.35
713.75	9115
714.094	9194.32
714.438	9086.75
714.782	9155.45
715.125	9082.46
715.469	9071.16
715.812	9025.74
716.156	8976.25
716.499	8962.46
716.843	9016.02
717.186	8938.28
717.53	8947.1
717.873	8993.42
718.216	8926.98
718.559	8948.45
718.902	8842.24
719.246	8805.63
719.589	8830.49
719.932	8804.95
720.275	8803.14
720.617	8806.31
720.96	8795.69
721.303	8808.34
721.646	8790.72
721.989	8731.28
722.331	8763.37
722.674	8766.54
723.016	8770.6
723.359	8715.24
723.701	8795.23
724.044	8712.3
724.386	8638.63
724.729	8758.17
725.071	8655.58
725.413	8720.66
725.755	8656.93
726.097	8618.06
726.439	8623.26
726.782	8603.38
727.124	8656.93
727.465	8623.26
727.807	8650.38
728.149	8624.17
728.491	8566.31
728.833	8526.99
729.175	8633.21
729.516	8620.1
729.858	8661.68
730.199	8581.23
730.541	8582.36
730.882	8543.72
731.224	8523.83
731.565	8553.89
731.906	8572.64
732.248	8593.66
732.589	8509.37
732.93	8493.55
733.271	8524.51
733.612	8559.31
733.953	8522.47
734.294	8513.89
734.635	8548.01
734.976	8560.66
735.317	8516.37
735.658	8494.9
735.999	8548.01
736.339	8496.49
736.68	8594.11
737.021	8539.42
737.361	8566.99
737.702	8563.38
738.042	8516.15
738.383	8556.6
738.723	8552.53
739.063	8562.92
739.404	8578.74
739.744	8595.24
740.084	8585.3
740.424	8637.95
740.764	8631.17
741.104	8691.51
741.444	8651.96
741.784	8641.34
742.124	8693.99
742.464	8676.14
742.804	8651.74
743.143	8721.79
743.483	8750.94
743.823	8679.53
744.162	8764.28
744.502	8859.87
744.841	8857.15
745.181	8866.19
745.52	8879.98
745.86	8905.51
746.199	8985.06
746.538	8979.41
746.877	8978.28
747.216	9048.56
747.556	9110.48
747.895	9084.04
748.234	9175.56
748.573	9235.9
748.911	9279.29
749.25	9378.04
749.589	9376.69
749.928	9430.02
750.267	9504.82
750.605	9534.88
750.944	9638.83
751.283	9646.51
751.621	9780.07
751.96	9846.05
752.298	9934.19
752.636	9999.95
752.975	10053.73
753.313	10242.88
753.651	10308.42
753.989	10416.44
754.327	10515.42
754.666	10517
755.004	10679.03
755.342	10860.27
755.679	10893.26
756.017	10958.12
756.355	11186.13
756.693	11301.84
757.031	11441.72
757.368	11480.14
757.706	11683.07
758.044	11861.82
758.381	12067.01
758.719	12125.54
759.056	12328.02
759.394	12436.04
759.731	12565.31
760.068	12687.79
760.405	12838.29
760.743	12982.7
761.08	13174.55
761.417	13333.65
761.754	13505.17
762.091	13596.24
762.428	13770.47
762.765	13890.69
763.102	14116
763.438	14304.02
763.775	14343.56
764.112	14534.29
764.449	14688.87
764.785	14798.92
765.122	14922.76
765.458	14977.9
765.795	15239.13
766.131	15297.21
766.467	15404.55
766.804	15652.68
767.14	15715.73
767.476	15862.17
767.812	15995.95
768.148	16154.82
768.485	16176.28
768.821	16296.96
769.157	16421.25
769.492	16565.43
769.828	16686.78
770.164	16725.87
770.5	16810.39
770.836	16920.9
771.171	17076.6
771.507	17172.64
771.842	17116.6
772.178	17322.69
772.513	17341.68
772.849	17437.95
773.184	17477.49
773.519	17618.28
773.855	17604.04
774.19	17722.91
774.525	17796.58
774.86	17951.83
775.195	17887.65
775.53	17969
775.865	17919.51
776.2	18043.35
776.535	17946.41
776.87	18069.12
777.205	18003.35
777.539	18132.84
777.874	18272.95
778.209	18093.97
778.543	18209.68
778.878	18100.07
779.212	18174.88
779.547	18128.1
779.881	18342.55
780.215	18208.32
780.55	18397.47
780.884	18256.23
781.218	18220.3
781.552	18385.94
781.886	18307.98
782.22	18277.25
782.554	18330.13
782.888	18179.62
783.222	18235.66
783.556	18203.12
783.889	18171.26
784.223	18091.71
784.557	18154.31
784.89	18174.65
785.224	18125.16
785.557	18165.61
785.891	17996.8
786.224	18068.89
786.558	18073.18
786.891	17911.61
787.224	17996.57
787.557	17840.42
787.891	17973.3
788.224	17985.05
788.557	17996.57
788.89	18038.61
789.223	17972.17
789.556	17808.78
789.888	17849.23
790.221	17917.71
790.554	17650.6
790.887	17668.67
791.219	17574.44
791.552	17733.53
791.884	17680.42
792.217	17640.43
792.549	17610.37
792.882	17470.71
793.214	17404.05
793.546	17511.16
793.879	17328.12
794.211	17315.91
794.543	17285.41
794.875	17158.86
795.207	17310.94
795.539	17295.58
795.871	17273.88
796.203	17108.91
796.535	17043.83
796.867	17065.07
797.198	17026.43
797.53	17061.91
797.862	16909.37
798.193	16999.99
798.525	16894.23
798.856	16924.06
799.188	16738.08
799.519	16669.83
799.85	16546.22
800.182	16648.14
800.513	16658.53
800.844	16503.73
801.175	16652.43
801.506	16630.96
801.837	16505.54
802.168	16485.2
802.499	16451.53
802.83	16381.25
803.161	16306.22
803.491	16330.86
803.822	16290.63
804.153	16227.81
804.483	16167.02
804.814	16141.03
805.145	16062.16
805.475	16148.94
805.805	16045.21
806.136	16124.53
806.466	16032.78
806.796	15947.82
807.126	15905.1
807.457	15816.07
807.787	15822.85
808.117	15771.77
808.447	15787.37
808.777	15716.18
809.107	15728.84
809.436	15611.78
809.766	15595.06
810.096	15570.65
810.426	15567.03
810.755	15589.63
811.085	15514.38
811.414	15494.49
811.744	15297.44
812.073	15353.71
812.403	15430.31
812.732	15316.65
813.061	15350.54
813.39	15206.82
813.719	15233.03
814.049	15219.7
814.378	15127.95
814.707	15197.55
815.036	15123.88
815.365	15103.77
815.693	14939.93
816.022	14970.44
816.351	14886.37
816.68	14866.71
817.008	14921.18
817.337	14767.06
817.665	14772.48
817.994	14853.83
818.322	14905.13
818.651	14671.46
818.979	14714.85
819.307	14799.82
819.636	14739.49
819.964	14577.46
820.292	14619.26
820.62	14673.72
820.948	14618.81
821.276	14650.67
821.604	14648.87
821.932	14611.81
822.259	14588.98
822.587	14578.81
822.915	14528.87
823.243	14635.31
823.57	14536.55
823.898	14586.27
824.225	14513.95
824.553	14591.69
824.88	14515.54
825.207	14612.48
825.535	14642.99
825.862	14638.92
826.189	14484.35
826.516	14561.41
826.843	14677.34
827.17	14622.88
827.497	14603.22
827.824	14690
828.151	14626.27
828.478	14667.85
828.805	14702.88
829.131	14577
829.458	14589.21
829.785	14549.21
830.111	14569.77
830.438	14703.55
830.764	14658.36
831.09	14615.65
831.417	14591.47
831.743	14592.6
832.069	14573.84
832.395	14441.64
832.722	14614.97
833.048	14513.05
833.374	14569.77
833.7	14462.66
834.026	14512.6
834.351	14536.33
834.677	14436.89
835.003	14482.77
835.329	14438.7
835.654	14425.37
835.98	14382.21
836.306	14486.84
836.631	14326.39
836.956	14433.05
837.282	14377.01
837.607	14359.38
837.932	14320.74
838.258	14242.55
838.583	14326.84
838.908	14202.32
839.233	14219.95
839.558	14144.92
839.883	14172.49
840.208	14162.55
840.533	14047.3
840.858	14079.16
841.182	14064.7
841.507	14082.33
841.832	14019.5
842.156	13993.74
842.481	13958.94
842.805	13896.34
843.13	13885.5
843.454	13876.91
843.778	13843.69
844.103	13844.37
844.427	13801.66
844.751	13750.13
845.075	13731.83
845.399	13724.6
845.723	13607.76
846.047	13659.29
846.371	13563.02
846.695	13483.7
847.019	13467.65
847.343	13487.99
847.666	13258.39
847.99	13232.86
848.313	13314.66
848.637	13164.61
848.96	13223.59
849.284	13110.6
849.607	13000.77
849.931	12917.84
850.254	12871.74
850.577	12860.44
850.9	12771.4
851.223	12742.25
851.546	12618.64
851.869	12617.51
852.192	12617.96
852.515	12567.57
852.838	12556.04
853.161	12464.52
853.483	12380
853.806	12279.21
854.129	12306.1
854.451	12241.47
854.774	12179.33
855.096	12176.61
855.419	12175.71
855.741	12135.94
856.063	12146.79
856.385	11990.86
856.708	11982.72
857.03	11962.84
857.352	11963.74
857.674	11923.06
857.996	11821.14
858.318	11828.15
858.64	11870.86
858.961	11867.92
859.283	11684.65
859.605	11629.06
859.926	11662.5
860.248	11682.62
860.57	11615.5
860.891	11650.08
861.212	11569.63
861.534	11587.25
861.855	11487.59
862.176	11467.93
862.498	11438.56
862.819	11430.65
863.14	11475.39
863.461	11415.73
863.782	11349.29
864.103	11427.03
864.424	11320.82
864.745	11385
865.065	11225.23
865.386	11243.08
865.707	11240.59
866.027	11219.35
866.348	11165.57
866.668	11171.67
866.989	11168.73
867.309	11078.34
867.63	11186.58
867.95	11117.21
868.27	11040.15
868.59	11057.55
868.91	11048.51
869.23	11121.05
869.55	11026.59
869.87	11064.55
870.19	10971.22
870.51	11025.01
870.83	11057.77
871.15	10879.25
871.469	10888.74
871.789	10962.41
872.109	10993.37
872.428	10862.53
872.748	10818.91
873.067	10807.39
873.386	10843.32
873.706	10820.27
874.025	10794.73
874.344	10743.21
874.663	10768.06
874.982	10726.03
875.301	10810.78
875.62	10714.96
875.939	10618.46
876.258	10659.59
876.577	10671.57
876.896	10701.85
877.214	10586.6
877.533	10603.32
877.852	10565.13
878.17	10622.76
878.489	10543.66
878.807	10621.63
879.125	10495.76
879.444	10493.27
879.762	10493.04
880.08	10499.82
880.398	10396.77
880.716	10454.4
881.034	10386.15
881.352	10441.97
881.67	10313.61
881.988	10395.64
882.306	10332.14
882.624	10233.62
882.941	10186.84
883.259	10213.73
883.577	10169.66
883.894	10186.61
884.212	10127.86
884.529	10160.62
884.846	10108.87
885.164	10108.19
885.481	10044.02
885.798	10059.83
886.115	10037.69
886.432	10019.38
886.75	9906.84
887.067	9966.73
887.383	9930.8
887.7	9982.32
888.017	9932.15
888.334	9894.87
888.651	9863.91
888.967	9781.42
889.284	9726.28
889.6	9791.82
889.917	9671.14
890.233	9648.55
890.55	9653.74
890.866	9599.96
891.182	9636.79
891.498	9595.67
891.815	9533.29
892.131	9478.83
892.447	9516.12
892.763	9458.04
893.079	9435.67
893.395	9359.51
893.71	9457.14
894.026	9413.52
894.342	9328.55
894.657	9229.57
894.973	9215.34
895.289	9261.44
895.604	9229.12
895.92	9134.89
896.235	9153.19
896.55	9170.59
896.865	9122.91
897.181	9089.92
897.496	9040.43
897.811	9026.87
898.126	8995.91
898.441	8925.63
898.756	8872.29
899.071	8842.01
899.386	8868.91
899.7	8768.79
900.015	8768.79
900.33	8704.62
900.644	8618.06
900.959	8672.3
901.273	8645.86
901.588	8588.91
901.902	8586.65
902.216	8536.94
902.531	8542.13
902.845	8444.96
903.159	8445.64
903.473	8395.02
903.787	8348.01
904.101	8330.61
904.415	8316.6
904.729	8274.8
905.042	8224.4
905.356	8217.62
905.67	8127.68
905.984	8194.35
906.297	8154.57
906.611	8095.14
906.924	8062.15
907.237	8068.7
907.551	8018.53
907.864	7984.18
908.177	7968.14
908.491	7937.63
908.804	7844.98
909.117	7804.07
909.43	7740.12
909.743	7733.34
910.056	7730.4
910.368	7645.21
910.681	7666.45
910.994	7659.22
911.307	7571.99
911.619	7541.93
911.932	7563.18
912.244	7526.57
912.557	7510.07
912.869	7443.18
913.181	7431.88
913.494	7383.29
913.806	7320.7
914.118	7379.23
914.43	7256.97
914.742	7346.91
915.054	7256.07
915.366	7201.6
915.678	7233.69
915.99	7175.39
916.302	7079.12
916.613	7082.29
916.925	7099.46
917.236	7097.65
917.548	6990.08
917.859	6938.33
918.171	7014.49
918.482	6912.57
918.794	6877.32
919.105	6918.45
919.416	6798.68
919.727	6816.3
920.038	6785.57
920.349	6838.45
920.66	6736.98
920.971	6736.31
921.282	6716.87
921.593	6644.78
921.903	6613.37
922.214	6604.33
922.525	6645.91
922.835	6555.07
923.146	6540.83
923.456	6472.13
923.767	6473.49
924.077	6442.75
924.387	6368.63
924.697	6386.03
925.008	6375.86
925.318	6281.63
925.628	6324.34
925.938	6332.25
926.248	6231.23
926.558	6239.37
926.867	6217.68
927.177	6252.02
927.487	6177.68
927.796	6085.25
928.106	6103.33
928.416	6123.21
928.725	6059.04
929.034	6052.26
929.344	5984.24
929.653	5965.93
929.962	5949.89
930.271	5950.34
930.581	5918.25
930.89	5881.41
931.199	5852.94
931.508	5844.13
931.817	5883.22
932.125	5803.9
932.434	5825.6
932.743	5748.76
933.051	5695.43
933.36	5676.67
933.669	5630.8
933.977	5659.5
934.286	5650.23
934.594	5600.29
934.902	5577.24
935.21	5535.89
935.519	5524.81
935.827	5488.2
936.135	5483.01
936.443	5405.04
936.751	5449.11
937.059	5412.27
937.367	5337.02
937.674	5403.46
937.982	5387.19
938.29	5331.37
938.597	5319.17
938.905	5234.42
939.213	5260.86
939.52	5217.7
939.827	5222.45
940.135	5169.34
940.442	5132.96
940.749	5144.03
941.056	5182.45
941.363	5092.06
941.67	5075.56
941.977	5060.19
942.284	5047.54
942.591	4993.75
942.898	4974.77
943.205	4986.97
943.511	4937.94
943.818	4950.59
944.125	4877.37
944.431	4880.31
944.738	4874.21
945.044	4848.9
945.35	4791.95
945.657	4794.89
945.963	4784.94
946.269	4814.1
946.575	4764.38
946.881	4726.87
947.187	4710.14
947.493	4665.4
947.799	4690.03
948.105	4615.68
948.41	4621.56
948.716	4603.03
949.022	4578.17
949.327	4516.48
949.633	4539.98
949.938	4535.01
950.244	4517.61
950.549	4499.98
950.854	4434.45
951.16	4448
951.465	4433.77
951.77	4433.77
952.075	4408.68
952.38	4364.84
952.685	4355.8
952.99	4343.83
953.294	4351.74
953.599	4323.26
953.904	4262.47
954.209	4241.68
954.513	4200.33
954.818	4243.49
955.122	4224.96
955.426	4170.5
955.731	4189.25
956.035	4146.54
956.339	4169.14
956.643	4085.53
956.948	4092.31
957.252	4043.5
957.556	4114
957.86	4061.8
958.163	4039.88
958.467	4043.04
958.771	4016.6
959.075	3984.29
959.378	3921.92
959.682	4005.53
959.985	3932.54
960.289	3902.26
960.592	3862.03
960.896	3860.45
961.199	3909.94
961.502	3860.68
961.805	3857.06
962.108	3806.89
962.411	3811.86
962.714	3754.24
963.017	3776.16
963.32	3789.04
963.623	3748.14
963.926	3737.74
964.228	3697.97
964.531	3656.61
964.833	3690.74
965.136	3656.84
965.438	3629.27
965.741	3611.64
966.043	3585.88
966.345	3576.16
966.648	3589.27
966.95	3581.13
967.252	3549.05
967.554	3534.58
967.856	3507.24
968.158	3512.21
968.46	3487.58
968.761	3455.71
969.063	3463.4
969.365	3450.52
969.666	3429.95
969.968	3421.59
970.269	3387.24
970.571	3356.73
970.872	3399.44
971.174	3331.2
971.475	3375.26
971.776	3355.38
972.077	3289.16
972.378	3311.99
972.679	3276.28
972.98	3292.33
973.281	3292.33
973.582	3254.82
973.883	3208.04
974.183	3220.24
974.484	3194.7
974.785	3175.27
975.085	3164.65
975.386	3178.21
975.686	3127.59
975.986	3118.1
976.287	3150.64
976.587	3107.93
976.887	3045.78
977.187	3060.7
977.487	3071.54
977.787	3036.74
978.087	3013.69
978.387	3013.01
978.687	3038.55
978.987	2988.38
979.286	2980.7
979.586	3001.49
979.885	2956.97
980.185	2938.44
980.484	2896.86
980.784	2967.37
981.083	2871.32
981.382	2900.93
981.682	2883.98
981.981	2857.09
982.28	2845.33
982.579	2815.73
982.878	2844.2
983.177	2829.97
983.475	2789.97
983.774	2778.22
984.073	2757.65
984.372	2707.26
984.67	2741.16
984.969	2752.23
985.267	2738.44
985.566	2715.85
985.864	2715.17
986.162	2719.91
986.461	2679.01
986.759	2664.55
987.057	2647.37
987.355	2591.56
987.653	2645.11
987.951	2604.21
988.249	2612.57
988.547	2598.11
988.844	2545.91
989.142	2575.74
989.44	2555.62
989.737	2568.96
990.035	2546.36
990.332	2513.82
990.63	2540.03
990.927	2469.53
991.224	2477.21
991.521	2480.37
991.819	2471.33
992.116	2440.6
992.413	2457.32
992.71	2449.19
993.006	2430.88
993.303	2418.91
993.6	2429.07
993.897	2417.78
994.193	2351.56
994.49	2357.66
994.787	2330.55
995.083	2351.11
995.379	2328.96
995.676	2324.67
995.972	2287.84
996.268	2298.68
996.565	2285.12
996.861	2243.77
997.157	2229.08
997.453	2252.13
997.749	2221.85
998.044	2234.5
998.34	2207.84
998.636	2196.99
998.932	2178.91
999.227	2187.95
999.523	2171.91
999.818	2144.56
1000.114	2142.53
1000.409	2122.87
1000.704	2114.28
1001	2136.88
1001.295	2130.55
1001.59	2092.59
1001.885	2090.1
1002.18	2088.52
1002.475	2069.54
1002.77	2033.83
1003.065	2034.96
1003.359	2021.4
1003.654	2015.3
1003.949	2011.23
1004.243	1991.12
1004.538	1993.15
1004.832	1969.2
1005.127	1966.94
1005.421	1951.12
1005.715	1947.51
1006.009	1930.1
1006.304	1908.64
1006.598	1920.16
1006.892	1882.2
1007.186	1874.29
1007.48	1906.15
1007.773	1873.83
1008.067	1851.24
1008.361	1822.99
1008.655	1864.8
1008.948	1807.85
1009.242	1807.62
1009.535	1785.48
1009.829	1786.83
1010.122	1765.36
1010.415	1764.69
1010.708	1766.72
1011.001	1738.25
1011.295	1741.86
1011.588	1718.13
1011.881	1722.88
1012.173	1718.81
1012.466	1725.36
1012.759	1696.21
1013.052	1681.07
1013.344	1678.13
1013.637	1698.02
1013.93	1648.76
1014.222	1645.37
1014.514	1624.8
1014.807	1638.81
1015.099	1627.97
1015.391	1633.39
1015.683	1618.47
1015.976	1594.75
1016.268	1583
1016.56	1577.57
1016.851	1551.13
1017.143	1551.81
1017.435	1550.23
1017.727	1528.76
1018.018	1531.47
1018.31	1506.39
1018.602	1509.55
1018.893	1488.76
1019.185	1466.16
1019.476	1489.89
1019.767	1483.11
1020.058	1481.53
1020.35	1421.19
1020.641	1436.56
1020.932	1436.78
1021.223	1434.98
1021.514	1413.06
1021.804	1389.33
1022.095	1372.61
1022.386	1404.92
1022.677	1367.41
1022.967	1358.82
1023.258	1365.6
1023.548	1323.79
1023.839	1333.96
1024.129	1333.06
1024.419	1329.22
1024.709	1307.52
1025	1319.5
1025.29	1313.62
1025.58	1271.36
1025.87	1272.95
1026.16	1262.55
1026.449	1278.14
1026.739	1238.82
1027.029	1231.59
1027.319	1213.51
1027.608	1218.26
1027.898	1226.62
1028.187	1237.47
1028.477	1214.42
1028.766	1187.75
1029.055	1184.81
1029.344	1163.57
1029.634	1191.82
1029.923	1154.53
1030.212	1148.43
1030.501	1169.67
1030.79	1159.73
1031.078	1154.08
1031.367	1146.62
1031.656	1116.57
1031.945	1153.4
1032.233	1116.34
1032.522	1138.04
1032.81	1105.04
1033.099	1104.36
1033.387	1087.64
1033.675	1060.75
1033.963	1054.2
1034.251	1058.49
1034.54	1049
1034.828	1043.8
1035.116	1026.4
1035.403	1042.9
1035.691	1019.85
1035.979	1001.09
1036.267	1027.3
1036.554	1011.71
1036.842	1001.99
1037.129	980.53
1037.417	973.29
1037.704	998.38
1037.992	970.13
1038.279	954.31
1038.566	942.79
1038.853	942.79
1039.14	942.79
