Data from hue_300_FLMS001491_00065.txt Node
Date: Tue Feb 07 15:51:03 GMT 2017
User: dcchb
Spectrometer: FLMS00149
Trigger mode: 0
Integration Time (sec): 2.000000E-2
Scans to average: 10
Electric dark correction enabled: true
Nonlinearity correction enabled: false
Boxcar width: 0
XAxis mode: Wavelengths
Number of Pixels in Spectrum: 2048
>>>>>Begin Spectral Data<<<<<
341.393	-20.96
341.776	-20.96
342.16	-20.96
342.543	-52.37
342.927	-65.25
343.31	-69.32
343.693	-68.42
344.077	-71.58
344.46	-50.56
344.843	-45.82
345.226	-38.13
345.61	-23.67
345.993	-34.29
346.376	-2.43
346.759	3.45
347.142	26.95
347.525	43.22
347.908	63.56
348.291	71.02
348.674	93.84
349.057	102.2
349.44	119.6
349.823	163.89
350.206	162.99
350.588	197.57
350.971	205.25
351.354	210.22
351.737	229.2
352.119	225.14
352.502	259.71
352.884	241.86
353.267	271.46
353.65	275.08
354.032	285.25
354.414	290.22
354.797	299.94
355.179	309.43
355.562	306.49
355.944	346.04
356.326	328.41
356.709	334.96
357.091	330.22
357.473	339.03
357.855	315.98
358.238	337.9
358.62	350.78
359.002	342.65
359.384	332.7
359.766	323.66
360.148	330.22
360.53	333.83
360.912	337.22
361.294	316.21
361.676	318.69
362.057	329.77
362.439	320.27
362.821	315.98
363.203	342.42
363.584	320.95
363.966	310.78
364.348	324.79
364.729	319.82
365.111	316.66
365.493	304
365.874	330.44
366.256	285.02
366.637	300.39
367.019	308.52
367.4	301.74
367.781	305.59
368.163	307.17
368.544	292.48
368.925	304.68
369.306	311.69
369.688	323.89
370.069	297.45
370.45	311.91
370.831	309.43
371.212	326.15
371.593	320.27
371.974	306.04
372.355	300.61
372.736	322.99
373.117	329.54
373.498	322.53
373.879	348.75
374.26	318.24
374.641	336.09
375.021	308.07
375.402	322.31
375.783	319.82
376.163	332.7
376.544	350.56
376.925	306.94
377.305	347.39
377.686	318.01
378.066	328.18
378.447	308.07
378.827	327.28
379.208	316.66
379.588	362.98
379.968	334.06
380.349	340.84
380.729	339.48
381.109	311.69
381.489	346.49
381.87	337.67
382.25	346.04
382.63	334.74
383.01	358.24
383.39	325.7
383.77	336.54
384.15	337.9
384.53	367.5
384.91	343.55
385.29	365.7
385.67	335.87
386.049	355.08
386.429	355.53
386.809	357.34
387.189	350.33
387.568	365.7
387.948	374.28
388.328	357.79
388.707	362.53
389.087	342.42
389.466	376.09
389.846	365.24
390.225	370.44
390.605	370.89
390.984	384
391.363	361.18
391.743	370.44
392.122	373.61
392.501	380.84
392.881	386.94
393.26	403.66
393.639	373.83
394.018	374.96
394.397	397.33
394.776	410.89
395.155	392.36
395.534	380.16
395.913	391.91
396.292	403.21
396.671	404.57
397.05	388.07
397.429	389.2
397.808	400.95
398.186	419.25
398.565	418.8
398.944	404.11
399.323	419.03
399.701	417.22
400.08	421.06
400.458	419.71
400.837	413.15
401.215	400.95
401.594	428.52
401.972	442.53
402.351	426.71
402.729	433.72
403.107	433.27
403.486	453.83
403.864	442.3
404.242	438.69
404.62	463.55
404.999	434.17
405.377	462.87
405.755	478.46
406.133	476.2
406.511	464.9
406.889	476.88
407.267	487.5
407.645	472.81
408.023	483.21
408.401	500.83
408.779	509.42
409.156	519.59
409.534	499.48
409.912	537.44
410.29	532.7
410.667	518.23
411.045	536.54
411.422	540.61
411.8	566.14
412.178	562.98
412.555	580.61
412.933	577.22
413.31	562.98
413.687	588.97
414.065	612.24
414.442	635.75
414.819	617.44
415.197	617.44
415.574	637.1
415.951	660.38
416.328	654.28
416.705	639.59
417.082	657.44
417.46	678
417.837	687.27
418.214	677.78
418.591	698.57
418.967	721.85
419.344	708.51
419.721	728.62
420.098	731.11
420.475	730.88
420.852	762.52
421.228	772.47
421.605	768.62
421.982	761.62
422.358	784.22
422.735	818.79
423.111	813.37
423.488	806.36
423.864	801.17
424.241	814.72
424.617	846.59
424.994	842.52
425.37	854.72
425.746	857.44
426.123	873.25
426.499	884.78
426.875	896.76
427.251	896.3
427.627	918.22
428.003	903.54
428.379	913.48
428.756	954.16
429.132	958
429.507	968.62
429.883	963.65
430.259	991.44
430.635	1002.29
431.011	986.92
431.387	1036.41
431.763	1048.39
432.138	1055.62
432.514	1058.79
432.89	1028.96
433.265	1080.71
433.641	1115.51
434.016	1094.04
434.392	1151.44
434.767	1130.42
435.143	1127.48
435.518	1147.37
435.894	1185.34
436.269	1207.03
436.644	1193.92
437.02	1206.8
437.395	1228.05
437.77	1228.27
438.145	1249.06
438.52	1275.28
438.895	1296.75
439.271	1277.31
439.646	1264.66
440.021	1302.85
440.395	1310.08
440.77	1299.46
441.145	1302.4
441.52	1316.18
441.895	1319.8
442.27	1367.03
442.645	1326.12
443.019	1351.66
443.394	1338.55
443.769	1372
444.143	1387.59
444.518	1358.89
444.892	1385.1
445.267	1397.99
445.641	1407.03
446.016	1400.47
446.39	1422.39
446.764	1402.51
447.139	1394.37
447.513	1426.91
447.887	1419.68
448.262	1421.94
448.636	1402.05
449.01	1459.68
449.384	1463.29
449.758	1463.97
450.132	1462.39
450.506	1492.67
450.88	1490.41
451.254	1479.79
451.628	1490.86
452.002	1497.87
452.376	1506.01
452.75	1535.16
453.123	1568.15
453.497	1560.47
453.871	1564.31
454.244	1569.96
454.618	1577.64
454.992	1628.26
455.365	1612.67
455.739	1606.57
456.112	1636.85
456.486	1646.79
456.859	1637.3
457.232	1669.17
457.606	1661.93
457.979	1678.43
458.352	1703.74
458.725	1739.9
459.099	1732.89
459.472	1776.73
459.845	1776.51
460.218	1766.79
460.591	1754.36
460.964	1795.94
461.337	1811.99
461.71	1845.43
462.083	1851.76
462.456	1857.86
462.829	1856.05
463.201	1876.17
463.574	1855.37
463.947	1881.36
464.32	1936.95
464.692	1935.37
465.065	1936.05
465.438	1964.75
465.81	1997.29
466.183	1996.16
466.555	2067.35
466.928	2035.26
467.3	2019.89
467.672	2046.1
468.045	2074.35
468.417	2101.92
468.789	2101.7
469.161	2114.58
469.534	2154.35
469.906	2185.76
470.278	2206.1
470.65	2221.47
471.022	2248.13
471.394	2230.73
471.766	2291.07
472.138	2274.57
472.51	2315.48
472.882	2359.54
473.253	2389.37
473.625	2399.09
473.997	2453.55
474.369	2442.7
474.74	2474.79
475.112	2498.3
475.484	2512.98
475.855	2552.08
476.227	2553.66
476.598	2605.19
476.97	2623.94
477.341	2621.23
477.713	2700.32
478.084	2735.58
478.455	2738.52
478.827	2776.03
479.198	2834.11
479.569	2824.39
479.94	2902.81
480.311	2883.6
480.682	2955.91
481.053	2992.52
481.424	3024.84
481.795	3031.62
482.166	3089.47
482.537	3104.83
482.908	3147.09
483.279	3153.19
483.65	3173.76
484.021	3218.28
484.391	3296.24
484.762	3305.05
485.133	3286.52
485.503	3298.05
485.874	3397.48
486.244	3395.9
486.615	3432.73
486.985	3490.59
487.356	3515.67
487.726	3524.71
488.097	3600.87
488.467	3595.44
488.837	3640.41
489.207	3689
489.578	3713.41
489.948	3753.63
490.318	3801.99
490.688	3744.82
491.058	3838.15
491.428	3940.07
491.798	3911.37
492.168	3934.87
492.538	3943
492.908	4030.23
493.278	4048.99
493.648	4020.52
494.017	4068.2
494.387	4136.67
494.757	4173.73
495.126	4163.34
495.496	4203.11
495.866	4216.44
496.235	4278.59
496.605	4303.22
496.974	4310.68
497.344	4298.47
497.713	4312.49
498.082	4355.2
498.452	4388.42
498.821	4376.44
499.19	4346.83
499.559	4461.41
499.928	4481.75
500.298	4433.16
500.667	4475.87
501.036	4523.55
501.405	4537.79
501.774	4531.91
502.143	4545.25
502.512	4561.07
502.88	4581.86
503.249	4564.46
503.618	4647.84
503.987	4645.81
504.356	4674.06
504.724	4678.35
505.093	4708.63
505.462	4708.86
505.83	4670.67
506.199	4768.74
506.567	4786.15
506.936	4787.28
507.304	4782.3
507.672	4851.91
508.041	4868.86
508.409	4805.58
508.777	4918.12
509.145	4921.06
509.514	4945.92
509.882	4957.44
510.25	4936.65
510.618	4977.55
510.986	4997.89
511.354	5037.21
511.722	5046.93
512.09	5041.73
512.458	5095.52
512.826	5095.97
513.193	5100.71
513.561	5131.45
513.929	5126.93
514.297	5219.13
514.664	5198.34
515.032	5183.42
515.4	5199.24
515.767	5217.55
516.135	5258.22
516.502	5287.6
516.869	5348.62
517.237	5309.3
517.604	5301.16
517.972	5338.45
518.339	5359.46
518.706	5336.64
519.073	5387.49
519.44	5418.67
519.808	5403.76
520.175	5370.54
520.542	5490.31
520.909	5441.27
521.276	5495.05
521.643	5505.9
522.009	5533.47
522.376	5582.06
522.743	5656.18
523.11	5615.05
523.477	5651.21
523.843	5647.37
524.21	5726.01
524.577	5754.48
524.943	5707.7
525.31	5794.03
525.676	5834.71
526.043	5877.42
526.409	5835.16
526.776	5933.46
527.142	5967.81
527.508	6006
527.874	5987.24
528.241	6034.7
528.607	5979.56
528.973	6081.03
529.339	6129.16
529.705	6156.73
530.071	6169.61
530.437	6200.57
530.803	6243.06
531.169	6236.73
531.535	6244.19
531.901	6245.32
532.267	6378.19
532.632	6373.67
532.998	6368.25
533.364	6390.85
533.73	6392.2
534.095	6540.9
534.461	6503.61
534.826	6527.79
535.192	6556.95
535.557	6596.72
535.923	6586.32
536.288	6577.74
536.653	6641.69
537.019	6644.4
537.384	6644.18
537.749	6669.49
538.114	6718.3
538.479	6734.12
538.845	6749.03
539.21	6748.81
539.575	6806.21
539.94	6810.95
540.305	6862.93
540.67	6870.38
541.034	6907.67
541.399	6914.9
541.764	6965.07
542.129	6987.22
542.494	7073.77
542.858	7072.19
543.223	7062.92
543.587	7102.92
543.952	7121.23
544.316	7191.51
544.681	7087.33
545.045	7165.97
545.41	7220.88
545.774	7238.74
546.138	7269.02
546.503	7323.48
546.867	7355.12
547.231	7440.76
547.595	7415.45
547.959	7461.33
548.324	7440.31
548.688	7460.88
549.052	7557.15
549.416	7454.55
549.779	7546.52
550.143	7546.75
550.507	7525.28
550.871	7586.07
551.235	7593.98
551.599	7637.37
551.962	7658.61
552.326	7695.22
552.689	7735.45
553.053	7703.58
553.417	7723.92
553.78	7766.41
554.143	7830.59
554.507	7833.3
554.87	7859.28
555.234	7989.22
555.597	7902.22
555.96	7930.02
556.323	8011.37
556.686	7972.73
557.05	7992.84
557.413	8031.03
557.776	8073.06
558.139	8113.06
558.502	8033.29
558.865	8141.31
559.228	8164.36
559.59	8167.3
559.953	8233.96
560.316	8239.61
560.679	8235.09
561.041	8298.6
561.404	8347.41
561.767	8358.25
562.129	8304.7
562.492	8434.41
562.854	8402.55
563.217	8368.88
563.579	8416.56
563.941	8482.09
564.304	8560.06
564.666	8582.66
565.028	8541.53
565.39	8628.08
565.753	8643.22
566.115	8632.82
566.477	8658.59
566.839	8657.68
567.201	8740.17
567.563	8732.48
567.925	8797.79
568.287	8793.5
568.648	8827.62
569.01	8894.51
569.372	9014.51
569.734	8989.65
570.095	8997.33
570.457	9047.5
570.819	9082.98
571.18	9200.94
571.542	9170.44
571.903	9191.91
572.265	9256.54
572.626	9308.74
572.987	9329.53
573.349	9370.66
573.71	9385.35
574.071	9481.16
574.432	9555.96
574.794	9609.97
575.155	9673.47
575.516	9679.35
575.877	9775.39
576.238	9880.7
576.599	9889.06
576.96	9957.99
577.32	9992.34
577.681	10143.97
578.042	10243.4
578.403	10340.8
578.763	10436.39
579.124	10546.67
579.485	10682.94
579.845	10762.03
580.206	10860.56
580.566	10996.15
580.927	11103.04
581.287	11282.92
581.648	11325.86
582.008	11571.73
582.368	11644.27
582.728	11770.82
583.089	12007.88
583.449	12110.7
583.809	12267.08
584.169	12426.85
584.529	12645.37
584.889	12934.63
585.249	13004.23
585.609	13163.33
585.969	13496.65
586.329	13722.41
586.688	13868.39
587.048	14102.96
587.408	14299.57
587.768	14603.51
588.127	14839.44
588.487	15021.36
588.846	15370.05
589.206	15546.77
589.565	15778.62
589.925	16060.43
590.284	16313.75
590.643	16690.24
591.003	16899.27
591.362	17244.12
591.721	17393.72
592.08	17748.97
592.44	18002.07
592.799	18366.81
593.158	18534.71
593.517	18883.85
593.876	19198.65
594.235	19418.08
594.593	19785.98
594.952	20110.71
595.311	20357.71
595.67	20635.9
596.029	21035.89
596.387	21328.54
596.746	21657.11
597.104	21795.87
597.463	22231.34
597.822	22592.46
598.18	22768.05
598.538	23004.42
598.897	23465.43
599.255	23595.82
599.613	24068.58
599.972	24278.97
600.33	24563.25
600.688	24810.48
601.046	25057.02
601.404	25439.16
601.762	25718.25
602.12	26158.01
602.478	26339.93
602.836	26518
603.194	26786.47
603.552	26986.47
603.91	27175.61
604.268	27576.05
604.625	27649.5
604.983	28005.2
605.341	28077.96
605.698	28508.69
606.056	28841.11
606.413	28965.17
606.771	29274.77
607.128	29527.42
607.485	29621.88
607.843	29879.72
608.2	30185.93
608.557	30488.75
608.914	30524.45
609.272	30979.35
609.629	31067.71
609.986	31472.45
610.343	31401.04
610.7	31895.72
611.057	32005.99
611.414	32148.82
611.771	32425.19
612.127	32694.11
612.484	32864.96
612.841	33169.35
613.198	33052.75
613.554	33198.96
613.911	33669.23
614.267	33716.01
614.624	33880.52
614.98	34089.1
615.337	34315.31
615.693	34363.45
616.05	34532.71
616.406	34787.16
616.762	34731.35
617.118	34937.44
617.475	35046.59
617.831	35362.29
618.187	35389.63
618.543	35519.8
618.899	35853.58
619.255	35846.8
619.611	35895.16
619.967	36078.66
620.323	36313.23
620.678	36427.57
621.034	36411.75
621.39	36518.19
621.746	36670.5
622.101	37060.32
622.457	36812.87
622.812	36974.23
623.168	37267.55
623.523	37215.35
623.879	37364.05
624.234	37202.47
624.589	37559.97
624.945	37582.8
625.3	37726.3
625.655	37635
626.01	37704.38
626.365	37813.53
626.72	37851.94
627.075	37769.91
627.43	37998.15
627.785	37965.84
628.14	38093.74
628.495	38086.06
628.85	38226.17
629.205	38107.98
629.559	38261.2
629.914	38195.44
630.269	38317.47
630.623	38332.38
630.978	38208.77
631.332	38557.69
631.687	38526.05
632.041	38450.8
632.396	38611.02
632.75	38397.01
633.104	38510.46
633.459	38452.15
633.813	38401.08
634.167	38435.88
634.521	38492.38
634.875	38517.69
635.229	38401.31
635.583	38373.06
635.937	38531.92
636.291	38484.02
636.645	38405.6
636.999	38497.58
637.352	38699.6
637.706	38421.87
638.06	38536.44
638.413	38459.16
638.767	38344.81
639.121	38563.11
639.474	38317.24
639.828	38403.11
640.181	38408.76
640.534	38397.24
640.888	38344.58
641.241	38112.95
641.594	38427.29
641.947	38439.5
642.301	38265.04
642.654	38413.74
643.007	38345.26
643.36	38418.26
643.713	38264.81
644.066	38541.19
644.419	38195.89
644.771	37997.48
645.124	37740.31
645.477	37664.38
645.83	37643.59
646.182	37320.88
646.535	37247.89
646.888	37420.77
647.24	37138.29
647.593	37423.03
647.945	37224.84
648.298	37094
648.65	37174.67
649.002	37045.86
649.355	37103.71
649.707	36962.93
650.059	37339.19
650.411	37636.81
650.763	37825.05
651.115	38055.78
651.467	37952.05
651.819	37947.53
652.171	37917.48
652.523	37919.51
652.875	37911.6
653.227	37837.48
653.578	38048.55
653.93	37979.85
654.282	37929
654.633	37669.35
654.985	37844.26
655.337	37831.38
655.688	37860.3
656.039	37940.53
656.391	37632.97
656.742	37672.06
657.094	37786.63
657.445	37973.3
657.796	37779.63
658.147	37843.13
658.498	37823.69
658.849	37830.47
659.2	37789.35
659.551	37650.37
659.902	37824.82
660.253	37839.74
660.604	37806.52
660.955	37459.18
661.306	37778.05
661.656	37714.55
662.007	37831.83
662.358	37689.23
662.708	37711.83
663.059	37606.53
663.409	37406.08
663.76	37742.11
664.11	37628.67
664.461	37760.87
664.811	37694.43
665.161	37552.29
665.511	37603.81
665.862	37590.71
666.212	37834.77
666.562	37731.04
666.912	37574.89
667.262	37627.54
667.612	37694.88
667.962	37710.7
668.312	37616.69
668.662	37738.95
669.011	37537.6
669.361	37681.78
669.711	37640.2
670.06	37667.77
670.41	37448.79
670.76	37414.21
671.109	37581.89
671.459	37428.45
671.808	37470.94
672.157	37541.44
672.507	37242.02
672.856	37389.58
673.205	37471.61
673.554	37552.97
673.904	37259.42
674.253	37456.7
674.602	37489.92
674.951	36806.32
675.3	36756.38
675.649	37199.08
675.998	37267.55
676.346	37210.83
676.695	37430.26
677.044	37062.36
677.393	37103.26
677.741	37187.1
678.09	37246.99
678.438	37072.3
678.787	37139.19
679.135	37210.15
679.484	37021
679.832	37077.95
680.181	36889.93
680.529	36960.67
680.877	36929.71
681.225	36881.12
681.573	37039.76
681.922	36771.29
682.27	36548.7
682.618	36620.56
682.966	36458.31
683.314	36683.39
683.661	36408.59
684.009	36476.84
684.357	36279.78
684.705	36204.53
685.053	36203.62
685.4	36165.66
685.748	36065.55
686.095	36016.74
686.443	35960.92
686.79	35796.18
687.138	35904.65
687.485	35965.21
687.832	35729.74
688.18	35898.77
688.527	35564.55
688.874	35450.88
689.221	35513.02
689.568	35374.95
689.915	35298.11
690.262	35256.53
690.609	35117.33
690.956	35042.98
691.303	34981.51
691.65	34884.34
691.997	34859.03
692.344	34767.05
692.69	34736.32
693.037	34789.65
693.383	34468.3
693.73	34661.29
694.077	34472.14
694.423	34392.6
694.769	34280.06
695.116	34223.34
695.462	34161.19
695.808	33950.12
696.155	34168.2
696.501	33859.28
696.847	33799.39
697.193	33546.29
697.539	33607.08
697.885	33422.45
698.231	33382.91
698.577	33418.84
698.923	33297.71
699.269	33160.77
699.614	33070.15
699.96	32973.2
700.306	33001.22
700.651	32685.75
700.997	32701.8
701.342	32785.41
701.688	32612.08
702.033	32567.34
702.379	32557.84
702.724	32415.93
703.069	32570.73
703.415	32107.46
703.76	32193.33
704.105	32063.62
704.45	32041.25
704.795	31898.2
705.14	31804.19
705.485	31913.57
705.83	31544.54
706.175	31706.34
706.52	31441.26
706.865	31495.73
707.209	31445.56
707.554	31242.4
707.899	31417.31
708.243	31220.93
708.588	31088.96
708.932	30952.01
709.277	30917.44
709.621	30900.49
709.966	30729.64
710.31	30848.28
710.654	30499.59
710.998	30537.56
711.342	30702.07
711.687	30541.4
712.031	30412.36
712.375	30425.7
712.719	30385.02
713.063	30345.93
713.407	30339.15
713.75	30083.33
714.094	30205.14
714.438	30000.85
714.782	30044.24
715.125	29882.89
715.469	29953.62
715.812	29858.48
716.156	29712.72
716.499	29612.39
716.843	29591.59
717.186	29535.78
717.53	29674.98
717.873	29568.32
718.216	29513.18
718.559	29270.47
718.902	29222.34
719.246	29305.5
719.589	29168.78
719.932	29066.86
720.275	29214.43
720.617	29029.12
720.96	28913.19
721.303	29025.73
721.646	29051.04
721.989	28889.24
722.331	28957.49
722.674	28849.69
723.016	28833.2
723.359	28758.4
723.701	28734.67
724.044	28659.42
724.386	28439.08
724.729	28588.68
725.071	28481.57
725.413	28464.84
725.755	28311.85
726.097	28293.32
726.439	28219.43
726.782	28237.51
727.124	28247.22
727.465	28228.69
727.807	28239.31
728.149	28057.4
728.491	28066.44
728.833	28190.05
729.175	27903.5
729.516	27996.38
729.858	27859.44
730.199	27940.56
730.541	27855.37
730.882	27909.83
731.224	27859.21
731.565	27699.22
731.906	27824.86
732.248	27752.77
732.589	27610.18
732.93	27486.57
733.271	27546.9
733.612	27510.75
733.953	27559.78
734.294	27494.02
734.635	27450.41
734.976	27359.79
735.317	27247.48
735.658	27283.63
735.999	27343.29
736.339	27228.95
736.68	27436.62
737.021	27186.46
737.361	27018.1
737.702	27122.73
738.042	27100.13
738.383	27016.3
738.723	27114.6
739.063	26989.18
739.404	26896.3
739.744	26975.17
740.084	26782.86
740.424	26980.59
740.764	26833.7
741.104	26894.49
741.444	26645.46
741.784	26574.5
742.124	26623.09
742.464	26591.9
742.804	26590.09
743.143	26452.92
743.483	26599.13
743.823	26532.47
744.162	26373.15
744.502	26429.42
744.841	26378.12
745.181	26445.91
745.52	26292.47
745.86	26293.83
746.199	26281.63
746.538	26282.3
746.877	26303.09
747.216	26301.29
747.556	26250.67
747.895	26241.63
748.234	26148.75
748.573	26090.9
748.911	26081.18
749.25	26202.31
749.589	25991.24
749.928	26068.52
750.267	26002.99
750.605	25930.22
750.944	25905.14
751.283	25782.88
751.621	25988.53
751.96	25843.9
752.298	25762.99
752.636	25809.77
752.975	25647.97
753.313	25614.75
753.651	25757.57
753.989	25635.09
754.327	25522.1
754.666	25505.37
755.004	25582.43
755.342	25543.11
755.679	25497.69
756.017	25414.08
756.355	25514.19
756.693	25331.82
757.031	25368.88
757.368	25205.04
757.706	25210.02
758.044	25202.78
758.381	25202.11
758.719	25029.68
759.056	25161.65
759.394	25045.73
759.731	24845.28
760.068	24881.66
760.405	24766.86
760.743	24753.98
761.08	24826.97
761.417	24745.17
761.754	24638.73
762.091	24651.39
762.428	24501.11
762.765	24441
763.102	24508.11
763.438	24321.68
763.775	24198.97
764.112	24242.36
764.449	24294.33
764.785	24134.34
765.122	23933.44
765.458	23909.94
765.795	23852.99
766.131	23881.69
766.467	23738.42
766.804	23663.39
767.14	23580.23
767.476	23643.28
767.812	23405.32
768.148	23526.9
768.485	23347.47
768.821	23285.55
769.157	23243.51
769.492	23114.93
769.828	23145.44
770.164	22945.89
770.5	22863.41
770.836	22883.3
771.171	22848.27
771.507	22687.14
771.842	22610.54
772.178	22617.09
772.513	22554.49
772.849	22494.83
773.184	22272.01
773.519	22269.75
773.855	22128.74
774.19	22160.83
774.525	22084.67
774.86	21964.68
775.195	21953.6
775.53	21896.2
775.865	21694.85
776.2	21687.85
776.535	21498.02
776.87	21535.76
777.205	21412.6
777.539	21276.79
777.874	21349.55
778.209	21185.26
778.543	21183.45
778.878	21061.42
779.212	20967.64
779.547	20931.03
779.881	20944.14
780.215	20814.65
780.55	20856.46
780.884	20563.36
781.218	20612.62
781.552	20590.93
781.886	20498.05
782.22	20355.91
782.554	20292.86
782.888	20158.85
783.222	20035.91
783.556	20006.08
783.889	19997.04
784.223	19745.75
784.557	19854.68
784.89	19884.73
785.224	19709.59
785.557	19653.1
785.891	19501.92
786.224	19372.65
786.558	19422.37
786.891	19278.19
787.224	19266.89
787.557	19174.24
787.891	19146.9
788.224	19103.73
788.557	19129.72
788.89	19016.51
789.223	18940.58
789.556	18816.96
789.888	18781.94
790.221	18771.99
790.554	18558.44
790.887	18605.22
791.219	18484.32
791.552	18474.37
791.884	18408.39
792.217	18293.36
792.549	18261.95
792.882	18089.75
793.214	18117.32
793.546	18191.67
793.879	17968.4
794.211	17838.46
794.543	17961.39
794.875	17863.32
795.207	17941.73
795.539	17673.94
795.871	17725.24
796.203	17573.38
796.535	17412.71
796.867	17498.13
797.198	17330.9
797.53	17412.25
797.862	17217.91
798.193	17210.68
798.525	17176.55
798.856	17158.25
799.188	17014.3
799.519	16955.09
799.85	16892.95
800.182	16894.75
800.513	16871.48
800.844	16790.12
801.175	16751.71
801.506	16684.14
801.837	16570.92
802.168	16630.13
802.499	16575.89
802.83	16495.22
803.161	16494.99
803.491	16449.57
803.822	16398.04
804.153	16243.25
804.483	16181.78
804.814	16172.06
805.145	16259.74
805.475	16122.8
805.805	16204.38
806.136	16102.01
806.466	16041.22
806.796	16041.89
807.126	15842.13
807.457	15779.08
807.787	15816.36
808.117	15797.61
808.447	15662.47
808.777	15733.88
809.107	15671.28
809.436	15617.5
809.766	15623.6
810.096	15502.93
810.426	15470.61
810.755	15573.88
811.085	15361.69
811.414	15363.49
811.744	15360.1
812.073	15196.27
812.403	15271.97
812.732	15193.78
813.061	15211.41
813.39	15044.41
813.719	15079.43
814.049	15042.82
814.378	15052.09
814.707	15003.73
815.036	14911.53
815.365	14830.85
815.693	14728.93
816.022	14739.1
816.351	14674.47
816.68	14690.29
817.008	14676.96
817.337	14590.41
817.665	14492.1
817.994	14537.3
818.322	14580.46
818.651	14463.18
818.979	14444.65
819.307	14485.78
819.636	14323.3
819.964	14329.85
820.292	14387.93
820.62	14355.84
820.948	14255.27
821.276	14312.67
821.604	14288.72
821.932	14218.44
822.259	14291.21
822.587	14252.34
822.915	14253.02
823.243	14324.65
823.57	14253.47
823.898	14234.26
824.225	14209.4
824.553	14210.98
824.88	14185.9
825.207	14256.18
825.535	14141.83
825.862	14206.01
826.189	14174.83
826.516	14260.02
826.843	14222.51
827.17	14238.55
827.497	14242.85
827.824	14244.88
828.151	14304.99
828.478	14158.33
828.805	14204.88
829.131	14235.16
829.458	14091.89
829.785	14065.22
830.111	14067.94
830.438	14213.69
830.764	14146.13
831.09	14246.01
831.417	14038.78
831.743	14129.63
832.069	14115.17
832.395	14072.45
832.722	14016.64
833.048	14039.46
833.374	14129.18
833.7	14009.18
834.026	13995.62
834.351	14105.67
834.677	13972.8
835.003	14071.55
835.329	13939.8
835.654	13918.11
835.98	13869.07
836.306	13999.24
836.631	13845.34
836.956	13862.52
837.282	13916.75
837.607	13906.58
837.932	13750.88
838.258	13859.81
838.583	13807.38
838.908	13672.47
839.233	13712.24
839.558	13749.75
839.883	13654.16
840.208	13609.19
840.533	13597.44
840.858	13550.89
841.182	13523.09
841.507	13520.38
841.832	13594.73
842.156	13449.42
842.481	13485.58
842.805	13413.26
843.13	13394.28
843.454	13397.22
843.778	13275.87
844.103	13389.99
844.427	13217.34
844.751	13225.92
845.075	13185.92
845.399	13124.91
845.723	13128.3
846.047	13107.06
846.371	12922.2
846.695	12994.97
847.019	12914.52
847.343	12827.06
847.666	12821.64
847.99	12780.29
848.313	12646.96
848.637	12607.18
848.96	12677.01
849.284	12573.96
849.607	12508.88
849.931	12448.09
850.254	12308.66
850.577	12340.97
850.9	12277.93
851.223	12253.75
851.546	12169.91
851.869	12117.7
852.192	12132.62
852.515	12063.92
852.838	12032.51
853.161	11964.49
853.483	11911.61
853.806	11886.07
854.129	11853.08
854.451	11780.99
854.774	11755.23
855.096	11757.71
855.419	11700.09
855.741	11691.05
856.063	11664.38
856.385	11508
856.708	11525.63
857.03	11550.94
857.352	11459.42
857.674	11439.3
857.996	11438.85
858.318	11365.18
858.64	11374.22
858.961	11331.74
859.283	11319.31
859.605	11261.23
859.926	11254
860.248	11254.22
860.57	11215.35
860.891	11141.23
861.212	11086.32
861.534	11054.46
861.855	11054.23
862.176	11013.78
862.498	11114.11
862.819	11045.42
863.14	10997.73
863.461	10988.92
863.782	10928.36
864.103	10898.98
864.424	10831.41
864.745	10812.65
865.065	10782.37
865.386	10754.12
865.707	10772.43
866.027	10831.64
866.348	10704.41
866.668	10726.78
866.989	10686.1
867.309	10709.61
867.63	10668.7
867.95	10687.23
868.27	10609.04
868.59	10620.57
868.91	10617.18
869.23	10581.47
869.55	10544.64
869.87	10505.54
870.19	10520.01
870.51	10565.88
870.83	10487.69
871.15	10413.34
871.469	10468.48
871.789	10474.13
872.109	10461.93
872.428	10376.51
872.748	10478.2
873.067	10423.96
873.386	10411.31
873.706	10364.3
874.025	10296.96
874.344	10315.72
874.663	10345.1
874.982	10312.55
875.301	10250.63
875.62	10230.3
875.939	10188.49
876.258	10188.49
876.577	10189.85
876.896	10129.73
877.214	10080.02
877.533	10127.02
877.852	10130.86
878.17	10126.12
878.489	10118.21
878.807	10076.85
879.125	10005.67
879.444	10040.47
879.762	10008.15
880.08	9967.03
880.398	9940.81
880.716	9953.92
881.034	9915.05
881.352	9971.32
881.67	9905.78
881.988	9943.75
882.306	9880.7
882.624	9868.05
882.941	9801.83
883.259	9790.08
883.577	9720.03
883.894	9779.46
884.212	9672.8
884.529	9721.16
884.846	9668.5
885.164	9666.02
885.481	9602.97
885.798	9563.65
886.115	9564.1
886.432	9561.61
886.75	9581.05
887.067	9534.72
887.383	9481.84
887.7	9467.15
888.017	9463.08
888.334	9438
888.651	9466.02
888.967	9429.41
889.284	9327.72
889.6	9325.91
889.917	9232.58
890.233	9292.02
890.55	9203.88
890.866	9219.7
891.182	9191.68
891.498	9145.13
891.815	9140.61
892.131	9138.12
892.447	9082.3
892.763	9064.45
893.079	9017.22
893.395	8989.2
893.71	9030.33
894.026	8968.63
894.342	8915.98
894.657	8874.17
894.973	8801.63
895.289	8822.65
895.604	8847.73
895.92	8686.83
896.235	8701.97
896.55	8727.74
896.865	8711.24
897.181	8654.07
897.496	8619.26
897.811	8561.19
898.126	8640.06
898.441	8535.65
898.756	8566.38
899.071	8528.65
899.386	8445.26
899.7	8447.29
900.015	8351.02
900.33	8389.21
900.644	8294.53
900.959	8329.78
901.273	8295.21
901.588	8207.3
901.902	8191.03
902.216	8222.21
902.531	8120.07
902.845	8137.47
903.159	8010.02
903.473	8055.89
903.787	8001.43
904.101	7945.38
904.415	7963.46
904.729	7930.47
905.042	7858.15
905.356	7888.44
905.67	7904.93
905.984	7835.33
906.297	7748.33
906.611	7791.49
906.924	7728.89
907.237	7700.87
907.551	7640.76
907.864	7615
908.177	7637.14
908.491	7583.36
908.804	7551.72
909.117	7515.34
909.43	7492.51
909.743	7475.57
910.056	7526.19
910.368	7453.19
910.681	7336.13
910.994	7394.89
911.307	7301.56
911.619	7220.88
911.932	7287.32
912.244	7224.5
912.557	7202.13
912.869	7160.55
913.181	7149.92
913.494	7135.46
913.806	7137.04
914.118	7067.22
914.43	7034
914.742	7016.6
915.054	6992.19
915.366	6914.9
915.678	6922.13
915.99	6905.19
916.302	6907.22
916.613	6782.25
916.925	6832.19
917.236	6813.66
917.548	6792.65
917.859	6792.65
918.171	6716.72
918.482	6624.74
918.794	6618.41
919.105	6643.05
919.416	6533.67
919.727	6575.7
920.038	6479.21
920.349	6483.95
920.66	6442.6
920.971	6397.85
921.282	6469.04
921.593	6350.62
921.903	6318.76
922.214	6310.4
922.525	6292.55
922.835	6319.89
923.146	6223.4
923.456	6194.24
923.767	6173.45
924.077	6146.11
924.387	6089.16
924.697	6123.29
925.008	6056.85
925.318	6036.06
925.628	6010.29
925.938	6020.92
926.248	5916.74
926.558	5931.65
926.867	5957.41
927.177	5864.54
927.487	5829.51
927.796	5796.74
928.106	5800.36
928.416	5749.96
928.725	5766.01
929.034	5773.69
929.344	5744.09
929.653	5725.1
929.962	5684.43
930.271	5625.22
930.581	5609.17
930.89	5608.27
931.199	5571.44
931.508	5589.74
931.817	5561.49
932.125	5508.16
932.434	5516.07
932.743	5448.05
933.051	5477.2
933.36	5446.01
933.669	5328.28
933.977	5384.32
934.286	5367.82
934.594	5296.64
934.902	5311.33
935.21	5278.79
935.519	5258
935.827	5232.69
936.135	5208.73
936.443	5161.5
936.751	5170.99
937.059	5186.13
937.367	5106.81
937.674	5131.22
937.982	5068.17
938.29	5051
938.597	5057.1
938.905	4975.52
939.213	5013.03
939.52	4952.92
939.827	5000.6
940.135	4887.84
940.442	4911.79
940.749	4893.94
941.056	4917.67
941.363	4858.91
941.67	4872.7
941.977	4825.92
942.284	4803.55
942.591	4794.28
942.898	4762.64
943.205	4751.12
943.511	4729.88
943.818	4692.14
944.125	4685.81
944.431	4632.03
944.738	4630.22
945.044	4615.53
945.35	4529.43
945.657	4580.5
945.963	4561.52
946.269	4557.68
946.575	4522.88
946.881	4461.18
947.187	4447.17
947.493	4435.87
947.799	4448.98
948.105	4418.7
948.41	4395.2
948.716	4390.22
949.022	4362.43
949.327	4309.1
949.633	4297.57
949.938	4321.98
950.244	4282.43
950.549	4238.36
950.854	4249.89
951.16	4289.66
951.465	4237.91
951.77	4192.94
952.075	4161.53
952.38	4121.76
952.685	4147.29
952.99	4127.86
953.294	4066.39
953.599	4092.83
953.904	4033.85
954.209	4042.44
954.513	4027.3
954.818	4020.06
955.122	3979.84
955.426	3978.03
955.731	3979.61
956.035	3947.52
956.339	3903
956.643	3925.38
956.948	3833.4
957.252	3867.3
957.556	3863.46
957.86	3789.11
958.163	3839.28
958.467	3802.67
958.771	3799.73
959.075	3803.57
959.378	3747.53
959.682	3752.73
959.985	3711.15
960.289	3679.51
960.592	3727.64
960.896	3629.57
961.199	3644.03
961.502	3667.3
961.805	3599.51
962.108	3574.43
962.411	3599.96
962.714	3589.57
963.017	3542.79
963.32	3531.94
963.623	3524.48
963.926	3548.21
964.228	3492.62
964.531	3476.8
964.833	3465.05
965.136	3425.05
965.438	3410.14
965.741	3397.71
966.043	3388.67
966.345	3399.52
966.648	3368.1
966.95	3374.43
967.252	3320.65
967.554	3317.94
967.856	3324.71
968.158	3301.66
968.46	3293.53
968.761	3256.24
969.063	3214.21
969.365	3219.63
969.666	3216.47
969.968	3223.93
970.269	3181.67
970.571	3175.79
970.872	3136.47
971.174	3124.04
971.475	3166.3
971.776	3142.57
972.077	3086.98
972.378	3085.85
972.679	3113.65
972.98	3102.35
973.281	3076.59
973.582	3066.19
973.883	3088.34
974.183	2978.74
974.484	3018.96
974.785	2996.36
975.085	3022.58
975.386	2942.35
975.686	2967.66
975.986	2948.68
976.287	2957.04
976.587	2967.66
976.887	2899.64
977.187	2894.67
977.487	2865.97
977.787	2853.31
978.087	2890.6
978.387	2819.42
978.687	2866.2
978.987	2844.95
979.286	2816.48
979.586	2802.47
979.885	2812.64
980.185	2797.05
980.484	2732.41
980.784	2743.04
981.083	2742.58
981.382	2740.32
981.682	2772.64
981.981	2735.35
982.28	2683.38
982.579	2671.17
982.878	2635.47
983.177	2697.16
983.475	2609.71
983.774	2607.22
984.073	2596.37
984.372	2591.63
984.67	2600.89
984.969	2554.34
985.267	2592.08
985.566	2549.37
985.864	2529.26
986.162	2546.66
986.461	2528.35
986.759	2530.84
987.057	2475.25
987.355	2470.73
987.653	2477.73
987.951	2443.38
988.249	2465.98
988.547	2447.22
988.844	2431.4
989.142	2433.44
989.44	2404.74
989.737	2440.67
990.035	2420.56
990.332	2381.91
990.63	2382.14
990.927	2357.28
991.224	2341.46
991.521	2327.45
991.819	2327
992.116	2310.28
992.413	2293.33
992.71	2273.44
993.006	2263.05
993.303	2271.64
993.6	2277.28
993.897	2246.78
994.193	2252.2
994.49	2205.2
994.787	2245.42
995.083	2216.04
995.379	2212.88
995.676	2180.56
995.972	2153.45
996.268	2145.99
996.565	2150.51
996.861	2150.06
997.157	2131.53
997.453	2152.99
997.749	2122.03
998.044	2086.56
998.34	2076.16
998.636	2043.62
998.932	2075.03
999.227	2073.67
999.523	2031.64
999.818	2037.29
1000.114	2003.17
1000.409	2017.4
1000.704	2007.46
1001	1985.99
1001.295	1971.3
1001.59	1984.86
1001.885	1964.98
1002.18	1945.32
1002.475	1950.29
1002.77	1915.26
1003.065	1928.14
1003.359	1924.53
1003.654	1921.14
1003.949	1914.58
1004.243	1907.12
1004.538	1845.88
1004.832	1889.05
1005.127	1855.37
1005.421	1825.09
1005.715	1844.98
1006.009	1832.32
1006.304	1801.59
1006.598	1815.83
1006.892	1772.21
1007.186	1803.17
1007.48	1773.8
1007.773	1773.8
1008.067	1753.46
1008.361	1734.25
1008.655	1724.3
1008.948	1730.18
1009.242	1710.07
1009.535	1702.38
1009.829	1672.55
1010.122	1668.04
1010.415	1669.84
1010.708	1666.45
1011.001	1650.18
1011.295	1623.52
1011.588	1624.42
1011.881	1614.7
1012.173	1627.13
1012.466	1604.31
1012.759	1590.3
1013.052	1566.57
1013.344	1602.95
1013.637	1575.16
1013.93	1555.5
1014.222	1561.15
1014.514	1572.67
1014.807	1546.23
1015.099	1545.78
1015.391	1515.95
1015.683	1491.99
1015.976	1480.7
1016.268	1480.24
1016.56	1498.1
1016.851	1494.03
1017.143	1440.92
1017.435	1470.3
1017.727	1455.39
1018.018	1437.53
1018.31	1441.37
1018.602	1419.45
1018.893	1401.6
1019.185	1410.41
1019.476	1394.14
1019.767	1362.05
1020.058	1396.18
1020.35	1362.73
1020.641	1356.86
1020.932	1330.64
1021.223	1312.11
1021.514	1308.72
1021.804	1290.42
1022.095	1334.48
1022.386	1297.42
1022.677	1276.18
1022.967	1297.65
1023.258	1260.14
1023.548	1302.4
1023.839	1277.31
1024.129	1243.87
1024.419	1259.23
1024.709	1230.98
1025	1215.39
1025.29	1202.74
1025.58	1225.79
1025.87	1199.35
1026.16	1191.89
1026.449	1181.49
1026.739	1211.32
1027.029	1183.75
1027.319	1147.37
1027.608	1147.37
1027.898	1148.95
1028.187	1137.43
1028.477	1153.02
1028.766	1136.07
1029.055	1124.09
1029.344	1116.86
1029.634	1107.82
1029.923	1087.26
1030.212	1116.19
1030.501	1104.89
1030.79	1068.05
1031.078	1047.71
1031.367	1063.31
1031.656	1053.36
1031.945	1080.25
1032.233	1040.93
1032.522	1029.41
1032.81	1033.93
1033.099	1026.02
1033.387	1023.53
1033.675	1031.89
1033.963	1029.63
1034.251	995.96
1034.54	1004.55
1034.828	1017.88
1035.116	986.7
1035.403	978.11
1035.691	969.75
1035.979	993.93
1036.267	962.74
1036.554	965.91
1036.842	946.02
1037.129	939.24
1037.417	917.55
1037.704	932.69
1037.992	942.4
1038.279	934.5
1038.566	906.7
1038.853	906.7
1039.14	906.7
