Data from hue_80_FLMS001491_43.txt Node
Date: Mon Feb 06 15:23:02 GMT 2017
User: dcchb
Spectrometer: FLMS00149
Trigger mode: 0
Integration Time (sec): 2.000000E-2
Scans to average: 10
Electric dark correction enabled: true
Nonlinearity correction enabled: false
Boxcar width: 0
XAxis mode: Wavelengths
Number of Pixels in Spectrum: 2048
>>>>>Begin Spectral Data<<<<<
341.393	-8.52
341.776	-8.52
342.16	-8.52
342.543	-36.09
342.927	-78.8
343.31	-55.3
343.693	-60.72
344.077	-72.92
344.46	-53.26
344.843	-45.8
345.226	-32.24
345.61	-31.12
345.993	-24.56
346.376	-6.93
346.759	4.59
347.142	25.61
347.525	17.02
347.908	76.9
348.291	69.67
348.674	84.36
349.057	104.7
349.44	139.95
349.823	151.48
350.206	158.48
350.588	191.03
350.971	196.45
351.354	236
351.737	232.61
352.119	231.93
352.502	259.72
352.884	286.16
353.267	301.76
353.65	287.29
354.032	293.62
354.414	318.93
354.797	308.99
355.179	323
355.562	318.48
355.944	325.26
356.326	329.33
356.709	337.69
357.091	323.9
357.473	340.85
357.855	329.1
358.238	342.66
358.62	358.71
359.002	358.71
359.384	341.3
359.766	331.81
360.148	350.12
360.53	315.99
360.912	335.88
361.294	343.56
361.676	338.14
362.057	330.23
362.439	339.5
362.821	340.63
363.203	333.85
363.584	322.55
363.966	318.93
364.348	329.78
364.729	324.36
365.111	312.83
365.493	340.17
365.874	315.54
366.256	310.34
366.637	303.79
367.019	306.5
367.4	306.05
367.781	341.98
368.163	319.16
368.544	337.91
368.925	308.54
369.306	316.22
369.688	314.19
370.069	310.34
370.45	332.27
370.831	311.7
371.212	301.53
371.593	299.5
371.974	306.96
372.355	327.07
372.736	308.99
373.117	329.33
373.498	340.85
373.879	299.95
374.26	297.01
374.641	329.55
375.021	325.94
375.402	308.99
375.783	315.09
376.163	330.46
376.544	337.01
376.925	340.4
377.305	310.8
377.686	325.94
378.066	345.82
378.447	347.86
378.827	340.4
379.208	328.2
379.588	332.72
379.968	351.25
380.349	325.49
380.729	328.65
381.109	329.33
381.489	341.76
381.87	336.33
382.25	342.43
382.63	342.66
383.01	360.51
383.39	344.47
383.77	323.23
384.15	325.26
384.53	315.77
384.91	348.76
385.29	347.41
385.67	361.64
386.049	361.64
386.429	345.6
386.809	378.59
387.189	359.61
387.568	351.02
387.948	356.67
388.328	369.55
388.707	362.32
389.087	374.52
389.466	345.82
389.846	360.97
390.225	352.38
390.605	360.97
390.984	373.17
391.363	378.37
391.743	373.39
392.122	370
392.501	383.56
392.881	393.73
393.26	378.82
393.639	379.04
394.018	366.61
394.397	380.17
394.776	389.44
395.155	381.98
395.534	380.17
395.913	363.22
396.292	394.18
396.671	371.81
397.05	394.41
397.429	393.28
397.808	381.08
398.186	356.9
398.565	388.08
398.944	391.92
399.323	389.89
399.701	386.05
400.08	366.61
400.458	389.89
400.837	400.51
401.215	407.07
401.594	401.87
401.972	412.94
402.351	414.75
402.729	417.01
403.107	410.23
403.486	413.39
403.864	417.01
404.242	413.39
404.62	419.72
404.999	402.32
405.377	417.01
405.755	435.99
406.133	433.51
406.511	417.46
406.889	407.74
407.267	438.25
407.645	444.13
408.023	424.92
408.401	403.45
408.779	448.65
409.156	447.74
409.534	434.41
409.912	452.04
410.29	441.19
410.667	469.89
411.045	456.1
411.422	472.15
411.8	436.9
412.178	450.45
412.555	470.34
412.933	453.17
413.31	470.11
413.687	483.9
414.065	483.9
414.442	479.83
414.819	501.98
415.197	490.91
415.574	491.36
415.951	482.09
416.328	484.35
416.705	496.1
417.082	486.61
417.46	488.19
417.837	488.65
418.214	522.09
418.591	508.08
418.967	518.93
419.344	526.84
419.721	509.89
420.098	520.96
420.475	534.29
420.852	527.74
421.228	534.52
421.605	553.73
421.982	548.98
422.358	515.99
422.735	553.73
423.111	551.69
423.488	525.71
423.864	563.67
424.241	548.98
424.617	537.91
424.994	577.23
425.37	598.25
425.746	573.61
426.123	559.15
426.499	582.65
426.875	578.81
427.251	589.66
427.627	586.27
428.003	586.04
428.379	598.47
428.756	593.5
429.132	594.86
429.507	619.94
429.883	608.64
430.259	614.52
430.635	633.95
431.011	621.3
431.387	635.76
431.763	649.55
432.138	642.54
432.514	650.67
432.89	660.62
433.265	689.54
433.641	670.56
434.016	669.66
434.392	700.39
434.767	699.26
435.143	683.44
435.518	713.72
435.894	691.35
436.269	700.39
436.644	704.68
437.02	722.09
437.395	730.9
437.77	718.24
438.145	724.57
438.52	742.2
438.895	732.03
439.271	760.95
439.646	755.08
440.021	776.55
440.395	719.83
440.77	765.93
441.145	775.19
441.52	821.52
441.895	777.23
442.27	794.85
442.645	808.41
443.019	792.37
443.394	772.48
443.769	800.05
444.143	806.38
444.518	814.96
444.892	827.85
445.267	819.71
445.641	828.07
446.016	834.62
446.39	838.92
446.764	838.69
447.139	852.03
447.513	855.19
447.887	865.13
448.262	863.78
448.636	864.91
449.01	867.17
449.384	882.08
449.758	867.62
450.132	907.84
450.506	898.13
450.88	883.44
451.254	922.53
451.628	913.94
452.002	923.44
452.376	927.73
452.75	935.87
453.123	927.5
453.497	964.57
453.871	965.69
454.244	988.29
454.618	1007.05
454.992	974.96
455.365	979.48
455.739	995.98
456.112	1022.87
456.486	1026.26
456.859	1021.06
457.232	1052.7
457.606	1051.34
457.979	1059.25
458.352	1080.49
458.725	1114.62
459.099	1115.75
459.472	1134.5
459.845	1127.05
460.218	1156.2
460.591	1157.1
460.964	1153.03
461.337	1189.87
461.71	1202.75
462.083	1212.47
462.456	1241.17
462.829	1207.04
463.201	1247.95
463.574	1253.37
463.947	1273.26
464.32	1341.73
464.692	1313.03
465.065	1340.15
465.438	1340.37
465.81	1366.81
466.183	1400.26
466.555	1408.85
466.928	1437.55
467.3	1433.48
467.672	1470.77
468.045	1475.29
468.417	1493.82
468.789	1521.61
469.161	1553.48
469.534	1537.66
469.906	1613.36
470.278	1642.97
470.65	1646.13
471.022	1686.81
471.394	1715.28
471.766	1743.98
472.138	1765.45
472.51	1796.18
472.882	1843.86
473.253	1899.46
473.625	1935.61
473.997	1971.32
474.369	1977.19
474.74	2005.44
475.112	2053.8
475.484	2141.03
475.855	2174.25
476.227	2235.04
476.598	2317.75
476.97	2357.52
477.341	2416.96
477.713	2466.22
478.084	2509.16
478.455	2602.71
478.827	2594.13
479.198	2756.16
479.569	2724.29
479.94	2896.27
480.311	2948.47
480.682	3053.32
481.053	3129.25
481.424	3203.6
481.795	3282.7
482.166	3363.82
482.537	3446.53
482.908	3547.55
483.279	3660.54
483.65	3726.53
484.021	3827.31
484.391	3908.44
484.762	4042.68
485.133	4093.07
485.503	4176.23
485.874	4338.04
486.244	4446.06
486.615	4587.29
486.985	4660.06
487.356	4847.85
487.726	4940.28
488.097	5113.16
488.467	5121.74
488.837	5305.92
489.207	5490.1
489.578	5581.39
489.948	5702.07
490.318	5853.7
490.688	5938.45
491.058	6056.63
491.428	6223.64
491.798	6352.9
492.168	6548.82
492.538	6676.05
492.908	6804.86
493.278	6997.17
493.648	7024.52
494.017	7191.75
494.387	7342.48
494.757	7439.87
495.126	7593.54
495.496	7681
495.866	7869.47
496.235	7972.29
496.605	8134.77
496.974	8240.98
497.344	8386.52
497.713	8465.61
498.082	8642.1
498.452	8731.14
498.821	8824.92
499.19	8914.19
499.559	9080.51
499.928	9221.3
500.298	9358.69
500.667	9523.21
501.036	9515.53
501.405	9666.94
501.774	9766.82
502.143	9863.54
502.512	9990.54
502.88	10142.4
503.249	10124.32
503.618	10261.72
503.987	10364.09
504.356	10505.33
504.724	10602.96
505.093	10689.73
505.462	10727.92
505.83	10913.46
506.199	10981.02
506.567	11159.55
506.936	11194.13
507.304	11306.67
507.672	11402.93
508.041	11470.28
508.409	11652.19
508.777	11649.48
509.145	11876.59
509.514	11813.32
509.882	11977.38
510.25	12017.16
510.618	12115.23
510.986	12180.77
511.354	12272.06
511.722	12386.41
512.09	12589.12
512.458	12573.98
512.826	12672.96
513.193	12742.79
513.561	12767.64
513.929	12831.15
514.297	13020.75
514.664	13126.73
515.032	13105.04
515.4	13192.94
515.767	13205.6
516.135	13336.9
516.502	13300.51
516.869	13602.42
517.237	13633.84
517.604	13492.6
517.972	13720.39
518.339	13783.44
518.706	13739.6
519.073	13848.07
519.44	13922.19
519.808	14031.11
520.175	14008.74
520.542	14218.68
520.909	14251.22
521.276	14269.3
521.643	14329.64
522.009	14483.98
522.376	14518.78
522.743	14650.98
523.11	14700.48
523.477	14779.57
523.843	14910.41
524.21	14954.03
524.577	15006.46
524.943	15064.31
525.31	15194.47
525.676	15225.66
526.043	15336.84
526.409	15382.04
526.776	15505.65
527.142	15508.82
527.508	15508.59
527.874	15597.63
528.241	15704.97
528.607	15707
528.973	15852.08
529.339	15664.29
529.705	15917.39
530.071	15984.06
530.437	15920.78
530.803	16068.12
531.169	16044.62
531.535	16109.25
531.901	16158.06
532.267	16008.92
532.632	16192.87
532.998	16184.05
533.364	16210.04
533.73	16209.59
534.095	16278.29
534.461	16385.4
534.826	16380.66
535.192	16273.09
535.557	16502.01
535.923	16401
536.288	16481.67
536.653	16517.83
537.019	16391.73
537.384	16544.04
537.749	16584.95
538.114	16516.92
538.479	16489.13
538.845	16521.67
539.21	16427.44
539.575	16515.12
539.94	16522.35
540.305	16586.53
540.67	16416.14
541.034	16559.64
541.399	16583.82
541.764	16488.9
542.129	16613.87
542.494	16576.13
542.858	16618.84
543.223	16681.67
543.587	16673.76
543.952	16638.96
544.316	16483.25
544.681	16589.24
545.045	16565.51
545.41	16670.14
545.774	16604.83
546.138	16610.48
546.503	16592.63
546.867	16539.52
547.231	16625.85
547.595	16629.69
547.959	16644.6
548.324	16605.51
548.688	16574.32
549.052	16639.63
549.416	16642.57
549.779	16516.92
550.143	16630.82
550.507	16651.61
550.871	16684.83
551.235	16526.87
551.599	16647.99
551.962	16654.1
552.326	16661.55
552.689	16734.32
553.053	16628.79
553.417	16638.73
553.78	16806.86
554.143	16622.91
554.507	16758.05
554.87	16640.54
555.234	16756.47
555.597	16702.68
555.96	16667.2
556.323	16702.68
556.686	16733.19
557.05	16824.71
557.413	16761.89
557.776	16785.84
558.139	16798.72
558.502	16842.34
558.865	16893.64
559.228	17022.67
559.59	17033.97
559.953	17056.12
560.316	17202.1
560.679	17099.51
561.041	17206.62
561.404	17105.16
561.767	17341.54
562.129	17184.03
562.492	17386.96
562.854	17274.87
563.217	17282.78
563.579	17308.09
563.941	17382.44
564.304	17412.27
564.666	17383.57
565.028	17491.14
565.39	17436.67
565.753	17560.74
566.115	17651.58
566.477	17584.92
566.839	17670.11
567.201	17688.65
567.563	17777
567.925	17812.03
568.287	17779.26
568.648	17804.57
569.01	17960.95
569.372	17978.81
569.734	17807.06
570.095	18042.76
570.457	18075.98
570.819	17958.92
571.18	18059.71
571.542	18175.86
571.903	18095.64
572.265	18105.36
572.626	18142.64
572.987	18294.28
573.349	18196.43
573.71	18225.35
574.071	18273.71
574.432	18337.44
574.794	18388.97
575.155	18338.35
575.516	18247.5
575.877	18382.64
576.238	18310.1
576.599	18382.19
576.96	18461.05
577.32	18495.86
577.681	18567.27
578.042	18518.23
578.403	18547.61
578.763	18563.88
579.124	18526.14
579.485	18640.71
579.845	18625.12
580.206	18514.16
580.566	18606.59
580.927	18635.96
581.287	18677.09
581.648	18609.52
582.008	18679.81
582.368	18580.6
582.728	18639.35
583.089	18618.11
583.449	18606.36
583.809	18675.06
584.169	18645.46
584.529	18574.72
584.889	18780.14
585.249	18605.91
585.609	18527.04
585.969	18546.48
586.329	18511.22
586.688	18566.81
587.048	18536.53
587.408	18586.47
587.768	18572.24
588.127	18485.91
588.487	18481.84
588.846	18591.45
589.206	18527.04
589.565	18424.44
589.925	18598.68
590.284	18597.1
590.643	18542.18
591.003	18594.84
591.362	18591.9
591.721	18499.25
592.08	18635.51
592.44	18624.89
592.799	18568.62
593.158	18524.78
593.517	18526.59
593.876	18601.39
594.235	18576.76
594.593	18584.21
594.952	18548.06
595.311	18458.79
595.67	18475.74
596.029	18580.15
596.387	18611.11
596.746	18690.2
597.104	18539.02
597.463	18330.66
597.822	18461.28
598.18	18446.82
598.538	18536.98
598.897	18523.43
599.255	18409.53
599.613	18705.34
599.972	18605.46
600.33	18557.1
600.688	18494.5
601.046	18579.24
601.404	18603.88
601.762	18471.45
602.12	18689.97
602.478	18728.17
602.836	18647.49
603.194	18435.52
603.552	18656.08
603.91	18553.03
604.268	18661.05
604.625	18574.95
604.983	18694.04
605.341	18591.22
605.698	18665.34
606.056	18646.13
606.413	18696.53
606.771	18743.08
607.128	18790.54
607.485	18633.25
607.843	18706.02
608.2	18774.72
608.557	18821.27
608.914	18749.18
609.272	18738.56
609.629	18818.78
609.986	18925
610.343	18765.9
610.7	19048.61
611.057	18866.69
611.414	18893.13
611.771	18958.44
612.127	19000.93
612.484	18997.99
612.841	19089.96
613.198	19001.6
613.554	18984.2
613.911	19022.17
614.267	19156.86
614.624	19121.6
614.98	18974.03
615.337	19144.2
615.693	19169.51
616.05	19157.76
616.406	19263.52
616.762	19190.07
617.118	19216.51
617.475	19219.45
617.831	19221.94
618.187	19238.89
618.543	19292.22
618.899	19358.43
619.255	19250.19
619.611	19237.53
619.967	19328.15
620.323	19366.57
620.678	19365.21
621.034	19305.78
621.39	19242.05
621.746	19336.74
622.101	19489.28
622.457	19349.84
622.812	19407.92
623.168	19476.85
623.523	19409.5
623.879	19476.17
624.234	19284.31
624.589	19381.71
624.945	19538.31
625.3	19439.11
625.655	19434.59
626.01	19542.61
626.365	19479.11
626.72	19399.11
627.075	19490.41
627.43	19513.46
627.785	19540.12
628.14	19408.83
628.495	19483.85
628.85	19390.75
629.205	19360.92
629.559	19499.9
629.914	19335.83
630.269	19420.12
630.623	19327.02
630.978	19225.78
631.332	19310.98
631.687	19407.7
632.041	19275.27
632.396	19361.82
632.75	19285.89
633.104	19270.52
633.459	19221.03
633.813	19199.57
634.167	19101.94
634.521	19125.9
634.875	19160.24
635.229	19187.14
635.583	19102.62
635.937	19130.42
636.291	19111.88
636.645	19085.67
636.999	19022.62
637.352	18993.02
637.706	18898.56
638.06	18991.44
638.413	18943.3
638.767	18991.21
639.121	18863.76
639.474	18870.53
639.828	18768.84
640.181	18945.56
640.534	18832.12
640.888	18793.25
641.241	18742.63
641.594	18736.53
641.947	18826.47
642.301	18775.62
642.654	18745.11
643.007	18791.44
643.36	18764.32
643.713	18701.73
644.066	18799.58
644.419	18759.8
644.771	18536.98
645.124	18436.42
645.477	18359.59
645.83	18281.4
646.182	18157.56
646.535	18108.75
646.888	18216.54
647.24	18075.3
647.593	18146.26
647.945	18114.62
648.298	18015.19
648.65	18064.91
649.002	17978.13
649.355	18155.07
649.707	18061.97
650.059	18153.94
650.411	18257.44
650.763	18362.53
651.115	18725.23
651.467	18497.89
651.819	18545.35
652.171	18518.23
652.523	18431.68
652.875	18492.24
653.227	18372.02
653.578	18553.26
653.93	18444.56
654.282	18404.33
654.633	18323.2
654.985	18471.68
655.337	18445.91
655.688	18409.08
656.039	18414.28
656.391	18345.58
656.742	18347.84
657.094	18399.59
657.445	18518.91
657.796	18492.92
658.147	18424.44
658.498	18417.89
658.849	18433.26
659.2	18425.12
659.551	18362.07
659.902	18391.23
660.253	18507.15
660.604	18463.77
660.955	18437.55
661.306	18497.44
661.656	18439.36
662.007	18489.08
662.358	18465.8
662.708	18420.15
663.059	18427.38
663.409	18450.43
663.76	18517.78
664.11	18431.9
664.461	18460.15
664.811	18519.81
665.161	18488.17
665.511	18482.52
665.862	18455.86
666.212	18438
666.562	18410.66
666.912	18495.86
667.262	18494.5
667.612	18487.49
667.962	18509.87
668.312	18492.47
668.662	18473.26
669.011	18441.62
669.361	18419.25
669.711	18437.33
670.06	18416.08
670.41	18376.08
670.76	18367.05
671.109	18372.69
671.459	18439.59
671.808	18287.73
672.157	18364.33
672.507	18264.9
672.856	18237.33
673.205	18272.58
673.554	18258.12
673.904	18216.77
674.253	18307.61
674.602	18206.15
674.951	17950.56
675.3	17949.2
675.649	18250.66
675.998	18254.96
676.346	18220.61
676.695	18297.67
677.044	18145.81
677.393	18222.87
677.741	18216.54
678.09	18203.43
678.438	18111.68
678.787	18122.76
679.135	18094.96
679.484	17901.97
679.832	18052.48
680.181	17975.64
680.529	17946.27
680.877	17922.54
681.225	17918.47
681.573	17983.78
681.922	17913.72
682.27	17806.83
682.618	17855.19
682.966	17680.74
683.314	17758.7
683.661	17701.75
684.009	17671.02
684.357	17529.33
684.705	17544.02
685.053	17550.12
685.4	17498.82
685.748	17431.02
686.095	17439.84
686.443	17398.03
686.79	17404.13
687.138	17356.68
687.485	17331.14
687.832	17344.02
688.18	17276.23
688.527	17192.39
688.874	17170.24
689.221	17155.55
689.568	17032.39
689.915	17038.49
690.262	16977.7
690.609	16909.46
690.956	16851.6
691.303	16833.53
691.65	16776.13
691.997	16680.76
692.344	16618.16
692.69	16686.19
693.037	16608.45
693.383	16482.58
693.73	16557.15
694.077	16443.25
694.423	16375.69
694.769	16354.67
695.116	16239.87
695.462	16271.96
695.808	16231.73
696.155	16209.59
696.501	16052.98
696.847	16086.65
697.193	15975.92
697.539	16001.01
697.885	15788.13
698.231	15805.98
698.577	15813.89
698.923	15795.14
699.269	15689.38
699.614	15550.62
699.96	15541.36
700.306	15470.17
700.651	15494.13
700.997	15394.69
701.342	15395.37
701.688	15324.87
702.033	15248.03
702.379	15272.66
702.724	15137.07
703.069	15271.53
703.415	15034.48
703.76	14977.53
704.105	14963.74
704.45	14966.23
704.795	14844.2
705.14	14831.55
705.485	14855.27
705.83	14752.9
706.175	14755.16
706.52	14695.73
706.865	14653.47
707.209	14598.1
707.554	14575.96
707.899	14600.59
708.243	14431.56
708.588	14452.57
708.932	14382.07
709.277	14361.73
709.621	14359.02
709.966	14214.84
710.31	14349.98
710.654	14168.96
710.998	14185.23
711.342	14149.98
711.687	14255.29
712.031	14056.88
712.375	14088.51
712.719	14064.33
713.063	13940.95
713.407	14030.66
713.75	13935.3
714.094	13902.3
714.438	13884.23
714.782	13908.41
715.125	13794.28
715.469	13819.14
715.812	13684.68
716.156	13652.82
716.499	13724.91
716.843	13728.52
717.186	13613.95
717.53	13685.81
717.873	13700.73
718.216	13567.17
718.559	13492.15
718.902	13462.32
719.246	13617.57
719.589	13525.36
719.932	13505.48
720.275	13490.34
720.617	13460.96
720.96	13343.67
721.303	13438.36
721.646	13427.51
721.989	13373.96
722.331	13375.99
722.674	13294.86
723.016	13370.79
723.359	13313.39
723.701	13228.42
724.044	13168.09
724.386	13140.29
724.729	13162.89
725.071	13151.36
725.413	13153.17
725.755	13126.51
726.097	13190.23
726.439	13045.6
726.782	13030.24
727.124	13104.36
727.465	13037.92
727.807	13112.04
728.149	12963.8
728.491	12961.76
728.833	13018.71
729.175	13040.41
729.516	12929.22
729.858	12936
730.199	12990.46
730.541	12963.57
730.882	12930.8
731.224	12964.02
731.565	12917.7
731.906	12941.88
732.248	12876.79
732.589	12893.06
732.93	12911.37
733.271	12882.9
733.612	12976.23
733.953	12870.47
734.294	12904.82
734.635	12851.94
734.976	12903.46
735.317	12882.22
735.658	12874.99
735.999	12910.01
736.339	12801.54
736.68	12841.31
737.021	12860.52
737.361	12828.89
737.702	12910.92
738.042	12876.34
738.383	12886.96
738.723	12893.29
739.063	12924.02
739.404	12883.35
739.744	12846.96
740.084	12879.28
740.424	12936.23
740.764	12910.01
741.104	13007.86
741.444	12919.5
741.784	12866.17
742.124	12963.57
742.464	12886.74
742.804	12953.18
743.143	12961.76
743.483	13014.42
743.823	12986.4
744.162	12943.91
744.502	13064.13
744.841	12990.01
745.181	13140.74
745.52	13103.68
745.86	13117.92
746.199	13181.87
746.538	13166.28
746.877	13236.56
747.216	13216.45
747.556	13258.71
747.895	13349.55
748.234	13366.5
748.573	13333.51
748.911	13477
749.25	13438.59
749.589	13501.86
749.928	13601.97
750.267	13711.8
750.605	13684.91
750.944	13677
751.283	13846.49
751.621	13951.79
751.96	13877.9
752.298	13990.44
752.636	14127.61
752.975	14133.03
753.313	14156.31
753.651	14371.44
753.989	14382.97
754.327	14429.97
754.666	14555.17
755.004	14696.63
755.342	14766.01
755.679	14860.92
756.017	15017.98
756.355	15068.83
756.693	15077.19
757.031	15225.43
757.368	15283.74
757.706	15412.09
758.044	15526.67
758.381	15618.87
758.719	15657.29
759.056	15744.74
759.394	15823.84
759.731	15962.59
760.068	16143.15
760.405	16170.94
760.743	16280.55
761.08	16446.64
761.417	16342.47
761.754	16569.58
762.091	16542.91
762.428	16708.56
762.765	16752.17
763.102	16938.38
763.438	16960.75
763.775	16953.52
764.112	17218.6
764.449	17310.58
764.785	17196.45
765.122	17358.48
765.458	17426.96
765.795	17483.45
766.131	17629.44
766.467	17622.21
766.804	17670.11
767.14	17655.65
767.476	17751.92
767.812	17813.16
768.148	17907.4
768.485	17868.98
768.821	17974.74
769.157	17964.34
769.492	18024.23
769.828	18120.05
770.164	18037.34
770.5	18171.12
770.836	18072.14
771.171	18168.63
771.507	18239.82
771.842	18069.43
772.178	18179.48
772.513	18352.13
772.849	18281.62
773.184	18204.56
773.519	18282.53
773.855	18315.75
774.19	18208.63
774.525	18196.88
774.86	18254.73
775.195	18329.98
775.53	18267.84
775.865	18187.84
776.2	18153.72
776.535	18085.24
776.87	18220.61
777.205	18167.73
777.539	18114.85
777.874	18196.43
778.209	17996.21
778.543	18065.58
778.878	17964.12
779.212	18025.13
779.547	17845.25
779.881	18063.78
780.215	17919.15
780.55	17953.95
780.884	17890
781.218	17795.76
781.552	17886.38
781.886	17765.48
782.22	17743.56
782.554	17657.46
782.888	17538.82
783.222	17591.25
783.556	17457.01
783.889	17410.91
784.223	17402.1
784.557	17369.78
784.89	17403.45
785.224	17317.13
785.557	17317.58
785.891	17230.58
786.224	17177.25
786.558	17172.73
786.891	17039.17
787.224	17094.76
787.557	16921.21
787.891	17038.72
788.224	17028.32
788.557	16939.06
788.89	16916.69
789.223	16870.59
789.556	16737.26
789.888	16749.46
790.221	16684.38
790.554	16656.13
790.887	16580.43
791.219	16589.69
791.552	16607.54
791.884	16472.18
792.217	16457.04
792.549	16375.46
792.882	16339.53
793.214	16258.63
793.546	16273.09
793.879	16120.78
794.211	16078.74
794.543	16159.19
794.875	16057.95
795.207	16078.52
795.539	16010.27
795.871	16044.39
796.203	15881.01
796.535	15829.03
796.867	15758.3
797.198	15691.64
797.53	15767.57
797.862	15714.91
798.193	15673.1
798.525	15570.73
798.856	15643.5
799.188	15445.54
799.519	15490.28
799.85	15387.24
800.182	15424.3
800.513	15303.85
800.844	15150.86
801.175	15283.51
801.506	15250.97
801.837	15160.58
802.168	15246.45
802.499	15088.49
802.83	14967.36
803.161	14993.35
803.491	15012.33
803.822	15087.81
804.153	14916.97
804.483	14827.48
804.814	14836.06
805.145	14774.15
805.475	14754.71
805.805	14719.68
806.136	14634.94
806.466	14649.18
806.796	14584.77
807.126	14472.23
807.457	14531.44
807.787	14517.2
808.117	14434.72
808.447	14294.38
808.777	14382.29
809.107	14383.42
809.436	14221.84
809.766	14266.36
810.096	14216.19
810.426	14175.74
810.755	14227.95
811.085	14044
811.414	14077.67
811.744	13966.03
812.073	13905.02
812.403	13862.53
812.732	13907.73
813.061	13950.44
813.39	13762.19
813.719	13749.77
814.049	13836.09
814.378	13744.57
814.707	13749.77
815.036	13672.93
815.365	13661.41
815.693	13564.46
816.022	13639.94
816.351	13549.09
816.68	13491.24
817.008	13495.76
817.337	13340.96
817.665	13335.09
817.994	13417.34
818.322	13392.49
818.651	13248.31
818.979	13225.03
819.307	13345.26
819.636	13246.5
819.964	13141.65
820.292	13180.74
820.62	13138.93
820.948	13184.81
821.276	13285.37
821.604	13171.93
821.932	13198.14
822.259	13219.84
822.587	13115.88
822.915	13050.35
823.243	13203.57
823.57	13144.13
823.898	13250.12
824.225	13067.98
824.553	13139.61
824.88	13126.96
825.207	13129.67
825.535	13087.41
825.862	13119.95
826.189	13073.63
826.516	13130.57
826.843	13227.52
827.17	13141.87
827.497	13162.44
827.824	13151.14
828.151	13153.62
828.478	13016.68
828.805	13215.32
829.131	13100.74
829.458	13090.12
829.785	12986.62
830.111	13079.73
830.438	13188.65
830.764	13062.33
831.09	13103.23
831.417	13028.2
831.743	13028.65
832.069	13059.61
832.395	13016.68
832.722	13037.02
833.048	13009.9
833.374	13039.95
833.7	12961.54
834.026	12997.02
834.351	13001.54
834.677	12981.42
835.003	12990.69
835.329	12975.77
835.654	12934.42
835.98	12894.87
836.306	12901.2
836.631	12801.54
836.956	12885.38
837.282	12905.95
837.607	12844.25
837.932	12752.73
838.258	12870.01
838.583	12832.95
838.908	12609.91
839.233	12754.99
839.558	12732.39
839.883	12610.81
840.208	12636.35
840.533	12632.51
840.858	12674.77
841.182	12614.88
841.507	12592.51
841.832	12507.09
842.156	12531.49
842.481	12549.12
842.805	12513.87
843.13	12466.86
843.454	12409.01
843.778	12370.14
844.103	12423.92
844.427	12305.28
844.751	12318.39
845.075	12247.88
845.399	12281.33
845.723	12129.7
846.047	12177.15
846.371	12099.19
846.695	12120.88
847.019	12027.55
847.343	11887.67
847.666	11809.25
847.99	11810.38
848.313	11852.87
848.637	11745.3
848.96	11724.28
849.284	11738.07
849.607	11556.6
849.931	11511.86
850.254	11494.68
850.577	11456.72
850.9	11418.3
851.223	11345.08
851.546	11301.02
851.869	11193.9
852.192	11339.43
852.515	11247.01
852.838	11117.07
853.161	11189.83
853.483	11077.07
853.806	11051.08
854.129	10962.27
854.451	10940.57
854.774	10962.95
855.096	10856.28
855.419	10897.64
855.741	10777.19
856.063	10819.22
856.385	10779.22
856.708	10737.87
857.03	10757.53
857.352	10710.75
857.674	10636.4
857.996	10666.23
858.318	10554.6
858.64	10675.04
858.961	10483.41
859.283	10570.64
859.605	10458.55
859.926	10536.97
860.248	10396.41
860.57	10375.17
860.891	10417.65
861.212	10342.85
861.534	10308.27
861.855	10295.17
862.176	10277.77
862.498	10276.18
862.819	10331.32
863.14	10235.06
863.461	10202.97
863.782	10108.05
864.103	10197.32
864.424	10190.54
864.745	10158.9
865.065	10141.05
865.386	10004.78
865.707	10081.16
866.027	10082.07
866.348	10021.95
866.668	10009.52
866.989	9961.39
867.309	9929.3
867.63	9852.47
867.95	9947.61
868.27	9854.27
868.59	9883.43
868.91	9873.48
869.23	9868.51
869.55	9804.33
869.87	9865.8
870.19	9780.15
870.51	9788.97
870.83	9741.06
871.15	9674.84
871.469	9732.24
871.789	9753.49
872.109	9736.76
872.428	9696.76
872.748	9679.59
873.067	9687.5
873.386	9675.07
873.706	9598.91
874.025	9572.47
874.344	9581.97
874.663	9523.44
874.982	9567.28
875.301	9557.11
875.62	9485.47
875.939	9488.41
876.258	9454.74
876.577	9457.22
876.896	9507.39
877.214	9485.47
877.533	9466.71
877.852	9453.61
878.17	9395.3
878.489	9469.65
878.807	9423.55
879.125	9373.61
879.444	9384.68
879.762	9343.55
880.08	9342.42
880.398	9312.59
880.716	9325.48
881.034	9282.99
881.352	9314.85
881.67	9252.93
881.988	9274.4
882.306	9232.14
882.624	9153.5
882.941	9067.4
883.259	9103.11
883.577	9080.96
883.894	9068.98
884.212	9130
884.529	9032.38
884.846	8992.15
885.164	8985.15
885.481	8955.32
885.798	8994.64
886.115	8872.83
886.432	8877.35
886.75	8823.57
887.067	8922.1
887.383	8835.09
887.7	8797.81
888.017	8807.52
888.334	8806.84
888.651	8803.45
888.967	8745.83
889.284	8729.11
889.6	8722.78
889.917	8631.93
890.233	8652.05
890.55	8620.86
890.866	8645.27
891.182	8625.38
891.498	8607.75
891.815	8496.34
892.131	8517.81
892.447	8488.89
892.763	8396.23
893.079	8387.19
893.395	8360.53
893.71	8416.12
894.026	8325.05
894.342	8339.29
894.657	8260.42
894.973	8282.34
895.289	8248.44
895.604	8263.36
895.92	8208.22
896.235	8112.63
896.55	8194.21
896.865	8138.39
897.181	8029.24
897.496	8046.86
897.811	8055.45
898.126	8023.14
898.441	7986.53
898.756	7942.91
899.071	7906.98
899.386	7932.74
899.7	7834.89
900.015	7823.37
900.33	7810.26
900.644	7758.28
900.959	7742.24
901.273	7704.95
901.588	7668.57
901.902	7585.86
902.216	7652.07
902.531	7534.34
902.845	7605.97
903.159	7511.74
903.473	7518.74
903.787	7422.7
904.101	7426.77
904.415	7457.28
904.729	7375.7
905.042	7356.71
905.356	7363.04
905.67	7349.26
905.984	7276.04
906.297	7264.74
906.611	7296.83
906.924	7323.95
907.237	7206.43
907.551	7167.34
907.864	7168.7
908.177	7147.68
908.491	7100.9
908.804	7039.66
909.117	6993.11
909.43	7009.83
909.743	6954.92
910.056	6928.25
910.368	6933.67
910.681	6877.63
910.994	6833.11
911.307	6852.55
911.619	6795.15
911.932	6787.46
912.244	6741.59
912.557	6722.61
912.869	6691.42
913.181	6652.55
913.494	6646.45
913.806	6635.15
914.118	6584.98
914.43	6543.63
914.742	6568.49
915.054	6482.39
915.366	6471.54
915.678	6470.86
915.99	6441.71
916.302	6353.8
916.613	6406.68
916.925	6352.45
917.236	6363.29
917.548	6326.46
917.859	6304.54
918.171	6261.15
918.482	6157.65
918.794	6209.85
919.105	6196.52
919.416	6168.5
919.727	6118.33
920.038	6109.97
920.349	6073.58
920.66	6025.22
920.971	6032
921.282	5974.15
921.593	5957.88
921.903	5880.37
922.214	5894.15
922.525	5892.12
922.835	5843.31
923.146	5821.84
923.456	5797.66
923.767	5825
924.077	5754.27
924.387	5805.57
924.697	5744.78
925.008	5702.75
925.318	5652.35
925.628	5714.27
925.938	5619.13
926.248	5576.65
926.558	5545.69
926.867	5600.38
927.177	5563.54
927.487	5520.6
927.796	5477.89
928.106	5449.19
928.416	5464.56
928.725	5461.17
929.034	5441.96
929.344	5406.03
929.653	5419.36
929.962	5327.16
930.271	5345.69
930.581	5305.69
930.89	5255.07
931.199	5214.85
931.508	5246.49
931.817	5212.81
932.125	5183.44
932.434	5225.7
932.743	5090.78
933.051	5109.09
933.36	5097.11
933.669	5104.12
933.977	5065.47
934.286	4986.61
934.594	5057.79
934.902	4955.65
935.21	4984.57
935.519	4964.23
935.827	4932.14
936.135	4879.94
936.443	4846.5
936.751	4874.74
937.059	4824.8
937.367	4858.25
937.674	4818.93
937.982	4808.98
938.29	4799.27
938.597	4721.3
938.905	4709.55
939.213	4719.72
939.52	4672.26
939.827	4732.15
940.135	4675.2
940.442	4685.6
940.749	4598.37
941.056	4609.21
941.363	4597.92
941.67	4520.86
941.977	4550.91
942.284	4496
942.591	4509.56
942.898	4489.44
943.205	4450.58
943.511	4432.72
943.818	4420.97
944.125	4404.25
944.431	4363.35
944.738	4368.54
945.044	4360.18
945.35	4301.2
945.657	4292.61
945.963	4279.05
946.269	4248.09
946.575	4246.51
946.881	4244.93
947.187	4263.91
947.493	4187.31
947.799	4179.62
948.105	4159.74
948.41	4126.52
948.716	4124.03
949.022	4126.52
949.327	4083.81
949.633	4081.55
949.938	4051.94
950.244	4032.28
950.549	4020.3
950.854	3995.45
951.16	3971.49
951.465	3942.79
951.77	3958.38
952.075	3913.19
952.38	3938.27
952.685	3934.88
952.99	3926.3
953.294	3882.68
953.599	3855.79
953.904	3862.34
954.209	3832.06
954.513	3802.91
954.818	3785.73
955.122	3778.95
955.426	3768.33
955.731	3749.12
956.035	3684.49
956.339	3719.07
956.643	3700.54
956.948	3693.31
957.252	3645.62
957.556	3661.67
957.86	3652.4
958.163	3666.87
958.467	3629.58
958.771	3580.77
959.075	3606.08
959.378	3572.18
959.682	3540.54
959.985	3515.23
960.289	3507.1
960.592	3486.98
960.896	3505.74
961.199	3481.34
961.502	3451.73
961.805	3472.52
962.108	3387.55
962.411	3410.83
962.714	3358.4
963.017	3353.43
963.32	3387.1
963.623	3355.01
963.926	3354.11
964.228	3297.84
964.531	3310.27
964.833	3296.93
965.136	3255.35
965.438	3272.3
965.741	3250.61
966.043	3225.52
966.345	3216.03
966.648	3190.72
966.95	3196.6
967.252	3182.36
967.554	3170.38
967.856	3127.45
968.158	3136.94
968.46	3115.47
968.761	3101.91
969.063	3099.65
969.365	3126.77
969.666	3110.95
969.968	3033.66
970.269	3055.36
970.571	3044.96
970.872	3025.98
971.174	2994.57
971.475	2970.84
971.776	3003.61
972.077	3025.3
972.378	2986.66
972.679	2938.98
972.98	2920.67
973.281	2915.7
973.582	2919.09
973.883	2877.74
974.183	2880.67
974.484	2875.25
974.785	2868.24
975.085	2837.51
975.386	2871.86
975.686	2809.49
975.986	2819.66
976.287	2789.83
976.587	2774.46
976.887	2765.42
977.187	2763.16
977.487	2745.54
977.787	2758.87
978.087	2723.84
978.387	2690.62
978.687	2699.89
978.987	2686.33
979.286	2652.88
979.586	2691.07
979.885	2658.31
980.185	2653.33
980.484	2633.45
980.784	2596.61
981.083	2601.81
981.382	2590.06
981.682	2531.53
981.981	2584.86
982.28	2582.38
982.579	2574.01
982.878	2539.21
983.177	2530.63
983.475	2519.1
983.774	2497.41
984.073	2499.67
984.372	2463.28
984.67	2496.5
984.969	2513.45
985.267	2426.22
985.566	2441.36
985.864	2428.03
986.162	2429.84
986.461	2383.51
986.759	2400.23
987.057	2393.68
987.355	2388.26
987.653	2373.57
987.951	2338.31
988.249	2347.35
988.547	2371.99
988.844	2345.09
989.142	2327.47
989.44	2299.9
989.737	2286.56
990.035	2260.35
990.332	2285.21
990.63	2269.39
990.927	2267.13
991.224	2260.58
991.521	2250.86
991.819	2217.64
992.116	2207.24
992.413	2223.97
992.71	2178.77
993.006	2151.65
993.303	2172.22
993.6	2156.17
993.897	2120.69
994.193	2150.75
994.49	2142.84
994.787	2127.47
995.083	2109.85
995.379	2113.24
995.676	2110.07
995.972	2066
996.268	2088.6
996.565	2071.43
996.861	2047.93
997.157	2072.56
997.453	2019.23
997.749	2026.23
998.044	2054.93
998.34	2015.38
998.636	2025.55
998.932	1973.8
999.227	1969.51
999.523	1939.68
999.818	1908.27
1000.114	1953.24
1000.409	1919.12
1000.704	1928.16
1001	1916.86
1001.295	1907.59
1001.59	1895.16
1001.885	1856.74
1002.18	1867.14
1002.475	1853.81
1002.77	1841.83
1003.065	1852.23
1003.359	1854.26
1003.654	1841.38
1003.949	1793.47
1004.243	1776.52
1004.538	1770.65
1004.832	1776.3
1005.127	1771.78
1005.421	1760.93
1005.715	1759.57
1006.009	1762.96
1006.304	1754.37
1006.598	1743.08
1006.892	1728.39
1007.186	1702.85
1007.48	1721.16
1007.773	1691.78
1008.067	1689.29
1008.361	1673.47
1008.655	1657.88
1008.948	1669.18
1009.242	1648.61
1009.535	1644.55
1009.829	1625.56
1010.122	1610.65
1010.415	1604.32
1010.708	1621.5
1011.001	1603.64
1011.295	1578.11
1011.588	1574.72
1011.881	1541.72
1012.173	1562.29
1012.466	1556.19
1012.759	1545.34
1013.052	1562.52
1013.344	1524.55
1013.637	1534.27
1013.93	1520.03
1014.222	1500.37
1014.514	1470.54
1014.807	1467.6
1015.099	1481.39
1015.391	1471.67
1015.683	1459.69
1015.976	1442.29
1016.268	1436.87
1016.56	1442.07
1016.851	1408.62
1017.143	1409.53
1017.435	1407.49
1017.727	1412.69
1018.018	1423.31
1018.31	1375.63
1018.602	1390.09
1018.893	1361.62
1019.185	1371.11
1019.476	1346.93
1019.767	1315.97
1020.058	1349.64
1020.35	1325.46
1020.641	1289.98
1020.932	1300.15
1021.223	1278.91
1021.514	1287.49
1021.804	1295.4
1022.095	1263.77
1022.386	1265.12
1022.677	1276.2
1022.967	1232.35
1023.258	1247.95
1023.548	1264.22
1023.839	1208.17
1024.129	1219.7
1024.419	1213.15
1024.709	1212.69
1025	1231.45
1025.29	1206.37
1025.58	1183.54
1025.87	1149.42
1026.16	1150.55
1026.449	1152.13
1026.739	1150.77
1027.029	1154.84
1027.319	1138.12
1027.608	1128.85
1027.898	1117.78
1028.187	1115.52
1028.477	1109.19
1028.766	1115.07
1029.055	1101.51
1029.344	1096.54
1029.634	1104.45
1029.923	1073.94
1030.212	1054.96
1030.501	1061.74
1030.79	1061.06
1031.078	1058.8
1031.367	1028.52
1031.656	1056.99
1031.945	1015.64
1032.233	1004.34
1032.522	1014.28
1032.81	1019.7
1033.099	1023.09
1033.387	984
1033.675	977.9
1033.963	986.71
1034.251	961.63
1034.54	1000.95
1034.828	949.65
1035.116	929.54
1035.403	928.63
1035.691	970.21
1035.979	949.2
1036.267	949.88
1036.554	914.62
1036.842	918.46
1037.129	935.19
1037.417	893.61
1037.704	933.38
1037.992	901.52
1038.279	892.25
1038.566	872.82
1038.853	872.82
1039.14	872.82
