Data from hue_210_FLMS001491_00089.txt Node
Date: Tue Feb 07 16:41:53 GMT 2017
User: dcchb
Spectrometer: FLMS00149
Trigger mode: 0
Integration Time (sec): 2.000000E-2
Scans to average: 10
Electric dark correction enabled: true
Nonlinearity correction enabled: false
Boxcar width: 0
XAxis mode: Wavelengths
Number of Pixels in Spectrum: 2048
>>>>>Begin Spectral Data<<<<<
341.393	-12.32
341.776	-12.32
342.16	-12.32
342.543	-46.67
342.927	-79.88
343.31	-77.85
343.693	-66.78
344.077	-84.18
344.46	-57.51
344.843	-70.85
345.226	-44.18
345.61	-24.29
345.993	-3.73
346.376	-9.6
346.759	20.45
347.142	16.16
347.525	23.84
347.908	90.28
348.291	67
348.674	101.81
349.057	119.43
349.44	113.1
349.823	149.49
350.206	187.9
350.588	203.27
350.971	222.93
351.354	211.18
351.737	212.31
352.119	258.86
352.502	264.74
352.884	274.46
353.267	297.51
353.65	298.64
354.032	281.01
354.414	306.77
354.797	296.38
355.179	300.22
355.562	309.26
355.944	311.52
356.326	329.82
356.709	353.32
357.091	339.31
357.473	333.89
357.855	335.92
358.238	338.41
358.62	341.57
359.002	333.89
359.384	326.21
359.766	319.88
360.148	330.5
360.53	341.12
360.912	339.77
361.294	330.27
361.676	351.52
362.057	321.91
362.439	308.58
362.821	325.75
363.203	336.38
363.584	315.81
363.966	307.68
364.348	321.23
364.729	318.52
365.111	317.17
365.493	321.23
365.874	347.22
366.256	304.51
366.637	312.87
367.019	327.79
367.4	322.59
367.781	298.86
368.163	312.42
368.544	325.3
368.925	317.39
369.306	343.15
369.688	326.21
370.069	307.45
370.45	328.92
370.831	302.03
371.212	308.35
371.593	331.86
371.974	325.08
372.355	302.03
372.736	295.47
373.117	320.1
373.498	318.3
373.879	315.58
374.26	322.14
374.641	311.52
375.021	297.28
375.402	324.62
375.783	296.6
376.163	329.6
376.544	309.71
376.925	316.94
377.305	313.33
377.686	323.72
378.066	332.31
378.447	337.28
378.827	331.18
379.208	332.08
379.588	335.92
379.968	332.53
380.349	322.36
380.729	350.39
381.109	339.77
381.489	345.41
381.87	332.76
382.25	340.67
382.63	344.28
383.01	357.17
383.39	353.78
383.77	326.66
384.15	349.03
384.53	348.35
384.91	347.22
385.29	358.52
385.67	363.04
386.049	363.04
386.429	381.57
386.809	344.51
387.189	365.53
387.568	330.73
387.948	364.4
388.328	365.3
388.707	338.86
389.087	352.65
389.466	369.37
389.846	377.5
390.225	366.21
390.605	378.86
390.984	355.13
391.363	374.34
391.743	389.71
392.122	372.53
392.501	387
392.881	386.54
393.26	398.97
393.639	392.87
394.018	392.19
394.397	377.05
394.776	382.02
395.155	396.03
395.534	405.75
395.913	398.07
396.292	423.6
396.671	389.48
397.05	413.21
397.429	401.01
397.808	403.27
398.186	398.97
398.565	413.21
398.944	410.05
399.323	407.11
399.701	429.48
400.08	421.8
400.458	425.19
400.837	424.96
401.215	430.84
401.594	422.47
401.972	434.9
402.351	426.09
402.729	434.23
403.107	456.6
403.486	426.54
403.864	442.81
404.242	444.17
404.62	451.63
404.999	465.19
405.377	454.11
405.755	443.49
406.133	474.45
406.511	463.15
406.889	478.74
407.267	488.69
407.645	494.11
408.023	491.85
408.401	505.86
408.779	485.52
409.156	499.08
409.534	500.89
409.912	528.01
410.29	543.38
410.667	546.31
411.045	550.61
411.422	588.12
411.8	543.83
412.178	563.26
412.555	564.84
412.933	578.4
413.31	600.55
413.687	600.78
414.065	627.89
414.442	609.14
414.819	612.07
415.197	643.71
415.574	627.67
415.951	676.03
416.328	658.63
416.705	658.17
417.082	676.71
417.46	694.33
417.837	681.23
418.214	706.08
418.591	699.3
418.967	714.44
419.344	751.73
419.721	724.61
420.098	767.78
420.475	775.23
420.852	769.58
421.228	772.75
421.605	793.54
421.982	784.95
422.358	808
422.735	833.99
423.111	849.36
423.488	861.11
423.864	890.49
424.241	877.15
424.617	894.55
424.994	915.12
425.37	907.43
425.746	947.43
426.123	981.78
426.499	956.02
426.875	973.19
427.251	991.95
427.627	976.36
428.003	1017.94
428.379	1033.76
428.756	1070.82
429.132	1054.32
429.507	1078.5
429.883	1085.51
430.259	1130.03
430.635	1092.51
431.011	1110.37
431.387	1163.7
431.763	1185.84
432.138	1187.43
432.514	1199.4
432.89	1211.83
433.265	1240.53
433.641	1259.74
434.016	1253.87
434.392	1288.44
434.767	1326.41
435.143	1368.21
435.518	1351.26
435.894	1385.84
436.269	1415.67
436.644	1447.98
437.02	1473.52
437.395	1457.93
437.77	1479.4
438.145	1536.12
438.52	1567.3
438.895	1551.71
439.271	1573.4
439.646	1636
440.021	1626.96
440.395	1668.54
440.77	1643.01
441.145	1646.4
441.52	1716
441.895	1737.24
442.27	1774.08
442.645	1751.93
443.019	1777.92
443.394	1787.18
443.769	1820.63
444.143	1814.53
444.518	1855.88
444.892	1870.8
445.267	1888.42
445.641	1908.09
446.016	1887.3
446.39	1932.49
446.764	1953.51
447.139	1947.63
447.513	1974.52
447.887	2002.77
448.262	2015.65
448.636	1964.13
449.01	2047.74
449.384	2040.29
449.758	2069.66
450.132	2112.37
450.506	2111.02
450.88	2115.99
451.254	2131.13
451.628	2123.9
452.002	2164.58
452.376	2196.21
452.75	2202.09
453.123	2257.68
453.497	2260.17
453.871	2277.79
454.244	2310.79
454.618	2345.14
454.992	2351.01
455.365	2365.02
455.739	2425.36
456.112	2438.47
456.486	2450.9
456.859	2440.27
457.232	2533.61
457.606	2510.1
457.979	2529.99
458.352	2612.02
458.725	2624.9
459.099	2664.22
459.472	2708.97
459.845	2719.82
460.218	2738.8
460.591	2759.36
460.964	2748.52
461.337	2810.89
461.71	2882.52
462.083	2878
462.456	2939.47
462.829	2926.59
463.201	2978.57
463.574	2985.35
463.947	3021.28
464.32	3109.86
464.692	3110.09
465.065	3131.78
465.438	3159.58
465.81	3231.21
466.183	3220.59
466.555	3321.83
466.928	3297.2
467.3	3294.94
467.672	3344.43
468.045	3474.37
468.417	3499.68
468.789	3488.61
469.161	3578.1
469.534	3607.02
469.906	3650.86
470.278	3670.3
470.65	3702.39
471.022	3788.71
471.394	3827.13
471.766	3880.01
472.138	3926.11
472.51	3987.13
472.882	4066.45
473.253	4100.57
473.625	4131.08
473.997	4182.15
474.369	4204.52
474.74	4263.05
475.112	4383.73
475.484	4412.88
475.855	4519.32
476.227	4515.7
476.598	4607
476.97	4663.95
477.341	4728.8
477.713	4819.2
478.084	4832.08
478.455	4946.42
478.827	4955.01
479.198	5107.32
479.569	5117.72
479.94	5211.28
480.311	5231.16
480.682	5399.29
481.053	5479.52
481.424	5548.44
481.795	5586.18
482.166	5665.95
482.537	5726.06
482.908	5842.22
483.279	5877.47
483.65	5963.35
484.021	6094.87
484.391	6122.89
484.762	6148.88
485.133	6254.86
485.503	6295.77
485.874	6425.48
486.244	6473.62
486.615	6599.94
486.985	6639.26
487.356	6748.86
487.726	6768.75
488.097	6874.96
488.467	6925.58
488.837	7007.84
489.207	7151.79
489.578	7180.49
489.948	7261.62
490.318	7328.51
490.688	7386.59
491.058	7456.87
491.428	7520.82
491.798	7594.49
492.168	7695.28
492.538	7793.81
492.908	7852.34
493.278	7954.25
493.648	7908.83
494.017	8050.97
494.387	8097.53
494.757	8124.19
495.126	8245.32
495.496	8203.74
495.866	8242.38
496.235	8331.87
496.605	8380.91
496.974	8460.91
497.344	8513.56
497.713	8524.18
498.082	8544.3
498.452	8594.24
498.821	8664.29
499.19	8631.75
499.559	8802.82
499.928	8791.75
500.298	8827.23
500.667	8859.99
501.036	8851.63
501.405	8875.81
501.774	8889.14
502.143	8984.06
502.512	8982.48
502.88	9118.29
503.249	9076.48
503.618	9030.84
503.987	9100.66
504.356	9108.8
504.724	9188.12
505.093	9174.34
505.462	9228.34
505.83	9294.33
506.199	9245.75
506.567	9380.43
506.936	9402.35
507.304	9483.93
507.672	9453.2
508.041	9514.89
508.409	9524.16
508.777	9606.41
509.145	9675.11
509.514	9623.14
509.882	9630.37
510.25	9609.35
510.618	9707.43
510.986	9782
511.354	9687.77
511.722	9809.12
512.09	9827.65
512.458	9726.64
512.826	9856.58
513.193	9868.33
513.561	9877.59
513.929	9848.44
514.297	9918.95
514.664	10017.25
515.032	9895.45
515.4	10033.3
515.767	9975.44
516.135	10095.67
516.502	9939.74
516.869	10118.72
517.237	10153.29
517.604	9989.91
517.972	10126.85
518.339	10155.1
518.706	10086.85
519.073	10151.94
519.44	10111.71
519.808	10155.33
520.175	10137.7
520.542	10332.5
520.909	10266.51
521.276	10169.79
521.643	10296.34
522.009	10319.84
522.376	10345.15
522.743	10311.71
523.11	10369.11
523.477	10445.04
523.843	10453.85
524.21	10413.4
524.577	10475.32
524.943	10506.05
525.31	10480.97
525.676	10456.79
526.043	10494.75
526.409	10486.62
526.776	10642.77
527.142	10544.24
527.508	10528.2
527.874	10590.79
528.241	10677.12
528.607	10567.74
528.973	10652.94
529.339	10600.96
529.705	10613.62
530.071	10686.39
530.437	10632.15
530.803	10684.13
531.169	10749.66
531.535	10562.55
531.901	10594.86
532.267	10680.06
532.632	10629.89
532.998	10678.48
533.364	10678.48
533.73	10647.06
534.095	10635.77
534.461	10635.09
534.826	10645.03
535.192	10584.92
535.557	10537.69
535.923	10466.73
536.288	10559.38
536.653	10584.47
537.019	10477.8
537.384	10408.65
537.749	10465.15
538.114	10487.97
538.479	10447.75
538.845	10456.79
539.21	10395.32
539.575	10391.7
539.94	10331.82
540.305	10316.23
540.67	10233.52
541.034	10347.41
541.399	10325.49
541.764	10219.51
542.129	10259.05
542.494	10252.5
542.858	10132.5
543.223	10202.1
543.587	10145.16
543.952	10085.95
544.316	10079.62
544.681	10053.86
545.045	10026.74
545.41	10076.01
545.774	10113.29
546.138	10007.31
546.503	9924.15
546.867	9958.5
547.231	10001.21
547.595	9969.12
547.959	9924.6
548.324	9910.81
548.688	9852.96
549.052	9812.06
549.416	9820.19
549.779	9802.79
550.143	9770.48
550.507	9751.95
550.871	9699.52
551.235	9660.42
551.599	9664.27
551.962	9663.59
552.326	9672.18
552.689	9605.74
553.053	9588.11
553.417	9576.36
553.78	9640.31
554.143	9516.7
554.507	9575.91
554.87	9601.89
555.234	9610.93
555.597	9488.9
555.96	9458.4
556.323	9427.21
556.686	9507.21
557.05	9523.93
557.413	9479.86
557.776	9520.77
558.139	9539.75
558.502	9528.9
558.865	9453.2
559.228	9497.49
559.59	9500.43
559.953	9439.19
560.316	9552.86
560.679	9491.16
561.041	9574.55
561.404	9497.72
561.767	9484.84
562.129	9474.67
562.492	9487.77
562.854	9477.38
563.217	9494.33
563.579	9512.86
563.941	9503.82
564.304	9549.01
564.666	9595.57
565.028	9595.34
565.39	9500.2
565.753	9569.58
566.115	9562.8
566.477	9555.79
566.839	9570.71
567.201	9616.36
567.563	9627.88
567.925	9659.07
568.287	9623.59
568.648	9658.39
569.01	9710.82
569.372	9655.45
569.734	9673.08
570.095	9716.47
570.457	9748.11
570.819	9725.28
571.18	9662.91
571.542	9756.01
571.903	9781.78
572.265	9741.78
572.626	9756.24
572.987	9800.31
573.349	9814.54
573.71	9817.48
574.071	9876.92
574.432	9938.38
574.794	9953.98
575.155	9928.67
575.516	9847.31
575.877	9892.51
576.238	9923.02
576.599	9955.78
576.96	9938.16
577.32	10016.35
577.681	9981.09
578.042	10065.61
578.403	10005.27
578.763	10034.43
579.124	10062.9
579.485	10052.5
579.845	10113.75
580.206	10047.08
580.566	10046.18
580.927	10066.74
581.287	10083.92
581.648	10091.83
582.008	10129.79
582.368	10211.82
582.728	10234.42
583.089	10108.1
583.449	10080.98
583.809	10128.21
584.169	10189.9
584.529	10215.44
584.889	10199.62
585.249	10153.29
585.609	10183.35
585.969	10256.57
586.329	10228.32
586.688	10245.72
587.048	10268.77
587.408	10208.88
587.768	10203.91
588.127	10229
588.487	10174.76
588.846	10251.59
589.206	10231.03
589.565	10212.27
589.925	10267.64
590.284	10270.58
590.643	10221.99
591.003	10290.01
591.362	10283.46
591.721	10276
592.08	10243.46
592.44	10265.83
592.799	10301.76
593.158	10260.63
593.517	10267.87
593.876	10302.21
594.235	10361.87
594.593	10313.06
594.952	10364.13
595.311	10300.86
595.67	10357.13
596.029	10395.32
596.387	10390.12
596.746	10403.23
597.104	10328.2
597.463	10354.64
597.822	10345.38
598.18	10387.86
598.538	10323.68
598.897	10381.08
599.255	10333.17
599.613	10396.9
599.972	10325.27
600.33	10419.73
600.688	10365.94
601.046	10364.13
601.404	10379.73
601.762	10384.47
602.12	10404.81
602.478	10426.51
602.836	10399.84
603.194	10371.82
603.552	10464.24
603.91	10348.77
604.268	10420.86
604.625	10378.15
604.983	10409.56
605.341	10359.39
605.698	10481.19
606.056	10501.08
606.413	10372.5
606.771	10511.93
607.128	10444.58
607.485	10484.81
607.843	10456.56
608.2	10484.13
608.557	10495.88
608.914	10492.49
609.272	10553.28
609.629	10589.67
609.986	10630.79
610.343	10578.59
610.7	10629.89
611.057	10603.68
611.414	10650.91
611.771	10576.56
612.127	10661.3
612.484	10606.16
612.841	10615.2
613.198	10627.63
613.554	10587.86
613.911	10674.41
614.267	10701.3
614.624	10618.14
614.98	10615.88
615.337	10725.48
615.693	10695.2
616.05	10716.89
616.406	10739.04
616.762	10770.68
617.118	10673.73
617.475	10653.62
617.831	10735.2
618.187	10721.64
618.543	10746.05
618.899	10737.46
619.255	10825.14
619.611	10740.17
619.967	10736.33
620.323	10779.94
620.678	10782.88
621.034	10744.92
621.39	10736.78
621.746	10713.96
622.101	10817.46
622.457	10722.09
622.812	10723.67
623.168	10751.69
623.523	10727.74
623.879	10854.29
624.234	10822.88
624.589	10761.41
624.945	10737.68
625.3	10795.76
625.655	10739.94
626.01	10741.07
626.365	10786.5
626.72	10774.07
627.075	10669.21
627.43	10686.39
627.785	10728.19
628.14	10704.92
628.495	10747.18
628.85	10706.27
629.205	10728.19
629.559	10806.83
629.914	10685.26
630.269	10684.35
630.623	10650.45
630.978	10649.55
631.332	10711.92
631.687	10646.16
632.041	10586.28
632.396	10701.07
632.75	10612.26
633.104	10587.41
633.459	10587.18
633.813	10559.61
634.167	10518.03
634.521	10578.14
634.875	10533.17
635.229	10546.5
635.583	10537.46
635.937	10478.48
636.291	10451.59
636.645	10488.2
636.999	10494.98
637.352	10423.34
637.706	10378.37
638.06	10410.23
638.413	10392.61
638.767	10431.48
639.121	10432.38
639.474	10331.37
639.828	10318.03
640.181	10383.12
640.534	10399.39
640.888	10313.74
641.241	10222.22
641.594	10275.32
641.947	10319.62
642.301	10235.32
642.654	10334.98
643.007	10288.2
643.36	10307.64
643.713	10225.38
644.066	10243.91
644.419	10219.96
644.771	10172.73
645.124	10057.48
645.477	10088.89
645.83	10067.87
646.182	9995.33
646.535	9895.67
646.888	9924.37
647.24	9859.51
647.593	9856.13
647.945	9936.12
648.298	9818.84
648.65	9835.11
649.002	9881.89
649.355	9930.02
649.707	9873.75
650.059	9959.63
650.411	10082.56
650.763	10062.45
651.115	10123.24
651.467	10150.58
651.819	10162.11
652.171	10135.89
652.523	10045.27
652.875	10131.6
653.227	10023.35
653.578	10137.25
653.93	10098.6
654.282	10054.76
654.633	9997.36
654.985	10028.55
655.337	10069.68
655.688	10114.2
656.039	10168.43
656.391	10052.5
656.742	10022.9
657.094	10065.39
657.445	10067.87
657.796	10090.7
658.147	10020.41
658.498	10015.89
658.849	10018.83
659.2	10101.32
659.551	10093.18
659.902	10127.3
660.253	10061.32
660.604	10060.64
660.955	10024.71
661.306	10136.57
661.656	10058.61
662.007	10097.25
662.358	10101.32
662.708	10110.58
663.059	10087.98
663.409	10063.8
663.76	10121.65
664.11	10155.78
664.461	10110.58
664.811	10126.4
665.161	10109.23
665.511	10073.07
665.862	10090.02
666.212	10098.83
666.562	10137.7
666.912	10125.5
667.262	10111.03
667.612	10125.95
667.962	10156.91
668.312	10122.78
668.662	10210.92
669.011	10097.7
669.361	10059.74
669.711	10073.75
670.06	10057.25
670.41	10068.1
670.76	10057.48
671.109	10044.14
671.459	10103.12
671.808	10007.99
672.157	10026.74
672.507	10031.71
672.856	9908.1
673.205	10015.22
673.554	10034.43
673.904	10043.24
674.253	10061.77
674.602	10034.88
674.951	9819.06
675.3	9872.4
675.649	10001.88
675.998	9898.61
676.346	10016.57
676.695	9980.87
677.044	9831.94
677.393	9969.79
677.741	9961.66
678.09	9863.13
678.438	9881.89
678.787	9859.29
679.135	9861.77
679.484	9858.16
679.832	9895.22
680.181	9854.32
680.529	9841.21
680.877	9800.31
681.225	9793.75
681.573	9871.94
681.922	9791.49
682.27	9785.62
682.618	9731.38
682.966	9706.07
683.314	9671.72
683.661	9699.74
684.009	9706.07
684.357	9564.83
684.705	9620.88
685.053	9529.13
685.4	9575.68
685.748	9541.11
686.095	9491.16
686.443	9454.55
686.79	9419.53
687.138	9401.22
687.485	9388.57
687.832	9397.61
688.18	9466.3
688.527	9387.89
688.874	9331.39
689.221	9286.65
689.568	9315.35
689.915	9293.43
690.262	9267.67
690.609	9215.24
690.956	9191.28
691.303	9185.41
691.65	9079.2
691.997	9131.4
692.344	9092.08
692.69	8984.51
693.037	9029.03
693.383	8978.63
693.73	8999.2
694.077	8951.74
694.423	8972.53
694.769	8910.61
695.116	8817.51
695.462	8829.49
695.808	8808.92
696.155	8870.61
696.501	8714.23
696.847	8687.57
697.193	8658.64
697.539	8705.87
697.885	8596.95
698.231	8585.88
698.577	8574.8
698.923	8536.84
699.269	8487.57
699.614	8454.81
699.96	8445.77
700.306	8477.86
700.651	8355.37
700.997	8381.81
701.342	8308.37
701.688	8304.53
702.033	8290.74
702.379	8225.43
702.724	8252.1
703.069	8197.19
703.415	8141.82
703.76	8098.21
704.105	8106.57
704.45	8063.86
704.795	8029.73
705.14	8005.1
705.485	8101.82
705.83	7981.82
706.175	8032.9
706.52	7939.79
706.865	7891.2
707.209	7886.69
707.554	7930.07
707.899	7883.97
708.243	7822.73
708.588	7804.88
708.932	7760.81
709.277	7698.67
709.621	7706.35
709.966	7677.88
710.31	7730.98
710.654	7599.01
710.998	7651.44
711.342	7669.29
711.687	7606.01
712.031	7539.58
712.375	7557.65
712.719	7605.56
713.063	7586.81
713.407	7545.68
713.75	7483.53
714.094	7504.32
714.438	7448.28
714.782	7536.41
715.125	7490.76
715.469	7438.56
715.812	7406.7
716.156	7342.74
716.499	7361.5
716.843	7415.74
717.186	7369.86
717.53	7354.72
717.873	7367.83
718.216	7334.38
718.559	7291.45
718.902	7269.3
719.246	7271.56
719.589	7218.68
719.932	7240.6
720.275	7245.57
720.617	7229.08
720.96	7245.35
721.303	7196.31
721.646	7260.71
721.989	7202.41
722.331	7245.57
722.674	7136.2
723.016	7206.03
723.359	7136.65
723.701	7188.4
724.044	7118.34
724.386	7105.91
724.729	7127.61
725.071	7126.71
725.413	7122.64
725.755	7068.18
726.097	7132.13
726.439	7015.52
726.782	7043.09
727.124	7091
727.465	7079.47
727.807	7077.22
728.149	7064.33
728.491	6976.43
728.833	7058.01
729.175	7044.45
729.516	7027.27
729.858	7034.05
730.199	7057.33
730.541	6988.4
730.882	7036.76
731.224	7030.21
731.565	6990.66
731.906	6992.92
732.248	6956.54
732.589	6911.34
732.93	6991.12
733.271	7037.44
733.612	6992.47
733.953	7044.45
734.294	6986.82
734.635	6987.5
734.976	7056.42
735.317	6981.85
735.658	6996.99
735.999	6968.52
736.339	7001.28
736.68	7035.86
737.021	6962.42
737.361	6945.02
737.702	7031.11
738.042	6991.12
738.383	7046.26
738.723	7019.14
739.063	7078.8
739.404	7052.13
739.744	7017.78
740.084	6978.23
740.424	7127.16
740.764	7033.15
741.104	7074.5
741.444	7105.91
741.784	7016.88
742.124	7048.06
742.464	7128.74
742.804	7134.39
743.143	7147.95
743.483	7181.17
743.823	7189.08
744.162	7177.78
744.502	7219.58
744.841	7253.93
745.181	7306.81
745.52	7310.88
745.86	7413.25
746.199	7320.82
746.538	7364.44
746.877	7406.47
747.216	7506.36
747.556	7564.43
747.895	7570.99
748.234	7571.89
748.573	7653.7
748.911	7675.84
749.25	7730.53
749.589	7697.31
749.928	7835.61
750.267	7902.28
750.605	7966.91
750.944	8052.78
751.283	8045.55
751.621	8152.22
751.96	8272.89
752.298	8306.11
752.636	8417.74
752.975	8433.79
753.313	8551.98
753.651	8720.34
753.989	8752.65
754.327	8831.97
754.666	8959.65
755.004	9016.6
755.342	9182.24
755.679	9299.76
756.017	9385.4
756.355	9580.43
756.693	9608
757.031	9849.57
757.368	9941.32
757.706	10003.92
758.044	10156.46
758.381	10330.91
758.719	10371.37
759.056	10601.87
759.394	10721.19
759.731	10812.71
760.068	11092.02
760.405	11160.05
760.743	11334.05
761.08	11526.36
761.417	11619.02
761.754	11850.87
762.091	12005.9
762.428	12153.47
762.765	12282.73
763.102	12498.09
763.438	12627.13
763.775	12725.2
764.112	12946.67
764.449	13141.46
764.785	13250.16
765.122	13348.91
765.458	13440.21
765.795	13712.75
766.131	13892.18
766.467	13910.03
766.804	14126.07
767.14	14196.12
767.476	14485.38
767.812	14425.5
768.148	14729.44
768.485	14758.14
768.821	14872.26
769.157	15033.16
769.492	15205.14
769.828	15393.83
770.164	15382.99
770.5	15581.62
770.836	15648.52
771.171	15705.91
771.507	15775.74
771.842	15867.72
772.178	16019.8
772.513	16203.98
772.849	16275.84
773.184	16225.9
773.519	16353.13
773.855	16402.17
774.19	16401.72
774.525	16552.22
774.86	16702.5
775.195	16695.95
775.53	16767.13
775.865	16749.28
776.2	16790.86
776.535	16816.39
776.87	16913.11
777.205	16993.56
777.539	17043.73
777.874	17077.18
778.209	17101.36
778.543	17161.02
778.878	17074.69
779.212	17116.05
779.547	17244.63
779.881	17291.18
780.215	17212.77
780.55	17334.8
780.884	17298.19
781.218	17347.23
781.552	17447.79
781.886	17268.13
782.22	17330.05
782.554	17319.43
782.888	17165.99
783.222	17270.85
783.556	17244.41
783.889	17198.3
784.223	17216.16
784.557	17227
784.89	17394.46
785.224	17259.77
785.557	17200.79
785.891	17245.99
786.224	17250.51
786.558	17225.65
786.891	17084.41
787.224	17123.28
787.557	17138.19
787.891	17054.81
788.224	17223.39
788.557	17148.36
788.89	17193.79
789.223	17230.17
789.556	17062.72
789.888	17135.48
790.221	17071.3
790.554	16939.78
790.887	17078.53
791.219	16989.72
791.552	16843.51
791.884	16957.18
792.217	16862.95
792.549	16950.4
792.882	16796.51
793.214	16770.52
793.546	16801.25
793.879	16657.3
794.211	16641.26
794.543	16723.52
794.875	16606
795.207	16695.49
795.539	16667.02
795.871	16617.76
796.203	16542.28
796.535	16468.38
796.867	16485.33
797.198	16428.61
797.53	16383.19
797.862	16317.42
798.193	16329.18
798.525	16273.36
798.856	16378.89
799.188	16194.26
799.519	16122.4
799.85	16018.45
800.182	16083.08
800.513	16156.3
800.844	15949.07
801.175	16018.22
801.506	16076.07
801.837	15973.93
802.168	15989.07
802.499	15843.31
802.83	15835.63
803.161	15810.77
803.491	15761.96
803.822	15838.11
804.153	15718.12
804.483	15610.32
804.814	15678.12
805.145	15594.51
805.475	15457.33
805.805	15505.24
806.136	15528.74
806.466	15462.53
806.796	15484.45
807.126	15365.81
807.457	15322.65
807.787	15350.22
808.117	15253.72
808.447	15367.17
808.777	15311.12
809.107	15230
809.436	15241.07
809.766	15171.24
810.096	15127.85
810.426	15133.5
810.755	15197.45
811.085	15094.18
811.414	15060.06
811.744	14865.94
812.073	14861.64
812.403	14919.72
812.732	14880.4
813.061	14843.34
813.39	14776.9
813.719	14785.94
814.049	14838.14
814.378	14763.34
814.707	14758.82
815.036	14607.19
815.365	14667.75
815.693	14527.41
816.022	14503.91
816.351	14453.74
816.68	14454.87
817.008	14560.41
817.337	14422.78
817.665	14334.2
817.994	14401.99
818.322	14372.39
818.651	14315.44
818.979	14285.61
819.307	14357.02
819.636	14307.31
819.964	14210.36
820.292	14363.35
820.62	14230.25
820.948	14178.72
821.276	14257.14
821.604	14140.31
821.932	14299.85
822.259	14297.59
822.587	14186.63
822.915	14155.67
823.243	14170.36
823.57	14119.74
823.898	14213.75
824.225	14142.11
824.553	14150.93
824.88	14164.26
825.207	14177.59
825.535	14239.51
825.862	14328.55
826.189	14187.54
826.516	14239.29
826.843	14256.91
827.17	14196.58
827.497	14290.36
827.824	14257.14
828.151	14302.56
828.478	14219.85
828.805	14287.19
829.131	14172.4
829.458	14272.05
829.785	14187.99
830.111	14216.24
830.438	14228.67
830.764	14333.3
831.09	14287.87
831.417	14129.23
831.743	14198.16
832.069	14179.85
832.395	14122
832.722	14200.42
833.048	14188.44
833.374	14141.66
833.7	14120.19
834.026	14119.74
834.351	14279.96
834.677	14129.46
835.003	14132.85
835.329	14206.07
835.654	14097.82
835.98	13982.34
836.306	14162
836.631	14010.37
836.956	14079.52
837.282	14034.09
837.607	13972.63
837.932	13969.24
838.258	13896.02
838.583	13896.7
838.908	13876.36
839.233	13922.46
839.558	13851.05
839.883	13795.91
840.208	13807.21
840.533	13792.97
840.858	13744.16
841.182	13785.51
841.507	13792.74
841.832	13724.72
842.156	13683.37
842.481	13632.52
842.805	13690.6
843.13	13606.53
843.454	13576.03
843.778	13505.07
844.103	13570.38
844.427	13401.34
844.751	13405.18
845.075	13350.72
845.399	13427.33
845.723	13274.79
846.047	13284.96
846.371	13238.86
846.695	13207.45
847.019	13124.74
847.343	13009.04
847.666	12933.33
847.99	12967.23
848.313	12981.92
848.637	12839.78
848.96	12850.85
849.284	12824.63
849.607	12644.07
849.931	12705.54
850.254	12574.25
850.577	12600.46
850.9	12442.95
851.223	12443.18
851.546	12344.87
851.869	12336.96
852.192	12344.2
852.515	12255.84
852.838	12249.96
853.161	12201.15
853.483	12183.3
853.806	12068.04
854.129	12017.65
854.451	11988.72
854.774	11965.22
855.096	11928.61
855.419	11888.16
855.741	11936.52
856.063	11760.03
856.385	11715.96
856.708	11770.65
857.03	11600.03
857.352	11698.34
857.674	11591.9
857.996	11605.23
858.318	11556.87
858.64	11582.86
858.961	11550.32
859.283	11450.66
859.605	11411.79
859.926	11490.66
860.248	11398.01
860.57	11355.07
860.891	11322.98
861.212	11298.8
861.534	11239.37
861.855	11244.79
862.176	11214.73
862.498	11300.83
862.819	11258.35
863.14	11168.18
863.461	11192.14
863.782	11151.46
864.103	11104.91
864.424	11033.5
864.745	11088.86
865.065	11007.06
865.386	11019.03
865.707	10997.34
866.027	10951.01
866.348	10949.88
866.668	11017.45
866.989	10983.78
867.309	10864.69
867.63	10861.52
867.95	10907.4
868.27	10774.29
868.59	10783.56
868.91	10761.41
869.23	10803.9
869.55	10720.28
869.87	10785.37
870.19	10726.61
870.51	10734.52
870.83	10753.95
871.15	10712.6
871.469	10722.54
871.789	10755.31
872.109	10668.99
872.428	10555.77
872.748	10626.95
873.067	10571.59
873.386	10642.09
873.706	10556.45
874.025	10573.17
874.344	10571.36
874.663	10495.66
874.982	10468.54
875.301	10544.02
875.62	10445.71
875.939	10480.74
876.258	10476.9
876.577	10364.13
876.896	10344.7
877.214	10367.3
877.533	10325.94
877.852	10363
878.17	10300.86
878.489	10295.21
878.807	10371.82
879.125	10271.26
879.444	10233.97
879.762	10190.13
880.08	10139.28
880.398	10167.08
880.716	10153.97
881.034	10178.15
881.352	10171.37
881.67	10120.3
881.988	10094.54
882.306	10095.89
882.624	10074.2
882.941	9979.51
883.259	9979.29
883.577	9950.36
883.894	9947.87
884.212	9933.19
884.529	9948.1
884.846	9878.95
885.164	9781.1
885.481	9825.84
885.798	9872.17
886.115	9739.29
886.432	9769.12
886.75	9745.85
887.067	9708.78
887.383	9712.4
887.7	9767.09
888.017	9698.39
888.334	9709.91
888.651	9649.8
888.967	9572.29
889.284	9549.24
889.6	9523.93
889.917	9453.2
890.233	9449.36
890.55	9464.72
890.866	9451.16
891.182	9430.83
891.498	9421.79
891.815	9346.08
892.131	9313.54
892.447	9269.25
892.763	9295.69
893.079	9210.94
893.395	9153.09
893.71	9172.53
894.026	9118.29
894.342	9135.47
894.657	9038.52
894.973	9059.76
895.289	9037.84
895.604	9081.23
895.92	8946.77
896.235	8928.01
896.55	8907.22
896.865	8948.35
897.181	8906.55
897.496	8865.87
897.811	8798.75
898.126	8820.67
898.441	8704.97
898.756	8709.71
899.071	8678.08
899.386	8627
899.7	8578.19
900.015	8534.58
900.33	8487.12
900.644	8449.83
900.959	8497.52
901.273	8448.7
901.588	8384.3
901.902	8348.14
902.216	8398.08
902.531	8333.23
902.845	8281.03
903.159	8298.65
903.473	8209.16
903.787	8172.78
904.101	8133.46
904.415	8116.28
904.729	8143.18
905.042	8082.16
905.356	8030.18
905.67	8029.28
905.984	7998.32
906.297	7970.75
906.611	7887.82
906.924	7892.11
907.237	7843.75
907.551	7761.26
907.864	7823.64
908.177	7769.85
908.491	7781.6
908.804	7698.67
909.117	7627.94
909.43	7561.5
909.743	7572.57
910.056	7596.75
910.368	7567.15
910.681	7488.5
910.994	7467.71
911.307	7464.55
911.619	7400.37
911.932	7386.81
912.244	7273.82
912.557	7293.48
912.869	7294.16
913.181	7245.8
913.494	7181.85
913.806	7232.01
914.118	7157.89
914.43	7170.09
914.742	7088.51
915.054	7147.72
915.366	7079.7
915.678	7041.51
915.99	6984.79
916.302	6973.49
916.613	6884.45
916.925	6968.97
917.236	6898.69
917.548	6873.15
917.859	6864.79
918.171	6789.99
918.482	6822.98
918.794	6716.32
919.105	6713.16
919.416	6666.38
919.727	6683.78
920.038	6717.68
920.349	6635.42
920.66	6519.94
920.971	6563.78
921.282	6584.8
921.593	6524.91
921.903	6452.6
922.214	6441.98
922.525	6421.19
922.835	6430.9
923.146	6399.04
923.456	6334.64
923.767	6323.11
924.077	6310.68
924.387	6262.55
924.697	6260.97
925.008	6213.96
925.318	6206.05
925.628	6169.22
925.938	6117.92
926.248	6081.08
926.558	6064.59
926.867	6044.25
927.177	6044.02
927.487	6033.63
927.796	5979.84
928.106	6006.28
928.416	5910.01
928.725	5943.46
929.034	5897.36
929.344	5863.24
929.653	5883.8
929.962	5778.94
930.271	5783.69
930.581	5750.24
930.89	5739.4
931.199	5700.53
931.508	5661.66
931.817	5712.05
932.125	5692.62
932.434	5669.57
932.743	5641.32
933.051	5585.73
933.36	5597.93
933.669	5553.41
933.977	5536.69
934.286	5482.68
934.594	5504.38
934.902	5419.41
935.21	5423.93
935.519	5503.47
935.827	5392.06
936.135	5381.44
936.443	5343.25
936.751	5335.11
937.059	5305.74
937.367	5249.47
937.674	5274.32
937.982	5229.35
938.29	5247.43
938.597	5190.71
938.905	5162.69
939.213	5142.35
939.52	5150.49
939.827	5105.29
940.135	5127.44
940.442	5047.44
940.749	5079.08
941.056	5039.53
941.363	5022.13
941.67	5002.24
941.977	4932.41
942.284	4945.07
942.591	4903.71
942.898	4863.71
943.205	4863.94
943.511	4863.71
943.818	4855.8
944.125	4852.19
944.431	4827.78
944.738	4794.11
945.044	4769.48
945.35	4746.2
945.657	4733.32
945.963	4709.82
946.269	4655.81
946.575	4684.74
946.881	4592.08
947.187	4642.25
947.493	4625.98
947.799	4542.14
948.105	4559.99
948.41	4500.33
948.716	4497.17
949.022	4462.14
949.327	4492.2
949.633	4466.44
949.938	4468.02
950.244	4437.28
950.549	4405.65
950.854	4386.44
951.16	4334.24
951.465	4398.87
951.77	4322.71
952.075	4318.42
952.38	4313.9
952.685	4259.89
952.99	4249.04
953.294	4255.59
953.599	4215.37
953.904	4201.13
954.209	4141.47
954.513	4192.32
954.818	4152.77
955.122	4143.73
955.426	4090.63
955.731	4077.97
956.035	4040.68
956.339	4040.23
956.643	4040.23
956.948	4005.66
957.252	4019.22
957.556	4039.55
957.86	4003.17
958.163	3954.36
958.467	3948.03
958.771	3911.87
959.075	3949.84
959.378	3863.06
959.682	3886.34
959.985	3852.67
960.289	3823.97
960.592	3863.06
960.896	3806.79
961.199	3771.31
961.502	3752.78
961.805	3801.14
962.108	3736.51
962.411	3743.97
962.714	3744.2
963.017	3705.1
963.32	3720.47
963.623	3694.25
963.926	3659.45
964.228	3603.41
964.531	3594.37
964.833	3608.38
965.136	3558.66
965.438	3560.25
965.741	3556.18
966.043	3542.62
966.345	3518.44
966.648	3531.32
966.95	3526.12
967.252	3492.22
967.554	3417.2
967.856	3452.9
968.158	3437.76
968.46	3407.71
968.761	3426.01
969.063	3366.58
969.365	3377.2
969.666	3360.7
969.968	3339.69
970.269	3350.31
970.571	3347.37
970.872	3319.8
971.174	3257.88
971.475	3285.9
971.776	3294.49
972.077	3263.08
972.378	3240.48
972.679	3224.21
972.98	3221.5
973.281	3217.2
973.582	3188.5
973.883	3165.68
974.183	3140.14
974.484	3160.26
974.785	3133.82
975.085	3163.87
975.386	3111.22
975.686	3091.33
975.986	3055.63
976.287	3096.75
976.587	3010.88
976.887	3020.37
977.187	2985.57
977.487	3002.52
977.787	2982.41
978.087	2987.61
978.387	2955.97
978.687	2971.56
978.987	2942.18
979.286	2944.44
979.586	2911.22
979.885	2878
980.185	2899.92
980.484	2882.98
980.784	2860.38
981.083	2851.79
981.382	2820.6
981.682	2835.97
981.981	2798.46
982.28	2791
982.579	2814.28
982.878	2778.35
983.177	2712.36
983.475	2744.9
983.774	2762.98
984.073	2711.68
984.372	2739.02
984.67	2710.78
984.969	2668.52
985.267	2673.49
985.566	2624.45
985.864	2628.97
986.162	2656.54
986.461	2612.47
986.759	2606.82
987.057	2605.47
987.355	2581.29
987.653	2552.14
987.951	2535.64
988.249	2559.14
988.547	2559.14
988.844	2540.84
989.142	2499.48
989.44	2511.46
989.737	2493.61
990.035	2511.91
990.332	2475.53
990.63	2468.52
990.927	2461.52
991.224	2398.92
991.521	2435.53
991.819	2403.67
992.116	2409.54
992.413	2420.16
992.71	2374.06
993.006	2376.32
993.303	2343.55
993.6	2395.53
993.897	2351.24
994.193	2339.49
994.49	2314.4
994.787	2318.7
995.083	2275.99
995.379	2280.05
995.676	2257.23
995.972	2274.63
996.268	2249.77
996.565	2266.95
996.861	2215.87
997.157	2206.83
997.453	2202.77
997.749	2185.59
998.044	2189.89
998.34	2166.84
998.636	2160.73
998.932	2158.25
999.227	2135.42
999.523	2121.41
999.818	2104.24
1000.114	2112.83
1000.409	2101.98
1000.704	2096.78
1001	2125.03
1001.295	2053.84
1001.59	2054.07
1001.885	2025.82
1002.18	2069.66
1002.475	2012.72
1002.77	2014.07
1003.065	1993.51
1003.359	1988.31
1003.654	2004.13
1003.949	1976.56
1004.243	1977.46
1004.538	1941.53
1004.832	1941.98
1005.127	1937.69
1005.421	1930.46
1005.715	1902.66
1006.009	1904.24
1006.304	1870.57
1006.598	1870.35
1006.892	1864.92
1007.186	1847.07
1007.48	1851.36
1007.773	1830.8
1008.067	1815.43
1008.361	1828.99
1008.655	1803.46
1008.948	1806.85
1009.242	1788.54
1009.535	1770.69
1009.829	1766.39
1010.122	1703.12
1010.415	1734.08
1010.708	1736.56
1011.001	1687.07
1011.295	1688.88
1011.588	1701.31
1011.881	1681.65
1012.173	1675.55
1012.466	1658.83
1012.759	1647.75
1013.052	1650.92
1013.344	1622.22
1013.637	1650.69
1013.93	1621.31
1014.222	1635.1
1014.514	1625.38
1014.807	1605.27
1015.099	1608.43
1015.391	1577.92
1015.683	1603.46
1015.976	1549.68
1016.268	1529.34
1016.56	1530.47
1016.851	1530.92
1017.143	1541.32
1017.435	1524.37
1017.727	1504.25
1018.018	1486.63
1018.31	1466.29
1018.602	1458.83
1018.893	1454.09
1019.185	1450.92
1019.476	1445.72
1019.767	1440.98
1020.058	1406.86
1020.35	1394.2
1020.641	1410.02
1020.932	1406.18
1021.223	1383.35
1021.514	1356.01
1021.804	1341.09
1022.095	1386.74
1022.386	1346.97
1022.677	1363.92
1022.967	1362.11
1023.258	1329.12
1023.548	1334.54
1023.839	1311.49
1024.129	1322.56
1024.419	1313.07
1024.709	1301.55
1025	1278.5
1025.29	1272.85
1025.58	1263.81
1025.87	1269.23
1026.16	1229.01
1026.449	1226.97
1026.739	1246.18
1027.029	1209.35
1027.319	1250.02
1027.608	1204.6
1027.898	1209.35
1028.187	1187.43
1028.477	1199.86
1028.766	1175.68
1029.055	1166.41
1029.344	1185.84
1029.634	1160.53
1029.923	1149.91
1030.212	1153.08
1030.501	1142.46
1030.79	1126.64
1031.078	1149.91
1031.367	1113.53
1031.656	1120.08
1031.945	1122.12
1032.233	1095
1032.522	1095.68
1032.81	1076.92
1033.099	1084.83
1033.387	1068.79
1033.675	1075.34
1033.963	1053.19
1034.251	1061.78
1034.54	1057.94
1034.828	1015.45
1035.116	1022.68
1035.403	1030.82
1035.691	1037.83
1035.979	1003.25
1036.267	1020.88
1036.554	977.04
1036.842	985.85
1037.129	962.57
1037.417	966.87
1037.704	982.69
1037.992	959.41
1038.279	972.52
1038.566	923.48
1038.853	923.48
1039.14	923.48
