Data from hue_50_FLMS001491_77.txt Node
Date: Mon Feb 06 15:10:58 GMT 2017
User: dcchb
Spectrometer: FLMS00149
Trigger mode: 0
Integration Time (sec): 2.000000E-2
Scans to average: 10
Electric dark correction enabled: true
Nonlinearity correction enabled: false
Boxcar width: 0
XAxis mode: Wavelengths
Number of Pixels in Spectrum: 2048
>>>>>Begin Spectral Data<<<<<
341.393	-22.64
341.776	-22.64
342.16	-22.64
342.543	-62.41
342.927	-69.19
343.31	-79.36
343.693	-72.58
344.077	-94.28
344.46	-56.09
344.843	-41.17
345.226	-26.93
345.61	-31.45
345.993	-3.88
346.376	-1.4
346.759	2.22
347.142	17.81
347.525	42.22
347.908	68.88
348.291	77.02
348.674	95.1
349.057	103.91
349.44	119.5
349.823	142.1
350.206	164.7
350.588	197.47
350.971	219.84
351.354	213.74
351.737	238.6
352.119	238.14
352.502	256.67
352.884	276.11
353.267	286.5
353.65	276.33
354.032	298.25
354.414	305.03
354.797	321.31
355.179	309.55
355.562	310.23
355.944	346.16
356.326	344.81
356.709	336.9
357.091	324.69
357.473	351.13
357.855	319.27
358.238	335.54
358.62	349.33
359.002	346.16
359.384	350.91
359.766	356.11
360.148	336.9
360.53	352.49
360.912	335.99
361.294	336.45
361.676	317.46
362.057	327.18
362.439	328.31
362.821	329.21
363.203	314.07
363.584	327.41
363.966	318.59
364.348	309.78
364.729	317.01
365.111	320.63
365.493	306.39
365.874	321.08
366.256	327.86
366.637	312.04
367.019	334.19
367.4	326.73
367.781	303
368.163	315.66
368.544	319.95
368.925	320.4
369.306	328.54
369.688	334.64
370.069	296.9
370.45	299.61
370.831	332.38
371.212	327.86
371.593	310.68
371.974	315.66
372.355	301.42
372.736	330.34
373.117	306.62
373.498	314.98
373.879	297.8
374.26	331.47
374.641	319.72
375.021	315.88
375.402	302.55
375.783	318.59
376.163	316.56
376.544	321.53
376.925	327.86
377.305	307.75
377.686	328.54
378.066	322.21
378.447	317.46
378.827	339.16
379.208	330.57
379.588	321.76
379.968	326.28
380.349	325.6
380.729	332.15
381.109	314.07
381.489	340.97
381.87	320.18
382.25	337.8
382.63	334.19
383.01	333.06
383.39	344.13
383.77	344.58
384.15	333.06
384.53	356.56
384.91	329.67
385.29	341.19
385.67	341.19
386.049	331.7
386.429	344.81
386.809	338.48
387.189	344.81
387.568	349.78
387.948	333.96
388.328	355.2
388.707	346.84
389.087	345.49
389.466	358.59
389.846	338.71
390.225	349.78
390.605	337.12
390.984	369.89
391.363	352.94
391.743	354.98
392.122	385.71
392.501	365.37
392.881	375.99
393.26	356.33
393.639	346.84
394.018	363.56
394.397	349.78
394.776	350.91
395.155	374.86
395.534	367.18
395.913	385.26
396.292	386.16
396.671	364.47
397.05	370.57
397.429	368.76
397.808	395.43
398.186	357.24
398.565	399.5
398.944	397.69
399.323	390.23
399.701	368.54
400.08	398.59
400.458	397.01
400.837	385.03
401.215	419.38
401.594	404.24
401.972	400.17
402.351	384.58
402.729	377.8
403.107	402.43
403.486	403.34
403.864	392.26
404.242	391.59
404.62	408.31
404.999	397.01
405.377	389.55
405.755	431.13
406.133	399.04
406.511	408.99
406.889	402.88
407.267	412.83
407.645	403.79
408.023	436.1
408.401	406.05
408.779	425.03
409.156	427.07
409.534	421.42
409.912	425.03
410.29	432.49
410.667	414.64
411.045	446.95
411.422	436.78
411.8	434.3
412.178	452.6
412.555	452.6
412.933	456.22
413.31	434.3
413.687	451.47
414.065	457.35
414.442	450.12
414.819	489.21
415.197	473.17
415.574	479.04
415.951	475.88
416.328	470
416.705	466.61
417.082	484.24
417.46	455.31
417.837	461.64
418.214	473.84
418.591	479.27
418.967	500.96
419.344	478.59
419.721	510.68
420.098	504.35
420.475	489.44
420.852	492.83
421.228	508.87
421.605	507.06
421.982	506.16
422.358	509.77
422.735	482.43
423.111	514.75
423.488	521.75
423.864	510.9
424.241	513.84
424.617	529.89
424.994	531.02
425.37	529.21
425.746	523.33
426.123	530.79
426.499	558.36
426.875	550.23
427.251	533.05
427.627	546.38
428.003	567.17
428.379	565.82
428.756	561.98
429.132	572.6
429.507	580.51
429.883	580.96
430.259	587.06
430.635	572.37
431.011	561.3
431.387	608.08
431.763	611.02
432.138	609.89
432.514	599.49
432.89	603.11
433.265	615.99
433.641	607.63
434.016	623.67
434.392	621.41
434.767	620.96
435.143	630
435.518	642.43
435.894	652.14
436.269	646.27
436.644	627.29
437.02	669.77
437.395	670
437.77	670.67
438.145	676.78
438.52	661.41
438.895	666.83
439.271	689.21
439.646	677
440.021	724.01
440.395	711.35
440.77	688.08
441.145	707.28
441.52	723.1
441.895	720.16
442.27	721.75
442.645	707.06
443.019	730.33
443.394	729.2
443.769	738.47
444.143	752.25
444.518	724.68
444.892	745.7
445.267	745.93
445.641	745.25
446.016	735.98
446.39	734.85
446.764	760.39
447.139	774.17
447.513	772.82
447.887	773.72
448.262	775.98
448.636	772.59
449.01	775.98
449.384	792.03
449.758	787.96
450.132	787.06
450.506	807.39
450.88	801.74
451.254	830.22
451.628	817.56
452.002	831.57
452.376	847.39
452.75	825.92
453.123	829.09
453.497	844.46
453.871	859.6
454.244	881.74
454.618	883.1
454.992	889.43
455.365	864.57
455.739	879.26
456.112	911.57
456.486	899.59
456.859	913.83
457.232	926.26
457.606	945.47
457.979	948.86
458.352	957.67
458.725	960.16
459.099	953.15
459.472	982.98
459.845	993.83
460.218	1027.95
460.591	1017.11
460.964	1004.23
461.337	1034.05
461.71	1044.45
462.083	1061.17
462.456	1076.09
462.829	1040.38
463.201	1083.09
463.574	1124.22
463.947	1141.17
464.32	1147.72
464.692	1125.35
465.065	1140.72
465.438	1166.93
465.81	1190.89
466.183	1218.91
466.555	1243.77
466.928	1260.04
467.3	1244.67
467.672	1290.09
468.045	1283.09
468.417	1293.48
468.789	1295.29
469.161	1349.75
469.534	1375.29
469.906	1406.47
470.278	1407.15
470.65	1439.69
471.022	1488.05
471.394	1501.84
471.766	1528.05
472.138	1540.48
472.51	1556.75
472.882	1624.32
473.253	1647.15
473.625	1679.01
473.997	1722.17
474.369	1708.16
474.74	1783.64
475.112	1807.59
475.484	1873.13
475.855	1911.77
476.227	1936.4
476.598	1998.78
476.97	2037.87
477.341	2126.46
477.713	2157.42
478.084	2185.89
478.455	2271.76
478.827	2308.6
479.198	2394.02
479.569	2444.19
479.94	2509.27
480.311	2611.64
480.682	2620
481.053	2731.41
481.424	2831.75
481.795	2896.6
482.166	2967.11
482.537	3050.5
482.908	3153.77
483.279	3215.47
483.65	3323.03
484.021	3401
484.391	3549.92
484.762	3606.87
485.133	3710.82
485.503	3814.55
485.874	3911.49
486.244	4002.56
486.615	4102.9
486.985	4222.22
487.356	4357.36
487.726	4468.09
488.097	4631.02
488.467	4642.55
488.837	4822.2
489.207	4947.17
489.578	5048.64
489.948	5246.15
490.318	5314.62
490.688	5433.71
491.058	5540.38
491.428	5705.12
491.798	5813.36
492.168	6016.75
492.538	6092.68
492.908	6233.69
493.278	6352.33
493.648	6451.31
494.017	6626
494.387	6753.23
494.757	6883.62
495.126	7048.36
495.496	7148.02
495.866	7237.96
496.235	7421.68
496.605	7568.35
496.974	7694.22
497.344	7863.71
497.713	7902.57
498.082	8040.65
498.452	8267.08
498.821	8336.24
499.19	8420.3
499.559	8587.98
499.928	8694.64
500.298	8799.5
500.667	8963.79
501.036	9041.3
501.405	9195.2
501.774	9224.57
502.143	9381.63
502.512	9478.8
502.88	9601.97
503.249	9672.92
503.618	9855.07
503.987	9925.35
504.356	10105.23
504.724	10164.44
505.093	10339.12
505.462	10410.31
505.83	10494.14
506.199	10655.95
506.567	10806
506.936	10898.65
507.304	11060.23
507.672	11093.68
508.041	11194.01
508.409	11351.3
508.777	11490.73
509.145	11585.42
509.514	11678.29
509.882	11735.92
510.25	11807.33
510.618	11976.14
510.986	12022.01
511.354	12240.54
511.722	12339.07
512.09	12451.61
512.458	12495.9
512.826	12656.35
513.193	12722.33
513.561	12784.93
513.929	12924.36
514.297	13137.01
514.664	13124.13
515.032	13201.19
515.4	13370
515.767	13468.08
516.135	13638.02
516.502	13570.45
516.869	13819.71
517.237	13892.7
517.604	13834.17
517.972	14048.4
518.339	14119.13
518.706	14233.03
519.073	14358.68
519.44	14381.05
519.808	14557.99
520.175	14606.58
520.542	14807.03
520.909	14906.91
521.276	14920.02
521.643	15136.28
522.009	15262.61
522.376	15296.73
522.743	15411.08
523.11	15650.17
523.477	15745.08
523.843	15816.72
524.21	16061
524.577	16102.13
524.943	16248.8
525.31	16318.17
525.676	16419.41
526.043	16540.77
526.409	16679.97
526.776	16694.66
527.142	16875.45
527.508	16929.23
527.874	17126.51
528.241	17243.8
528.607	17289.45
528.973	17437.92
529.339	17547.07
529.705	17645.6
530.071	17775.99
530.437	17851.69
530.803	17959.49
531.169	18131.91
531.535	18071.12
531.901	18214.17
532.267	18259.59
532.632	18394.73
532.998	18379.36
533.364	18661.84
533.73	18630.65
534.095	18747.26
534.461	18794.04
534.826	18858.9
535.192	19025.45
535.557	19167.36
535.923	19095.95
536.288	19314.48
536.653	19334.36
537.019	19346.12
537.384	19505.66
537.749	19528.71
538.114	19575.71
538.479	19644.41
538.845	19705.2
539.21	19756.73
539.575	19890.51
539.94	19853.9
540.305	20133.21
540.67	20130.73
541.034	20167.56
541.399	20214.79
541.764	20284.4
542.129	20441.23
542.494	20408.46
542.858	20524.84
543.223	20521.9
543.587	20735.01
543.952	20726.19
544.316	20690.94
544.681	20817.49
545.045	20984.72
545.41	21026.07
545.774	21115.56
546.138	21108.78
546.503	21259.74
546.867	21233.75
547.231	21350.36
547.595	21365.27
547.959	21424.71
548.324	21543.57
548.688	21621.08
549.052	21713.06
549.416	21683
549.779	21732.95
550.143	21808.2
550.507	21939.27
550.871	22051.13
551.235	22010.68
551.599	22338.81
551.962	22235.76
552.326	22359.82
552.689	22451.34
553.053	22323.21
553.417	22436.88
553.78	22877.55
554.143	22756.87
554.507	22756.2
554.87	22897.89
555.234	23150.99
555.597	23002.74
555.96	23190.76
556.323	23126.58
556.686	23257.88
557.05	23416.07
557.413	23461.94
557.776	23535.16
558.139	23705.55
558.502	23674.14
558.865	23888.37
559.228	24079.55
559.59	24078.65
559.953	24149.83
560.316	24272.31
560.679	24253.56
561.041	24463.5
561.404	24420.56
561.767	24644.06
562.129	24571.51
562.492	24971.96
562.854	24955.91
563.217	25044.04
563.579	25114.78
563.941	25176.02
564.304	25294.43
564.666	25494.88
565.028	25514.32
565.39	25618.49
565.753	25655.78
566.115	25797.7
566.477	25967.64
566.839	26082.44
567.201	26238.82
567.563	26252.6
567.925	26360.39
568.287	26425.93
568.648	26421.64
569.01	26674.28
569.372	26840.61
569.734	26750.67
570.095	26895.3
570.457	27049.42
570.819	27153.82
571.18	27153.14
571.542	27396.53
571.903	27330.99
572.265	27514.04
572.626	27591.32
572.987	27712.68
573.349	27703.41
573.71	27857.53
574.071	27949.73
574.432	27983.4
574.794	28282.38
575.155	28239.44
575.516	28236.96
575.877	28377.74
576.238	28450.51
576.599	28620.45
576.96	28612.99
577.32	28751.29
577.681	28838.3
578.042	28917.84
578.403	29055.69
578.763	29087.78
579.124	29179.76
579.485	29466.98
579.845	29423.59
580.206	29518.73
580.566	29460.2
580.927	29548.11
581.287	29892.73
581.648	29852.51
582.008	30018.15
582.368	30073.74
582.728	30134.98
583.089	30263.34
583.449	30184.7
583.809	30362.78
584.169	30531.36
584.529	30487.29
584.889	30890.9
585.249	30731.35
585.609	30830.56
585.969	31125.47
586.329	31034.17
586.688	31239.59
587.048	31200.04
587.408	31251.34
587.768	31391.9
588.127	31537.89
588.487	31506.7
588.846	31925.9
589.206	31590.99
589.565	31809.52
589.925	31911.21
590.284	32041.15
590.643	32028.72
591.003	32356.62
591.362	32367.02
591.721	32484.3
592.08	32654.24
592.44	32695.6
592.799	32857.85
593.158	32800.45
593.517	32940.56
593.876	33132.42
594.235	33065.53
594.593	33258.52
594.952	33400.44
595.311	33343.26
595.67	33467.78
596.029	33650.6
596.387	33837.94
596.746	33914.09
597.104	33736.02
597.463	33914.32
597.822	34044.71
598.18	34090.59
598.538	34093.75
598.897	34277.47
599.255	34118.61
599.613	34643.79
599.972	34503.01
600.33	34643.34
600.688	34570.35
601.046	34819.83
601.404	34933.5
601.762	34991.13
602.12	35184.57
602.478	35195.87
602.836	35281.06
603.194	35254.17
603.552	35314.06
603.91	35275.41
604.268	35416.43
604.625	35455.75
604.983	35661.62
605.341	35567.16
605.698	35651.68
606.056	35936.64
606.413	35922.85
606.771	35935.06
607.128	36178.67
607.485	35967.6
607.843	36121.27
608.2	36314.71
608.557	36513.35
608.914	36302.51
609.272	36525.78
609.629	36621.59
609.986	36836.73
610.343	36750.18
610.7	37010.96
611.057	37022.94
611.414	36935.03
611.771	37149.26
612.127	37261.12
612.484	37192.2
612.841	37394.68
613.198	37278.53
613.554	37396.94
613.911	37566.43
614.267	37693.2
614.624	37554.9
614.98	37735.91
615.337	38024.49
615.693	38019.97
616.05	37839.64
616.406	38144.04
616.762	38034.44
617.118	38050.26
617.475	38020.2
617.831	38227.43
618.187	38247.54
618.543	38337.03
618.899	38587.19
619.255	38619.28
619.611	38494.99
619.967	38586.74
620.323	38743.12
620.678	38595.78
621.034	38597.81
621.39	38641.43
621.746	38592.16
622.101	38973.4
622.457	38909.67
622.812	38902.21
623.168	38954.19
623.523	39028.76
623.879	39091.36
624.234	38898.82
624.589	39036.9
624.945	38990.34
625.3	39192.37
625.655	39171.13
626.01	39180.4
626.365	39175.2
626.72	39124.13
627.075	39260.85
627.43	39180.85
627.785	39219.49
628.14	39271.92
628.495	39264.24
628.85	39152.83
629.205	39085.71
629.559	39369.54
629.914	39159.83
630.269	39216.55
630.623	39205.03
630.978	39132.94
631.332	39243.22
631.687	39382.42
632.041	39380.17
632.396	39301.3
632.75	39120.28
633.104	39288.87
633.459	39101.98
633.813	39224.69
634.167	39060.4
634.521	39120.51
634.875	39126.84
635.229	39188.53
635.583	38913.06
635.937	39049.33
636.291	38944.92
636.645	38939.05
636.999	38888.2
637.352	39141.3
637.706	38815.66
638.06	39074.64
638.413	38842.1
638.767	38682.78
639.121	38802.33
639.474	38657.02
639.828	38758.03
640.181	38804.81
640.534	38731.37
640.888	38666.29
641.241	38463.81
641.594	38440.3
641.947	38623.57
642.301	38499.06
642.654	38545.84
643.007	38716.68
643.36	38505.39
643.713	38515.56
644.066	38581.32
644.419	38417.93
644.771	38224.04
645.124	37790.15
645.477	37727.55
645.83	37447.56
646.182	37489.82
646.535	37397.62
646.888	37352.2
647.24	37263.61
647.593	37410.95
647.945	37339.54
648.298	37118.53
648.65	37093.9
649.002	37001.92
649.355	37128.25
649.707	37072.43
650.059	37269.26
650.411	37668.12
650.763	37754.67
651.115	37959.41
651.467	37898.85
651.819	38015.23
652.171	37850.71
652.523	37749.7
652.875	37885.97
653.227	37653.2
653.578	37893.42
653.93	37826.76
654.282	37605.97
654.633	37700.89
654.985	37637.39
655.337	37704.73
655.688	37606.43
656.039	37890.71
656.391	37364.85
656.742	37468.58
657.094	37468.35
657.445	37728.68
657.796	37519.42
658.147	37425.41
658.498	37476.94
658.849	37606.43
659.2	37513.55
659.551	37433.55
659.902	37468.8
660.253	37421.12
660.604	37565.3
660.955	37309.94
661.306	37426.09
661.656	37459.99
662.007	37369.82
662.358	37263.84
662.708	37398.97
663.059	37342.7
663.409	37123.28
663.76	37477.84
664.11	37356.94
664.461	37400.78
664.811	37466.54
665.161	37321.69
665.511	37231.97
665.862	37388.13
666.212	37462.7
666.562	37461.12
666.912	37261.12
667.262	37334.34
667.612	37368.47
667.962	37163.27
668.312	37261.8
668.662	37371.18
669.011	37223.16
669.361	37182.03
669.711	37120.79
670.06	37162.6
670.41	37060.45
670.76	37049.6
671.109	37249.37
671.459	37110.85
671.808	36959.89
672.157	37149.04
672.507	36933
672.856	36894.13
673.205	37006.89
673.554	37058.87
673.904	36864.3
674.253	37097.51
674.602	36843.06
674.951	36424.99
675.3	36332.34
675.649	36918.31
675.998	36868.14
676.346	36907.24
676.695	36944.07
677.044	36616.4
677.393	36783.85
677.741	36730.97
678.09	36868.82
678.438	36660.24
678.787	36735.94
679.135	36804.41
679.484	36495.27
679.832	36721.03
680.181	36492.11
680.529	36536.4
680.877	36405.33
681.225	36348.38
681.573	36616.62
681.922	36306.35
682.27	36280.13
682.618	36293.47
682.966	36189.51
683.314	36301.83
683.661	36224.54
684.009	35922.85
684.357	35934.61
684.705	35818.45
685.053	35978.9
685.4	35891.44
685.748	35583.65
686.095	35639.7
686.443	35674.73
686.79	35483.77
687.138	35632.69
687.485	35520.15
687.832	35258.47
688.18	35494.84
688.527	35200.84
688.874	35256.21
689.221	35115.42
689.568	35055.08
689.915	35018.92
690.262	34880.17
690.609	34845.6
690.956	34703.45
691.303	34675.2
691.65	34453.06
691.997	34489.9
692.344	34403.12
692.69	34408.32
693.037	34417.13
693.383	34049.68
693.73	34281.09
694.077	33990.48
694.423	34060.3
694.769	33983.24
695.116	33810.82
695.462	33858.5
695.808	33712.29
696.155	33796.13
696.501	33472.75
696.847	33644.72
697.193	33191.4
697.539	33317.73
697.885	33193.21
698.231	32939.66
698.577	33048.35
698.923	33065.3
699.269	32849.72
699.614	32735.37
699.96	32584.64
700.306	32746.89
700.651	32421.48
700.997	32383.06
701.342	32399.56
701.688	32422.38
702.033	32187.13
702.379	32210.86
702.724	32070.98
703.069	32157.76
703.415	31783.53
703.76	31800.25
704.105	31810.65
704.45	31762.29
704.795	31600.71
705.14	31532.91
705.485	31538.79
705.83	31313.71
706.175	31495.85
706.52	31380.15
706.865	31193.49
707.209	31180.15
707.554	31031.01
707.899	31088.41
708.243	30874.63
708.588	30725.25
708.932	30715.53
709.277	30699.94
709.621	30633.73
709.966	30342.66
710.31	30530.23
710.654	30289.1
710.998	30331.82
711.342	30355.54
711.687	30218.15
712.031	30027.87
712.375	30120.75
712.719	30008.21
713.063	29918.27
713.407	30191.48
713.75	29878.72
714.094	29805.95
714.438	29833.52
714.782	29817.03
715.125	29627.2
715.469	29673.75
715.812	29594.43
716.156	29381.33
716.499	29514.44
716.843	29359.19
717.186	29147.67
717.53	29352.18
717.873	29323.93
718.216	29268.79
718.559	29156.93
718.902	28901.34
719.246	29131.62
719.589	28913.55
719.932	28843.94
720.275	28752.65
720.617	28809.14
720.96	28631.07
721.303	28702.93
721.646	28716.94
721.989	28533.22
722.331	28551.07
722.674	28543.39
723.016	28502.71
723.359	28295.26
723.701	28475.82
724.044	28365.77
724.386	28181.82
724.729	28215.94
725.071	28204.19
725.413	28214.58
725.755	28129.61
726.097	28042.84
726.439	27938.88
726.782	27997.41
727.124	27933.23
727.465	27782.5
727.807	27822.95
728.149	27612.11
728.491	27699.34
728.833	27732.79
729.175	27661.83
729.516	27559.91
729.858	27546.58
730.199	27562.85
730.541	27494.38
730.882	27453.93
731.224	27504.32
731.565	27280.82
731.906	27466.13
732.248	27364.89
732.589	27230.43
732.93	27071.34
733.271	27177.77
733.612	27154.72
733.953	27133.93
734.294	27044.22
734.635	26945.24
734.976	27057.1
735.317	26833.83
735.658	26876.54
735.999	26860.49
736.339	26859.36
736.68	26799.93
737.021	26767.16
737.361	26592.03
737.702	26687.84
738.042	26706.37
738.383	26533.27
738.723	26708.41
739.063	26552.93
739.404	26568.07
739.744	26461.18
740.084	26375.31
740.424	26408.75
740.764	26312.26
741.104	26418.25
741.444	26280.4
741.784	26125.37
742.124	26186.84
742.464	26172.6
742.804	26050.35
743.143	26098.03
743.483	26074.07
743.823	26028.2
744.162	25877.24
744.502	25926.96
744.841	25870.46
745.181	25971.48
745.52	25787.75
745.86	25832.72
746.199	25782.78
746.538	25584.82
746.877	25713.41
747.216	25653.29
747.556	25549.79
747.895	25532.39
748.234	25481.32
748.573	25383.92
748.911	25263.25
749.25	25419.85
749.589	25268.67
749.928	25336.69
750.267	25380.76
750.605	25223.25
750.944	25113.2
751.283	25085.63
751.621	25092.63
751.96	25010.37
752.298	24936.48
752.636	24948.45
752.975	24799.53
753.313	24841.79
753.651	24853.54
753.989	24705.52
754.327	24673.89
754.666	24637.5
755.004	24480.22
755.342	24631.63
755.679	24505.98
756.017	24331.75
756.355	24491.97
756.693	24287.91
757.031	24353.44
757.368	24226.21
757.706	24167.46
758.044	24173.33
758.381	24104.18
758.719	23963.85
759.056	23927.24
759.394	23954.13
759.731	23792.55
760.068	23680.92
760.405	23632.33
760.743	23574.48
761.08	23671.43
761.417	23441.83
761.754	23362.51
762.091	23357.31
762.428	23261.27
762.765	23230.53
763.102	23230.31
763.438	23126.13
763.775	22958.22
764.112	22962.52
764.449	23060.37
764.785	22828.06
765.122	22727.5
765.458	22667.38
765.795	22536.54
766.131	22646.14
766.467	22468.97
766.804	22326.83
767.14	22340.39
767.476	22256.32
767.812	22209.77
768.148	22170.67
768.485	22061.98
768.821	21958.7
769.157	21977.46
769.492	21934.97
769.828	21866.5
770.164	21653.4
770.5	21640.74
770.836	21554.87
771.171	21492.73
771.507	21405.5
771.842	21180.42
772.178	21206.86
772.513	21202.34
772.849	21230.13
773.184	20953.76
773.519	21040.08
773.855	20889.13
774.19	20784.27
774.525	20667.44
774.86	20684.16
775.195	20678.06
775.53	20603.26
775.865	20442.58
776.2	20292.31
776.535	20267.45
776.87	20219.31
777.205	20128.02
777.539	20114.91
777.874	19988.36
778.209	19890.51
778.543	19896.38
778.878	19709.27
779.212	19784.3
779.547	19571.42
779.881	19702.49
780.215	19417.53
780.55	19499.78
780.884	19417.07
781.218	19287.59
781.552	19343.4
781.886	19194.03
782.22	19005.11
782.554	19104.77
782.888	18886.47
783.222	18838.33
783.556	18803.53
783.889	18602.63
784.223	18542.97
784.557	18455.52
784.89	18598.79
785.224	18528.06
785.557	18346.14
785.891	18354.28
786.224	18323.09
786.558	18202.64
786.891	18083.78
787.224	18073.83
787.557	17963.33
787.891	17980.5
788.224	17930.33
788.557	17905.93
788.89	17920.16
789.223	17748.19
789.556	17721.75
789.888	17502.1
790.221	17608.08
790.554	17469.1
790.887	17371.25
791.219	17412.61
791.552	17416
791.884	17237.7
792.217	17274.98
792.549	17058.27
792.882	16958.83
793.214	16880.64
793.546	16900.3
793.879	16822.57
794.211	16723.13
794.543	16750.25
794.875	16684.26
795.207	16732.17
795.539	16654.43
795.871	16584.15
796.203	16427.55
796.535	16313.88
796.867	16355.69
797.198	16308
797.53	16340.54
797.862	16134.45
798.193	16270.72
798.525	16090.38
798.856	16128.8
799.188	15952.98
799.519	15896.49
799.85	15807
800.182	15834.8
800.513	15863.04
800.844	15626.21
801.175	15828.69
801.506	15786.21
801.837	15602.49
802.168	15525.65
802.499	15456.95
802.83	15467.35
803.161	15476.16
803.491	15368.37
803.822	15350.97
804.153	15258.77
804.483	15127.24
804.814	15132.44
805.145	15087.02
805.475	15123.18
805.805	15040.92
806.136	15019.68
806.466	15041.6
806.796	14962.95
807.126	14789.4
807.457	14845.22
807.787	14834.6
808.117	14746.01
808.447	14657.2
808.777	14747.37
809.107	14593.02
809.436	14668.05
809.766	14524.32
810.096	14549.86
810.426	14528.39
810.755	14569.29
811.085	14385.12
811.414	14416.53
811.744	14325
812.073	14244.1
812.403	14267.38
812.732	14232.13
813.061	14239.13
813.39	14052.7
813.719	14039.36
814.049	14143.77
814.378	14047.05
814.707	13993.26
815.036	14012.47
815.365	13956.43
815.693	13767.51
816.022	13787.84
816.351	13801.63
816.68	13650.9
817.008	13781.29
817.337	13621.29
817.665	13503.11
817.994	13619.94
818.322	13598.24
818.651	13535.87
818.979	13524.12
819.307	13577.68
819.636	13496.78
819.964	13361.87
820.292	13400.51
820.62	13454.29
820.948	13353.73
821.276	13315.09
821.604	13310.79
821.932	13363.45
822.259	13338.82
822.587	13352.83
822.915	13371.81
823.243	13341.3
823.57	13292.72
823.898	13295.65
824.225	13248.42
824.553	13277.57
824.88	13276.22
825.207	13284.35
825.535	13288.42
825.862	13306.27
826.189	13240.97
826.516	13245.71
826.843	13341.08
827.17	13309.21
827.497	13320.06
827.824	13356.22
828.151	13336.78
828.478	13187.63
828.805	13288.2
829.131	13236.22
829.458	13195.09
829.785	13221.08
830.111	13149.89
830.438	13240.29
830.764	13232.83
831.09	13285.94
831.417	13227.63
831.743	13218.14
832.069	13135.66
832.395	13090.23
832.722	13120.29
833.048	13193.74
833.374	13165.94
833.7	13095.21
834.026	13148.76
834.351	13190.35
834.677	13125.94
835.003	13183.79
835.329	13005.04
835.654	13079.61
835.98	12969.11
836.306	13041.87
836.631	12962.78
836.956	12993.06
837.282	13031.25
837.607	12879.84
837.932	12932.72
838.258	12884.36
838.583	12879.39
838.908	12842.56
839.233	12800.98
839.558	12849.56
839.883	12776.57
840.208	12692.51
840.533	12803.69
840.858	12712.39
841.182	12680.75
841.507	12689.57
841.832	12664.26
842.156	12567.76
842.481	12632.17
842.805	12555.56
843.13	12490.25
843.454	12537.48
843.778	12491.38
844.103	12440.99
844.427	12375.23
844.751	12503.58
845.075	12327.32
845.399	12330.25
845.723	12264.72
846.047	12268.11
846.371	12242.35
846.695	12078.51
847.019	12042.35
847.343	12067.66
847.666	11893.88
847.99	11878.29
848.313	11917.16
848.637	11806.65
848.96	11804.39
849.284	11730.95
849.607	11584.96
849.931	11624.06
850.254	11560.33
850.577	11478.98
850.9	11405.53
851.223	11490.05
851.546	11346.33
851.869	11312.43
852.192	11326.67
852.515	11166.67
852.838	11269.72
853.161	11204.86
853.483	11142.26
853.806	11118.99
854.129	11120.57
854.451	11078.08
854.774	10997.18
855.096	10924.19
855.419	10947.24
855.741	10833.8
856.063	10856.62
856.385	10850.52
856.708	10771.2
857.03	10739.79
857.352	10730.07
857.674	10660.47
857.996	10630.64
858.318	10643.75
858.64	10652.33
858.961	10517.87
859.283	10540.25
859.605	10450.76
859.926	10498.66
860.248	10467.03
860.57	10437.88
860.891	10450.76
861.212	10380.25
861.534	10260.7
861.855	10307.94
862.176	10351.78
862.498	10404.66
862.819	10246.47
863.14	10250.08
863.461	10287.37
863.782	10191.33
864.103	10128.96
864.424	10148.39
864.745	10176.64
865.065	10117.66
865.386	10074.04
865.707	10062.29
866.027	10078.79
866.348	9992.24
866.668	10079.92
866.989	9939.58
867.309	9950.66
867.63	9950.43
867.95	9925.35
868.27	9847.61
868.59	9853.03
868.91	9950.66
869.23	9884.22
869.55	9824.78
869.87	9981.84
870.19	9834.5
870.51	9820.72
870.83	9798.8
871.15	9700.72
871.469	9794.95
871.789	9822.07
872.109	9785.24
872.428	9674.28
872.748	9684.9
873.067	9634.28
873.386	9777.1
873.706	9676.31
874.025	9625.69
874.344	9588.63
874.663	9627.73
874.982	9548.63
875.301	9609.42
875.62	9500.27
875.939	9564.68
876.258	9547.96
876.577	9559.03
876.896	9514.96
877.214	9483.32
877.533	9536.66
877.852	9483.32
878.17	9493.27
878.489	9428.64
878.807	9382.31
879.125	9436.77
879.444	9379.37
879.762	9356.55
880.08	9353.61
880.398	9274.29
880.716	9349.54
881.034	9310.67
881.352	9310.22
881.67	9236.78
881.988	9213.27
882.306	9255.08
882.624	9245.14
882.941	9210.11
883.259	9152.03
883.577	9110.45
883.894	9158.36
884.212	9057.12
884.529	9056.44
884.846	9001.53
885.164	9045.82
885.481	9034.07
885.798	9035.2
886.115	8921.53
886.432	8998.37
886.75	8923.79
887.067	8928.31
887.383	8880.63
887.7	8891.48
888.017	8800.86
888.334	8874.75
888.651	8832.27
888.967	8788.88
889.284	8738.03
889.6	8706.17
889.917	8609.22
890.233	8639.5
890.55	8572.61
890.866	8711.59
891.182	8619.17
891.498	8539.39
891.815	8583.46
892.131	8508.43
892.447	8530.81
892.763	8440.41
893.079	8349.79
893.395	8423.92
893.71	8363.58
894.026	8434.31
894.342	8365.84
894.657	8306.63
894.973	8318.16
895.289	8229.12
895.604	8262.57
895.92	8169.69
896.235	8204.04
896.55	8100.31
896.865	8213.53
897.181	8136.47
897.496	8144.38
897.811	8085.17
898.126	8037.49
898.441	8030.03
898.756	8014.21
899.071	7941.22
899.386	7955.68
899.7	7880.88
900.015	7869.36
900.33	7786.42
900.644	7816.93
900.959	7791.62
901.273	7785.06
901.588	7732.41
901.902	7667.33
902.216	7621.9
902.531	7664.84
902.845	7608.8
903.159	7551.85
903.473	7542.13
903.787	7523.6
904.101	7457.84
904.415	7461.46
904.729	7415.58
905.042	7385.75
905.356	7428.69
905.67	7422.81
905.984	7394.79
906.297	7315.47
906.611	7245.19
906.924	7308.01
907.237	7183.95
907.551	7189.37
907.864	7158.41
908.177	7145.31
908.491	7076.16
908.804	7042.26
909.117	7012.88
909.43	7038.87
909.743	7037.96
910.056	6980.34
910.368	6929.49
910.681	6927.69
910.994	6891.3
911.307	6892.43
911.619	6825.77
911.932	6816.05
912.244	6744.64
912.557	6768.82
912.869	6723.62
913.181	6699.44
913.494	6697.41
913.806	6581.25
914.118	6649.95
914.43	6568.82
914.742	6588.48
915.054	6607.24
915.366	6553.46
915.678	6487.7
915.99	6492.22
916.302	6420.58
916.613	6331.54
916.925	6366.57
917.236	6310.98
917.548	6322.73
917.859	6340.36
918.171	6279.79
918.482	6241.6
918.794	6204.99
919.105	6216.52
919.416	6157.31
919.727	6131.32
920.038	6077.76
920.349	6037.99
920.66	6042.51
920.971	5991.21
921.282	6003.42
921.593	5892.91
921.903	5953.25
922.214	5948.05
922.525	5880.71
922.835	5889.52
923.146	5817.88
923.456	5882.74
923.767	5822.86
924.077	5777.88
924.387	5744.44
924.697	5763.65
925.008	5747.83
925.318	5699.69
925.628	5650.88
925.938	5641.62
926.248	5606.59
926.558	5574.27
926.867	5596.87
927.177	5506.03
927.487	5500.83
927.796	5472.81
928.106	5425.35
928.416	5463.09
928.725	5398.91
929.034	5398.69
929.344	5419.25
929.653	5352.36
929.962	5308.07
930.271	5285.69
930.581	5301.97
930.89	5253.15
931.199	5265.58
931.508	5251.12
931.817	5191.23
932.125	5189.2
932.434	5184
932.743	5107.39
933.051	5087.51
933.36	5092.71
933.669	5095.64
933.977	5037.57
934.286	5042.08
934.594	5029.43
934.902	4997.34
935.21	4972.93
935.519	4981.97
935.827	4895.87
936.135	4900.85
936.443	4858.36
936.751	4855.88
937.059	4889.32
937.367	4799.38
937.674	4820.17
937.982	4813.39
938.29	4777.23
938.597	4775.65
938.905	4726.84
939.213	4683.22
939.52	4687.74
939.827	4692.94
940.135	4614.3
940.442	4598.48
940.749	4638.93
941.056	4605.71
941.363	4579.72
941.67	4548.76
941.977	4473.29
942.284	4496.34
942.591	4500.18
942.898	4511.48
943.205	4464.02
943.511	4426.96
943.818	4404.81
944.125	4362.33
944.431	4374.31
944.738	4350.35
945.044	4336.34
945.35	4301.77
945.657	4321.2
945.963	4294.76
946.269	4269.68
946.575	4265.38
946.881	4210.47
947.187	4230.81
947.493	4211.82
947.799	4186.74
948.105	4139.96
948.41	4122.79
948.716	4133.41
949.022	4078.49
949.327	4075.78
949.633	4063.58
949.938	4033.3
950.244	4041.66
950.549	4000.98
950.854	4029.91
951.16	3984.03
951.465	3992.17
951.77	3930.25
952.075	3926.63
952.38	3884.15
952.685	3910.14
952.99	3883.47
953.294	3872.85
953.599	3840.31
953.904	3803.47
954.209	3843.47
954.513	3806.86
954.818	3770.93
955.122	3733.42
955.426	3750.59
955.731	3703.14
956.035	3707.2
956.339	3736.36
956.643	3687.32
956.948	3655.45
957.252	3612.07
957.556	3609.81
957.86	3628.79
958.163	3597.6
958.467	3568.23
958.771	3563.03
959.075	3569.36
959.378	3499.53
959.682	3574.55
959.985	3537.72
960.289	3490.94
960.592	3441
960.896	3451.39
961.199	3442.8
961.502	3480.77
961.805	3413.2
962.108	3409.13
962.411	3410.72
962.714	3358.74
963.017	3322.81
963.32	3389.47
963.623	3353.54
963.926	3312.19
964.228	3289.36
964.531	3305.86
964.833	3285.07
965.136	3293.66
965.438	3250.49
965.741	3279.42
966.043	3246.2
966.345	3217.95
966.648	3155.81
966.95	3237.61
967.252	3154.22
967.554	3184.28
967.856	3189.48
968.158	3147.67
968.46	3094.11
968.761	3157.84
969.063	3123.72
969.365	3043.49
969.666	3108.35
969.968	3017.05
970.269	3015.92
970.571	3054.34
970.872	3014.57
971.174	2974.34
971.475	3021.57
971.776	2969.82
972.077	2979.77
972.378	2955.81
972.679	2906.32
972.98	2922.59
973.281	2911.07
973.582	2884.18
973.883	2904.06
974.183	2869.71
974.484	2855.93
974.785	2828.81
975.085	2817.06
975.386	2823.61
975.686	2802.82
975.986	2785.65
976.287	2766.44
976.587	2753.56
976.887	2742.71
977.187	2720.79
977.487	2749.26
977.787	2707.91
978.087	2714.91
978.387	2696.16
978.687	2729.6
978.987	2673.79
979.286	2716.72
979.586	2621.81
979.885	2604.41
980.185	2618.42
980.484	2584.52
980.784	2579.32
981.083	2579.78
981.382	2573.45
981.682	2565.77
981.981	2580.68
982.28	2558.53
982.579	2559.44
982.878	2530.96
983.177	2525.31
983.475	2514.02
983.774	2497.75
984.073	2492.1
984.372	2493.68
984.67	2451.19
984.969	2465.88
985.267	2485.99
985.566	2435.83
985.864	2417.97
986.162	2416.62
986.461	2421.14
986.759	2342.95
987.057	2365.09
987.355	2352.44
987.653	2358.31
987.951	2323.06
988.249	2332.33
988.547	2340.91
988.844	2278.99
989.142	2308.82
989.44	2281.71
989.737	2268.82
990.035	2255.27
990.332	2248.03
990.63	2240.35
990.927	2216.62
991.224	2227.02
991.521	2237.86
991.819	2167.81
992.116	2171.88
992.413	2179.11
992.71	2194.7
993.006	2178.88
993.303	2170.07
993.6	2148.38
993.897	2133.91
994.193	2087.36
994.49	2165.55
994.787	2113.8
995.083	2099.34
995.379	2092.56
995.676	2097.3
995.972	2095.04
996.268	2040.13
996.565	2038.32
996.861	2035.16
997.157	2047.59
997.453	2030.64
997.749	2042.39
998.044	2002.16
998.34	1987.48
998.636	2005.1
998.932	1983.86
999.227	1937.53
999.523	1945.67
999.818	1926.91
1000.114	1919
1000.409	1905.44
1000.704	1918.78
1001	1906.57
1001.295	1917.2
1001.59	1873.81
1001.885	1875.61
1002.18	1844.43
1002.475	1838.55
1002.77	1850.08
1003.065	1825.9
1003.359	1829.97
1003.654	1814.6
1003.949	1824.32
1004.243	1803.53
1004.538	1816.86
1004.832	1755.39
1005.127	1791.55
1005.421	1778.44
1005.715	1748.16
1006.009	1764.88
1006.304	1743.87
1006.598	1711.78
1006.892	1738.89
1007.186	1704.09
1007.48	1702.06
1007.773	1700.48
1008.067	1692.57
1008.361	1625.68
1008.655	1640.37
1008.948	1634.49
1009.242	1633.81
1009.535	1644.43
1009.829	1606.02
1010.122	1622.51
1010.415	1631.1
1010.708	1596.75
1011.001	1569.86
1011.295	1579.13
1011.588	1564.21
1011.881	1556.75
1012.173	1541.39
1012.466	1557.2
1012.759	1537.54
1013.052	1534.83
1013.344	1520.82
1013.637	1526.02
1013.93	1505.91
1014.222	1498.45
1014.514	1473.37
1014.807	1462.74
1015.099	1456.87
1015.391	1471.11
1015.683	1468.17
1015.976	1427.04
1016.268	1455.51
1016.56	1401.28
1016.851	1398.79
1017.143	1399.69
1017.435	1385.68
1017.727	1388.62
1018.018	1398.11
1018.31	1387.27
1018.602	1381.16
1018.893	1338.68
1019.185	1373.48
1019.476	1338.23
1019.767	1326.48
1020.058	1336.42
1020.35	1308.17
1020.641	1326.93
1020.932	1279.47
1021.223	1263.2
1021.514	1291.45
1021.804	1287.38
1022.095	1261.17
1022.386	1272.01
1022.677	1256.42
1022.967	1252.58
1023.258	1199.02
1023.548	1226.59
1023.839	1221.17
1024.129	1207.61
1024.419	1207.16
1024.709	1188.63
1025	1173.71
1025.29	1154.73
1025.58	1184.11
1025.87	1140.49
1026.16	1156.76
1026.449	1138.23
1026.739	1154.73
1027.029	1111.57
1027.319	1102.08
1027.608	1145.69
1027.898	1113.6
1028.187	1093.26
1028.477	1112.24
1028.766	1106.14
1029.055	1093.71
1029.344	1088.97
1029.634	1047.61
1029.923	1072.7
1030.212	1069.31
1030.501	1044.68
1030.79	1057.78
1031.078	1054.62
1031.367	1069.99
1031.656	1029.76
1031.945	1031.57
1032.233	1007.39
1032.522	1012.81
1032.81	997.45
1033.099	978.91
1033.387	980.5
1033.675	978.69
1033.963	973.72
1034.251	971.68
1034.54	977.56
1034.828	952.47
1035.116	984.79
1035.403	963.77
1035.691	940.05
1035.979	945.02
1036.267	934.17
1036.554	913.83
1036.842	937.33
1037.129	924
1037.417	904.34
1037.704	918.13
1037.992	877
1038.279	899.14
1038.566	885.36
1038.853	885.36
1039.14	885.36
