Data from hue_140_FLMS001491_00100.txt Node
Date: Tue Feb 07 16:56:42 GMT 2017
User: dcchb
Spectrometer: FLMS00149
Trigger mode: 0
Integration Time (sec): 2.000000E-2
Scans to average: 10
Electric dark correction enabled: true
Nonlinearity correction enabled: false
Boxcar width: 0
XAxis mode: Wavelengths
Number of Pixels in Spectrum: 2048
>>>>>Begin Spectral Data<<<<<
341.393	-6.3
341.776	-6.3
342.16	-6.3
342.543	-55.79
342.927	-69.8
343.31	-87.88
343.693	-70.25
344.077	-72.74
344.46	-54.89
344.843	-33.19
345.226	-51.27
345.61	-33.64
345.993	-16.02
346.376	-20.31
346.759	9.07
347.142	17.88
347.525	43.64
347.908	58.11
348.291	71.89
348.674	113.47
349.057	126.13
349.44	122.74
349.823	131.32
350.206	155.05
350.588	195.5
350.971	191.21
351.354	225.11
351.737	210.42
352.119	239.8
352.502	264.43
352.884	281.83
353.267	297.65
353.65	287.48
354.032	292.22
354.414	321.6
354.797	304.65
355.179	310.53
355.562	303.07
355.944	330.87
356.326	307.36
356.709	310.08
357.091	332.67
357.473	327.25
357.855	352.11
358.238	318.66
358.62	331.54
359.002	338.78
359.384	330.87
359.766	335.61
360.148	330.64
360.53	320.92
360.912	341.94
361.294	325.67
361.676	326.57
362.057	319.79
362.439	315.27
362.821	316.18
363.203	328.83
363.584	319.57
363.966	333.35
364.348	323.41
364.729	321.6
365.111	292.45
365.493	295.84
365.874	321.15
366.256	303.52
366.637	300.81
367.019	294.26
367.4	308.72
367.781	309.85
368.163	304.88
368.544	315.73
368.925	305.78
369.306	314.37
369.688	313.92
370.069	320.02
370.45	331.54
370.831	310.3
371.212	297.2
371.593	304.88
371.974	311.88
372.355	297.2
372.736	314.37
373.117	311.43
373.498	317.31
373.879	324.31
374.26	317.53
374.641	313.24
375.021	305.33
375.402	331.32
375.783	306.46
376.163	309.4
376.544	322.28
376.925	321.83
377.305	317.99
377.686	314.82
378.066	320.7
378.447	289.74
378.827	311.66
379.208	339.68
379.588	325.44
379.968	337.42
380.349	336.29
380.729	325.22
381.109	334.71
381.489	308.04
381.87	321.38
382.25	321.6
382.63	333.13
383.01	325.22
383.39	327.93
383.77	340.81
384.15	337.87
384.53	331.54
384.91	335.61
385.29	335.16
385.67	347.36
386.049	365.22
386.429	346.23
386.809	342.62
387.189	364.99
387.568	360.02
387.948	348.72
388.328	348.27
388.707	348.49
389.087	367.93
389.466	351.88
389.846	352.11
390.225	347.14
390.605	335.61
390.984	362.05
391.363	363.41
391.743	379.91
392.122	354.14
392.501	369.06
392.881	361.37
393.26	378.32
393.639	360.47
394.018	376.74
394.397	372.9
394.776	355.27
395.155	363.86
395.534	362.05
395.913	377.87
396.292	384.65
396.671	372.67
397.05	384.65
397.429	393.24
397.808	384.88
398.186	393.92
398.565	397.08
398.944	402.5
399.323	369.51
399.701	401.15
400.08	389.4
400.458	390.53
400.837	402.73
401.215	395.27
401.594	388.27
401.972	396.63
402.351	420.13
402.729	416.97
403.107	402.73
403.486	409.06
403.864	393.92
404.242	418.32
404.62	421.49
404.999	418.55
405.377	424.2
405.755	416.06
406.133	413.35
406.511	426.23
406.889	437.08
407.267	459.45
407.645	436.4
408.023	424.65
408.401	431.43
408.779	430.75
409.156	438.89
409.534	416.51
409.912	444.08
410.29	473.69
410.667	462.61
411.045	443.41
411.422	440.69
411.8	464.65
412.178	487.93
412.555	471.88
412.933	461.49
413.31	462.39
413.687	483.41
414.065	478.89
414.442	493.12
414.819	483.18
415.197	462.39
415.574	476.63
415.951	464.65
416.328	486.34
416.705	479.79
417.082	497.64
417.46	483.18
417.837	507.81
418.214	520.69
418.591	510.98
418.967	503.29
419.344	507.13
419.721	524.53
420.098	528.83
420.475	525.66
420.852	549.39
421.228	541.71
421.605	557.3
421.982	544.19
422.358	547.81
422.735	527.25
423.111	530.64
423.488	549.62
423.864	570.86
424.241	558.43
424.617	569.28
424.994	552.56
425.37	574.7
425.746	584.65
426.123	580.58
426.499	574.25
426.875	584.87
427.251	592.78
427.627	590.52
428.003	594.14
428.379	625.55
428.756	613.12
429.132	608.15
429.507	614.7
429.883	611.31
430.259	637.75
430.635	631.88
431.011	635.49
431.387	652.89
431.763	643.85
432.138	667.58
432.514	667.58
432.89	659.45
433.265	668.03
433.641	670.52
434.016	661.48
434.392	694.93
434.767	718.43
435.143	700.57
435.518	714.81
435.894	701.25
436.269	729.95
436.644	717.3
437.02	741.03
437.395	748.71
437.77	741.93
438.145	760.46
438.52	749.39
438.895	781.25
439.271	770.18
439.646	770.18
440.021	784.19
440.395	777.18
440.77	776.05
441.145	775.15
441.52	798.88
441.895	817.18
442.27	821.25
442.645	799.1
443.019	809.27
443.394	794.58
443.769	794.36
444.143	804.3
444.518	836.39
444.892	820.8
445.267	825.54
445.641	833.9
446.016	837.97
446.39	872.1
446.764	883.17
447.139	867.12
447.513	893.56
447.887	866.67
448.262	884.07
448.636	872.77
449.01	910.06
449.384	915.94
449.758	915.03
450.132	911.87
450.506	914.13
450.88	932.43
451.254	893.11
451.628	938.53
452.002	940.57
452.376	953
452.75	969.95
453.123	981.25
453.497	971.98
453.871	981.7
454.244	1006.78
454.618	998.19
454.992	1026.22
455.365	1006.56
455.739	1038.19
456.112	1059.44
456.486	1074.8
456.859	1058.76
457.232	1097.63
457.606	1103.28
457.979	1088.81
458.352	1123.84
458.725	1127.46
459.099	1133.11
459.472	1171.07
459.845	1164.07
460.218	1177.62
460.591	1181.92
460.964	1226.66
461.337	1205.65
461.71	1263.05
462.083	1277.06
462.456	1263.27
462.829	1285.64
463.201	1316.6
463.574	1309.37
463.947	1327.9
464.32	1357.28
464.692	1400.9
465.065	1399.31
465.438	1407
465.81	1443.83
466.183	1429.6
466.555	1486.77
466.928	1522.25
467.3	1503.04
467.672	1537.16
468.045	1572.64
468.417	1585.98
468.789	1582.13
469.161	1623.49
469.534	1644.5
469.906	1697.61
470.278	1697.16
470.65	1717.5
471.022	1744.39
471.394	1815.12
471.766	1848.79
472.138	1886.98
472.51	1910.26
472.882	1956.59
473.253	1982.57
473.625	1994.78
473.997	2075.68
474.369	2114.1
474.74	2121.55
475.112	2193.42
475.484	2254.88
475.855	2304.15
476.227	2371.94
476.598	2418.95
476.97	2468.66
477.341	2563.58
477.713	2576.68
478.084	2654.42
478.455	2746.4
478.827	2747.53
479.198	2890.35
479.569	2913.62
479.94	3041.3
480.311	3058.93
480.682	3215.31
481.053	3292.6
481.424	3377.11
481.795	3438.81
482.166	3495.53
482.537	3588.41
482.908	3694.85
483.279	3799.7
483.65	3906.82
484.021	4029.53
484.391	4136.64
484.762	4200.37
485.133	4328.73
485.503	4406.47
485.874	4528.95
486.244	4649.17
486.615	4763.29
486.985	4869.73
487.356	5046.45
487.726	5130.51
488.097	5294.58
488.467	5354.24
488.837	5551.07
489.207	5638.98
489.578	5823.38
489.948	5928.01
490.318	6005.52
490.688	6138.17
491.058	6252.97
491.428	6431.27
491.798	6561.66
492.168	6723.92
492.538	6826.97
492.908	6910.58
493.278	7046.85
493.648	7192.83
494.017	7350.12
494.387	7466.27
494.757	7568.64
495.126	7698.13
495.496	7747.85
495.866	7974.06
496.235	8064.22
496.605	8202.07
496.974	8329.3
497.344	8379.69
497.713	8543.76
498.082	8581.72
498.452	8764.77
498.821	8902.39
499.19	8936.06
499.559	9105.55
499.928	9213.57
500.298	9297.18
500.667	9414.92
501.036	9367.24
501.405	9541.02
501.774	9630.06
502.143	9683.84
502.512	9839.09
502.88	9939.65
503.249	9999.99
503.618	10072.31
503.987	10164.05
504.356	10220.55
504.724	10373.77
505.093	10338.06
505.462	10465.52
505.83	10538.73
506.199	10663.7
506.567	10765.17
506.936	10829.57
507.304	10852.85
507.672	10906.63
508.041	11034.31
508.409	11031.83
508.777	11155.89
509.145	11203.58
509.514	11258.49
509.882	11364.93
510.25	11342.55
510.618	11433.85
510.986	11512.72
511.354	11539.16
511.722	11686.73
512.09	11770.57
512.458	11661.42
512.826	11893.73
513.193	11878.36
513.561	11975.98
513.929	11997.68
514.297	12041.29
514.664	12127.39
515.032	12061.63
515.4	12229.76
515.767	12237.22
516.135	12236.77
516.502	12178.47
516.869	12343.66
517.237	12389.31
517.604	12379.36
517.972	12462.53
518.339	12486.03
518.706	12561.28
519.073	12564.44
519.44	12590.66
519.808	12695.29
520.175	12698.45
520.542	12775.29
520.909	12809.86
521.276	12693.48
521.643	12865
522.009	12879.01
522.376	12878.33
522.743	12941.83
523.11	12979.12
523.477	12968.95
523.843	13113.58
524.21	13184.77
524.577	13288.27
524.943	13236.74
525.31	13193.35
525.676	13311.77
526.043	13245.56
526.409	13293.46
526.776	13298.66
527.142	13404.87
527.508	13416.17
527.874	13455.04
528.241	13475.83
528.607	13440.13
528.973	13462.27
529.339	13460.24
529.705	13485.32
530.071	13524.42
530.437	13563.74
530.803	13550.63
531.169	13540.92
531.535	13431.09
531.901	13516.73
532.267	13491.42
532.632	13604.19
532.998	13533.68
533.364	13546.11
533.73	13506.79
534.095	13494.36
534.461	13572.55
534.826	13492.78
535.192	13507.47
535.557	13518.77
535.923	13402.39
536.288	13495.04
536.653	13396.51
537.019	13389.73
537.384	13406.23
537.749	13442.16
538.114	13388.6
538.479	13293.01
538.845	13235.39
539.21	13282.84
539.575	13238.55
539.94	13233.35
540.305	13212.34
540.67	13196.29
541.034	13099.34
541.399	13194.94
541.764	13043.75
542.129	13036.3
542.494	13049.63
542.858	13072.9
543.223	13011.44
543.587	12988.39
543.952	12962.17
544.316	12873.36
544.681	12866.58
545.045	12931.89
545.41	12872.01
545.774	12834.27
546.138	12740.48
546.503	12660.49
546.867	12693.48
547.231	12709.52
547.595	12719.69
547.959	12710.2
548.324	12595.18
548.688	12566.03
549.052	12560.6
549.416	12594.5
549.779	12558.34
550.143	12535.29
550.507	12520.38
550.871	12442.19
551.235	12303.21
551.599	12386.14
551.962	12376.88
552.326	12351.79
552.689	12422.75
553.053	12201.06
553.417	12178.01
553.78	12294.39
554.143	12244.68
554.507	12233.15
554.87	12215.3
555.234	12238.35
555.597	12160.84
555.96	12154.06
556.323	12124.68
556.686	12117.45
557.05	12183.89
557.413	12113.61
557.776	12074.96
558.139	12152.7
558.502	12087.62
558.865	12049.65
559.228	12105.02
559.59	12107.51
559.953	12076.55
560.316	12107.73
560.679	12035.19
561.041	12147.73
561.404	12174.62
561.767	12120.61
562.129	12105.02
562.492	12226.83
562.854	12146.38
563.217	12086.72
563.579	12173.95
563.941	12261.85
564.304	12114.96
564.666	12132.82
565.028	12177.56
565.39	12161.97
565.753	12202.42
566.115	12231.35
566.477	12203.55
566.839	12180.72
567.201	12319.25
567.563	12307.73
567.925	12340.49
568.287	12312.25
568.648	12287.39
569.01	12401.06
569.372	12286.03
569.734	12273.38
570.095	12356.31
570.457	12457.1
570.819	12398.12
571.18	12364
571.542	12364.22
571.903	12418.23
572.265	12351.34
572.626	12329.87
572.987	12430.89
573.349	12449.64
573.71	12453.71
574.071	12450.55
574.432	12563.99
574.794	12521.96
575.155	12601.28
575.516	12450.77
575.877	12594.05
576.238	12533.94
576.599	12470.43
576.96	12563.99
577.32	12585.23
577.681	12547.27
578.042	12540.04
578.403	12564.67
578.763	12567.61
579.124	12552.24
579.485	12620.71
579.845	12603.09
580.206	12500.26
580.566	12604.67
580.927	12558.12
581.287	12645.57
581.648	12472.24
582.008	12603.54
582.368	12512.02
582.728	12588.85
583.089	12585.91
583.449	12511.79
583.809	12546.14
584.169	12493.49
584.529	12431.34
584.889	12535.74
585.249	12457.1
585.609	12428.85
585.969	12488.51
586.329	12437.22
586.688	12529.64
587.048	12432.47
587.408	12511.11
587.768	12453.94
588.127	12430.66
588.487	12394.73
588.846	12525.8
589.206	12394.28
589.565	12371
589.925	12349.53
590.284	12509.53
590.643	12486.71
591.003	12498
591.362	12407.84
591.721	12420.49
592.08	12415.07
592.44	12345.69
592.799	12330.78
593.158	12342.3
593.517	12337.33
593.876	12297.56
594.235	12296.43
594.593	12286.48
594.952	12271.57
595.311	12266.37
595.67	12279.93
596.029	12244
596.387	12349.08
596.746	12352.02
597.104	12279.93
597.463	12273.15
597.822	12326.26
598.18	12179.82
598.538	12178.92
598.897	12289.87
599.255	12255.3
599.613	12353.15
599.972	12277.67
600.33	12305.69
600.688	12284.45
601.046	12324.9
601.404	12367.16
601.762	12235.64
602.12	12333.26
602.478	12352.7
602.836	12364.9
603.194	12236.54
603.552	12232.02
603.91	12190.67
604.268	12215.98
604.625	12300.72
604.983	12282.64
605.341	12273.83
605.698	12263.43
606.056	12316.54
606.413	12276.32
606.771	12359.48
607.128	12322.64
607.485	12312.47
607.843	12285.13
608.2	12316.99
608.557	12387.27
608.914	12242.42
609.272	12399.02
609.629	12368.74
609.986	12365.35
610.343	12265.24
610.7	12420.27
611.057	12493.94
611.414	12371.91
611.771	12340.49
612.127	12518.12
612.484	12386.37
612.841	12489.19
613.198	12440.15
613.554	12463.88
613.911	12504.33
614.267	12543.43
614.624	12490.1
614.98	12448.97
615.337	12577.55
615.693	12500.04
616.05	12575.97
616.406	12589.08
616.762	12533.03
617.118	12511.34
617.475	12601.5
617.831	12585.69
618.187	12606.02
618.543	12546.82
618.899	12679.47
619.255	12675.18
619.611	12597.66
619.967	12639.24
620.323	12738
620.678	12648.51
621.034	12605.35
621.39	12619.36
621.746	12577.32
622.101	12659.58
622.457	12635.85
622.812	12620.26
623.168	12613.48
623.523	12648.96
623.879	12703.65
624.234	12562.41
624.589	12651.67
624.945	12640.83
625.3	12697.55
625.655	12597.21
626.01	12615.29
626.365	12653.03
626.72	12666.36
627.075	12578.45
627.43	12622.52
627.785	12520.15
628.14	12674.27
628.495	12609.87
628.85	12629.98
629.205	12585.46
629.559	12588.17
629.914	12553.14
630.269	12566.03
630.623	12597.44
630.978	12502.98
631.332	12592.92
631.687	12575.06
632.041	12531.9
632.396	12544.56
632.75	12441.06
633.104	12532.81
633.459	12385.69
633.813	12445.8
634.167	12410.1
634.521	12422.07
634.875	12386.14
635.229	12404.67
635.583	12347.73
635.937	12313.6
636.291	12338.91
636.645	12409.87
636.999	12331.91
637.352	12421.62
637.706	12188.41
638.06	12298.24
638.413	12274.96
638.767	12208.75
639.121	12236.54
639.474	12131.69
639.828	12218.69
640.181	12175.3
640.534	12221.18
640.888	12092.14
641.241	12072.03
641.594	12112.25
641.947	12193.61
642.301	12161.97
642.654	12165.36
643.007	12155.87
643.36	12130.78
643.713	12062.08
644.066	12145.25
644.419	12062.54
644.771	12081.52
645.124	11904.12
645.477	11820.51
645.83	11808.08
646.182	11738.02
646.535	11726.95
646.888	11710
647.24	11609.89
647.593	11695.77
647.945	11752.94
648.298	11685.82
648.65	11619.84
649.002	11679.27
649.355	11664.58
649.707	11684.24
650.059	11721.98
650.411	11880.39
650.763	11807.63
651.115	12075.87
651.467	11960.84
651.819	11902.09
652.171	11944.8
652.523	11832.71
652.875	11853.73
653.227	11879.94
653.578	11949.77
653.93	11913.39
654.282	11800.17
654.633	11839.49
654.985	11818.02
655.337	11900.51
655.688	11981.86
656.039	11985.48
656.391	11865.25
656.742	11919.94
657.094	11888.76
657.445	11950.9
657.796	11976.21
658.147	11912.03
658.498	11910
658.849	11920.84
659.2	11940.73
659.551	11951.13
659.902	11960.17
660.253	11882.65
660.604	11974.63
660.955	11899.38
661.306	11958.36
661.656	11950.22
662.007	12006.04
662.358	11977.34
662.708	11989.54
663.059	12017.57
663.409	11946.61
663.76	11985.25
664.11	11976.89
664.461	11987.28
664.811	11979.6
665.161	11971.69
665.511	11937.34
665.862	11993.39
666.212	11938.7
666.562	11967.62
666.912	11923.33
667.262	11957.91
667.612	11966.95
667.962	12015.53
668.312	11966.95
668.662	11996.1
669.011	12048.98
669.361	11964.69
669.711	11919.49
670.06	11950.67
670.41	11957.45
670.76	11871.35
671.109	11978.24
671.459	11933.73
671.808	11900.51
672.157	11880.62
672.507	11826.16
672.856	11870.9
673.205	11829.32
673.554	11867.29
673.904	11858.93
674.253	11878.36
674.602	11885.59
674.951	11726.27
675.3	11600.18
675.649	11859.83
675.998	11765.82
676.346	11790.9
676.695	11839.49
677.044	11709.32
677.393	11751.58
677.741	11783.22
678.09	11795.65
678.438	11744.8
678.787	11802.88
679.135	11727.18
679.484	11657.12
679.832	11648.76
680.181	11588.2
680.529	11620.06
680.877	11611.47
681.225	11611.25
681.573	11590.23
681.922	11530.12
682.27	11506.17
682.618	11532.83
682.966	11463.23
683.314	11482.89
683.661	11441.99
684.009	11387.07
684.357	11346.4
684.705	11392.5
685.053	11381.2
685.4	11343.46
685.748	11242.44
686.095	11257.81
686.443	11242.22
686.79	11229.56
687.138	11218.94
687.485	11204.93
687.832	11140.53
688.18	11222.11
688.527	11134.65
688.874	11100.98
689.221	11005.16
689.568	11077.03
689.915	11002.68
690.262	11042.22
690.609	10974.43
690.956	10938.5
691.303	10947.31
691.65	10774.89
691.997	10851.04
692.344	10733.76
692.69	10642.69
693.037	10662.8
693.383	10616.47
693.73	10623.25
694.077	10553.2
694.423	10584.16
694.769	10502.58
695.116	10437.72
695.462	10517.94
695.808	10406.31
696.155	10488.34
696.501	10328.34
696.847	10274.33
697.193	10252.87
697.539	10197.73
697.885	10166.77
698.231	10096.26
698.577	10200.21
698.923	10108.91
699.269	10105.53
699.614	10058.07
699.96	10025.98
700.306	9976.26
700.651	9876.38
700.997	9908.92
701.342	9862.59
701.688	9862.37
702.033	9791.86
702.379	9770.84
702.724	9730.39
703.069	9762.03
703.415	9651.53
703.76	9602.26
704.105	9664.41
704.45	9601.36
704.795	9573.79
705.14	9450.85
705.485	9473
705.83	9447.92
706.175	9528.37
706.52	9541.25
706.865	9430.74
707.209	9411.76
707.554	9335.38
707.899	9419.22
708.243	9340.57
708.588	9298.09
708.932	9214.25
709.277	9190.97
709.621	9213.12
709.966	9164.76
710.31	9181.93
710.654	9005.22
710.998	9082.5
711.342	9084.08
711.687	9105.55
712.031	9058.1
712.375	9040.02
712.719	9055.61
713.063	9016.06
713.407	9004.99
713.75	8958.44
714.094	8994.82
714.438	8912.11
714.782	8976.74
715.125	8902.85
715.469	8907.82
715.812	8874.37
716.156	8816.97
716.499	8769.52
716.843	8795.5
717.186	8744.43
717.53	8807.03
717.873	8772
718.216	8755.73
718.559	8725.45
718.902	8684.55
719.246	8714.15
719.589	8664.43
719.932	8599.12
720.275	8666.47
720.617	8575.4
720.96	8619.46
721.303	8535.62
721.646	8588.05
721.989	8537.2
722.331	8575.62
722.674	8584.21
723.016	8675.05
723.359	8564.32
723.701	8627.37
724.044	8556.87
724.386	8488.84
724.729	8533.14
725.071	8503.08
725.413	8568.62
725.755	8477.32
726.097	8492.91
726.439	8448.17
726.782	8450.2
727.124	8498.11
727.465	8393.25
727.807	8475.74
728.149	8425.34
728.491	8367.94
728.833	8430.09
729.175	8373.37
729.516	8346.25
729.858	8355.51
730.199	8379.47
730.541	8381.95
730.882	8365.23
731.224	8407.04
731.565	8313.93
731.906	8376.08
732.248	8370.88
732.589	8324.1
732.93	8350.54
733.271	8313.48
733.612	8322.07
733.953	8355.97
734.294	8334.95
734.635	8327.04
734.976	8382.18
735.317	8290.43
735.658	8334.95
735.999	8321.84
736.339	8348.06
736.68	8359.81
737.021	8397.32
737.361	8309.19
737.702	8399.36
738.042	8343.99
738.383	8403.42
738.723	8470.99
739.063	8369.07
739.404	8390.99
739.744	8394.16
740.084	8404.33
740.424	8436.42
740.764	8405
741.104	8472.12
741.444	8437.09
741.784	8394.38
742.124	8489.52
742.464	8454.27
742.804	8534.49
743.143	8503.31
743.483	8510.99
743.823	8534.95
744.162	8567.71
744.502	8611.55
744.841	8681.61
745.181	8635.28
745.52	8638.22
745.86	8715.73
746.199	8709.4
746.538	8783.53
746.877	8849.51
747.216	8927.48
747.556	8957.76
747.895	8934.03
748.234	8995.27
748.573	9044.99
748.911	9079.11
749.25	9167.24
749.589	9196.62
749.928	9280.91
750.267	9310.74
750.605	9359.33
750.944	9418.99
751.283	9510.51
751.621	9615.59
751.96	9650.4
752.298	9769.26
752.636	9838.41
752.975	9938.07
753.313	9981.23
753.651	10080.89
753.989	10207.22
754.327	10277.5
754.666	10461.22
755.004	10494.22
755.342	10686.07
755.679	10827.99
756.017	10842.91
756.355	10990.7
756.693	11164.03
757.031	11350.69
757.368	11397.69
757.706	11486.28
758.044	11655.99
758.381	11882.65
758.719	11985.93
759.056	12146.38
759.394	12342.53
759.731	12386.6
760.068	12558.57
760.405	12701.62
760.743	12846.02
761.08	12997.2
761.417	13165.33
761.754	13297.31
762.091	13489.39
762.428	13653.23
762.765	13692.55
763.102	13989.26
763.438	14024.97
763.775	14198.3
764.112	14284.4
764.449	14660.43
764.785	14721.9
765.122	14697.27
765.458	14976.81
765.795	15086.86
766.131	15212.28
766.467	15413.18
766.804	15543.12
767.14	15678.71
767.476	15715.55
767.812	15883
768.148	16031.7
768.485	16171.81
768.821	16236.21
769.157	16307.4
769.492	16455.41
769.828	16578.12
770.164	16595.3
770.5	16696.31
770.836	16851.56
771.171	16850.88
771.507	17066.92
771.842	16956.19
772.178	17137.66
772.513	17324.77
772.849	17404.54
773.184	17377.2
773.519	17540.36
773.855	17487.93
774.19	17512.34
774.525	17707.36
774.86	17746.68
775.195	17773.8
775.53	17812.67
775.865	17821.03
776.2	17752.78
776.535	17718.21
776.87	17877.98
777.205	17932.66
777.539	17898.54
777.874	18120
778.209	18056.73
778.543	18044.3
778.878	18023.74
779.212	18135.6
779.547	18071.42
779.881	18254.92
780.215	18132.21
780.55	18153.9
780.884	18175.6
781.218	18159.1
781.552	18216.72
781.886	18191.64
782.22	18151.42
782.554	18184.86
782.888	18095.6
783.222	17998.2
783.556	18040.23
783.889	18040.91
784.223	18011.08
784.557	18021.48
784.89	18063.51
785.224	17975.15
785.557	17929.95
785.891	17888.37
786.224	17923.85
786.558	18064.64
786.891	17940.57
787.224	17864.87
787.557	17822.84
787.891	17854.93
788.224	17876.62
788.557	17949.84
788.89	17859.67
789.223	17882.04
789.556	17699.22
789.888	17662.84
790.221	17638.89
790.554	17563.18
790.887	17616.97
791.219	17537.42
791.552	17483.86
791.884	17491.09
792.217	17535.16
792.549	17401.6
792.882	17339.23
793.214	17303.98
793.546	17332.91
793.879	17220.14
794.211	17170.65
794.543	17217.2
794.875	17245.45
795.207	17148.96
795.539	17131.56
795.871	17169.97
796.203	16987.6
796.535	16952.12
796.867	16978.56
797.198	16950.99
797.53	16943.09
797.862	16814.28
798.193	16906.7
798.525	16726.82
798.856	16842.52
799.188	16592.13
799.519	16607.28
799.85	16541.29
800.182	16506.94
800.513	16579.03
800.844	16480.27
801.175	16501.74
801.506	16424.23
801.837	16313.5
802.168	16325.7
802.499	16303.1
802.83	16293.39
803.161	16155.31
803.491	16249.32
803.822	16196.89
804.153	16084.13
804.483	16024.24
804.814	16027.4
805.145	16003.22
805.475	15963.68
805.805	15910.57
806.136	15860.4
806.466	15899.5
806.796	15773.62
807.126	15796.68
807.457	15751.03
807.787	15720.74
808.117	15669.45
808.447	15641.65
808.777	15677.36
809.107	15602.1
809.436	15540.86
809.766	15546.96
810.096	15467.64
810.426	15410.02
810.755	15375.22
811.085	15384.03
811.414	15355.56
811.744	15302.45
812.073	15194.88
812.403	15237.37
812.732	15268.1
813.061	15181.1
813.39	15000.99
813.719	15059.75
814.049	15080.54
814.378	15083.7
814.707	14988.56
815.036	14944.04
815.365	14906.3
815.693	14834.21
816.022	14829.69
816.351	14789.92
816.68	14789.02
817.008	14843.03
817.337	14723.26
817.665	14646.87
817.994	14742.47
818.322	14689.59
818.651	14615.24
818.979	14632.19
819.307	14641.9
819.636	14540.66
819.964	14541.34
820.292	14528.01
820.62	14558.06
820.948	14620.43
821.276	14583.6
821.604	14487.1
821.932	14545.63
822.259	14438.29
822.587	14462.02
822.915	14407.33
823.243	14431.06
823.57	14392.87
823.898	14408.91
824.225	14338.63
824.553	14385.19
824.88	14461.57
825.207	14448.91
825.535	14459.76
825.862	14479.87
826.189	14430.61
826.516	14502.7
826.843	14556.71
827.17	14531.85
827.497	14498.4
827.824	14431.74
828.151	14557.16
828.478	14545.86
828.805	14414.79
829.131	14490.95
829.458	14469.25
829.785	14403.27
830.111	14490.27
830.438	14542.24
830.764	14492.08
831.09	14499.53
831.417	14348.13
831.743	14459.99
832.069	14543.83
832.395	14436.48
832.722	14428.8
833.048	14408.69
833.374	14490.95
833.7	14435.58
834.026	14398.07
834.351	14404.4
834.677	14313.32
835.003	14398.75
835.329	14375.47
835.654	14325.75
835.98	14288.47
836.306	14329.14
836.631	14156.04
836.956	14290.73
837.282	14265.42
837.607	14205.3
837.932	14274
838.258	14184.51
838.583	14215.25
838.908	14118.75
839.233	14169.37
839.558	14066.55
839.883	13976.84
840.208	14030.17
840.533	14012.32
840.858	14062.26
841.182	14048.47
841.507	13951.75
841.832	13903.39
842.156	13857.74
842.481	13948.36
842.805	13822.04
843.13	13831.3
843.454	13747.01
843.778	13663.4
844.103	13667.69
844.427	13622.04
844.751	13655.94
845.075	13613.91
845.399	13624.3
845.723	13550.18
846.047	13474.48
846.371	13470.86
846.695	13417.75
847.019	13280.36
847.343	13213.01
847.666	13134.37
847.99	13050.31
848.313	13149.06
848.637	13013.7
848.96	13005.34
849.284	12916.52
849.607	12858
849.931	12883.08
850.254	12782.97
850.577	12723.76
850.9	12700.49
851.223	12587.04
851.546	12606.25
851.869	12472.02
852.192	12511.56
852.515	12406.71
852.838	12428.4
853.161	12359.03
853.483	12245.58
853.806	12193.38
854.129	12211.23
854.451	12181.4
854.774	12142.31
855.096	12055.08
855.419	12060.28
855.741	12018.92
856.063	11907.06
856.385	11962.65
856.708	11939.15
857.03	11858.7
857.352	11854.18
857.674	11802.43
857.996	11759.49
858.318	11716.33
858.64	11660.06
858.961	11660.29
859.283	11575.09
859.605	11578.48
859.926	11628.65
860.248	11564.92
860.57	11596.56
860.891	11515.43
861.212	11440.86
861.534	11425.94
861.855	11375.77
862.176	11426.17
862.498	11421.87
862.819	11440.86
863.14	11305.95
863.461	11378.03
863.782	11302.78
864.103	11249.68
864.424	11267.75
864.745	11298.71
865.065	11188.43
865.386	11180.98
865.707	11151.6
866.027	11164.03
866.348	11100.3
866.668	11168.1
866.989	11089.23
867.309	11019.4
867.63	11020.53
867.95	11016.69
868.27	10962
868.59	10944.83
868.91	10958.61
869.23	10964.26
869.55	10893.53
869.87	10964.03
870.19	10946.86
870.51	10861.44
870.83	10910.48
871.15	10840.42
871.469	10899.4
871.789	10858.27
872.109	10765.85
872.428	10757.94
872.748	10800.2
873.067	10786.41
873.386	10722.46
873.706	10705.28
874.025	10708.45
874.344	10620.54
874.663	10739.63
874.982	10629.81
875.301	10682.01
875.62	10604.5
875.939	10573.76
876.258	10616.47
876.577	10566.53
876.896	10512.97
877.214	10552.07
877.533	10583.93
877.852	10494.67
878.17	10491.5
878.489	10529.69
878.807	10478.4
879.125	10381.45
879.444	10375.57
879.762	10376.7
880.08	10430.49
880.398	10377.16
880.716	10402.24
881.034	10311.62
881.352	10279.53
881.67	10258.06
881.988	10274.33
882.306	10286.99
882.624	10175.81
882.941	10149.59
883.259	10111.63
883.577	10096.71
883.894	10096.03
884.212	10137.61
884.529	10060.78
884.846	9991.63
885.164	9991.86
885.481	9919.09
885.798	9901.46
886.115	9901.24
886.432	9941.69
886.75	9873.44
887.067	9914.8
887.383	9808.13
887.7	9884.97
888.017	9772.65
888.334	9792.54
888.651	9689.94
888.967	9749.38
889.284	9668.93
889.6	9662.83
889.917	9583.28
890.233	9622.15
890.55	9555.71
890.866	9610.62
891.182	9609.72
891.498	9508.93
891.815	9485.65
892.131	9418.99
892.447	9359.78
892.763	9383.28
893.079	9338.09
893.395	9332.89
893.71	9292.21
894.026	9273.23
894.342	9226.45
894.657	9142.84
894.973	9162.27
895.289	9161.82
895.604	9107.13
895.92	9105.78
896.235	9032.56
896.55	9018.77
896.865	9004.99
897.181	8928.16
897.496	8968.15
897.811	8896.52
898.126	8867.14
898.441	8863.07
898.756	8860.36
899.071	8749.4
899.386	8775.62
899.7	8704.43
900.015	8686.13
900.33	8643.42
900.644	8586.47
900.959	8596.41
901.273	8506.02
901.588	8501.95
901.902	8484.78
902.216	8460.14
902.531	8431.67
902.845	8414.5
903.159	8292.47
903.473	8340.15
903.787	8315.52
904.101	8263.99
904.415	8261.28
904.729	8174.95
905.042	8187.16
905.356	8117.33
905.67	8087.27
905.984	8120.94
906.297	8079.82
906.611	8040.27
906.924	8027.16
907.237	8042.75
907.551	7964.34
907.864	7929.31
908.177	7858.13
908.491	7894.74
908.804	7891.57
909.117	7769.77
909.43	7699.26
909.743	7677.57
910.056	7690
910.368	7618.36
910.681	7591.47
910.994	7566.16
911.307	7516.67
911.619	7458.59
911.932	7556.67
912.244	7434.41
912.557	7452.71
912.869	7382.88
913.181	7375.43
913.494	7284.58
913.806	7277.13
914.118	7276.9
914.43	7187.86
914.742	7250.46
915.054	7158.71
915.366	7135.43
915.678	7107.19
915.99	7104.47
916.302	7061.54
916.613	7033.52
916.925	7022.22
917.236	6982.67
917.548	6937.25
917.859	6923.91
918.171	6869.23
918.482	6843.46
918.794	6815.89
919.105	6810.47
919.416	6811.83
919.727	6749.68
920.038	6751.04
920.349	6707.42
920.66	6677.59
920.971	6665.84
921.282	6607.54
921.593	6589.46
921.903	6561.66
922.214	6500.42
922.525	6580.87
922.835	6495.45
923.146	6405.28
923.456	6436.24
923.767	6408.22
924.077	6358.28
924.387	6344.49
924.697	6259.3
925.008	6330.03
925.318	6297.26
925.628	6251.39
925.938	6237.83
926.248	6186.76
926.558	6152.63
926.867	6135.46
927.177	6108.57
927.487	6077.16
927.796	6038.29
928.106	6074.22
928.416	6033.09
928.725	6019.31
929.034	5934.11
929.344	5993.32
929.653	5937.95
929.962	5853.89
930.271	5830.16
930.581	5847.33
930.89	5818.41
931.199	5839.65
931.508	5787.9
931.817	5759.88
932.125	5764.4
932.434	5745.41
932.743	5666.55
933.051	5641.91
933.36	5683.95
933.669	5635.13
933.977	5613.21
934.286	5573.89
934.594	5581.12
934.902	5484.4
935.21	5500
935.519	5452.77
935.827	5445.53
936.135	5445.53
936.443	5368.25
936.751	5411.86
937.059	5365.54
937.367	5368.02
937.674	5344.07
937.982	5308.59
938.29	5272.21
938.597	5292.54
938.905	5216.16
939.213	5209.16
939.52	5154.69
939.827	5172.1
940.135	5125.09
940.442	5126.67
940.749	5109.5
941.056	5099.56
941.363	5059.78
941.67	5015.26
941.977	5024.98
942.284	4995.38
942.591	5000.8
942.898	4938.2
943.205	4938.88
943.511	4950.86
943.818	4920.8
944.125	4834.25
944.431	4843.52
944.738	4812.33
945.044	4812.33
945.35	4840.8
945.657	4786.34
945.963	4754.25
946.269	4671.32
946.575	4673.8
946.881	4668.61
947.187	4649.17
947.493	4589.74
947.799	4622.73
948.105	4626.12
948.41	4608.72
948.716	4567.37
949.022	4500.7
949.327	4534.82
949.633	4486.01
949.938	4483.75
950.244	4451.44
950.549	4402.17
950.854	4418.44
951.16	4386.35
951.465	4388.84
951.77	4404.43
952.075	4345.45
952.38	4356.52
952.685	4323.53
952.99	4260.48
953.294	4269.97
953.599	4253.93
953.904	4254.15
954.209	4182.29
954.513	4185.68
954.818	4208.96
955.122	4164.21
955.426	4148.62
955.731	4110.65
956.035	4097.1
956.339	4082.86
956.643	4077.21
956.948	4068.17
957.252	4009.87
957.556	4011.22
957.86	4008.28
958.163	3998.57
958.467	4010.54
958.771	3949.3
959.075	3958.79
959.378	3927.38
959.682	3859.14
959.985	3866.59
960.289	3879.93
960.592	3838.8
960.896	3843.32
961.199	3829.31
961.502	3826.59
961.805	3789.99
962.108	3761.96
962.411	3761.74
962.714	3761.74
963.017	3711.57
963.32	3717.22
963.623	3712.7
963.926	3714.73
964.228	3691.91
964.531	3649.2
964.833	3639.03
965.136	3659.59
965.438	3630.22
965.741	3605.58
966.043	3619.59
966.345	3563.78
966.648	3592.02
966.95	3559.48
967.252	3473.16
967.554	3511.8
967.856	3447.85
968.158	3484.46
968.46	3488.52
968.761	3447.85
969.063	3437.23
969.365	3416.89
969.666	3405.59
969.968	3359.49
970.269	3364.46
970.571	3399.03
970.872	3317.68
971.174	3288.53
971.475	3309.32
971.776	3261.41
972.077	3304.57
972.378	3300.51
972.679	3235.65
972.98	3244.46
973.281	3229.1
973.582	3157.23
973.883	3192.26
974.183	3138.93
974.484	3138.7
974.785	3105.26
975.085	3162.88
975.386	3155.43
975.686	3108.2
975.986	3060.74
976.287	3084.69
976.587	3057.35
976.887	3042.89
977.187	3030.46
977.487	3014.19
977.787	2985.94
978.087	3007.41
978.387	2995.2
978.687	2986.62
978.987	2948.65
979.286	2943.91
979.586	2930.8
979.885	2913.62
980.185	2904.36
980.484	2895.77
980.784	2889.9
981.083	2891.48
981.382	2862.33
981.682	2823.23
981.981	2814.64
982.28	2787.75
982.579	2764.93
982.878	2774.19
983.177	2784.59
983.475	2781.42
983.774	2758.6
984.073	2735.78
984.372	2753.18
984.67	2743.23
984.969	2710.24
985.267	2687.87
985.566	2698.04
985.864	2667.98
986.162	2646.29
986.461	2647.19
986.759	2623.69
987.057	2638.15
987.355	2564.03
987.653	2578.94
987.951	2580.98
988.249	2579.4
988.547	2577.81
988.844	2534.88
989.142	2561.09
989.44	2547.31
989.737	2517.7
990.035	2489.91
990.332	2507.53
990.63	2475.22
990.927	2456.46
991.224	2448.1
991.521	2444.26
991.819	2427.54
992.116	2442.22
992.413	2428.44
992.71	2399.74
993.006	2387.76
993.303	2359.97
993.6	2340.08
993.897	2339.63
994.193	2359.97
994.49	2347.54
994.787	2314.77
995.083	2346.63
995.379	2298.05
995.676	2309.57
995.972	2292.85
996.268	2236.58
996.565	2273.41
996.861	2250.14
997.157	2268.22
997.453	2224.38
997.749	2184.83
998.044	2202.91
998.34	2197.26
998.636	2157.94
998.932	2151.61
999.227	2168.56
999.523	2122.46
999.818	2145.96
1000.114	2126.75
1000.409	2077.26
1000.704	2109.58
1001	2105.28
1001.295	2082.01
1001.59	2068.22
1001.885	2063.25
1002.18	2052.86
1002.475	2039.07
1002.77	2020.54
1003.065	2017.83
1003.359	2032.07
1003.654	2015.12
1003.949	1980.99
1004.243	1970.15
1004.538	1949.36
1004.832	1973.99
1005.127	1930.37
1005.421	1886.98
1005.715	1891.05
1006.009	1892.41
1006.304	1900.09
1006.598	1891.96
1006.892	1881.33
1007.186	1872.07
1007.48	1873.43
1007.773	1849.92
1008.067	1835.46
1008.361	1841.11
1008.655	1807.44
1008.948	1784.84
1009.242	1786.65
1009.535	1782.58
1009.829	1772.19
1010.122	1739.42
1010.415	1753.2
1010.708	1727.21
1011.001	1718.85
1011.295	1724.73
1011.588	1716.82
1011.881	1686.99
1012.173	1692.19
1012.466	1668.91
1012.759	1656.26
1013.052	1642.24
1013.344	1670.04
1013.637	1634.56
1013.93	1627.33
1014.222	1624.84
1014.514	1623.26
1014.807	1585.52
1015.099	1582.13
1015.391	1600.66
1015.683	1594.11
1015.976	1545.52
1016.268	1582.13
1016.56	1551.17
1016.851	1542.81
1017.143	1526.32
1017.435	1535.81
1017.727	1496.71
1018.018	1499.42
1018.31	1479.31
1018.602	1506.2
1018.893	1453.32
1019.185	1459.2
1019.476	1469.82
1019.767	1450.84
1020.058	1427.11
1020.35	1409.03
1020.641	1387.34
1020.932	1388.24
1021.223	1388.92
1021.514	1384.85
1021.804	1381.91
1022.095	1357.96
1022.386	1370.16
1022.677	1358.86
1022.967	1341.24
1023.258	1343.04
1023.548	1344.63
1023.839	1314.57
1024.129	1319.99
1024.419	1303.04
1024.709	1259.43
1025	1301.01
1025.29	1282.03
1025.58	1244.29
1025.87	1248.36
1026.16	1237.96
1026.449	1248.13
1026.739	1261.92
1027.029	1220.79
1027.319	1214.69
1027.608	1222.14
1027.898	1209.94
1028.187	1203.84
1028.477	1196.83
1028.766	1174.23
1029.055	1156.38
1029.344	1190.28
1029.634	1128.81
1029.923	1140.34
1030.212	1141.47
1030.501	1159.09
1030.79	1135.14
1031.078	1125.65
1031.367	1107.12
1031.656	1121.81
1031.945	1079.77
1032.233	1076.61
1032.522	1072.54
1032.81	1061.24
1033.099	1071.41
1033.387	1061.47
1033.675	1070.51
1033.963	1061.47
1034.251	1068.7
1034.54	1050.62
1034.828	1027.57
1035.116	1028.48
1035.403	996.39
1035.691	1011.08
1035.979	1017.4
1036.267	985.31
1036.554	997.74
1036.842	991.87
1037.129	981.7
1037.417	963.84
1037.704	957.07
1037.992	947.35
1038.279	930.17
1038.566	973.56
1038.853	973.56
1039.14	973.56
