Data from hue_350_FLMS001491_2.txt Node
Date: Mon Feb 06 15:37:28 GMT 2017
User: dcchb
Spectrometer: FLMS00149
Trigger mode: 0
Integration Time (sec): 2.000000E-2
Scans to average: 10
Electric dark correction enabled: true
Nonlinearity correction enabled: false
Boxcar width: 0
XAxis mode: Wavelengths
Number of Pixels in Spectrum: 2048
>>>>>Begin Spectral Data<<<<<
341.393	-18.62
341.776	-18.62
342.16	-18.62
342.543	-50.25
342.927	-36.92
343.31	-75.56
343.693	-64.04
344.077	-51.61
344.46	-71.72
344.843	-54.55
345.226	-14.1
345.61	-32.63
345.993	-28.11
346.376	-8.45
346.759	0.59
347.142	25.23
347.525	37.88
347.908	49.86
348.291	76.3
348.674	102.29
349.057	108.61
349.44	125.11
349.823	147.71
350.206	166.92
350.588	198.55
350.971	204.43
351.354	218.67
351.737	238.55
352.119	240.81
352.502	249.85
352.884	246.69
353.267	273.58
353.65	287.59
354.032	292.34
354.414	321.26
354.797	326.69
355.179	306.8
355.562	318.78
355.944	326.23
356.326	321.04
356.709	330.98
357.091	352
357.473	331.43
357.855	343.64
358.238	356.52
358.62	311.55
359.002	326.23
359.384	342.96
359.766	327.59
360.148	335.27
360.53	329.85
360.912	338.66
361.294	329.62
361.676	327.59
362.057	329.85
362.439	342.73
362.821	317.65
363.203	324.88
363.584	320.58
363.966	311.32
364.348	326.46
364.729	316.74
365.111	310.19
365.493	307.48
365.874	305.67
366.256	305.22
366.637	310.19
367.019	292.11
367.4	304.54
367.781	332.34
368.163	313.58
368.544	317.42
368.925	290.3
369.306	290.53
369.688	311.77
370.069	299.79
370.45	290.98
370.831	316.97
371.212	310.19
371.593	321.04
371.974	307.03
372.355	297.08
372.736	319
373.117	304.99
373.498	322.17
373.879	315.61
374.26	327.59
374.641	313.35
375.021	307.48
375.402	291.21
375.783	329.85
376.163	326.91
376.544	310.87
376.925	319.45
377.305	316.52
377.686	318.32
378.066	325.33
378.447	328.72
378.827	319.23
379.208	342.05
379.588	334.14
379.968	333.92
380.349	342.73
380.729	341.38
381.109	312.22
381.489	339.79
381.87	337.53
382.25	315.39
382.63	345.44
383.01	336.63
383.39	335.05
383.77	329.4
384.15	336.63
384.53	357.65
384.91	337.99
385.29	337.76
385.67	343.64
386.049	339.34
386.429	323.75
386.809	346.35
387.189	346.35
387.568	359
387.948	353.58
388.328	354.26
388.707	353.8
389.087	349.96
389.466	334.14
389.846	365.1
390.225	367.82
390.605	345.44
390.984	359.68
391.363	350.41
391.743	362.39
392.122	373.69
392.501	359.45
392.881	377.53
393.26	361.71
393.639	366.01
394.018	370.3
394.397	377.98
394.776	375.72
395.155	373.01
395.534	380.92
395.913	384.76
396.292	365.78
396.671	365.1
397.05	384.99
397.429	381.15
397.808	376.85
398.186	382.05
398.565	391.77
398.944	391.09
399.323	396.06
399.701	394.03
400.08	388.61
400.458	396.97
400.837	404.65
401.215	395.39
401.594	408.04
401.972	383.18
402.351	402.84
402.729	393.35
403.107	425.21
403.486	412.79
403.864	382.73
404.242	423.63
404.62	403.75
404.999	405.1
405.377	416.18
405.755	416.4
406.133	425.89
406.511	422.5
406.889	432.9
407.267	414.37
407.645	431.32
408.023	439.9
408.401	441.03
408.779	439
409.156	427.02
409.534	436.29
409.912	436.06
410.29	446.91
410.667	451.43
411.045	438.77
411.422	468.38
411.8	469.28
412.178	458.21
412.555	474.03
412.933	457.53
413.31	467.7
413.687	490.75
414.065	486
414.442	481.48
414.819	461.6
415.197	486.68
415.574	491.65
415.951	474.48
416.328	511.99
416.705	481.94
417.082	502.73
417.46	528.71
417.837	523.29
418.214	496.63
418.591	518.55
418.967	520.13
419.344	547.47
419.721	533.23
420.098	533.69
420.475	525.78
420.852	533.23
421.228	507.7
421.605	551.09
421.982	556.51
422.358	548.83
422.735	571.2
423.111	581.59
423.488	564.87
423.864	569.84
424.241	566.68
424.617	558.32
424.994	589.28
425.37	577.53
425.746	597.19
426.123	597.41
426.499	606
426.875	593.8
427.251	602.61
427.627	610.52
428.003	590.18
428.379	617.07
428.756	627.02
429.132	633.8
429.507	625.89
429.883	620.24
430.259	622.27
430.635	644.19
431.011	673.34
431.387	672.89
431.763	691.87
432.138	663.17
432.514	693.46
432.89	691.42
433.265	681.71
433.641	693
434.016	715.6
434.392	705.66
434.767	713.34
435.143	703.17
435.518	705.43
435.894	735.04
436.269	750.86
436.644	740.46
437.02	750.18
437.395	747.01
437.77	751.99
438.145	759.44
438.52	777.75
438.895	786.79
439.271	795.37
439.646	780.23
440.021	799.44
440.395	800.35
440.77	806.22
441.145	797.41
441.52	790.18
441.895	815.94
442.27	807.58
442.645	812.78
443.019	825.88
443.394	820.68
443.769	832.89
444.143	861.14
444.518	860.91
444.892	858.65
445.267	833.79
445.641	855.03
446.016	861.36
446.39	857.29
446.764	882.83
447.139	862.94
447.513	860.91
447.887	868.59
448.262	856.62
448.636	879.67
449.01	891.19
449.384	897.07
449.758	894.36
450.132	907.46
450.506	927.35
450.88	893.68
451.254	953.34
451.628	935.26
452.002	908.82
452.376	963.73
452.75	916.28
453.123	968.25
453.497	947.23
453.871	939.33
454.244	952.88
454.618	946.56
454.992	1020.45
455.365	981.58
455.739	995.37
456.112	1026.33
456.486	1018.42
456.859	1020.91
457.232	1061.81
457.606	1049.38
457.979	1060.23
458.352	1076.72
458.725	1090.28
459.099	1109.04
459.472	1122.6
459.845	1108.59
460.218	1084.18
460.591	1136.38
460.964	1118.3
461.337	1200.79
461.71	1170.96
462.083	1205.08
462.456	1184.74
462.829	1173.22
463.201	1207.57
463.574	1197.17
463.947	1214.12
464.32	1268.36
464.692	1237.4
465.065	1266.77
465.438	1291.18
465.81	1288.47
466.183	1306.77
466.555	1336.6
466.928	1322.37
467.3	1342.03
467.672	1358.07
468.045	1383.83
468.417	1383.61
468.789	1386.55
469.161	1417.28
469.534	1440.56
469.906	1449.82
470.278	1484.4
470.65	1471.97
471.022	1511.06
471.394	1518.52
471.766	1524.85
472.138	1571.85
472.51	1595.81
472.882	1607.78
473.253	1628.35
473.625	1650.04
473.997	1703.15
474.369	1687.1
474.74	1703.37
475.112	1728.46
475.484	1757.84
475.855	1786.53
476.227	1815.69
476.598	1863.6
476.97	1822.47
477.341	1899.3
477.713	1949.47
478.084	1949.92
478.455	2023.36
478.827	2027.43
479.198	2078.05
479.569	2099.3
479.94	2144.72
480.311	2157.6
480.682	2201.67
481.053	2238.95
481.424	2271.72
481.795	2330.48
482.166	2348.1
482.537	2365.28
482.908	2413.64
483.279	2447.53
483.65	2510.13
484.021	2536.57
484.391	2570.92
484.762	2624.7
485.133	2614.99
485.503	2692.5
485.874	2729.11
486.244	2753.52
486.615	2791.71
486.985	2825.6
487.356	2907.41
487.726	2920.74
488.097	2960.74
488.467	2982.66
488.837	3046.16
489.207	3090.91
489.578	3148.31
489.948	3166.16
490.318	3222.88
490.688	3252.94
491.058	3260.17
491.428	3324.35
491.798	3329.09
492.168	3419.71
492.538	3431.01
492.908	3499.03
493.278	3548.75
493.648	3555.75
494.017	3524.57
494.387	3628.75
494.757	3618.8
495.126	3702.42
495.496	3707.39
495.866	3740.83
496.235	3758.69
496.605	3802.75
496.974	3832.13
497.344	3901.51
497.713	3854.73
498.082	3917.1
498.452	3984.67
498.821	3918.46
499.19	3978.34
499.559	3995.29
499.928	4058.57
500.298	4068.28
500.667	4090.43
501.036	4116.19
501.405	4172.01
501.774	4154.61
502.143	4170.2
502.512	4242.29
502.88	4246.13
503.249	4261.95
503.618	4301.05
503.987	4307.82
504.356	4315.28
504.724	4336.3
505.093	4354.38
505.462	4378.78
505.83	4342.17
506.199	4467.82
506.567	4482.28
506.936	4506.69
507.304	4527.71
507.672	4538.1
508.041	4550.98
508.409	4602.05
508.777	4614.03
509.145	4651.09
509.514	4698.55
509.882	4654.93
510.25	4680.02
510.618	4703.07
510.986	4720.7
511.354	4790.07
511.722	4804.53
512.09	4866.68
512.458	4830.75
512.826	4875.04
513.193	4875.95
513.561	4860.35
513.929	4895.83
514.297	4915.27
514.664	4904.87
515.032	4959.56
515.4	4956.17
515.767	5006.34
516.135	5064.41
516.502	4992.33
516.869	5058.99
517.237	5084.53
517.604	5089.95
517.972	5116.16
518.339	5135.37
518.706	5150.29
519.073	5165.43
519.44	5243.17
519.808	5245.43
520.175	5232.09
520.542	5311.64
520.909	5289.04
521.276	5306.44
521.643	5354.35
522.009	5448.13
522.376	5402.03
522.743	5398.19
523.11	5394.8
523.477	5500.79
523.843	5499.88
524.21	5556.15
524.577	5585.08
524.943	5592.08
525.31	5651.29
525.676	5674.57
526.043	5701.01
526.409	5694.68
526.776	5843.38
527.142	5744.17
527.508	5818.07
527.874	5804.06
528.241	5904.84
528.607	5867.33
528.973	5966.76
529.339	5867.78
529.705	6018.74
530.071	6064.16
530.437	6074.78
530.803	6073.65
531.169	6140.54
531.535	6147.1
531.901	6199.3
532.267	6168.57
532.632	6249.69
532.998	6241.33
533.364	6216.25
533.73	6215.57
534.095	6313.2
534.461	6369.24
534.826	6376.24
535.192	6418.73
535.557	6443.81
535.923	6468.22
536.288	6472.97
536.653	6524.26
537.019	6550.48
537.384	6520.65
537.749	6560.87
538.114	6610.81
538.479	6607.43
538.845	6641.1
539.21	6689.23
539.575	6667.08
539.94	6670.7
540.305	6757.03
540.67	6733.52
541.034	6804.93
541.399	6868.89
541.764	6807.42
542.129	6837.02
542.494	6909.56
542.858	6953.86
543.223	6917.25
543.587	6944.14
543.952	6992.27
544.316	7039.96
544.681	7077.47
545.045	7030.92
545.41	7106.17
545.774	7128.99
546.138	7154.98
546.503	7176
546.867	7168.99
547.231	7196.56
547.595	7261.87
547.959	7234.98
548.324	7279.5
548.688	7360.4
549.052	7388.42
549.416	7385.94
549.779	7381.87
550.143	7444.92
550.507	7433.17
550.871	7513.62
551.235	7490.79
551.599	7572.6
551.962	7636.1
552.326	7581.64
552.689	7643.33
553.053	7622.77
553.417	7597.91
553.78	7788.41
554.143	7659.37
554.507	7715.42
554.87	7796.32
555.234	7879.71
555.597	7791.57
555.96	7796.55
556.323	7864.12
556.686	7882.42
557.05	8009.2
557.413	7888.07
557.776	7951.8
558.139	7987.73
558.502	7993.83
558.865	8067.5
559.228	8031.34
559.59	8105.92
559.953	8092.58
560.316	8167.61
560.679	8215.74
561.041	8269.08
561.404	8286.93
561.767	8373.71
562.129	8276.08
562.492	8379.58
562.854	8398.34
563.217	8349.98
563.579	8387.94
563.941	8404.67
564.304	8520.37
564.666	8458.22
565.028	8521.27
565.39	8562.18
565.753	8594.94
566.115	8617.09
566.477	8703.64
566.839	8666.58
567.201	8743.64
567.563	8789.06
567.925	8825.45
568.287	8813.24
568.648	8851.89
569.01	8868.38
569.372	8953.13
569.734	8868.38
570.095	8997.19
570.457	9084.2
570.819	9045.55
571.18	9064.54
571.542	9152.22
571.903	9211.65
572.265	9247.81
572.626	9288.71
572.987	9272.67
573.349	9276.06
573.71	9358.31
574.071	9380.69
574.432	9526.22
574.794	9580.68
575.155	9594.92
575.516	9648.25
575.877	9731.64
576.238	9750.39
576.599	9837.17
576.96	9911.29
577.32	9985.19
577.681	10057.5
578.042	10136.82
578.403	10177.5
578.763	10256.59
579.124	10364.16
579.485	10508.11
579.845	10519.86
580.206	10603.03
580.566	10840.08
580.927	10822
581.287	11059.96
581.648	11047.53
582.008	11293.4
582.368	11369.56
582.728	11541.53
583.089	11615.2
583.449	11842.09
583.809	11981.75
584.169	12139.03
584.529	12229.88
584.889	12541.96
585.249	12535.18
585.609	12762.97
585.969	12958.44
586.329	13196.4
586.688	13421.03
587.048	13540.58
587.408	13813.34
587.768	13930.4
588.127	14191.18
588.487	14316.83
588.846	14621
589.206	14852.18
589.565	15111.16
589.925	15396.8
590.284	15536.46
590.643	15802.21
591.003	16055.76
591.362	16411.24
591.721	16589.08
592.08	16826.82
592.44	17186.58
592.799	17404.2
593.158	17636.06
593.517	17900.91
593.876	18226.33
594.235	18487.79
594.593	18766.65
594.952	19114.21
595.311	19284.61
595.67	19633.07
596.029	19952.38
596.387	20129.33
596.746	20501.75
597.104	20723.44
597.463	20943.09
597.822	21354.83
598.18	21588.73
598.538	21741.04
598.897	22215.15
599.255	22276.84
599.613	22837.05
599.972	22879.54
600.33	23287.89
600.688	23486.3
601.046	23790.93
601.404	24201.76
601.762	24407.18
602.12	24705.25
602.478	24920.39
602.836	25203.32
603.194	25432.69
603.552	25658.22
603.91	25814.83
604.268	26153.58
604.625	26482.16
604.983	26743.39
605.341	26744.07
605.698	27242.14
606.056	27486.2
606.413	27595.57
606.771	27963.02
607.128	28201.21
607.485	28320.75
607.843	28592.38
608.2	28976.1
608.557	29167.96
608.914	29373.15
609.272	29531.57
609.629	29787.61
609.986	30143.53
610.343	30157.54
610.7	30496.74
611.057	30621.93
611.414	30859.22
611.771	31106.22
612.127	31387.79
612.484	31409.03
612.841	31733.32
613.198	31820.55
613.554	31838.63
613.911	32150.93
614.267	32288.11
614.624	32425.05
614.98	32736.91
615.337	32903.91
615.693	32948.2
616.05	33099.16
616.406	33323.33
616.762	33276.78
617.118	33536.89
617.475	33590.67
617.831	33825.01
618.187	34156.53
618.543	34178.68
618.899	34516.52
619.255	34483.53
619.611	34553.58
619.967	34911.54
620.323	34867.7
620.678	34941.82
621.034	34904.31
621.39	35088.71
621.746	35141.36
622.101	35710.16
622.457	35622.93
622.812	35703.38
623.168	35842.14
623.523	35805.98
623.879	36023.37
624.234	35935.47
624.589	36175.91
624.945	36225.86
625.3	36312.18
625.655	36428.56
626.01	36424.04
626.365	36451.16
626.72	36531.16
627.075	36492.97
627.43	36645.28
627.785	36652.74
628.14	36783.81
628.495	36751.27
628.85	36834.88
629.205	36835.33
629.559	37086.4
629.914	37007.08
630.269	37040.07
630.623	36792.17
630.978	36946.06
631.332	37063.57
631.687	37055.44
632.041	37126.17
632.396	37191.25
632.75	37290.91
633.104	37203.91
633.459	37125.04
633.813	37177.69
634.167	37231.93
634.521	37172.5
634.875	37393.73
635.229	37285.26
635.583	37046.4
635.937	37189.9
636.291	37160.97
636.645	37166.62
636.999	37191.03
637.352	37279.39
637.706	37059.51
638.06	37290.91
638.413	37243.91
638.767	37145.38
639.121	37223.57
639.474	37148.77
639.828	37111.26
640.181	37160.07
640.534	37205.94
640.888	37090.69
641.241	36991.03
641.594	37014.08
641.947	37233.51
642.301	36988.1
642.654	37095.66
643.007	37076.68
643.36	37101.09
643.713	36980.41
644.066	37156.68
644.419	37026.51
644.771	36757.37
645.124	36332.29
645.477	36362.57
645.83	36100.43
646.182	36070.38
646.535	36035.8
646.888	36019.99
647.24	35855.7
647.593	36083.94
647.945	36126.87
648.298	35871.97
648.65	35803.72
649.002	35638.07
649.355	35881.01
649.707	35776.83
650.059	36038.29
650.411	36375
650.763	36431.73
651.115	36891.83
651.467	36549.69
651.819	36643.7
652.171	36631.95
652.523	36600.53
652.875	36529.35
653.227	36425.4
653.578	36713.07
653.93	36548.56
654.282	36424.95
654.633	36501.33
654.985	36540.2
655.337	36434.21
655.688	36442.8
656.039	36595.34
656.391	36315.57
656.742	36346.53
657.094	36377.94
657.445	36474.89
657.796	36424.72
658.147	36400.54
658.498	36417.26
658.849	36445.96
659.2	36374.55
659.551	36292.97
659.902	36409.58
660.253	36399.86
660.604	36399.64
660.955	36156.03
661.306	36435.79
661.656	36204.16
662.007	36243.71
662.358	36221.34
662.708	36233.99
663.059	36289.13
663.409	36019.76
663.76	36281.22
664.11	36205.06
664.461	36212.97
664.811	36279.41
665.161	36087.1
665.511	36195.35
665.862	36055.24
666.212	36352.86
666.562	36328.23
666.912	36148.12
667.262	36136.59
667.612	36176.14
667.962	36136.59
668.312	36266.76
668.662	36205.74
669.011	36132.75
669.361	36057.27
669.711	36136.59
670.06	36005.3
670.41	35901.12
670.76	35849.37
671.109	36061.11
671.459	36040.1
671.808	35987.9
672.157	36137.72
672.507	35770.05
672.856	35803.04
673.205	35880.33
673.554	36120.32
673.904	35936.82
674.253	35983.83
674.602	35904.06
674.951	35458.87
675.3	35297.07
675.649	35883.72
675.998	35781.35
676.346	35776.6
676.695	35865.19
677.044	35603.5
677.393	35894.79
677.741	35827
678.09	35799.65
678.438	35653.67
678.787	35729.15
679.135	35781.57
679.484	35497.29
679.832	35664.06
680.181	35411.41
680.529	35485.31
680.877	35498.64
681.225	35280.12
681.573	35482.6
681.922	35249.38
682.27	35127.13
682.618	35160.12
682.966	34935.95
683.314	35287.8
683.661	34949.05
684.009	34892.78
684.357	35016.62
684.705	34797.19
685.053	34972.56
685.4	34770.53
685.748	34632
686.095	34730.3
686.443	34512.45
686.79	34576.41
687.138	34575.5
687.485	34632
687.832	34390.2
688.18	34489.4
688.527	34275.85
688.874	34256.64
689.221	34132.13
689.568	34035.18
689.915	33914.05
690.262	34079.92
690.609	33791.57
690.956	33820.04
691.303	33846.93
691.65	33607.62
691.997	33682.42
692.344	33390.45
692.69	33291.24
693.037	33397.46
693.383	33126.73
693.73	33165.82
694.077	32926.28
694.423	33056.9
694.769	32861.88
695.116	32896.68
695.462	32806.51
695.808	32699.62
696.155	32827.3
696.501	32501.66
696.847	32434.32
697.193	32343.92
697.539	32388.44
697.885	32079.52
698.231	32027.32
698.577	32079.75
698.923	31954.78
699.269	31832.98
699.614	31725.18
699.96	31707.33
700.306	31678.86
700.651	31503.72
700.997	31421.46
701.342	31462.59
701.688	31457.17
702.033	31336.94
702.379	31257.85
702.724	31072.54
703.069	31282.03
703.415	30780.35
703.76	30983.06
704.105	30885.43
704.45	30784.42
704.795	30696.96
705.14	30517.08
705.485	30548.94
705.83	30325.9
706.175	30462.17
706.52	30336.07
706.865	30190.53
707.209	30089.07
707.554	30064.21
707.899	30304.88
708.243	30045.45
708.588	30080.93
708.932	29766.36
709.277	29778.79
709.621	29758.45
709.966	29653.15
710.31	29703.32
710.654	29422.42
710.998	29548.06
711.342	29536.54
711.687	29462.19
712.031	29297.9
712.375	29116.21
712.719	29232.82
713.063	29102.65
713.407	29212.93
713.75	29021.53
714.094	29024.01
714.438	28860.17
714.782	28955.09
715.125	28765.71
715.469	28917.8
715.812	28708.76
716.156	28590.58
716.499	28528.88
716.843	28591.48
717.186	28428.09
717.53	28612.5
717.873	28555.77
718.216	28457.47
718.559	28230.13
718.902	28033.75
719.246	28225.39
719.589	28136.12
719.932	27914.44
720.275	28046.18
720.617	27925.28
720.96	27909.46
721.303	27941.78
721.646	27835.34
721.989	27605.07
722.331	27852.52
722.674	27706.76
723.016	27725.29
723.359	27646.87
723.701	27647.1
724.044	27384.51
724.386	27354.22
724.729	27439.19
725.071	27304.73
725.413	27358.97
725.755	27320.55
726.097	27324.17
726.439	27105.87
726.782	27091.63
727.124	27226.54
727.465	27055.7
727.807	27117.85
728.149	26987.68
728.491	26825.2
728.833	26974.8
729.175	26956.27
729.516	26795.59
729.858	26801.02
730.199	26826.78
730.541	26721.25
730.882	26644.41
731.224	26812.54
731.565	26514.7
731.906	26600.35
732.248	26671.53
732.589	26415.04
732.93	26426.34
733.271	26295.72
733.612	26454.13
733.953	26431.54
734.294	26355.83
734.635	26123.75
734.976	26177.53
735.317	26142.28
735.658	26102.73
735.999	26104.77
736.339	26001.49
736.68	26106.8
737.021	25923.75
737.361	25971.66
737.702	26053.02
738.042	25965.33
738.383	25900.7
738.723	25909.74
739.063	25762.18
739.404	25747.03
739.744	25742.74
740.084	25615.06
740.424	25697.09
740.764	25635.4
741.104	25753.36
741.444	25533.71
741.784	25431.79
742.124	25546.59
742.464	25416.42
742.804	25436.99
743.143	25388.17
743.483	25462.52
743.823	25371
744.162	25233.38
744.502	25282.87
744.841	25175.07
745.181	25298.91
745.52	25149.76
745.86	25227.5
746.199	25143.89
746.538	25034.29
746.877	25007.85
747.216	24969.2
747.556	24993.61
747.895	24977.79
748.234	24843.1
748.573	24763.33
748.911	24759.04
749.25	24731.02
749.589	24755.42
749.928	24632.04
750.267	24726.95
750.605	24730.11
750.944	24643.11
751.283	24437.46
751.621	24519.5
751.96	24361.76
752.298	24409.67
752.636	24410.35
752.975	24270.01
753.313	24201.09
753.651	24292.38
753.989	24157.92
754.327	24060.98
754.666	24030.02
755.004	24011.26
755.342	24064.37
755.679	24032.5
756.017	23795.45
756.355	24015.33
756.693	23717.03
757.031	23779.63
757.368	23712.06
757.706	23712.06
758.044	23610.37
758.381	23747.09
758.719	23559.52
759.056	23479.75
759.394	23387.32
759.731	23315.01
760.068	23202.92
760.405	23208.57
760.743	23037.5
761.08	23194.56
761.417	23015.13
761.754	23085.18
762.091	22885.19
762.428	22790.73
762.765	22652.43
763.102	22809.26
763.438	22577.4
763.775	22579.21
764.112	22536.05
764.449	22604.74
764.785	22407.24
765.122	22294.7
765.458	22264.64
765.795	22189.16
766.131	22141.25
766.467	22026.23
766.804	21965.67
767.14	21953.01
767.476	21819.45
767.812	21792.79
768.148	21779.91
768.485	21628.73
768.821	21583.75
769.157	21551.89
769.492	21445.68
769.828	21394.15
770.164	21193.03
770.5	21163.43
770.836	21262.86
771.171	20916.65
771.507	21066.48
771.842	20916.88
772.178	20778.13
772.513	20794.17
772.849	20764.57
773.184	20593.27
773.519	20726.6
773.855	20579.26
774.19	20412.03
774.525	20406.16
774.86	20384.46
775.195	20285.03
775.53	20220.63
775.865	20033.96
776.2	20029.67
776.535	19932.05
776.87	19896.57
777.205	19734.09
777.539	19673.3
777.874	19708.32
778.209	19521.66
778.543	19451.16
778.878	19532.96
779.212	19467.88
779.547	19287.54
779.881	19316.47
780.215	19196.47
780.55	19205.06
780.884	19034.89
781.218	18915.35
781.552	19012.07
781.886	18908.12
782.22	18764.85
782.554	18660.44
782.888	18515.59
783.222	18578.86
783.556	18436.72
783.889	18443.72
784.223	18262.71
784.557	18268.14
784.89	18254.35
785.224	18091.19
785.557	18080.57
785.891	18001.25
786.224	17985.21
786.558	17957.64
786.891	17751.54
787.224	17695.5
787.557	17622.05
787.891	17691.2
788.224	17657.08
788.557	17626.34
788.89	17496.18
789.223	17465.22
789.556	17418.44
789.888	17290.99
790.221	17181.84
790.554	17110.88
790.887	17108.84
791.219	17005.34
791.552	16997.43
791.884	16922.18
792.217	16897.78
792.549	16783.65
792.882	16686.71
793.214	16554.73
793.546	16727.16
793.879	16530.78
794.211	16446.94
794.543	16490.56
794.875	16448.3
795.207	16503.44
795.539	16376.66
795.871	16335.3
796.203	16139.15
796.535	16123.79
796.867	16114.07
797.198	15948.65
797.53	16077.46
797.862	15943
798.193	15941.87
798.525	15832.72
798.856	15848.76
799.188	15762.44
799.519	15664.36
799.85	15625.95
800.182	15588.88
800.513	15671.59
800.844	15425.27
801.175	15553.18
801.506	15364.93
801.837	15376.23
802.168	15311.6
802.499	15229.57
802.83	15173.98
803.161	15034.32
803.491	15152.74
803.822	15117.71
804.153	15054.89
804.483	15001.55
804.814	14879.07
805.145	14829.81
805.475	14859.41
805.805	14805.85
806.136	14788.68
806.466	14726.53
806.796	14736.25
807.126	14585.52
807.457	14477.5
807.787	14513.66
808.117	14524.05
808.447	14416.49
808.777	14466.88
809.107	14362.48
809.436	14339.43
809.766	14321.35
810.096	14303.72
810.426	14272.53
810.755	14307.56
811.085	14176.27
811.414	14213.78
811.744	14024.41
812.073	14093.78
812.403	14037.29
812.732	14001.36
813.061	13958.64
813.39	13899.44
813.719	13879.1
814.049	13872.32
814.378	13856.73
814.707	13759.78
815.036	13777.63
815.365	13707.8
815.693	13606.56
816.022	13604.08
816.351	13541.71
816.68	13455.83
817.008	13432.1
817.337	13384.2
817.665	13329.51
817.994	13463.97
818.322	13449.28
818.651	13265.33
818.979	13267.36
819.307	13318.44
819.636	13221.26
819.964	13099.46
820.292	13196.18
820.62	13196.18
820.948	13126.8
821.276	13149.17
821.604	13136.74
821.932	13159.57
822.259	13165.22
822.587	13105.56
822.915	13091.32
823.243	13095.84
823.57	13085.67
823.898	13030.99
824.225	13048.61
824.553	13002.51
824.88	13101.04
825.207	13097.88
825.535	13014.04
825.862	13076.41
826.189	13045.67
826.516	13075.28
826.843	13109.63
827.17	13077.09
827.497	13019.69
827.824	13054.04
828.151	13074.37
828.478	13037.09
828.805	13161.15
829.131	13040.02
829.458	13049.97
829.785	13019.91
830.111	12983.3
830.438	13025.11
830.764	13063.75
831.09	13023.3
831.417	12921.16
831.743	13033.92
832.069	12973.36
832.395	12952.57
832.722	12982.17
833.048	12896.3
833.374	12965.9
833.7	12849.29
834.026	12974.49
834.351	13022.4
834.677	12896.07
835.003	12877.54
835.329	12851.33
835.654	12874.15
835.98	12788.51
836.306	12833.7
836.631	12756.64
836.956	12861.95
837.282	12808.17
837.607	12689.98
837.932	12729.75
838.258	12709.19
838.583	12704.89
838.908	12613.59
839.233	12605.69
839.558	12533.82
839.883	12536.99
840.208	12557.33
840.533	12498.57
840.858	12526.37
841.182	12559.36
841.507	12444.11
841.832	12432.58
842.156	12380.15
842.481	12346.26
842.805	12383.32
843.13	12303.55
843.454	12271.91
843.778	12238.46
844.103	12249.08
844.427	12222.42
844.751	12203.89
845.075	12075.53
845.399	12107.39
845.723	12028.75
846.047	12155.75
846.371	11921.18
846.695	11945.82
847.019	11840.96
847.343	11781.07
847.666	11805.48
847.99	11690
848.313	11671.47
848.637	11671.02
848.96	11576.56
849.284	11574.75
849.607	11524.13
849.931	11437.13
850.254	11329.79
850.577	11283.69
850.9	11289.56
851.223	11216.34
851.546	11213.63
851.869	11143.58
852.192	11192.16
852.515	11098.38
852.838	11033.75
853.161	11003.02
853.483	11029.91
853.806	10949.23
854.129	10907.2
854.451	10929.12
854.774	10866.52
855.096	10845.51
855.419	10834.43
855.741	10763.93
856.063	10744.27
856.385	10704.49
856.708	10654.78
857.03	10641.9
857.352	10600.99
857.674	10488
857.996	10481.9
858.318	10437.38
858.64	10492.97
858.961	10379.53
859.283	10376.14
859.605	10320.77
859.926	10345.63
860.248	10350.38
860.57	10276.26
860.891	10250.72
861.212	10172.98
861.534	10175.24
861.855	10209.59
862.176	10208.46
862.498	10171.85
862.819	10102.47
863.14	10157.61
863.461	10111.74
863.782	10000.1
864.103	10054.79
864.424	10013.89
864.745	10068.13
865.065	9904.97
865.386	9926.66
865.707	9918.98
866.027	9973.44
866.348	9913.33
866.668	9867
866.989	9883.72
867.309	9820
867.63	9873.55
867.95	9857.51
868.27	9716.27
868.59	9780
868.91	9728.7
869.23	9714.46
869.55	9715.82
869.87	9754.91
870.19	9732.09
870.51	9721.92
870.83	9666.1
871.15	9665.65
871.469	9659.32
871.789	9621.36
872.109	9669.27
872.428	9588.59
872.748	9588.59
873.067	9580.68
873.386	9552.66
873.706	9580
874.025	9531.42
874.344	9513.34
874.663	9533.22
874.982	9478.31
875.301	9483.51
875.62	9408.26
875.939	9383.4
876.258	9405.54
876.577	9353.57
876.896	9363.51
877.214	9262.27
877.533	9292.78
877.852	9346.56
878.17	9335.04
878.489	9407.58
878.807	9368.48
879.125	9218.88
879.444	9238.09
879.762	9227.7
880.08	9238.32
880.398	9184.76
880.716	9176.4
881.034	9140.69
881.352	9168.71
881.67	9151.31
881.988	9082.61
882.306	9022.28
882.624	9091.2
882.941	8963.52
883.259	9013.46
883.577	8956.74
883.894	8970.75
884.212	8931.43
884.529	8925.78
884.846	8882.39
885.164	8844.65
885.481	8886.69
885.798	8994.93
886.115	8806.69
886.432	8833.36
886.75	8818.21
887.067	8786.35
887.383	8746.13
887.7	8751.78
888.017	8690.08
888.334	8759.91
888.651	8680.36
888.967	8691.66
889.284	8579.35
889.6	8614.6
889.917	8549.75
890.233	8546.13
890.55	8500.93
890.866	8483.99
891.182	8461.16
891.498	8459.81
891.815	8443.54
892.131	8412.12
892.447	8391.56
892.763	8347.49
893.079	8326.25
893.395	8348.85
893.71	8267.04
894.026	8309.98
894.342	8247.61
894.657	8139.14
894.973	8164.9
895.289	8170.1
895.604	8179.36
895.92	8068.86
896.235	8009.2
896.55	8006.94
896.865	8046.94
897.181	7995.64
897.496	8020.5
897.811	8002.87
898.126	7928.97
898.441	7844.91
898.756	7855.08
899.071	7809.43
899.386	7838.58
899.7	7787.28
900.015	7719.26
900.33	7635.87
900.644	7681.75
900.959	7649.66
901.273	7686.72
901.588	7571.02
901.902	7594.97
902.216	7526.05
902.531	7497.8
902.845	7496.67
903.159	7438.14
903.473	7412.15
903.787	7398.14
904.101	7420.51
904.415	7364.92
904.729	7437.91
905.042	7239.05
905.356	7266.62
905.67	7270.91
905.984	7308.65
906.297	7275.43
906.611	7253.28
906.924	7174.42
907.237	7174.87
907.551	7114.76
907.864	7035.44
908.177	7067.3
908.491	7026.85
908.804	7000.64
909.117	6940.3
909.43	6887.64
909.743	6865.27
910.056	6860.75
910.368	6832.73
910.681	6770.13
910.994	6824.82
911.307	6749.57
911.619	6701.89
911.932	6681.32
912.244	6656.46
912.557	6699.85
912.869	6621.44
913.181	6625.73
913.494	6565.84
913.806	6490.37
914.118	6543.47
914.43	6472.97
914.742	6496.02
915.054	6419.86
915.366	6380.76
915.678	6404.49
915.99	6343.03
916.302	6291.95
916.613	6313.42
916.925	6293.31
917.236	6246.08
917.548	6206.76
917.859	6199.53
918.171	6178.06
918.482	6151.84
918.794	6112.75
919.105	6120.21
919.416	6100.09
919.727	6043.6
920.038	6030.72
920.349	5934.67
920.66	5960.66
920.971	5948.01
921.282	5917.5
921.593	5856.94
921.903	5891.74
922.214	5832.3
922.525	5823.04
922.835	5779.42
923.146	5789.14
923.456	5769.26
923.767	5724.28
924.077	5751.63
924.387	5683.61
924.697	5693.78
925.008	5656.26
925.318	5627.79
925.628	5608.58
925.938	5574.68
926.248	5559.54
926.558	5529.04
926.867	5501.92
927.177	5455.82
927.487	5438.42
927.796	5384.41
928.106	5411.07
928.416	5400.9
928.725	5383.73
929.034	5304.63
929.344	5319.78
929.653	5344.41
929.962	5237.74
930.271	5232.09
930.581	5243.85
930.89	5222.6
931.199	5178.54
931.508	5140.12
931.817	5223.05
932.125	5139.67
932.434	5103.06
932.743	5052.44
933.051	5090.18
933.36	5056.28
933.669	4967.69
933.977	4973.34
934.286	5007.69
934.594	4971.31
934.902	4946.45
935.21	4889.5
935.519	4887.92
935.827	4908.26
936.135	4841.82
936.443	4795.5
936.751	4786.46
937.059	4796.4
937.367	4785.78
937.674	4782.61
937.982	4744.65
938.29	4700.81
938.597	4696.97
938.905	4641.83
939.213	4602.96
939.52	4579.23
939.827	4605.44
940.135	4587.37
940.442	4563.41
940.749	4520.47
941.056	4570.64
941.363	4492.23
941.67	4511.89
941.977	4461.72
942.284	4403.42
942.591	4399.35
942.898	4415.62
943.205	4421.49
943.511	4357.77
943.818	4399.8
944.125	4324.32
944.431	4312.12
944.738	4328.39
945.044	4249.52
945.35	4277.77
945.657	4235.74
945.963	4203.19
946.269	4213.59
946.575	4205.91
946.881	4203.65
947.187	4211.56
947.493	4120.26
947.799	4136.53
948.105	4118.68
948.41	4065.12
948.716	4040.71
949.022	4054.5
949.327	4049.75
949.633	3990.54
949.938	3975.18
950.244	3962.07
950.549	3948.06
950.854	3936.76
951.16	3897.44
951.465	3897.89
951.77	3889.53
952.075	3841.85
952.38	3915.52
952.685	3842.53
952.99	3801.62
953.294	3822.41
953.599	3806.14
953.904	3783.77
954.209	3751.68
954.513	3713.26
954.818	3741.74
955.122	3706.26
955.426	3675.07
955.731	3667.39
956.035	3636.66
956.339	3646.15
956.643	3646.83
956.948	3611.35
957.252	3613.61
957.556	3568.86
957.86	3567.96
958.163	3586.04
958.467	3576.32
958.771	3517.79
959.075	3548.97
959.378	3485.25
959.682	3509.65
959.985	3468.52
960.289	3430.79
960.592	3436.21
960.896	3433.95
961.199	3412.25
961.502	3415.19
961.805	3366.61
962.108	3338.58
962.411	3339.04
962.714	3354.63
963.017	3323.44
963.32	3364.35
963.623	3307.17
963.926	3308.08
964.228	3273.95
964.531	3248.42
964.833	3271.92
965.136	3250
965.438	3198.7
965.741	3196.89
966.043	3205.25
966.345	3158.48
966.648	3130.45
966.95	3139.72
967.252	3103.56
967.554	3094.52
967.856	3079.83
968.158	3090.91
968.46	3061.76
968.761	3060.85
969.063	3056.56
969.365	3026.73
969.666	3029.44
969.968	3012.94
970.269	2991.7
970.571	3035.09
970.872	2989.44
971.174	2986.73
971.475	2948.76
971.776	2945.6
972.077	2937.92
972.378	2918.93
972.679	2889.1
972.98	2879.16
973.281	2887.3
973.582	2875.09
973.883	2839.16
974.183	2822.89
974.484	2851.82
974.785	2808.65
975.085	2805.72
975.386	2769.33
975.686	2761.65
975.986	2784.02
976.287	2758.26
976.587	2724.36
976.887	2723.91
977.187	2713.06
977.487	2709.67
977.787	2715.1
978.087	2671.71
978.387	2642.33
978.687	2656.79
978.987	2618.38
979.286	2605.72
979.586	2631.48
979.885	2611.6
980.185	2598.04
980.484	2564.37
980.784	2558.94
981.083	2581.09
981.382	2538.61
981.682	2531.6
981.981	2534.99
982.28	2513.07
982.579	2504.03
982.878	2492.96
983.177	2477.14
983.475	2488.66
983.774	2456.57
984.073	2492.51
984.372	2432.39
984.67	2448.21
984.969	2399.63
985.267	2413.64
985.566	2395.11
985.864	2384.71
986.162	2407.76
986.461	2353.98
986.759	2357.59
987.057	2326.18
987.355	2338.38
987.653	2304.04
987.951	2291.15
988.249	2314.43
988.547	2293.41
988.844	2290.02
989.142	2273.08
989.44	2284.83
989.737	2243.92
990.035	2273.53
990.332	2226.3
990.63	2203.02
990.927	2183.81
991.224	2165.73
991.521	2186.98
991.819	2178.39
992.116	2157.15
992.413	2178.62
992.71	2152.85
993.006	2145.17
993.303	2117.6
993.6	2130.48
993.897	2144.04
994.193	2119.63
994.49	2076.24
994.787	2076.02
995.083	2074.89
995.379	2070.37
995.676	2067.66
995.972	2047.09
996.268	2046.64
996.565	2027.66
996.861	2003.48
997.157	1988.56
997.453	2004.83
997.749	1992.86
998.044	2011.61
998.34	1991.05
998.636	1986.08
998.932	1959.64
999.227	1943.37
999.523	1910.83
999.818	1915.57
1000.114	1890.04
1000.409	1892.75
1000.704	1893.2
1001	1901.11
1001.295	1870.15
1001.59	1885.74
1001.885	1856.36
1002.18	1844.84
1002.475	1854.33
1002.77	1810.04
1003.065	1825.4
1003.359	1791.51
1003.654	1843.93
1003.949	1805.97
1004.243	1792.86
1004.538	1789.02
1004.832	1780.66
1005.127	1765.52
1005.421	1736.14
1005.715	1760.32
1006.009	1713.77
1006.304	1746.31
1006.598	1708.57
1006.892	1700.44
1007.186	1702.47
1007.48	1681.23
1007.773	1671.06
1008.067	1661.79
1008.361	1646.65
1008.655	1655.69
1008.948	1640.55
1009.242	1618.86
1009.535	1619.99
1009.829	1619.99
1010.122	1605.52
1010.415	1598.29
1010.708	1572.53
1011.001	1584.96
1011.295	1556.26
1011.588	1571.85
1011.881	1558.52
1012.173	1563.94
1012.466	1561.91
1012.759	1529.82
1013.052	1513.55
1013.344	1496.83
1013.637	1525.98
1013.93	1504.06
1014.222	1464.96
1014.514	1475.81
1014.807	1465.19
1015.099	1434.23
1015.391	1427.9
1015.683	1438.52
1015.976	1430.16
1016.268	1429.93
1016.56	1410.5
1016.851	1389.94
1017.143	1416.15
1017.435	1379.77
1017.727	1346.55
1018.018	1335.02
1018.31	1375.25
1018.602	1350.61
1018.893	1314.91
1019.185	1317.85
1019.476	1345.87
1019.767	1339.77
1020.058	1297.51
1020.35	1320.33
1020.641	1272.2
1020.932	1286.44
1021.223	1294.57
1021.514	1248.02
1021.804	1235.81
1022.095	1270.62
1022.386	1258.41
1022.677	1228.81
1022.967	1211.41
1023.258	1214.12
1023.548	1218.87
1023.839	1246.21
1024.129	1220.9
1024.419	1188.13
1024.709	1198.3
1025	1165.76
1025.29	1177.29
1025.58	1144.07
1025.87	1173.22
1026.16	1166.21
1026.449	1131.41
1026.739	1112.65
1027.029	1106.78
1027.319	1131.64
1027.608	1105.65
1027.898	1107.23
1028.187	1119.66
1028.477	1094.8
1028.766	1101.58
1029.055	1090.06
1029.344	1100.23
1029.634	1070.85
1029.923	1051.41
1030.212	1070.4
1030.501	1061.81
1030.79	1040.11
1031.078	1035.59
1031.367	1027.91
1031.656	1027.46
1031.945	1003.5
1032.233	1009.61
1032.522	1011.87
1032.81	983.62
1033.099	967.35
1033.387	998.76
1033.675	977.52
1033.963	977.97
1034.251	963.28
1034.54	956.73
1034.828	929.83
1035.116	951.3
1035.403	957.63
1035.691	929.83
1035.979	933.45
1036.267	935.48
1036.554	932.09
1036.842	894.13
1037.129	905.43
1037.417	898.65
1037.704	921.7
1037.992	911.3
1038.279	887.35
1038.566	888.03
1038.853	888.03
1039.14	888.03
