Data from hue_26_FLMS001491_00086.txt Node
Date: Tue Feb 07 17:14:41 GMT 2017
User: dcchb
Spectrometer: FLMS00149
Trigger mode: 0
Integration Time (sec): 2.000000E-2
Scans to average: 10
Electric dark correction enabled: true
Nonlinearity correction enabled: false
Boxcar width: 0
XAxis mode: Wavelengths
Number of Pixels in Spectrum: 2048
>>>>>Begin Spectral Data<<<<<
341.393	6.16
341.776	6.16
342.16	6.16
342.543	-53.5
342.927	-72.71
343.31	-69.55
343.693	-66.83
344.077	-74.97
344.46	-49.21
344.843	-55.76
345.226	-43.56
345.61	-26.84
345.993	-27.51
346.376	-18.47
346.759	17.91
347.142	23.11
347.525	46.16
347.908	82.77
348.291	69.66
348.674	88.19
349.057	104.91
349.44	139.26
349.823	148.3
350.206	179.03
350.588	209.77
350.971	218.13
351.354	230.11
351.737	234.17
352.119	256.32
352.502	255.19
352.884	275.98
353.267	256.77
353.65	295.64
354.032	292.03
354.414	314.62
354.797	301.07
355.179	311.69
355.562	328.86
355.944	362.31
356.326	333.16
356.709	344.68
357.091	349.2
357.473	354.62
357.855	345.58
358.238	346.94
358.62	323.89
359.002	327.96
359.384	340.84
359.766	326.6
360.148	350.56
360.53	355.3
360.912	353.95
361.294	340.39
361.676	341.52
362.057	315.08
362.439	340.84
362.821	358.69
363.203	329.31
363.584	339.48
363.966	322.76
364.348	321.86
364.729	328.64
365.111	319.37
365.493	334.28
365.874	297
366.256	294.96
366.637	327.05
367.019	318.92
367.4	328.41
367.781	324.57
368.163	340.61
368.544	305.36
368.925	318.47
369.306	337.22
369.688	314.62
370.069	312.36
370.45	325.7
370.831	305.36
371.212	312.59
371.593	310.1
371.974	343.32
372.355	308.3
372.736	339.48
373.117	322.99
373.498	339.48
373.879	305.13
374.26	319.37
374.641	332.93
375.021	329.31
375.402	317.79
375.783	328.86
376.163	330.44
376.544	336.54
376.925	313.49
377.305	336.32
377.686	325.47
378.066	339.03
378.447	311.01
378.827	330.9
379.208	340.39
379.588	310.56
379.968	348.97
380.349	313.95
380.729	341.74
381.109	345.13
381.489	323.89
381.87	340.16
382.25	353.27
382.63	319.37
383.01	337.22
383.39	353.49
383.77	352.14
384.15	326.6
384.53	363.89
384.91	349.43
385.29	337.9
385.67	344.68
386.049	362.98
386.429	363.44
386.809	351.01
387.189	347.39
387.568	347.39
387.948	354.62
388.328	343.78
388.707	362.53
389.087	344.23
389.466	346.71
389.846	360.5
390.225	353.04
390.605	371.35
390.984	368.18
391.363	354.85
391.743	358.47
392.122	382.42
392.501	376.09
392.881	366.83
393.26	387.62
393.639	394.4
394.018	377
394.397	377.22
394.776	380.16
395.155	365.02
395.534	391.91
395.913	391.46
396.292	399.37
396.671	390.33
397.05	380.16
397.429	384.45
397.808	395.98
398.186	387.39
398.565	373.83
398.944	387.39
399.323	381.29
399.701	400.27
400.08	393.72
400.458	400.5
400.837	400.72
401.215	421.74
401.594	381.52
401.972	405.47
402.351	400.5
402.729	381.74
403.107	400.5
403.486	403.21
403.864	405.47
404.242	416.09
404.62	405.7
404.999	402.31
405.377	393.49
405.755	419.71
406.133	418.58
406.511	416.54
406.889	437.11
407.267	431.91
407.645	428.52
408.023	428.97
408.401	448.63
408.779	443.43
409.156	414.28
409.534	464.45
409.912	443.21
410.29	436.66
410.667	431.01
411.045	455.64
411.422	457.22
411.8	458.12
412.178	439.37
412.555	451.12
412.933	485.92
413.31	448.18
413.687	474.85
414.065	487.95
414.442	484.34
414.819	478.01
415.197	464.68
415.574	476.43
415.951	480.04
416.328	521.85
416.705	482.98
417.082	487.05
417.46	472.36
417.837	484.79
418.214	492.7
418.591	480.5
418.967	498.8
419.344	509.42
419.721	513.04
420.098	508.74
420.475	512.81
420.852	518.01
421.228	504.9
421.605	516.65
421.982	521.62
422.358	508.97
422.735	523.66
423.111	516.88
423.488	510.33
423.864	528.4
424.241	544.22
424.617	527.5
424.994	530.66
425.37	543.32
425.746	537.44
426.123	551.23
426.499	556.88
426.875	558.01
427.251	569.31
427.627	564.34
428.003	591.45
428.379	580.15
428.756	581.74
429.132	587.39
429.507	593.04
429.883	595.75
430.259	581.51
430.635	586.48
431.011	612.47
431.387	597.1
431.763	616.31
432.138	609.76
432.514	604.79
432.89	601.85
433.265	647.95
433.641	656.99
434.016	638.01
434.392	662.19
434.767	638.01
435.143	660.38
435.518	677.33
435.894	660.83
436.269	679.59
436.644	681.85
437.02	686.59
437.395	685.46
437.77	695.18
438.145	697.21
438.52	694.05
438.895	691.56
439.271	714.39
439.646	733.6
440.021	718.91
440.395	710.77
440.77	724.33
441.145	728.4
441.52	749.87
441.895	714.61
442.27	736.08
442.645	743.99
443.019	742.86
443.394	742.18
443.769	761.17
444.143	740.38
444.518	769.75
444.892	754.61
445.267	783.09
445.641	773.6
446.016	799.13
446.39	768.85
446.764	784.89
447.139	793.93
447.513	775.86
447.887	784.67
448.262	797.78
448.636	763.65
449.01	817.21
449.384	803.43
449.758	808.62
450.132	823.54
450.506	832.8
450.88	840.94
451.254	838
451.628	833.48
452.002	873.48
452.376	875.97
452.75	875.29
453.123	858.34
453.497	890.88
453.871	893.59
454.244	891.78
454.618	894.95
454.992	897.43
455.365	896.3
455.739	918.9
456.112	932.01
456.486	935.17
456.859	942.18
457.232	935.4
457.606	978.56
457.979	973.59
458.352	1018.11
458.725	981.95
459.099	992.12
459.472	998.22
459.845	1020.14
460.218	1022.18
460.591	1030.76
460.964	1035.96
461.337	1037.32
461.71	1067.37
462.083	1081.16
462.456	1086.81
462.829	1077.32
463.201	1115.51
463.574	1088.16
463.947	1117.09
464.32	1134.04
464.692	1146.02
465.065	1173.81
465.438	1172
465.81	1197.99
466.183	1208.16
466.555	1200.25
466.928	1207.71
467.3	1213.81
467.672	1250.87
468.045	1270.98
468.417	1272.34
468.789	1296.97
469.161	1352.11
469.534	1330.64
469.906	1342.62
470.278	1370.64
470.65	1397.53
471.022	1397.76
471.394	1420.36
471.766	1442.5
472.138	1458.78
472.51	1467.36
472.882	1514.82
473.253	1512.33
473.625	1531.09
473.997	1594.82
474.369	1581.71
474.74	1604.53
475.112	1637.98
475.484	1651.54
475.855	1691.54
476.227	1729.05
476.598	1772.67
476.97	1797.3
477.341	1824.64
477.713	1844.75
478.084	1846.11
478.455	1912.1
478.827	1908.93
479.198	2009.72
479.569	2014.24
479.94	2056.5
480.311	2084.3
480.682	2132.66
481.053	2164.29
481.424	2240.9
481.795	2239.32
482.166	2295.82
482.537	2337.17
482.908	2386.43
483.279	2402.25
483.65	2481.8
484.021	2501.69
484.391	2590.72
484.762	2597.28
485.133	2665.98
485.503	2671.62
485.874	2764.73
486.244	2786.2
486.615	2818.51
486.985	2902.35
487.356	2920.43
487.726	2971.5
488.097	3037.72
488.467	3065.96
488.837	3119.75
489.207	3179.63
489.578	3232.06
489.948	3279.29
490.318	3317.71
490.688	3300.53
491.058	3374.43
491.428	3482.45
491.798	3514.31
492.168	3596.57
492.538	3625.05
492.908	3696.68
493.278	3687.64
493.648	3720.86
494.017	3784.82
494.387	3826.17
494.757	3874.08
495.126	3940.29
495.496	3974.87
495.866	3980.52
496.235	4013.06
496.605	4090.12
496.974	4127.18
497.344	4161.53
497.713	4174.86
498.082	4181.87
498.452	4281.98
498.821	4314.52
499.19	4331.69
499.559	4326.27
499.928	4407.4
500.298	4418.92
500.667	4438.81
501.036	4514.74
501.405	4547.28
501.774	4557
502.143	4573.27
502.512	4599.26
502.88	4662.76
503.249	4668.63
503.618	4696.66
503.987	4725.36
504.356	4724.23
504.724	4801.96
505.093	4814.85
505.462	4840.61
505.83	4869.08
506.199	4886.93
506.567	4903.88
506.936	4956.54
507.304	4992.47
507.672	5074.05
508.041	5070.21
508.409	5019.81
508.777	5101.62
509.145	5143.88
509.514	5130.54
509.882	5189.52
510.25	5185.91
510.618	5186.13
510.986	5233.59
511.354	5269.75
511.722	5333.7
512.09	5348.62
512.458	5417.54
512.826	5398.56
513.193	5410.76
513.561	5400.14
513.929	5490.99
514.297	5492.34
514.664	5555.84
515.032	5574.15
515.4	5533.47
515.767	5604.43
516.135	5658.21
516.502	5636.07
516.869	5708.61
517.237	5669.74
517.604	5661.15
517.972	5727.82
518.339	5768.27
518.706	5745.67
519.073	5748.15
519.44	5782.5
519.808	5879.22
520.175	5836.74
520.542	6007.81
520.909	5909.96
521.276	5943.86
521.643	5984.53
522.009	6040.58
522.376	6062.27
522.743	6057.75
523.11	6163.74
523.477	6150.63
523.843	6188.37
524.21	6254.13
524.577	6271.3
524.943	6312.66
525.31	6337.97
525.676	6427.46
526.043	6349.27
526.409	6416.38
526.776	6557.4
527.142	6466.55
527.508	6515.59
527.874	6535.48
528.241	6603.05
528.607	6612.31
528.973	6715.59
529.339	6672.65
529.705	6751.07
530.071	6750.84
530.437	6788.8
530.803	6862.47
531.169	6821.12
531.535	6882.59
531.901	6876.94
532.267	6966.88
532.632	6977.73
532.998	7003.04
533.364	7104.05
533.73	7040.78
534.095	7089.81
534.461	7105.41
534.826	7183.14
535.192	7203.93
535.557	7304.72
535.923	7283.48
536.288	7337.49
536.653	7343.37
537.019	7317.38
537.384	7349.69
537.749	7452.29
538.114	7384.04
538.479	7429.69
538.845	7488.67
539.21	7502.68
539.575	7525.73
539.94	7515.57
540.305	7637.37
540.67	7627.43
541.034	7609.12
541.399	7627.43
541.764	7699.29
542.129	7738.38
542.494	7712.62
542.858	7740.19
543.223	7815.44
543.587	7861.77
543.952	7890.24
544.316	7906.74
544.681	7943.8
545.045	7972.05
545.41	8059.73
545.774	7993.74
546.138	8042.78
546.503	8150.12
546.867	8067.19
547.231	8134.98
547.595	8228.99
547.959	8217.69
548.324	8247.75
548.688	8266.28
549.052	8305.6
549.416	8307.86
549.779	8333.62
550.143	8286.17
550.507	8440.51
550.871	8468.99
551.235	8443.68
551.599	8475.09
551.962	8537.46
552.326	8576.33
552.689	8600.96
553.053	8551.47
553.417	8626.27
553.78	8637.12
554.143	8665.14
554.507	8724.12
554.87	8727.96
555.234	8863.33
555.597	8713.95
555.96	8811.35
556.323	8848.64
556.686	8836.89
557.05	8950.78
557.413	8965.02
557.776	9004.79
558.139	9006.15
558.502	9083.21
558.865	9099.93
559.228	9099.48
559.59	9156.88
559.953	9114.39
560.316	9241.4
560.679	9214.73
561.041	9289.53
561.404	9305.12
561.767	9361.84
562.129	9332.24
562.492	9419.92
562.854	9425.57
563.217	9386.93
563.579	9436.19
563.941	9470.54
564.304	9560.03
564.666	9639.35
565.028	9608.84
565.39	9681.61
565.753	9735.39
566.115	9753.92
566.477	9823.53
566.839	9826.69
567.201	9902.17
567.563	9878.44
567.925	9903.75
568.287	9910.08
568.648	9971.09
569.01	10016.97
569.372	10184.42
569.734	10044.54
570.095	10115.5
570.457	10232.33
570.819	10186.23
571.18	10224.19
571.542	10310.52
571.903	10363.63
572.265	10430.29
572.626	10443.17
572.987	10414.92
573.349	10574.47
573.71	10629.38
574.071	10644.52
574.432	10684.3
574.794	10807.68
575.155	10926.55
575.516	10868.02
575.877	10992.31
576.238	11012.65
576.599	11140.78
576.96	11126.09
577.32	11250.16
577.681	11300.55
578.042	11481.56
578.403	11458.06
578.763	11639.98
579.124	11653.54
579.485	11816.92
579.845	11936.01
580.206	12048.78
580.566	12149.79
580.927	12336
581.287	12432.95
581.648	12532.38
582.008	12651.25
582.368	12805.37
582.728	13039.26
583.089	13113.16
583.449	13284.68
583.809	13439.7
584.169	13587.5
584.529	13863.65
584.889	14041.5
585.249	14194.49
585.609	14347.7
585.969	14615.72
586.329	14798.99
586.688	15013.22
587.048	15221.8
587.408	15322.82
587.768	15601.23
588.127	15812.97
588.487	16049.8
588.846	16466.29
589.206	16539.06
589.565	16842.1
589.925	17179.27
590.284	17324.57
590.643	17696.77
591.003	18065.8
591.362	18334.49
591.721	18497.42
592.08	18851.54
592.44	19061.48
592.799	19424.18
593.158	19674.79
593.517	19874.56
593.876	20305.96
594.235	20490.37
594.593	20765.61
594.952	21106.17
595.311	21327.18
595.67	21679.26
596.029	22138.46
596.387	22404.89
596.746	22818.67
597.104	22913.8
597.463	23271.99
597.822	23704.29
598.18	23830.16
598.538	24149.25
598.897	24521.9
599.255	24590.6
599.613	25298.37
599.972	25297.02
600.33	25753.96
600.688	25912.6
601.046	26300.38
601.404	26703.76
601.762	26909.41
602.12	27316.85
602.478	27503.06
602.836	27869.15
603.194	27956.84
603.552	28286.32
603.91	28497.16
604.268	28975.57
604.625	28991.61
604.983	29436.12
605.341	29488.09
605.698	29771.93
606.056	30169.66
606.413	30337.11
606.771	30783.2
607.128	30912.24
607.485	31080.37
607.843	31289.86
608.2	31681.26
608.557	32052.32
608.914	32044.64
609.272	32591.29
609.629	32767.56
609.986	33076.02
610.343	33057.27
610.7	33475.33
611.057	33577.7
611.414	33764.37
611.771	34002.78
612.127	34313.05
612.484	34419.49
612.841	34760.72
613.198	34706.71
613.554	34904
613.911	35310.09
614.267	35395.74
614.624	35590.08
614.98	35628.72
615.337	36028.49
615.693	36101.48
616.05	36273.9
616.406	36474.13
616.762	36615.82
617.118	36800.44
617.475	36900.33
617.831	37061.45
618.187	37271.17
618.543	37454.66
618.899	37652.17
619.255	37808.33
619.611	37744.37
619.967	38018.72
620.323	38293.29
620.678	38218.49
621.034	38140.75
621.39	38323.79
621.746	38330.35
622.101	38949.54
622.457	38716.1
622.812	38950.22
623.168	39153.15
623.523	39115.41
623.879	39232.47
624.234	39189.76
624.589	39407.16
624.945	39420.26
625.3	39531.9
625.655	39699.58
626.01	39633.82
626.365	39807.37
626.72	39766.47
627.075	39866.13
627.43	39933.24
627.785	39903.41
628.14	40121.26
628.495	40159.68
628.85	40209.85
629.205	40077.65
629.559	40341.59
629.914	40233.57
630.269	40404.64
630.623	40315.83
630.978	40251.65
631.332	40573.9
631.687	40689.61
632.041	40425.43
632.396	40578.88
632.75	40470.4
633.104	40680.79
633.459	40573.68
633.813	40667.46
634.167	40512.89
634.521	40604.86
634.875	40614.81
635.229	40576.16
635.583	40477.86
635.937	40502.04
636.291	40627.91
636.645	40472.44
636.999	40567.58
637.352	40562.15
637.706	40456.39
638.06	40669.72
638.413	40571.42
638.767	40382.95
639.121	40548.59
639.474	40482.38
639.828	40439.22
640.181	40513.57
640.534	40637.41
640.888	40394.7
641.241	40323.97
641.594	40436.28
641.947	40503.4
642.301	40464.3
642.654	40593.34
643.007	40560.12
643.36	40530.74
643.713	40431.99
644.066	40530.52
644.419	40274.48
644.771	40068.38
645.124	39685.34
645.477	39616.64
645.83	39555.4
646.182	39347.72
646.535	39252.36
646.888	39342.07
647.24	39100.72
647.593	39443.99
647.945	39357.21
648.298	39141.4
648.65	39216.2
649.002	38988.86
649.355	39154.96
649.707	39207.61
650.059	39464.78
650.411	39915.84
650.763	39933.92
651.115	40331.88
651.467	40148.38
651.819	40069.06
652.171	40040.36
652.523	39963.75
652.875	40045.78
653.227	39928.5
653.578	40019.12
653.93	40011.89
654.282	39878.56
654.633	39812.12
654.985	39873.81
655.337	39977.08
655.688	39937.99
656.039	40066.12
656.391	39665.23
656.742	39831.1
657.094	39904.32
657.445	39962.17
657.796	39762.4
658.147	39882.85
658.498	39773.25
658.849	39848.05
659.2	39721.05
659.551	39643.99
659.902	39879.46
660.253	39702.97
660.604	39741.84
660.955	39621.61
661.306	39777.54
661.656	39658
662.007	39699.8
662.358	39673.82
662.708	39769.41
663.059	39610.09
663.409	39515.85
663.76	39739.12
664.11	39659.8
664.461	39758.11
664.811	39817.09
665.161	39763.3
665.511	39576.64
665.862	39619.35
666.212	39759.69
666.562	39754.49
666.912	39583.42
667.262	39621.84
667.612	39603.53
667.962	39799.01
668.312	39501.39
668.662	39777.99
669.011	39629.97
669.361	39595.4
669.711	39506.59
670.06	39500.49
670.41	39449.87
670.76	39407.83
671.109	39570.09
671.459	39399.92
671.808	39418
672.157	39444.22
672.507	39238.35
672.856	39400.38
673.205	39444.44
673.554	39470.21
673.904	39336.2
674.253	39577.32
674.602	39389.76
674.951	38832.71
675.3	38617.12
675.649	39450.54
675.998	39241.51
676.346	39213.71
676.695	39466.36
677.044	39090.78
677.393	39107.28
677.741	39165.58
678.09	39040.61
678.438	39104.11
678.787	39099.37
679.135	38992.03
679.484	38978.01
679.832	39032.7
680.181	38709.1
680.529	38757.23
680.877	38797.68
681.225	38778.02
681.573	38938.02
681.922	38687.63
682.27	38499.61
682.618	38582.32
682.966	38516.11
683.314	38521.98
683.661	38483.11
684.009	38322.44
684.357	38241.08
684.705	38195.21
685.053	38282.44
685.4	38206.96
685.748	38049.9
686.095	38166.06
686.443	38032.95
686.79	37935.78
687.138	37981.2
687.485	37928.55
687.832	37682.46
688.18	37786.18
688.527	37522.91
688.874	37605.4
689.221	37529.69
689.568	37322.01
689.915	37357.04
690.262	37339.41
690.609	37190.94
690.956	37103.26
691.303	37087.44
691.65	36863.27
691.997	36943.27
692.344	36694.91
692.69	36690.62
693.037	36756.6
693.383	36375.15
693.73	36639.55
694.077	36341.47
694.423	36484.07
694.769	36195.94
695.116	36110.97
695.462	36012.22
695.808	36065.55
696.155	35997.3
696.501	35733.81
696.847	35755.05
697.193	35499.69
697.539	35672.34
697.885	35370.2
698.231	35349.41
698.577	35297.21
698.923	35160.26
699.269	35134.73
699.614	34952.13
699.96	35014.73
700.306	34902.87
700.651	34738.35
700.997	34600.28
701.342	34723.44
701.688	34610.67
702.033	34449.55
702.379	34455.2
702.724	34381.3
703.069	34426.04
703.415	33961.2
703.76	34043
704.105	34086.62
704.45	34039.61
704.795	33722.79
705.14	33694.31
705.485	33601.43
705.83	33469.01
706.175	33643.24
706.52	33478.5
706.865	33324.15
707.209	33225.4
707.554	33141.56
707.899	33330.48
708.243	32999.19
708.588	33014.1
708.932	32748.35
709.277	32719.65
709.621	32779.76
709.966	32637.84
710.31	32652.76
710.654	32493.44
710.998	32414.8
711.342	32480.11
711.687	32441.92
712.031	32201.7
712.375	32177.29
712.719	32205.09
713.063	32017.75
713.407	32203.96
713.75	31947.92
714.094	31955.6
714.438	31950.4
714.782	31859.11
715.125	31827.02
715.469	31829.95
715.812	31638.09
716.156	31521.26
716.499	31526.23
716.843	31418.44
717.186	31488.49
717.53	31496.63
717.873	31344.09
718.216	31266.13
718.559	31151.33
718.902	31086.47
719.246	31146.13
719.589	30941.62
719.932	30910.2
720.275	30900.71
720.617	30941.84
720.96	30766.03
721.303	30808.06
721.646	30755.86
721.989	30604.68
722.331	30736.88
722.674	30510.89
723.016	30458.46
723.359	30579.37
723.701	30383.89
724.044	30253.05
724.386	30174.86
724.729	30417.79
725.071	30185.93
725.413	30187.29
725.755	30049.21
726.097	30105.71
726.439	29825.03
726.782	29908.42
727.124	29934.86
727.465	29837.69
727.807	29876.11
728.149	29786.84
728.491	29688.99
728.833	29717.92
729.175	29577.13
729.516	29599.05
729.858	29589.33
730.199	29567.41
730.541	29528.77
730.882	29497.59
731.224	29615.77
731.565	29379.62
731.906	29272.73
732.248	29397.02
732.589	29313.64
732.93	29128.33
733.271	29182.57
733.612	29158.61
733.953	29091.72
734.294	29091.72
734.635	29067.54
734.976	29168.78
735.317	28892.86
735.658	28814.21
735.999	28799.53
736.339	28794.55
736.68	28860.54
737.021	28726.76
737.361	28562.02
737.702	28762.24
738.042	28728.79
738.383	28639.08
738.723	28637.27
739.063	28454.22
739.404	28555.24
739.744	28397.28
740.084	28369.71
740.424	28379.42
740.764	28258.3
741.104	28390.95
741.444	28175.36
741.784	28246.77
742.124	28231.63
742.464	28149.82
742.804	28210.16
743.143	28063.05
743.483	28073.67
743.823	27843.84
744.162	27898.53
744.502	27895.14
744.841	27896.27
745.181	28036.38
745.52	27897.18
745.86	27855.14
746.199	27750.74
746.538	27769.27
746.877	27797.74
747.216	27680.91
747.556	27570.18
747.895	27603.17
748.234	27548.26
748.573	27484.76
748.911	27474.14
749.25	27451.09
749.589	27348.94
749.928	27365.21
750.267	27406.57
750.605	27257.42
750.944	27254.93
751.283	27099
751.621	27225.78
751.96	27020.14
752.298	27087.93
752.636	27102.85
752.975	26900.14
753.313	26768.84
753.651	26991.21
753.989	26706.02
754.327	26698.79
754.666	26558.45
755.004	26638.9
755.342	26656.08
755.679	26426.48
756.017	26381.06
756.355	26476.2
756.693	26367.95
757.031	26350.55
757.368	26185.36
757.706	26259.71
758.044	26057.22
758.381	26040.73
758.719	26069.88
759.056	26116.66
759.394	25964.12
759.731	25857.46
760.068	25830.56
760.405	25681.64
760.743	25655.2
761.08	25744.24
761.417	25431.25
761.754	25503.34
762.091	25436.22
762.428	25313.29
762.765	25217.02
763.102	25315.78
763.438	25142.9
763.775	25116.91
764.112	25102.67
764.449	25069.68
764.785	24936.35
765.122	24715.79
765.458	24707.43
765.795	24589.92
766.131	24599.41
766.467	24448.23
766.804	24440.54
767.14	24332.75
767.476	24229.25
767.812	24244.62
768.148	24211.4
768.485	23972.08
768.821	23939.54
769.157	23961.23
769.492	23833.1
769.828	23790.39
770.164	23583.62
770.5	23597.63
770.836	23553.56
771.171	23313.79
771.507	23307.01
771.842	23209.62
772.178	23173.23
772.513	23050.98
772.849	23077.42
773.184	23010.98
773.519	22879.45
773.855	22840.59
774.19	22658.44
774.525	22728.27
774.86	22613.7
775.195	22523.76
775.53	22403.99
775.865	22310.2
776.2	22212.13
776.535	22083.54
776.87	22031.12
777.205	22018.69
777.539	21878.35
777.874	21932.81
778.209	21780.05
778.543	21668.87
778.878	21480.4
779.212	21551.35
779.547	21402.66
779.881	21504.12
780.215	21231.14
780.55	21351.59
780.884	21172.38
781.218	21084.02
781.552	21126.05
781.886	20959.96
782.22	20844.03
782.554	20821.88
782.888	20690.59
783.222	20489.91
783.556	20493.98
783.889	20447.2
784.223	20305.51
784.557	20181.9
784.89	20322.91
785.224	20160.88
785.557	20006.08
785.891	19942.13
786.224	19955.92
786.558	19993.43
786.891	19681.57
787.224	19731.06
787.557	19647.45
787.891	19662.59
788.224	19640.9
788.557	19620.78
788.89	19404.97
789.223	19535.59
789.556	19330.85
789.888	19204.75
790.221	19164.98
790.554	18993.91
790.887	19101.48
791.219	18960.91
791.552	18885.21
791.884	18745.78
792.217	18807.92
792.549	18666.01
792.882	18612.67
793.214	18586.23
793.546	18524.77
793.879	18348.27
794.211	18316.41
794.543	18464.66
794.875	18296.98
795.207	18303.08
795.539	18213.81
795.871	18191.89
796.203	18015.18
796.535	17890.43
796.867	17860.83
797.198	17846.14
797.53	17814.5
797.862	17696.77
798.193	17635.75
798.525	17709.42
798.856	17676.43
799.188	17401.86
799.519	17478.02
799.85	17370.67
800.182	17389.43
800.513	17299.94
800.844	17145.37
801.175	17223.33
801.506	17178.59
801.837	17098.14
802.168	17089.78
802.499	16991.7
802.83	16941.31
803.161	16808.65
803.491	16838.26
803.822	16924.81
804.153	16699.73
804.483	16549.45
804.814	16529.57
805.145	16444.14
805.475	16498.61
805.805	16484.59
806.136	16413.41
806.466	16452.51
806.796	16327.54
807.126	16235.11
807.457	16184.04
807.787	16280.08
808.117	16104.04
808.447	16142
808.777	16157.82
809.107	16055.23
809.436	15938.62
809.766	15860.88
810.096	15900.88
810.426	15869.7
810.755	15823.82
811.085	15800.77
811.414	15720.55
811.744	15697.04
812.073	15620.89
812.403	15623.6
812.732	15422.93
813.061	15524.17
813.39	15398.3
813.719	15376.15
814.049	15387.22
814.378	15325.3
814.707	15239.66
815.036	15254.57
815.365	15247.79
815.693	15075.59
816.022	15075.82
816.351	15056.16
816.68	14970.28
817.008	15034.46
817.337	14839.89
817.665	14911.75
817.994	14874.92
818.322	14843.96
818.651	14869.95
818.979	14768.48
819.307	14778.2
819.636	14818.2
819.964	14602.61
820.292	14736.62
820.62	14748.14
820.948	14693.46
821.276	14714.47
821.604	14508.6
821.932	14677.86
822.259	14590.41
822.587	14567.81
822.915	14558.54
823.243	14556.96
823.57	14590.63
823.898	14581.14
824.225	14556.06
824.553	14561.03
824.88	14508.15
825.207	14558.09
825.535	14488.04
825.862	14592.67
826.189	14407.81
826.516	14558.77
826.843	14576.4
827.17	14565.32
827.497	14591.54
827.824	14544.98
828.151	14599.67
828.478	14530.52
828.805	14653.46
829.131	14505.44
829.458	14482.84
829.785	14392.22
830.111	14528.71
830.438	14525.1
830.764	14495.04
831.09	14475.38
831.417	14434.25
831.743	14504.99
832.069	14370.3
832.395	14479.22
832.722	14429.51
833.048	14439.22
833.374	14413.69
833.7	14316.06
834.026	14299.57
834.351	14329.17
834.677	14403.75
835.003	14424.08
835.329	14283.3
835.654	14260.7
835.98	14219.12
836.306	14226.58
836.631	14186.35
836.956	14264.31
837.282	14278.55
837.607	14180.47
837.932	14107.71
838.258	14234.48
838.583	14156.29
838.908	14055.51
839.233	14055.28
839.558	14000.59
839.883	13957.43
840.208	13928.73
840.533	13950.2
840.858	14000.37
841.182	13924.89
841.507	13917.66
841.832	13812.8
842.156	13841.05
842.481	13833.82
842.805	13768.28
843.13	13735.29
843.454	13691.45
843.778	13656.19
844.103	13673.6
844.427	13570.55
844.751	13612.58
845.075	13479.48
845.399	13484
845.723	13401.29
846.047	13520.15
846.371	13353.83
846.695	13328.97
847.019	13175.98
847.343	13205.81
847.666	13109.77
847.99	12960.39
848.313	13007.17
848.637	12928.76
848.96	13007.4
849.284	12862.09
849.607	12735.09
849.931	12814.18
850.254	12693.28
850.577	12658.48
850.9	12535.55
851.223	12526.28
851.546	12434.98
851.869	12378.94
852.192	12416
852.515	12330.13
852.838	12256.46
853.161	12222.33
853.483	12199.28
853.806	12125.61
854.129	12084.26
854.451	12081.55
854.774	12045.16
855.096	12008.1
855.419	11945.96
855.741	11943.7
856.063	11811.5
856.385	11835
856.708	11815.79
857.03	11778.73
857.352	11755.68
857.674	11671.16
857.996	11662.12
858.318	11631.84
858.64	11637.26
858.961	11641.78
859.283	11540.77
859.605	11467.55
859.926	11497.83
860.248	11441.56
860.57	11401.34
860.891	11480.88
861.212	11321.34
861.534	11317.73
861.855	11337.39
862.176	11311.4
862.498	11352.75
862.819	11283.83
863.14	11239.31
863.461	11262.59
863.782	11171.51
864.103	11150.95
864.424	11180.78
864.745	11161.57
865.065	11071.18
865.386	10978.52
865.707	11030.5
866.027	11024.63
866.348	11079.54
866.668	11012.65
866.989	10973.33
867.309	10928.13
867.63	10888.36
867.95	10935.36
868.27	10864.63
868.59	10831.64
868.91	10780.79
869.23	10794.12
869.55	10770.85
869.87	10855.82
870.19	10826.89
870.51	10849.49
870.83	10762.71
871.15	10736.5
871.469	10688.81
871.789	10739.44
872.109	10716.16
872.428	10605.88
872.748	10608.82
873.067	10633.22
873.386	10605.88
873.706	10594.58
874.025	10566.11
874.344	10471.87
874.663	10552.32
874.982	10451.53
875.301	10503.74
875.62	10456.28
875.939	10455.15
876.258	10519.78
876.577	10418.31
876.896	10381.03
877.214	10340.58
877.533	10337.19
877.852	10288.83
878.17	10269.39
878.489	10363.63
878.807	10339.67
879.125	10281.59
879.444	10271.88
879.762	10233.69
880.08	10256.96
880.398	10183.07
880.716	10183.74
881.034	10155.72
881.352	10190.52
881.67	10090.19
881.988	10213.12
882.306	10066.23
882.624	10035.05
882.941	9976.52
883.259	9997.99
883.577	9957.08
883.894	9980.13
884.212	9930.64
884.529	9969.06
884.846	9965.22
885.164	9901.72
885.481	9816.3
885.798	9906.69
886.115	9794.38
886.432	9834.6
886.75	9736.3
887.067	9730.87
887.383	9731.78
887.7	9749.86
888.017	9663.31
888.334	9625.57
888.651	9626.24
888.967	9647.49
889.284	9544.89
889.6	9608.17
889.917	9479.13
890.233	9450.88
890.55	9465.57
890.866	9460.37
891.182	9393.48
891.498	9393.26
891.815	9336.53
892.131	9313.48
892.447	9318
892.763	9278.46
893.079	9216.54
893.395	9235.97
893.71	9275.52
894.026	9145.58
894.342	9130.21
894.657	9144
894.973	9073.72
895.289	9085.24
895.604	9027.62
895.92	8952.36
896.235	8886.15
896.55	8966.83
896.865	8912.82
897.181	8851.58
897.496	8902.42
897.811	8791.24
898.126	8803.67
898.441	8825.81
898.756	8671.24
899.071	8678.47
899.386	8681.86
899.7	8606.38
900.015	8537.69
900.33	8485.71
900.644	8497.91
900.959	8545.14
901.273	8520.28
901.588	8412.26
901.902	8406.39
902.216	8385.82
902.531	8346.05
902.845	8348.76
903.159	8255.66
903.473	8267.41
903.787	8280.52
904.101	8233.06
904.415	8243.46
904.729	8178.6
905.042	8138.83
905.356	8121.42
905.67	8019.73
905.984	8066.96
906.297	8031.48
906.611	7946.06
906.924	7913.07
907.237	7953.52
907.551	7950.36
907.864	7884.59
908.177	7806.4
908.491	7814.09
908.804	7794.43
909.117	7711.04
909.43	7637.82
909.743	7590.82
910.056	7665.17
910.368	7595.11
910.681	7594.21
910.994	7551.27
911.307	7508.33
911.619	7478.73
911.932	7471.95
912.244	7452.74
912.557	7425.4
912.869	7358.28
913.181	7308.56
913.494	7335.23
913.806	7272.18
914.118	7241
914.43	7227.44
914.742	7158.51
915.054	7077.84
915.366	7157.83
915.678	7094.56
915.99	7055.92
916.302	7029.7
916.613	7011.85
916.925	6991.96
917.236	6922.36
917.548	6911.97
917.859	6914.9
918.171	6811.4
918.482	6847.33
918.794	6738.86
919.105	6842.14
919.416	6783.38
919.727	6684.17
920.038	6669.03
920.349	6662.03
920.66	6639.88
920.971	6657.51
921.282	6583.39
921.593	6525.08
921.903	6471.52
922.214	6490.96
922.525	6471.3
922.835	6444.18
923.146	6396.72
923.456	6408.7
923.767	6371.87
924.077	6342.04
924.387	6293
924.697	6311.75
925.008	6269.27
925.318	6289.38
925.628	6186.56
925.938	6180.01
926.248	6132.32
926.558	6149.73
926.867	6090.07
927.177	6063.17
927.487	6006
927.796	6048.26
928.106	5983.4
928.416	5957.64
928.725	5888.72
929.034	5890.07
929.344	5887.13
929.653	5894.14
929.962	5868.83
930.271	5801.94
930.581	5788.6
930.89	5745.67
931.199	5685.1
931.508	5737.53
931.817	5704.99
932.125	5685.1
932.434	5697.76
932.743	5619.34
933.051	5573.24
933.36	5575.96
933.669	5486.24
933.977	5549.06
934.286	5525.11
934.594	5434.94
934.902	5420.48
935.21	5381.84
935.519	5395.85
935.827	5363.98
936.135	5353.81
936.443	5346.13
936.751	5320.37
937.059	5311.1
937.367	5267.26
937.674	5275.85
937.982	5218
938.29	5186.13
938.597	5159.92
938.905	5167.6
939.213	5158.56
939.52	5119.02
939.827	5101.39
940.135	5107.27
940.442	5062.97
940.749	5042.18
941.056	5056.19
941.363	4984.33
941.67	4960.83
941.977	4949.76
942.284	4884
942.591	4882.41
942.898	4876.99
943.205	4905.01
943.511	4857.33
943.818	4871.79
944.125	4775.52
944.431	4821.17
944.738	4773.49
945.044	4715.86
945.35	4699.14
945.657	4661.18
945.963	4662.31
946.269	4621.4
946.575	4589.77
946.881	4581.18
947.187	4610.78
947.493	4505.93
947.799	4524.91
948.105	4561.97
948.41	4486.94
948.716	4478.13
949.022	4457.11
949.327	4455.08
949.633	4416.44
949.938	4364.24
950.244	4427.51
950.549	4345.7
950.854	4317.23
951.16	4303.9
951.465	4374.63
951.77	4300.28
952.075	4281.3
952.38	4281.07
952.685	4255.31
952.99	4202.21
953.294	4218.02
953.599	4186.16
953.904	4149.1
954.209	4154.07
954.513	4178.93
954.818	4106.39
955.122	4086.05
955.426	4031.14
955.731	4049.44
956.035	4045.15
956.339	4075.88
956.643	3985.04
956.948	4021.42
957.252	3998.6
957.556	3949.11
957.86	3936.22
958.163	3930.57
958.467	3949.78
958.771	3902.1
959.075	3876.34
959.378	3881.54
959.682	3866.4
959.985	3872.5
960.289	3850.58
960.592	3813.29
960.896	3811.03
961.199	3767.42
961.502	3714.31
961.805	3729.22
962.108	3717.25
962.411	3697.81
962.714	3622.11
963.017	3640.86
963.32	3659.62
963.623	3635.67
963.926	3637.25
964.228	3579.17
964.531	3574.65
964.833	3606.74
965.136	3575.56
965.438	3596.35
965.741	3510.25
966.043	3527.87
966.345	3494.43
966.648	3490.13
966.95	3487.42
967.252	3440.87
967.554	3460.98
967.856	3442.9
968.158	3406.29
968.46	3386.41
968.761	3362.91
969.063	3356.8
969.365	3363.36
969.666	3370.59
969.968	3295.34
970.269	3310.93
970.571	3296.02
970.872	3259.41
971.174	3239.52
971.475	3273.19
971.776	3233.64
972.077	3178.05
972.378	3169.69
972.679	3221.21
972.98	3185.96
973.281	3186.87
973.582	3170.14
973.883	3143.02
974.183	3152.52
974.484	3144.38
974.785	3084.72
975.085	3061.9
975.386	3060.54
975.686	3027.32
975.986	3036.13
976.287	3046.08
976.587	3000.43
976.887	2992.29
977.187	2949.36
977.487	2991.16
977.787	2955.23
978.087	2952.75
978.387	2952.97
978.687	2913.65
978.987	2880.21
979.286	2898.06
979.586	2867.78
979.885	2867.55
980.185	2839.08
980.484	2848.12
980.784	2812.86
981.083	2809.25
981.382	2791.62
981.682	2795.92
981.981	2776.03
982.28	2786.2
982.579	2739.65
982.878	2735.13
983.177	2726.31
983.475	2744.62
983.774	2708.46
984.073	2679.31
984.372	2677.27
984.67	2683.38
984.969	2673.88
985.267	2646.99
985.566	2660.33
985.864	2607.45
986.162	2598.41
986.461	2572.87
986.759	2578.97
987.057	2550.5
987.355	2543.94
987.653	2568.8
987.951	2534
988.249	2520.22
988.547	2521.12
988.844	2548.01
989.142	2506.21
989.44	2448.81
989.737	2484.06
990.035	2492.42
990.332	2423.72
990.63	2418.75
990.927	2420.56
991.224	2402.71
991.521	2412.42
991.819	2421.91
992.116	2402.93
992.413	2361.8
992.71	2362.03
993.006	2366.1
993.303	2340.56
993.6	2341.46
993.897	2332.42
994.193	2321.8
994.49	2303.27
994.787	2302.82
995.083	2288.36
995.379	2292.65
995.676	2266.89
995.972	2235.7
996.268	2235.93
996.565	2219.21
996.861	2225.99
997.157	2193.9
997.453	2162.94
997.749	2198.87
998.044	2174.24
998.34	2172.43
998.636	2136.5
998.932	2147.57
999.227	2143.28
999.523	2104.86
999.818	2091.98
1000.114	2065.09
1000.409	2106.22
1000.704	2069.15
1001	2075.48
1001.295	2072.77
1001.59	2050.85
1001.885	2051.98
1002.18	2012.66
1002.475	2009.5
1002.77	1972.89
1003.065	1982.83
1003.359	1964.75
1003.654	1971.76
1003.949	1954.81
1004.243	1946.45
1004.538	1902.83
1004.832	1935.6
1005.127	1903.51
1005.421	1908.48
1005.715	1882.94
1006.009	1860.57
1006.304	1856.05
1006.598	1840.69
1006.892	1832.55
1007.186	1838.2
1007.48	1816.73
1007.773	1850.18
1008.067	1819.67
1008.361	1772.44
1008.655	1770.18
1008.948	1776.73
1009.242	1754.81
1009.535	1770.63
1009.829	1762.04
1010.122	1727.02
1010.415	1745.32
1010.708	1708.49
1011.001	1716.17
1011.295	1715.27
1011.588	1699.22
1011.881	1680.46
1012.173	1667.81
1012.466	1640.47
1012.759	1633.69
1013.052	1632.1
1013.344	1651.76
1013.637	1632.56
1013.93	1608.38
1014.222	1628.26
1014.514	1601.6
1014.807	1567.7
1015.099	1544.2
1015.391	1576.29
1015.683	1541.03
1015.976	1533.8
1016.268	1540.35
1016.56	1546.23
1016.851	1522.5
1017.143	1528.6
1017.435	1522.95
1017.727	1511.43
1018.018	1487.02
1018.31	1479.11
1018.602	1468.72
1018.893	1476.4
1019.185	1443.63
1019.476	1458.32
1019.767	1416.74
1020.058	1405.22
1020.35	1419.68
1020.641	1390.98
1020.932	1406.12
1021.223	1387.36
1021.514	1386.01
1021.804	1348.04
1022.095	1354.37
1022.386	1357.53
1022.677	1340.59
1022.967	1341.04
1023.258	1345.33
1023.548	1327.71
1023.839	1333.81
1024.129	1322.51
1024.419	1287.48
1024.709	1261.27
1025	1279.57
1025.29	1264.2
1025.58	1288.61
1025.87	1230.08
1026.16	1229.18
1026.449	1234.6
1026.739	1229.4
1027.029	1226.92
1027.319	1187.14
1027.608	1191.44
1027.898	1203.87
1028.187	1200.02
1028.477	1183.53
1028.766	1150.08
1029.055	1160.25
1029.344	1177.43
1029.634	1139.69
1029.923	1137.65
1030.212	1140.14
1030.501	1120.03
1030.79	1135.62
1031.078	1115.06
1031.367	1096.75
1031.656	1107.82
1031.945	1115.06
1032.233	1078.45
1032.522	1091.1
1032.81	1092.46
1033.099	1073.47
1033.387	1023.98
1033.675	1045.68
1033.963	1023.53
1034.251	1022.63
1034.54	1032.8
1034.828	1040.93
1035.116	1034.38
1035.403	993.7
1035.691	993.93
1035.979	1001.84
1036.267	985.57
1036.554	990.76
1036.842	966.81
1037.129	980.82
1037.417	964.1
1037.704	975.85
1037.992	969.07
1038.279	940.82
1038.566	961.84
1038.853	961.84
1039.14	961.84
