Data from hue_32_FLMS001491_00040.txt Node
Date: Tue Feb 07 17:23:19 GMT 2017
User: dcchb
Spectrometer: FLMS00149
Trigger mode: 0
Integration Time (sec): 2.000000E-2
Scans to average: 10
Electric dark correction enabled: true
Nonlinearity correction enabled: false
Boxcar width: 0
XAxis mode: Wavelengths
Number of Pixels in Spectrum: 2048
>>>>>Begin Spectral Data<<<<<
341.393	-13.35
341.776	-13.35
342.16	-13.35
342.543	-68.71
342.927	-60.35
343.31	-68.49
343.693	-71.42
344.077	-55.15
344.46	-65.78
344.843	-60.13
345.226	-47.92
345.61	-29.17
345.993	-17.64
346.376	-18.32
346.759	4.96
347.142	36.37
347.525	64.39
347.908	61.45
348.291	66.42
348.674	88.57
349.057	111.85
349.44	123.82
349.823	138.06
350.206	160.89
350.588	196.82
350.971	218.74
351.354	214.9
351.737	230.04
352.119	254.67
352.502	262.13
352.884	286.31
353.267	269.13
353.65	300.77
354.032	280.43
354.414	326.98
354.797	299.64
355.179	323.14
355.562	299.64
355.944	321.56
356.326	317.94
356.709	339.41
357.091	320.88
357.473	344.84
357.855	343.25
358.238	331.28
358.62	343.48
359.002	356.13
359.384	342.58
359.766	331.73
360.148	332.18
360.53	331.28
360.912	334.44
361.294	334.89
361.676	340.09
362.057	339.41
362.439	339.64
362.821	343.71
363.203	302.35
363.584	335.8
363.966	332.18
364.348	328.11
364.729	308.68
365.111	320.2
365.493	323.59
365.874	318.17
366.256	318.17
366.637	303.48
367.019	308.9
367.4	313.2
367.781	328.79
368.163	311.62
368.544	316.14
368.925	310.26
369.306	335.12
369.688	309.36
370.069	317.72
370.45	318.4
370.831	305.06
371.212	315.23
371.593	296.25
371.974	323.59
372.355	329.92
372.736	315.23
373.117	337.38
373.498	321.79
373.879	287.66
374.26	320.2
374.641	313.65
375.021	315.01
375.402	321.79
375.783	326.53
376.163	344.61
376.544	318.4
376.925	331.73
377.305	325.63
377.686	319.75
378.066	339.19
378.447	325.4
378.827	320.2
379.208	332.18
379.588	333.08
379.968	316.59
380.349	345.97
380.729	316.36
381.109	344.16
381.489	348
381.87	340.54
382.25	331.95
382.63	329.24
383.01	332.41
383.39	360.65
383.77	338.51
384.15	362.01
384.53	371.5
384.91	343.03
385.29	349.36
385.67	335.12
386.049	343.25
386.429	324.95
386.809	361.56
387.189	345.51
387.568	338.06
387.948	345.06
388.328	349.58
388.707	328.56
389.087	349.13
389.466	374.89
389.846	362.91
390.225	361.11
390.605	358.17
390.984	372.41
391.363	346.87
391.743	370.15
392.122	368.34
392.501	394.55
392.881	352.74
393.26	356.36
393.639	375.8
394.018	362.01
394.397	403.14
394.776	372.63
395.155	369.24
395.534	385.29
395.913	370.37
396.292	390.94
396.671	375.34
397.05	380.31
397.429	383.93
397.808	377.6
398.186	378.96
398.565	395.46
398.944	380.31
399.323	394.78
399.701	364.27
400.08	399.98
400.458	389.35
400.837	394.55
401.215	408.11
401.594	398.62
401.972	395
402.351	402.24
402.729	422.57
403.107	400.2
403.486	401.56
403.864	398.62
404.242	408.34
404.62	433.65
404.999	395.68
405.377	413.31
405.755	421.67
406.133	405.17
406.511	429.13
406.889	412.18
407.267	421.44
407.645	438.62
408.023	434.55
408.401	442.01
408.779	435
409.156	466.64
409.534	430.93
409.912	443.82
410.29	433.65
410.667	444.49
411.045	457.15
411.422	456.47
411.8	479.52
412.178	437.71
412.555	468.9
412.933	462.12
413.31	470.48
413.687	479.75
414.065	461.89
414.442	463.93
414.819	471.16
415.197	478.84
415.574	486.07
415.951	489.69
416.328	479.97
416.705	466.87
417.082	505.51
417.46	501.44
417.837	508.9
418.214	487.2
418.591	509.13
418.967	506.87
419.344	512.97
419.721	506.19
420.098	522.01
420.475	524.49
420.852	504.38
421.228	503.48
421.605	527.43
421.982	513.64
422.358	519.75
422.735	512.97
423.111	528.11
423.488	545.06
423.864	554.77
424.241	550.25
424.617	569.46
424.994	539.18
425.37	549.8
425.746	549.12
426.123	562.46
426.499	579.86
426.875	585.96
427.251	576.69
427.627	601.33
428.003	575.34
428.379	576.24
428.756	588.44
429.132	576.92
429.507	588.22
429.883	603.36
430.259	601.1
430.635	620.31
431.011	611.72
431.387	601.33
431.763	627.09
432.138	633.64
432.514	634.32
432.89	646.07
433.265	651.27
433.641	651.49
434.016	640.65
434.392	664.38
434.767	658.5
435.143	677.03
435.518	669.8
435.894	676.13
436.269	658.05
436.644	697.59
437.02	721.32
437.395	699.63
437.77	703.7
438.145	717.03
438.52	731.72
438.895	736.01
439.271	727.65
439.646	754.32
440.021	744.6
440.395	720.87
440.77	739.63
441.145	744.15
441.52	738.27
441.895	751.83
442.27	761.77
442.645	760.87
443.019	759.74
443.394	765.16
443.769	792.06
444.143	770.81
444.518	804.71
444.892	803.58
445.267	819.17
445.641	803.35
446.016	812.62
446.39	802.22
446.764	795.22
447.139	797.71
447.513	833.41
447.887	834.54
448.262	815.11
448.636	820.08
449.01	845.16
449.384	844.94
449.758	868.21
450.132	860.75
450.506	859.4
450.88	859.4
451.254	865.5
451.628	881.32
452.002	865.27
452.376	889.45
452.75	897.14
453.123	883.13
453.497	906.85
453.871	919.06
454.244	923.13
454.618	922
454.992	935.33
455.365	949.34
455.739	938.94
456.112	951.6
456.486	980.3
456.859	955.89
457.232	995.21
457.606	1009
457.979	1006.06
458.352	1044.93
458.725	1043.8
459.099	1016.46
459.472	1034.99
459.845	1060.3
460.218	1064.14
460.591	1077.7
460.964	1098.49
461.337	1108.21
461.71	1126.74
462.083	1149.79
462.456	1161.54
462.829	1156.11
463.201	1142.33
463.574	1152.27
463.947	1197.69
464.32	1188.88
464.692	1229.33
465.065	1243.34
465.438	1221.2
465.81	1262.78
466.183	1282.44
466.555	1301.42
466.928	1308.2
467.3	1310.46
467.672	1357.46
468.045	1336.9
468.417	1347.75
468.789	1380.74
469.161	1396.11
469.534	1442.21
469.906	1444.02
470.278	1441.76
470.65	1473.17
471.022	1492.6
471.394	1549.32
471.766	1561.98
472.138	1594.29
472.51	1613.73
472.882	1630.23
473.253	1672.48
473.625	1693.05
473.997	1705.48
474.369	1744.12
474.74	1757.68
475.112	1788.87
475.484	1853.72
475.855	1852.37
476.227	1883.78
476.598	1966.94
476.97	1984.57
477.341	2020.95
477.713	2060.27
478.084	2087.39
478.455	2170.55
478.827	2206.93
479.198	2269.76
479.569	2293.94
479.94	2344.78
480.311	2395.63
480.682	2457.32
481.053	2496.42
481.424	2571.9
481.795	2620.03
482.166	2654.83
482.537	2770.08
482.908	2828.61
483.279	2829.74
483.65	2934.15
484.021	2991.55
484.391	3079
484.762	3161.48
485.133	3219.34
485.503	3296.62
485.874	3373
486.244	3423.62
486.615	3472.21
486.985	3543.85
487.356	3629.27
487.726	3714.01
488.097	3766.89
488.467	3871.97
488.837	3947.9
489.207	4040.56
489.578	4126.66
489.948	4199.42
490.318	4278.74
490.688	4323.04
491.058	4420.21
491.428	4505.86
491.798	4575.91
492.168	4641.22
492.538	4718.05
492.908	4806.87
493.278	4924.83
493.648	4981.55
494.017	5073.07
494.387	5152.17
494.757	5179.06
495.126	5304.48
495.496	5304.93
495.866	5414.31
496.235	5463.35
496.605	5544.02
496.974	5587.18
497.344	5717.35
497.713	5750.8
498.082	5830.79
498.452	5943.56
498.821	6011.13
499.19	6031.92
499.559	6097.45
499.928	6153.5
500.298	6202.08
500.667	6264.68
501.036	6306.03
501.405	6424.68
501.774	6461.51
502.143	6482.3
502.512	6574.95
502.88	6668.06
503.249	6648.62
503.618	6720.04
503.987	6777.66
504.356	6839.58
504.724	6880.03
505.093	6947.15
505.462	6967.71
505.83	7101.27
506.199	7071.66
506.567	7198.44
506.936	7224.43
507.304	7312.11
507.672	7315.05
508.041	7391.66
508.409	7403.63
508.777	7526.79
509.145	7624.19
509.514	7591.65
509.882	7677.98
510.25	7705.32
510.618	7741.7
510.986	7781.25
511.354	7883.85
511.722	7951.19
512.09	8032.77
512.458	8015.59
512.826	7995.93
513.193	8066.89
513.561	8120.9
513.929	8253.78
514.297	8329.26
514.664	8287.23
515.032	8339.2
515.4	8417.62
515.767	8456.49
516.135	8456.94
516.502	8454.9
516.869	8632.53
517.237	8635.69
517.604	8564.96
517.972	8728.8
518.339	8706.65
518.706	8759.3
519.073	8825.06
519.44	8798.62
519.808	8942.12
520.175	8912.29
520.542	9031.61
520.909	9040.43
521.276	9051.95
521.643	9107.32
522.009	9179.41
522.376	9224.15
522.743	9246.07
523.11	9348.21
523.477	9447.87
523.843	9516.12
524.21	9586.17
524.577	9648.55
524.943	9710.92
525.31	9733.97
525.676	9819.84
526.043	9855.77
526.409	9876.56
526.776	10020.74
527.142	9988.65
527.508	10059.38
527.874	10071.59
528.241	10220.96
528.607	10161.98
528.973	10227.97
529.339	10283.78
529.705	10399.71
530.071	10479.26
530.437	10511.12
530.803	10578.01
531.169	10610.33
531.535	10650.78
531.901	10716.99
532.267	10737.33
532.632	10845.12
532.998	10828.4
533.364	10855.07
533.73	10935.97
534.095	10994.05
534.461	10999.47
534.826	11114.27
535.192	11116.76
535.557	11288.28
535.923	11235.85
536.288	11242.85
536.653	11335.51
537.019	11218.9
537.384	11367.14
537.749	11410.08
538.114	11408.73
538.479	11501.38
538.845	11595.16
539.21	11584.99
539.575	11655.95
539.94	11685.55
540.305	11752.22
540.67	11733.69
541.034	11819.79
541.399	11801.71
541.764	11874.7
542.129	11946.79
542.494	12012.78
542.858	12044.87
543.223	12023.17
543.587	12150.4
543.952	12095.26
544.316	12237.63
544.681	12207.12
545.045	12346.33
545.41	12346.1
545.774	12370.51
546.138	12452.77
546.503	12524.63
546.867	12509.94
547.231	12531.86
547.595	12648.92
547.959	12702.25
548.324	12759.2
548.688	12744.74
549.052	12770.05
549.416	12892.3
549.779	12820.67
550.143	12996.93
550.507	12941.79
550.871	13054.56
551.235	13061.56
551.599	13074.44
551.962	13084.84
552.326	13106.99
552.689	13160.32
553.053	13254.78
553.417	13210.26
553.78	13448.67
554.143	13419.29
554.507	13478.28
554.87	13505.62
555.234	13620.19
555.597	13563.7
555.96	13595.56
556.323	13695.22
556.686	13650.93
557.05	13768.44
557.413	13733.41
557.776	13730.92
558.139	13908.09
558.502	13942.22
558.865	13934.08
559.228	14014.76
559.59	14033.06
559.953	14045.04
560.316	14224.7
560.679	14219.05
561.041	14253.4
561.404	14423.56
561.767	14431.47
562.129	14327.52
562.492	14592.37
562.854	14530.45
563.217	14571.81
563.579	14592.37
563.941	14640.73
564.304	14642.99
564.666	14811.12
565.028	14839.37
565.39	14918.92
565.753	14977.9
566.115	14965.24
566.477	15055.18
566.839	15049.53
567.201	15141.51
567.563	15263.54
567.925	15351.45
568.287	15327.94
568.648	15408.85
569.01	15483.19
569.372	15560.48
569.734	15592.12
570.095	15654.94
570.457	15750.08
570.819	15790.53
571.18	15726.58
571.542	15845.22
571.903	15894.94
572.265	15972
572.626	16113.69
572.987	16117.98
573.349	16202.5
573.71	16314.81
574.071	16418.09
574.432	16480.46
574.794	16647.68
575.155	16717.51
575.516	16645.2
575.877	16795.25
576.238	16842.03
576.599	17083.83
576.96	17015.13
577.32	17166.09
577.681	17365.4
578.042	17504.38
578.403	17551.16
578.763	17686.98
579.124	17801.1
579.485	17965.16
579.845	18099.62
580.206	18106.4
580.566	18348.2
580.927	18600.17
581.287	18747.74
581.648	18834.07
582.008	19078.58
582.368	19143.21
582.728	19374.39
583.089	19544.33
583.449	19771.22
583.809	19978.22
584.169	20112.9
584.529	20309.51
584.889	20645.77
585.249	20713.79
585.609	20927.57
585.969	21336.37
586.329	21433.32
586.688	21565.07
587.048	21833.99
587.408	22126.64
587.768	22341.77
588.127	22453.63
588.487	22702.21
588.846	23125.71
589.206	23231.24
589.565	23415.19
589.925	23904.44
590.284	24073.7
590.643	24309.86
591.003	24593.24
591.362	24884.3
591.721	25138.08
592.08	25457.17
592.44	25746.88
592.799	25983.26
593.158	26235.68
593.517	26540.3
593.876	26804.48
594.235	27041.31
594.593	27262.55
594.952	27580.96
595.311	27931.23
595.67	28065.69
596.029	28554.49
596.387	28799.23
596.746	29091.2
597.104	29154.02
597.463	29431.08
597.822	29775.25
598.18	29885.98
598.538	30293.88
598.897	30663.81
599.255	30503.14
599.613	31346.51
599.972	31314.87
600.33	31657.01
600.688	31744.46
601.046	32117.56
601.404	32482.75
601.762	32550.32
602.12	32856.07
602.478	33166.8
602.836	33292.9
603.194	33402.72
603.552	33553.68
603.91	33726.33
604.268	34144.17
604.625	34172.42
604.983	34550.94
605.341	34668.68
605.698	34960.87
606.056	35283.58
606.413	35318.61
606.771	35667.07
607.128	35806.5
607.485	35848.76
607.843	36088.98
608.2	36524.45
608.557	36550.89
608.914	36756.31
609.272	37028.39
609.629	37364.2
609.986	37692.78
610.343	37584.99
610.7	37862.27
611.057	37922.6
611.414	38028.59
611.771	38192.65
612.127	38608.24
612.484	38556.94
612.841	38885.29
613.198	38925.52
613.554	38829.25
613.911	39337.93
614.267	39365.05
614.624	39476.01
614.98	39566.18
615.337	39864.02
615.693	39894.08
616.05	39941.53
616.406	40254.29
616.762	40231.24
617.118	40263.56
617.475	40508.3
617.831	40634.17
618.187	40805.24
618.543	40878.23
618.899	41087.72
619.255	41062.41
619.611	41133.14
619.967	41342.4
620.323	41616.29
620.678	41464.21
621.034	41623.52
621.39	41613.81
621.746	41596.18
622.101	42210.85
622.457	41903.29
622.812	42005.89
623.168	42122.04
623.523	42205.2
623.879	42398.87
624.234	42096.51
624.589	42457.4
624.945	42448.14
625.3	42522.48
625.655	42576.95
626.01	42530.39
626.365	42615.81
626.72	42693.1
627.075	42783.27
627.43	42711.86
627.785	42611.75
628.14	42936.26
628.495	42923.6
628.85	42848.8
629.205	42878.41
629.559	43052.19
629.914	42882.47
630.269	42990.95
630.623	42996.37
630.978	42938.97
631.332	43021.91
631.687	43244.95
632.041	43026.2
632.396	43126.31
632.75	42907.56
633.104	43152.75
633.459	42916.82
633.813	42969.03
634.167	42987.33
634.521	42957.73
634.875	43135.57
635.229	43009.02
635.583	42957.27
635.937	42962.92
636.291	43027.1
636.645	42973.77
636.999	42858.75
637.352	43005.86
637.706	42875.69
638.06	43061.23
638.413	43019.42
638.767	42875.47
639.121	42898.74
639.474	42660.79
639.828	42804.96
640.181	42859.65
640.534	42856.26
640.888	42697.85
641.241	42642.48
641.594	42678.41
641.947	42715.92
642.301	42733.33
642.654	42763.16
643.007	42642.71
643.36	42571.3
643.713	42624.63
644.066	42676.15
644.419	42529.04
644.771	42264.19
645.124	41849.51
645.477	41844.08
645.83	41700.36
646.182	41427.37
646.535	41527.03
646.888	41530.19
647.24	41275.28
647.593	41449.07
647.945	41434.83
648.298	41296.08
648.65	41211.33
649.002	41129.75
649.355	41310.54
649.707	41226.7
650.059	41459.01
650.411	41895.83
650.763	41885.66
651.115	42342.83
651.467	42096.05
651.819	42210.63
652.171	41986.68
652.523	42063.51
652.875	42004.53
653.227	41814.03
653.578	42191.42
653.93	42136.96
654.282	41875.49
654.633	41673.92
654.985	41950.52
655.337	41953.23
655.688	41919.56
656.039	42039.78
656.391	41696.29
656.742	41816.06
657.094	41874.82
657.445	41968.83
657.796	41898.09
658.147	41787.14
658.498	41834.14
658.849	41836.17
659.2	42025.32
659.551	41690.42
659.902	41882.05
660.253	41749.62
660.604	41838.66
660.955	41683.18
661.306	41852.22
661.656	41648.38
662.007	41639.79
662.358	41571.1
662.708	41735.39
663.059	41699.91
663.409	41458.78
663.76	41723.63
664.11	41541.49
664.461	41744.65
664.811	41821.49
665.161	41584.66
665.511	41625.11
665.862	41614.94
666.212	41661.94
666.562	41692.67
666.912	41498.78
667.262	41402.97
667.612	41512.11
667.962	41586.91
668.312	41466.69
668.662	41586.46
669.011	41412.91
669.361	41520.48
669.711	41562.51
670.06	41488.39
670.41	41352.57
670.76	41309.41
671.109	41564.99
671.459	41296.75
671.808	41398.22
672.157	41363.42
672.507	41113.03
672.856	41257.21
673.205	41293.36
673.554	41404.77
673.904	41242.97
674.253	41453.36
674.602	41299.46
674.951	40664.91
675.3	40525.93
675.649	41158.9
675.998	41170.65
676.346	41170.43
676.695	41320.71
677.044	41036.42
677.393	41042.75
677.741	41114.61
678.09	40952.58
678.438	41012.01
678.787	40903.77
679.135	40950.32
679.484	40788.97
679.832	40899.02
680.181	40564.79
680.529	40738.58
680.877	40599.82
681.225	40543.55
681.573	40860.38
681.922	40565.02
682.27	40426.27
682.618	40594.85
682.966	40385.59
683.314	40450.22
683.661	40376.55
684.009	40256.78
684.357	40254.97
684.705	39997.8
685.053	40091.59
685.4	40013.17
685.748	39904.93
686.095	39977.01
686.443	39806.85
686.79	39668.32
687.138	39829.9
687.485	39652.73
687.832	39605.5
688.18	39626.06
688.527	39417.03
688.874	39318.5
689.221	39302.46
689.568	39182.46
689.915	39179.07
690.262	39085.06
690.609	38928
690.956	38878.74
691.303	38832.64
691.65	38652.3
691.997	38745.41
692.344	38561.46
692.69	38359.66
693.037	38495.47
693.383	38035.6
693.73	38229.49
694.077	38035.14
694.423	38091.64
694.769	37890.06
695.116	37747.92
695.462	37830.63
695.808	37761.93
696.155	37810.97
696.501	37472.67
696.847	37644.87
697.193	37210.98
697.539	37446.23
697.885	37083.08
698.231	37088.5
698.577	37116.3
698.923	36931.9
699.269	36761.28
699.614	36657.78
699.96	36553.83
700.306	36546.82
700.651	36418.69
700.997	36291.46
701.342	36238.36
701.688	36227.28
702.033	36071.13
702.379	35951.36
702.724	35910.91
703.069	35986.38
703.415	35640.63
703.76	35602.21
704.105	35583.91
704.45	35609.67
704.795	35323.35
705.14	35227.08
705.485	35151.83
705.83	35080.87
706.175	35127.88
706.52	35162.9
706.865	34764.5
707.209	34813.99
707.554	34796.36
707.899	34669.81
708.243	34575.57
708.588	34522.92
708.932	34315.02
709.277	34324.51
709.621	34365.18
709.966	34154.34
710.31	34152.53
710.654	33860.34
710.998	33952.54
711.342	33972.2
711.687	33878.87
712.031	33764.52
712.375	33552.78
712.719	33663.73
713.063	33560.91
713.407	33691.76
713.75	33525.43
714.094	33467.58
714.438	33281.6
714.782	33410.18
715.125	33256.29
715.469	33341.48
715.812	33117.76
716.156	32898.33
716.499	32917.76
716.843	32997.99
717.186	32767.71
717.53	32917.09
717.873	32866.92
718.216	32760.48
718.559	32496.31
718.902	32465.8
719.246	32478.91
719.589	32302.64
719.932	32308.51
720.275	32471.22
720.617	32179.03
720.96	32101.29
721.303	32107.84
721.646	32130.67
721.989	32032.59
722.331	32028.75
722.674	32045.7
723.016	32021.74
723.359	31911.24
723.701	31875.98
724.044	31620.4
724.386	31478.71
724.729	31717.34
725.071	31594.18
725.413	31646.84
725.755	31618.36
726.097	31370.23
726.439	31229
726.782	31330.91
727.124	31382.66
727.465	31245.94
727.807	31113.52
728.149	31146.29
728.491	31002.11
728.833	31175.44
729.175	30926.4
729.516	30987.87
729.858	30820.19
730.199	30923.24
730.541	30709.46
730.882	30684.15
731.224	30816.8
731.565	30586.07
731.906	30671.5
732.248	30695.45
732.589	30477.15
732.93	30436.93
733.271	30293.65
733.612	30371.62
733.953	30399.64
734.294	30357.83
734.635	30343.59
734.976	30340.88
735.317	30301.79
735.658	30180.66
735.999	30188.57
736.339	30004.39
736.68	30168.68
737.021	30142.02
737.361	29896.83
737.702	30012.53
738.042	29969.59
738.383	29877.84
738.723	29958.97
739.063	29631.07
739.404	29823.16
739.744	29721.24
740.084	29619.32
740.424	29664.52
740.764	29666.78
741.104	29747.9
741.444	29635.82
741.784	29446.22
742.124	29566.89
742.464	29436.73
742.804	29364.41
743.143	29273.34
743.483	29325.99
743.823	29172.78
744.162	29211.42
744.502	29080.58
744.841	29088.26
745.181	29126
745.52	29016.62
745.86	29058.88
746.199	28978.21
746.538	28912.45
746.877	29035.83
747.216	29029.96
747.556	28812.56
747.895	28895.72
748.234	28741.38
748.573	28680.36
748.911	28777.99
749.25	28639.01
749.589	28545.22
749.928	28545.22
750.267	28537.77
750.605	28392.91
750.944	28518.78
751.283	28367.38
751.621	28383.65
751.96	28185.23
752.298	28178.91
752.636	28233.59
752.975	28238.34
753.313	27959.25
753.651	28132.35
753.989	27907.05
754.327	27813.27
754.666	27775.53
755.004	27792.93
755.342	27779.82
755.679	27730.78
756.017	27584.35
756.355	27777.79
756.693	27473.61
757.031	27598.58
757.368	27442.65
757.706	27366.72
758.044	27364.01
758.381	27300.51
758.719	27286.27
759.056	27178.03
759.394	27190.46
759.731	27024.59
760.068	26944.59
760.405	26865.27
760.743	26743.01
761.08	26829.34
761.417	26725.38
761.754	26525.62
762.091	26585.5
762.428	26523.13
762.765	26395.45
763.102	26418.95
763.438	26289.46
763.775	26128.56
764.112	26214.66
764.449	26147.55
764.785	26084.27
765.122	25825.75
765.458	25774
765.795	25757.5
766.131	25780.32
766.467	25668.01
766.804	25489.94
767.14	25440.45
767.476	25399.09
767.812	25195.71
768.148	25270.96
768.485	25101.02
768.821	24989.16
769.157	24950.97
769.492	24852.21
769.828	24728.83
770.164	24564.99
770.5	24598.66
770.836	24574.48
771.171	24433.69
771.507	24443.86
771.842	24274.38
772.178	24197.09
772.513	24178.33
772.849	24166.58
773.184	24054.27
773.519	24010.65
773.855	23892.24
774.19	23783.09
774.525	23685.46
774.86	23644.79
775.195	23575.64
775.53	23492.93
775.865	23385.13
776.2	23246.61
776.535	23196.89
776.87	23054.75
777.205	22992.6
777.539	22913.51
777.874	22854.3
778.209	22732.04
778.543	22735.66
778.878	22536.79
779.212	22582.67
779.547	22427.42
779.881	22492.95
780.215	22302.68
780.55	22320.53
780.884	22127.54
781.218	22062.91
781.552	22012.74
781.886	21867.89
782.22	21760.77
782.554	21641.22
782.888	21528.23
783.222	21397.84
783.556	21346.09
783.889	21342.48
784.223	21172.99
784.557	21203.72
784.89	21225.42
785.224	21113.56
785.557	20893
785.891	20905.2
786.224	20826.1
786.558	20793.56
786.891	20660.01
787.224	20558.77
787.557	20468.15
787.891	20460.92
788.224	20474.93
788.557	20299.11
788.89	20317.42
789.223	20322.16
789.556	20210.08
789.888	20090.98
790.221	20009.4
790.554	19987.93
790.887	19909.29
791.219	19758.79
791.552	19747.26
791.884	19660.71
792.217	19675.63
792.549	19528.06
792.882	19420.49
793.214	19360.83
793.546	19341.17
793.879	19163.55
794.211	19150.22
794.543	19175.07
794.875	19065.47
795.207	19184.57
795.539	18983.89
795.871	19069.99
796.203	18794.52
796.535	18754.97
796.867	18746.39
797.198	18643.79
797.53	18631.13
797.862	18451.93
798.193	18594.53
798.525	18383.68
798.856	18436.56
799.188	18257.81
799.519	18196.34
799.85	18091.04
800.182	18179.85
800.513	18074.54
800.844	17879.74
801.175	18023.01
801.506	17939.18
801.837	17908.67
802.168	17866.86
802.499	17785.96
802.83	17702.35
803.161	17668.45
803.491	17580.31
803.822	17566.53
804.153	17423.93
804.483	17367.21
804.814	17317.72
805.145	17343.71
805.475	17265.29
805.805	17222.13
806.136	17112.98
806.466	17126.54
806.796	17152.53
807.126	17028.69
807.457	16903.95
807.787	16913.89
808.117	16865.98
808.447	16654.24
808.777	16832.99
809.107	16716.61
809.436	16715.03
809.766	16631.64
810.096	16686.1
810.426	16578.76
810.755	16583.28
811.085	16533.34
811.414	16436.39
811.744	16330.4
812.073	16364.75
812.403	16387.8
812.732	16174.93
813.061	16211.09
813.39	16176.28
813.719	16097.87
814.049	16124.08
814.378	16056.06
814.707	16091.31
815.036	15986.23
815.365	15918.44
815.693	15734.26
816.022	15743.98
816.351	15671.44
816.68	15619.91
817.008	15720.25
817.337	15565.68
817.665	15526.36
817.994	15576.75
818.322	15554.61
818.651	15507.6
818.979	15435.06
819.307	15495.85
819.636	15401.16
819.964	15379.24
820.292	15325.91
820.62	15366.59
820.948	15322.07
821.276	15356.42
821.604	15247.72
821.932	15312.13
822.259	15272.13
822.587	15168.85
822.915	15206.14
823.243	15301.05
823.57	15183.77
823.898	15259.02
824.225	15129.08
824.553	15191.68
824.88	15176.76
825.207	15145.35
825.535	15174.73
825.862	15177.44
826.189	15079.36
826.516	15159.59
826.843	15199.59
827.17	15146.25
827.497	15208.85
827.824	15274.61
828.151	15228.51
828.478	15175.63
828.805	15216.99
829.131	15179.47
829.458	15129.98
829.785	15137.67
830.111	15095.18
830.438	15243.2
830.764	15120.72
831.09	15110.77
831.417	14974.06
831.743	15084.34
832.069	15024
832.395	15059.25
832.722	15156.2
833.048	15024.22
833.374	15079.59
833.7	15041.85
834.026	14973.83
834.351	15020.38
834.677	14956.65
835.003	14951.68
835.329	14964.34
835.654	14998.01
835.98	14887.73
836.306	14894.96
836.631	14810.22
836.956	14892.25
837.282	14872.36
837.607	14694.74
837.932	14730.9
838.258	14723.21
838.583	14667.17
838.908	14637.34
839.233	14738.81
839.558	14617.91
839.883	14600.96
840.208	14519.83
840.533	14440.06
840.858	14597.79
841.182	14509.43
841.507	14497.46
841.832	14416.33
842.156	14322.55
842.481	14417.46
842.805	14469.21
843.13	14308.76
843.454	14269.89
843.778	14295.66
844.103	14135.89
844.427	14144.92
844.751	14193.06
845.075	14188.77
845.399	14078.03
845.723	13995.78
846.047	13972.27
846.371	13949.9
846.695	13854.76
847.019	13762.34
847.343	13704.48
847.666	13665.16
847.99	13592.62
848.313	13616.58
848.637	13480.54
848.96	13469.91
849.284	13511.04
849.607	13365.28
849.931	13320.99
850.254	13259.3
850.577	13238.06
850.9	13128.91
851.223	13170.71
851.546	12940.21
851.869	13006.88
852.192	13057.04
852.515	12935.46
852.838	12826.77
853.161	12841
853.483	12748.58
853.806	12667.45
854.129	12630.16
854.451	12709.48
854.774	12618.41
855.096	12606.21
855.419	12508.58
855.741	12435.37
856.063	12351.3
856.385	12370.73
856.708	12360.56
857.03	12299.32
857.352	12245.77
857.674	12210.29
857.996	12253.9
858.318	12099.33
858.64	12089.84
858.961	12090.29
859.283	12026.79
859.605	12048.48
859.926	11958.09
860.248	11998.09
860.57	11913.34
860.891	11932.78
861.212	11794.93
861.534	11789.05
861.855	11831.54
862.176	11848.04
862.498	11785.44
862.819	11723.75
863.14	11654.14
863.461	11680.81
863.782	11653.46
864.103	11704.31
864.424	11630.41
864.745	11616.4
865.065	11500.25
865.386	11538.89
865.707	11411.66
866.027	11512.23
866.348	11489.85
866.668	11449.63
866.989	11432
867.309	11370.08
867.63	11445.79
867.95	11335.96
868.27	11329.41
868.59	11268.62
868.91	11267.26
869.23	11257.99
869.55	11216.19
869.87	11215.51
870.19	11269.52
870.51	11270.2
870.83	11275.17
871.15	11232.91
871.469	11169.86
871.789	11108.62
872.109	11122.41
872.428	11086.7
872.748	11078.79
873.067	11099.36
873.386	11067.72
873.706	11011
874.025	10991.34
874.344	11018.68
874.663	11001.28
874.982	10901.85
875.301	11000.15
875.62	10923.77
875.939	10923.77
876.258	10973.48
876.577	10792.24
876.896	10883.77
877.214	10842.19
877.533	10810.1
877.852	10850.1
878.17	10819.81
878.489	10769.65
878.807	10773.94
879.125	10702.08
879.444	10684.68
879.762	10650.33
880.08	10692.81
880.398	10600.16
880.716	10629.08
881.034	10583.89
881.352	10627.05
881.67	10589.54
881.988	10640.38
882.306	10584.79
882.624	10563.78
882.941	10426.38
883.259	10380.5
883.577	10444.23
883.894	10406.94
884.212	10346.38
884.529	10387.06
884.846	10264.57
885.164	10292.6
885.481	10254.63
885.798	10303.9
886.115	10158.81
886.432	10144.58
886.75	10166.05
887.067	10143
887.383	10096.67
887.7	10104.8
888.017	10004.47
888.334	10092.38
888.651	10024.58
888.967	10043.79
889.284	9985.26
889.6	9999.5
889.917	9902.1
890.233	9924.92
890.55	9852.83
890.866	9807.41
891.182	9836.11
891.498	9796.34
891.815	9805.15
892.131	9721.99
892.447	9709.34
892.763	9661.43
893.079	9590.02
893.395	9602.9
893.71	9562.45
894.026	9559.73
894.342	9587.3
894.657	9530.58
894.973	9430.25
895.289	9428.89
895.604	9506.18
895.92	9392.96
896.235	9395.22
896.55	9344.82
896.865	9323.58
897.181	9190.25
897.496	9276.13
897.811	9210.14
898.126	9153.64
898.441	9143.47
898.756	9112.29
899.071	9020.77
899.386	9039.3
899.7	9013.76
900.015	8944.61
900.33	8926.76
900.644	8893.09
900.959	8912.07
901.273	8924.05
901.588	8822.8
901.902	8824.61
902.216	8729.25
902.531	8738.97
902.845	8729.7
903.159	8670.04
903.473	8531.96
903.787	8558.86
904.101	8556.6
904.415	8485.41
904.729	8500.78
905.042	8422.59
905.356	8379.43
905.67	8458.97
905.984	8449.26
906.297	8343.72
906.611	8259.43
906.924	8330.16
907.237	8304.17
907.551	8225.53
907.864	8164.97
908.177	8201.58
908.491	8110.06
908.804	8109.15
909.117	8077.29
909.43	8036.38
909.743	7971.53
910.056	8000.45
910.368	7876.16
910.681	7909.16
910.994	7820.57
911.307	7873.45
911.619	7785.54
911.932	7785.09
912.244	7715.04
912.557	7686.11
912.869	7684.53
913.181	7631.2
913.494	7588.94
913.806	7630.07
914.118	7527.47
914.43	7469.39
914.742	7489.51
915.054	7453.12
915.366	7402.28
915.678	7400.47
915.99	7359.11
916.302	7291.77
916.613	7284.77
916.925	7276.4
917.236	7274.37
917.548	7173.81
917.859	7179.23
918.171	7077.09
918.482	7042.96
918.794	7106.69
919.105	7074.6
919.416	6983.08
919.727	6973.81
920.038	6948.96
920.349	6885
920.66	6944.44
920.971	6901.5
921.282	6887.04
921.593	6814.5
921.903	6758.23
922.214	6749.19
922.525	6751.22
922.835	6718.23
923.146	6623.54
923.456	6666.7
923.767	6641.85
924.077	6596.87
924.387	6537.22
924.697	6541.96
925.008	6491.57
925.318	6502.41
925.628	6465.8
925.938	6437.78
926.248	6396.2
926.558	6336.77
926.867	6354.4
927.177	6297.9
927.487	6291.12
927.796	6204.79
928.106	6236.66
928.416	6187.39
928.725	6187.62
929.034	6166.83
929.344	6146.94
929.653	6171.58
929.962	6052.48
930.271	6060.17
930.581	6027.62
930.89	6000.96
931.199	6001.18
931.508	5964.8
931.817	5965.25
932.125	5930.45
932.434	5899.04
932.743	5864.01
933.051	5819.72
933.36	5756.22
933.669	5763
933.977	5741.76
934.286	5704.47
934.594	5677.8
934.902	5700.63
935.21	5685.71
935.519	5619.5
935.827	5599.39
936.135	5558.71
936.443	5541.08
936.751	5542.21
937.059	5480.29
937.367	5470.58
937.674	5436.91
937.982	5499.5
938.29	5417.47
938.597	5398.94
938.905	5322.78
939.213	5319.17
939.52	5285.95
939.827	5319.85
940.135	5295.89
940.442	5257.7
940.749	5234.2
941.056	5245.5
941.363	5174.99
941.67	5173.86
941.977	5089.57
942.284	5113.75
942.591	5090.7
942.898	5081.21
943.205	5068.33
943.511	5026.75
943.818	5005.96
944.125	4928.9
944.431	4897.26
944.738	4955.79
945.044	4920.99
945.35	4913.98
945.657	4828.11
945.963	4904.26
946.269	4819.97
946.575	4792.18
946.881	4753.31
947.187	4801.67
947.493	4756.47
947.799	4751.95
948.105	4654.55
948.41	4677.38
948.716	4678.96
949.022	4616.36
949.327	4626.08
949.633	4576.14
949.938	4605.97
950.244	4591.96
950.549	4559.87
950.854	4542.69
951.16	4497.49
951.465	4512.18
951.77	4485.29
952.075	4467.44
952.38	4380.89
952.685	4448
952.99	4398.74
953.294	4401.68
953.599	4353.09
953.904	4350.61
954.209	4325.97
954.513	4330.95
954.818	4262.47
955.122	4263.6
955.426	4229.93
955.731	4231.29
956.035	4189.71
956.339	4183.83
956.643	4170.95
956.948	4126.88
957.252	4121.23
957.556	4115.36
957.86	4075.58
958.163	4065.42
958.467	4045.76
958.771	4050.05
959.075	4021.12
959.378	4048.24
959.682	3990.62
959.985	3987.9
960.289	3976.15
960.592	3921.69
960.896	3890.96
961.199	3893.44
961.502	3913.33
961.805	3817.06
962.108	3849.83
962.411	3844.63
962.714	3828.13
963.017	3832.43
963.32	3854.8
963.623	3803.95
963.926	3776.16
964.228	3719.89
964.531	3731.87
964.833	3739.55
965.136	3673.34
965.438	3694.8
965.741	3667.46
966.043	3678.53
966.345	3628.37
966.648	3644.18
966.95	3613.45
967.252	3619.78
967.554	3581.81
967.856	3598.76
968.158	3524.41
968.46	3528.03
968.761	3540.68
969.063	3502.49
969.365	3537.97
969.666	3466.11
969.968	3443.96
970.269	3428.14
970.571	3404.19
970.872	3379.78
971.174	3377.98
971.475	3312.67
971.776	3362.38
972.077	3345.66
972.378	3373.91
972.679	3303.4
972.98	3318.99
973.281	3310.18
973.582	3267.92
973.883	3242.16
974.183	3221.82
974.484	3239.22
974.785	3225.44
975.085	3239.45
975.386	3213.46
975.686	3114.93
975.986	3156.29
976.287	3141.37
976.587	3114.03
976.887	3142.73
977.187	3134.59
977.487	3081.71
977.787	3061.83
978.087	3066.57
978.387	3051.21
978.687	3039.91
978.987	3044.88
979.286	2986.12
979.586	3025.67
979.885	2944.32
980.185	2978.89
980.484	2966.01
980.784	2943.64
981.083	2931.43
981.382	2934.37
981.682	2937.54
981.981	2919.01
982.28	2902.06
982.579	2890.53
982.878	2868.16
983.177	2822.74
983.475	2822.28
983.774	2825
984.073	2766.01
984.372	2773.02
984.67	2799.01
984.969	2749.29
985.267	2750.65
985.566	2757.65
985.864	2702.97
986.162	2707.26
986.461	2686.92
986.759	2658.67
987.057	2641.95
987.355	2666.58
987.653	2680.37
987.951	2646.47
988.249	2637.2
988.547	2606.47
988.844	2636.3
989.142	2568.28
989.44	2592.91
989.737	2552.24
990.035	2534.38
990.332	2545.46
990.63	2559.01
990.927	2516.76
991.224	2517.89
991.521	2497.32
991.819	2507.49
992.116	2485.34
992.413	2458.68
992.71	2447.61
993.006	2466.36
993.303	2430.88
993.6	2407.61
993.897	2415.06
994.193	2414.61
994.49	2365.35
994.787	2394.73
995.083	2375.52
995.379	2327.61
995.676	2362.86
995.972	2349.08
996.268	2334.61
996.565	2332.35
996.861	2309.76
997.157	2280.38
997.453	2283.54
997.749	2266.82
998.044	2270.66
998.34	2224.11
998.636	2213.49
998.932	2232.24
999.227	2203.77
999.523	2211.68
999.818	2193.83
1000.114	2176.2
1000.409	2187.05
1000.704	2182.75
1001	2133.72
1001.295	2124.45
1001.59	2066.37
1001.885	2118.8
1002.18	2109.31
1002.475	2134.62
1002.77	2084.45
1003.065	2055.07
1003.359	2015.07
1003.654	2020.5
1003.949	2029.09
1004.243	2034.96
1004.538	1979.14
1004.832	1986.37
1005.127	1986.15
1005.421	2011.46
1005.715	1954.96
1006.009	1944.57
1006.304	1931.46
1006.598	1885.81
1006.892	1906.83
1007.186	1910.9
1007.48	1928.75
1007.773	1897.79
1008.067	1856.66
1008.361	1849.2
1008.655	1842.65
1008.948	1824.34
1009.242	1825.7
1009.535	1816.66
1009.829	1807.4
1010.122	1824.12
1010.415	1772.14
1010.708	1793.61
1011.001	1744.57
1011.295	1754.06
1011.588	1765.59
1011.881	1781.18
1012.173	1734.18
1012.466	1742.09
1012.759	1741.18
1013.052	1706.38
1013.344	1715.65
1013.637	1682.65
1013.93	1683.33
1014.222	1673.39
1014.514	1648.08
1014.807	1625.93
1015.099	1643.56
1015.391	1636.1
1015.683	1620.06
1015.976	1610.79
1016.268	1604.92
1016.56	1624.35
1016.851	1566.5
1017.143	1589.1
1017.435	1551.81
1017.727	1559.49
1018.018	1533.73
1018.31	1527.86
1018.602	1510.23
1018.893	1489.89
1019.185	1493.73
1019.476	1489.21
1019.767	1474.75
1020.058	1476.56
1020.35	1474.52
1020.641	1477.91
1020.932	1432.72
1021.223	1418.93
1021.514	1413.96
1021.804	1400.63
1022.095	1407.18
1022.386	1405.6
1022.677	1409.44
1022.967	1374.41
1023.258	1386.84
1023.548	1356.56
1023.839	1331.93
1024.129	1347.75
1024.419	1324.24
1024.709	1314.08
1025	1299.16
1025.29	1315.88
1025.58	1308.88
1025.87	1289.9
1026.16	1268.2
1026.449	1257.58
1026.739	1268.65
1027.029	1284.7
1027.319	1261.2
1027.608	1234.08
1027.898	1248.77
1028.187	1221.42
1028.477	1197.02
1028.766	1195.43
1029.055	1199.5
1029.344	1176.45
1029.634	1203.57
1029.923	1163.12
1030.212	1153.18
1030.501	1155.66
1030.79	1165.15
1031.078	1139.39
1031.367	1133.06
1031.656	1110.92
1031.945	1132.61
1032.233	1111.37
1032.522	1137.58
1032.81	1090.58
1033.099	1124.25
1033.387	1074.76
1033.675	1078.6
1033.963	1083.8
1034.251	1045.38
1034.54	1047.42
1034.828	1047.87
1035.116	1043.8
1035.403	1048.09
1035.691	1023.24
1035.979	1014.87
1036.267	1021.88
1036.554	983.91
1036.842	1000.41
1037.129	995.67
1037.417	997.02
1037.704	1011.71
1037.992	977.81
1038.279	971.94
1038.566	961.54
1038.853	961.54
1039.14	961.54
