Data from hue_70_FLMS001491_30.txt Node
Date: Mon Feb 06 15:20:21 GMT 2017
User: dcchb
Spectrometer: FLMS00149
Trigger mode: 0
Integration Time (sec): 2.000000E-2
Scans to average: 10
Electric dark correction enabled: true
Nonlinearity correction enabled: false
Boxcar width: 0
XAxis mode: Wavelengths
Number of Pixels in Spectrum: 2048
>>>>>Begin Spectral Data<<<<<
341.393	-15.58
341.776	-15.58
342.16	-15.58
342.543	-54.45
342.927	-81.11
343.31	-62.13
343.693	-73.2
344.077	-57.16
344.46	-69.36
344.843	-42.7
345.226	-41.79
345.61	-37.05
345.993	-48.12
346.376	-14.45
346.759	0.47
347.142	33.23
347.525	44.53
347.908	57.64
348.291	94.02
348.674	98.77
349.057	117.3
349.44	123.85
349.823	143.97
350.206	168.82
350.588	209.95
350.971	219.22
351.354	233
351.737	242.95
352.119	256.05
352.502	288.37
352.884	287.46
353.267	275.04
353.65	270.74
354.032	299.44
354.414	292.89
354.797	312.1
355.179	317.29
355.562	338.08
355.944	315.71
356.326	331.53
356.709	333.79
357.091	344.86
357.473	327.24
357.855	346.67
358.238	334.92
358.62	329.5
359.002	324.75
359.384	327.46
359.766	335.82
360.148	339.89
360.53	340.57
360.912	334.24
361.294	339.21
361.676	336.28
362.057	323.62
362.439	322.94
362.821	334.69
363.203	321.59
363.584	324.75
363.966	340.8
364.348	322.72
364.729	311.64
365.111	301.25
365.493	321.14
365.874	296.73
366.256	310.74
366.637	315.49
367.019	319.1
367.4	308.48
367.781	312.55
368.163	312.77
368.544	317.97
368.925	328.59
369.306	323.4
369.688	324.75
370.069	312.1
370.45	311.64
370.831	319.1
371.212	307.12
371.593	300.35
371.974	308.25
372.355	284.07
372.736	311.64
373.117	330.4
373.498	320.23
373.879	302.61
374.26	314.58
374.641	304.64
375.021	300.35
375.402	301.7
375.783	321.81
376.163	327.46
376.544	311.42
376.925	324.53
377.305	335.6
377.686	321.14
378.066	320.01
378.447	326.56
378.827	338.99
379.208	327.46
379.588	301.02
379.968	322.27
380.349	339.44
380.729	341.25
381.109	335.37
381.489	331.3
381.87	342.6
382.25	311.87
382.63	332.66
383.01	309.84
383.39	341.25
383.77	333.34
384.15	324.53
384.53	337.63
384.91	349.16
385.29	353
385.67	357.97
386.049	345.99
386.429	343.06
386.809	357.07
387.189	338.76
387.568	351.87
387.948	345.09
388.328	340.34
388.707	360.46
389.087	341.7
389.466	348.03
389.846	360.23
390.225	346.22
390.605	367.46
390.984	350.74
391.363	360.91
391.743	372.43
392.122	386.67
392.501	358.65
392.881	349.38
393.26	351.19
393.639	353.9
394.018	350.74
394.397	360.23
394.776	372.89
395.155	364.75
395.534	358.87
395.913	370.85
396.292	383.96
396.671	365.43
397.05	371.53
397.429	374.47
397.808	377.86
398.186	380.34
398.565	362.49
398.944	377.86
399.323	374.69
399.701	379.89
400.08	352.55
400.458	375.82
400.837	386.44
401.215	390.96
401.594	375.37
401.972	375.82
402.351	384.18
402.729	378.76
403.107	418.53
403.486	402.72
403.864	394.58
404.242	383.96
404.62	397.52
404.999	406.56
405.377	394.81
405.755	404.98
406.133	378.99
406.511	384.86
406.889	431.42
407.267	401.36
407.645	424.64
408.023	421.92
408.401	413.56
408.779	417.4
409.156	434.58
409.534	425.77
409.912	435.26
410.29	418.76
410.667	418.99
411.045	421.47
411.422	421.02
411.8	455.6
412.178	452.43
412.555	411.53
412.933	439.55
413.31	450.85
413.687	441.13
414.065	441.81
414.442	440.23
414.819	453.34
415.197	460.34
415.574	456.73
415.951	459.21
416.328	460.12
416.705	478.65
417.082	478.19
417.46	470.96
417.837	473.67
418.214	479.32
418.591	485.43
418.967	492.2
419.344	488.81
419.721	501.24
420.098	498.08
420.475	485.65
420.852	479.1
421.228	508.7
421.605	490.62
421.982	499.66
422.358	506.22
422.735	517.74
423.111	518.87
423.488	534.69
423.864	519.1
424.241	519.32
424.617	553.45
424.994	514.58
425.37	541.47
425.746	528.36
426.123	538.76
426.499	523.62
426.875	543.73
427.251	544.63
427.627	536.95
428.003	560.45
428.379	562.26
428.756	552.32
429.132	568.59
429.507	585.54
429.883	586.21
430.259	592.77
430.635	564.75
431.011	598.87
431.387	603.61
431.763	591.64
432.138	599.32
432.514	612.88
432.89	607.68
433.265	612.43
433.641	605.65
434.016	632.09
434.392	613.56
434.767	637.51
435.143	635.03
435.518	662.14
435.894	637.06
436.269	661.69
436.644	651.75
437.02	671.63
437.395	652.65
437.77	656.95
438.145	656.27
438.52	674.57
438.895	677.51
439.271	692.43
439.646	704.18
440.021	702.14
440.395	698.75
440.77	697.62
441.145	700.33
441.52	725.87
441.895	692.88
442.27	686.1
442.645	701.24
443.019	727.9
443.394	713.89
443.769	731.07
444.143	712.31
444.518	712.76
444.892	742.14
445.267	769.03
445.641	779.65
446.016	750.95
446.39	758.86
446.764	774.91
447.139	751.86
447.513	766.55
447.887	789.82
448.262	784.85
448.636	773.78
449.01	799.77
449.384	810.84
449.758	802.25
450.132	810.16
450.506	792.99
450.88	823.72
451.254	815.13
451.628	847.22
452.002	840.67
452.376	819.65
452.75	831.86
453.123	846.77
453.497	859.88
453.871	888.58
454.244	901.46
454.618	901.91
454.992	895.13
455.365	869.6
455.739	917.5
456.112	927
456.486	940.1
456.859	938.75
457.232	963.6
457.606	964.73
457.979	957.28
458.352	985.75
458.725	994.56
459.099	1007.22
459.472	1017.84
459.845	1002.02
460.218	1028.46
460.591	1027.33
460.964	1058.52
461.337	1058.74
461.71	1073.88
462.083	1098.06
462.456	1096.03
462.829	1077.95
463.201	1114.34
463.574	1135.58
463.947	1136.03
464.32	1182.58
464.692	1186.42
465.065	1178.29
465.438	1213.54
465.81	1235.91
466.183	1251.96
466.555	1251.96
466.928	1259.64
467.3	1297.83
467.672	1308.45
468.045	1329.47
468.417	1358.62
468.789	1301.22
469.161	1386.64
469.534	1397.49
469.906	1432.74
470.278	1450.6
470.65	1508.45
471.022	1506.87
471.394	1531.27
471.766	1554.55
472.138	1586.19
472.51	1609.01
472.882	1664.38
473.253	1695.11
473.625	1715.9
473.997	1751.15
474.369	1785.28
474.74	1804.26
475.112	1821.66
475.484	1903.47
475.855	1952.51
476.227	1979.85
476.598	2061.2
476.97	2091.71
477.341	2172.39
477.713	2216.45
478.084	2236.79
478.455	2346.85
478.827	2354.08
479.198	2460.51
479.569	2493.73
479.94	2576.67
480.311	2635.65
480.682	2687.4
481.053	2805.36
481.424	2858.7
481.795	2949.77
482.166	3042.65
482.537	3139.14
482.908	3178.46
483.279	3297.55
483.65	3370.1
484.021	3504.1
484.391	3612.57
484.762	3660.48
485.133	3784.77
485.503	3815.06
485.874	3985.22
486.244	4083.07
486.615	4222.73
486.985	4296.62
487.356	4459.56
487.726	4516.96
488.097	4701.13
488.467	4807.8
488.837	4917.17
489.207	5039.43
489.578	5194.23
489.948	5293.21
490.318	5454.33
490.688	5531.39
491.058	5692.52
491.428	5892.74
491.798	5972.74
492.168	6172.28
492.538	6257.48
492.908	6396.46
493.278	6588.77
493.648	6689.56
494.017	6840.29
494.387	6901.53
494.757	7055.65
495.126	7251.35
495.496	7303.78
495.866	7461.06
496.235	7632.81
496.605	7721.17
496.974	7913.7
497.344	8075.06
497.713	8134.94
498.082	8291.77
498.452	8460.81
498.821	8530.86
499.19	8651.31
499.559	8783.51
499.928	8935.6
500.298	9030.06
500.667	9198.87
501.036	9302.14
501.405	9424.17
501.774	9548.69
502.143	9748.91
502.512	9812.64
502.88	9962.24
503.249	10030.26
503.618	10123.59
503.987	10172.4
504.356	10361.32
504.724	10419.4
505.093	10637.7
505.462	10716.79
505.83	10904.36
506.199	10920.63
506.567	11130.34
506.936	11221.41
507.304	11349.09
507.672	11419.37
508.041	11498.24
508.409	11628.18
508.777	11799.48
509.145	11813.94
509.514	11909.76
509.882	12132.58
510.25	12165.34
510.618	12253.48
510.986	12418.67
511.354	12440.14
511.722	12634.26
512.09	12808.26
512.458	12686.01
512.826	12922.39
513.193	12934.14
513.561	13081.93
513.929	13175.71
514.297	13224.98
514.664	13356.5
515.032	13500.9
515.4	13613.67
515.767	13660.9
516.135	13693.44
516.502	13693.89
516.869	14074.67
517.237	14022.02
517.604	14118.96
517.972	14169.13
518.339	14250.26
518.706	14397.6
519.073	14446.19
519.44	14482.35
519.808	14645.73
520.175	14692.51
520.542	14849.34
520.909	14867.65
521.276	14951.26
521.643	15107.41
522.009	15144.25
522.376	15280.29
522.743	15372.04
523.11	15539.72
523.477	15653.84
523.843	15711.01
524.21	15784.46
524.577	15923.89
524.943	16001.63
525.31	16036.2
525.676	16201.85
526.043	16265.8
526.409	16359.36
526.776	16536.3
527.142	16555.51
527.508	16612.23
527.874	16721.38
528.241	16795.96
528.607	16799.12
528.973	16924.31
529.339	16944.43
529.705	17165.21
530.071	17235.27
530.437	17199.56
530.803	17332.67
531.169	17314.36
531.535	17405.43
531.901	17344.19
532.267	17470.52
532.632	17511.64
532.998	17590.96
533.364	17671.87
533.73	17651.98
534.095	17797.29
534.461	17833.67
534.826	17852.2
535.192	17914.12
535.557	17988.92
535.923	17913.89
536.288	18056.49
536.653	18145.3
537.019	18051.97
537.384	18097.39
537.749	18180.33
538.114	18169.48
538.479	18126.77
538.845	18207.67
539.21	18267.1
539.575	18270.04
539.94	18261
540.305	18414.22
540.67	18329.48
541.034	18440.66
541.399	18410.15
541.764	18438.17
542.129	18416.48
542.494	18450.6
542.858	18423.94
543.223	18461.68
543.587	18526.31
543.952	18492.86
544.316	18565.4
544.681	18635.46
545.045	18587.32
545.41	18714.32
545.774	18711.16
546.138	18674.33
546.503	18697.38
546.867	18546.19
547.231	18839.74
547.595	18833.42
547.959	18821.67
548.324	18743.25
548.688	18841.78
549.052	18832.29
549.416	18872.74
549.779	18907.31
550.143	18889.23
550.507	19048.78
550.871	18898.27
551.235	18868.67
551.599	19051.49
551.962	19055.56
552.326	19084.03
552.689	19048.33
553.053	18963.13
553.417	18976.01
553.78	19289.22
554.143	19220.07
554.507	19216.91
554.87	19125.84
555.234	19336.45
555.597	19154.31
555.96	19351.6
556.323	19378.26
556.686	19383.23
557.05	19463.68
557.413	19511.14
557.776	19553.4
558.139	19553.4
558.502	19576.22
558.865	19617.58
559.228	19798.59
559.59	19792.49
559.953	19734.18
560.316	19907.97
560.679	20007.17
561.041	20008.3
561.404	20083.1
561.767	20149.54
562.129	20063.44
562.492	20289.65
562.854	20183.66
563.217	20267.73
563.579	20294.85
563.941	20453.94
564.304	20426.37
564.666	20494.16
565.028	20570.77
565.39	20519.7
565.753	20672.24
566.115	20753.14
566.477	20753.37
566.839	20818.45
567.201	20949.75
567.563	20933.02
567.925	21072.45
568.287	21071.55
568.648	21166.46
569.01	21172.56
569.372	21289.17
569.734	21145.67
570.095	21281.71
570.457	21426.34
570.819	21335.27
571.18	21378.44
571.542	21570.29
571.903	21485.55
572.265	21661.37
572.626	21681.7
572.987	21641.7
573.349	21712.66
573.71	21811.42
574.071	21773.68
574.432	21875.6
574.794	22006.44
575.155	21907.23
575.516	21927.8
575.877	22016.16
576.238	21947.23
576.599	22040.79
576.96	22038.98
577.32	22198.53
577.681	22172.99
578.042	22311.07
578.403	22165.53
578.763	22177.28
579.124	22290.05
579.485	22403.72
579.845	22463.83
580.206	22262.48
580.566	22369.37
580.927	22257.28
581.287	22424.96
581.648	22324.85
582.008	22397.62
582.368	22387.45
582.728	22424.96
583.089	22472.87
583.449	22394.23
583.809	22420.44
584.169	22383.38
584.529	22430.16
584.889	22452.53
585.249	22402.14
585.609	22407.33
585.969	22469.93
586.329	22396.26
586.688	22398.75
587.048	22375.25
587.408	22328.92
587.768	22384.51
588.127	22363.72
588.487	22314.91
588.846	22564.39
589.206	22313.78
589.565	22378.86
589.925	22506.32
590.284	22398.52
590.643	22477.84
591.003	22498.18
591.362	22474.9
591.721	22412.08
592.08	22450.05
592.44	22401.46
592.799	22525.98
593.158	22466.09
593.517	22477.84
593.876	22475.13
594.235	22407.11
594.593	22406.2
594.952	22476.03
595.311	22307.22
595.67	22440.78
596.029	22627.44
596.387	22525.07
596.746	22534.11
597.104	22481
597.463	22416.83
597.822	22589.02
598.18	22427.67
598.538	22459.08
598.897	22540.44
599.255	22418.41
599.613	22769.81
599.972	22506.77
600.33	22554.68
600.688	22516.48
601.046	22700.21
601.404	22760.55
601.762	22694.78
602.12	22806.42
602.478	22679.87
602.836	22831.5
603.194	22632.19
603.552	22734.56
603.91	22577.5
604.268	22632.64
604.625	22662.24
604.983	22705.41
605.341	22683.03
605.698	22895.91
606.056	22796.7
606.413	22761.68
606.771	22920.77
607.128	22829.02
607.485	22798.74
607.843	22809.58
608.2	22957.38
608.557	23083.47
608.914	22915.12
609.272	23132.29
609.629	23043.7
609.986	23095
610.343	23058.62
610.7	23218.16
611.057	23330.7
611.414	23148.33
611.771	23271.27
612.127	23252.28
612.484	23209.8
612.841	23322.34
613.198	23354.2
613.554	23444.82
613.911	23476.01
614.267	23459.74
614.624	23385.16
614.98	23470.36
615.337	23570.92
615.693	23544.71
616.05	23521.2
616.406	23746.28
616.762	23582.44
617.118	23602.56
617.475	23667.64
617.831	23670.35
618.187	23712.84
618.543	23757.13
618.899	23829.67
619.255	23840.07
619.611	23760.52
619.967	23864.47
620.323	23937.46
620.678	23743.12
621.034	23763.23
621.39	23772.5
621.746	23718.71
622.101	24035.31
622.457	23781.08
622.812	23911.93
623.168	23964.13
623.523	23954.64
623.879	24085.48
624.234	23969.55
624.589	23973.4
624.945	24103.34
625.3	23994.86
625.655	24067.86
626.01	24089.78
626.365	24115.09
626.72	24016.33
627.075	23936.33
627.43	24036.22
627.785	23839.39
628.14	24075.09
628.495	24091.36
628.85	24050
629.205	23888.65
629.559	24062.66
629.914	24003
630.269	24005.26
630.623	23979.27
630.978	23886.62
631.332	23975.88
631.687	24007.97
632.041	23988.99
632.396	24057.46
632.75	23896.56
633.104	23871.02
633.459	23805.04
633.813	23718.71
634.167	23765.26
634.521	23731.37
634.875	23811.59
635.229	23773.17
635.583	23669.67
635.937	23606.63
636.291	23690.24
636.645	23727.75
636.999	23729.33
637.352	23688.2
637.706	23641.43
638.06	23693.85
638.413	23527.31
638.767	23555.33
639.121	23630.13
639.474	23386.74
639.828	23504.71
640.181	23599.17
640.534	23488.89
640.888	23462.9
641.241	23364.6
641.594	23274.66
641.947	23440.75
642.301	23388.78
642.654	23372.73
643.007	23422.45
643.36	23383.13
643.713	23297.71
644.066	23416.12
644.419	23155.79
644.771	23151.72
645.124	22925.74
645.477	22896.59
645.83	22690.26
646.182	22604.17
646.535	22583.6
646.888	22657.05
647.24	22486.65
647.593	22690.04
647.945	22506.32
648.298	22509.7
648.65	22508.57
649.002	22406.66
649.355	22485.3
649.707	22429.25
650.059	22478.75
650.411	22869.02
650.763	22895.46
651.115	23040.09
651.467	22974.33
651.819	22980.2
652.171	22969.81
652.523	22899.3
652.875	22908.79
653.227	22783.37
653.578	23022.69
653.93	22959.18
654.282	22820.88
654.633	22866.53
654.985	22912.41
655.337	22820.43
655.688	22899.98
656.039	22881.67
656.391	22703.82
656.742	22716.03
657.094	22972.07
657.445	22920.32
657.796	22768
658.147	22882.58
658.498	22832.18
658.849	22851.39
659.2	22767.33
659.551	22908.11
659.902	22880.99
660.253	22775.91
660.604	22934.55
660.955	22788.79
661.306	22849.58
661.656	22803.26
662.007	22782.69
662.358	22813.2
662.708	22857.94
663.059	22856.81
663.409	22681.45
663.76	22916.93
664.11	22847.77
664.461	22897.04
664.811	23022.23
665.161	22890.71
665.511	22771.84
665.862	22899.75
666.212	22863.14
666.562	22933.87
666.912	22850.03
667.262	22789.47
667.612	22853.88
667.962	22793.99
668.312	22791.96
668.662	22899.3
669.011	22885.74
669.361	22735.91
669.711	22723.71
670.06	22730.04
670.41	22720.32
670.76	22669.25
671.109	22828.11
671.459	22631.06
671.808	22662.92
672.157	22808.45
672.507	22605.52
672.856	22577.5
673.205	22656.14
673.554	22688.23
673.904	22605.97
674.253	22673.99
674.602	22648.01
674.951	22272.87
675.3	22188.81
675.649	22588.35
675.998	22502.25
676.346	22562.36
676.695	22487.56
677.044	22434.23
677.393	22514
677.741	22441.68
678.09	22516.26
678.438	22356.26
678.787	22474.9
679.135	22476.49
679.484	22220.45
679.832	22332.31
680.181	22252.76
680.529	22256.15
680.877	22185.65
681.225	22094.8
681.573	22218.19
681.922	22150.17
682.27	21965.99
682.618	21995.82
682.966	21855.48
683.314	22022.03
683.661	21928.25
684.009	21840.57
684.357	21741.36
684.705	21771.87
685.053	21816.84
685.4	21673.79
685.748	21673.34
686.095	21563.74
686.443	21568.94
686.79	21483.29
687.138	21568.49
687.485	21568.94
687.832	21501.82
688.18	21471.99
688.527	21324.88
688.874	21348.38
689.221	21320.58
689.568	21237.65
689.915	21172.79
690.262	21109.06
690.609	21098.67
690.956	20899.8
691.303	20918.56
691.65	20899.8
691.997	20755.17
692.344	20681.5
692.69	20682.63
693.037	20690.32
693.383	20589.76
693.73	20604.67
694.077	20487.16
694.423	20492.36
694.769	20358.57
695.116	20281.51
695.462	20316.32
695.808	20155.64
696.155	20162.65
696.501	19935.99
696.847	20066.38
697.193	19888.76
697.539	19975.31
697.885	19762.66
698.231	19734.41
698.577	19778.03
698.923	19678.37
699.269	19528.54
699.614	19442.67
699.96	19397.7
700.306	19396.34
700.651	19318.15
700.997	19305.72
701.342	19248.55
701.688	19107.53
702.033	19137.36
702.379	19018.95
702.724	19018.72
703.069	19069.12
703.415	18833.42
703.76	18867.77
704.105	18853.98
704.45	18708.45
704.795	18614.67
705.14	18587.1
705.485	18611.95
705.83	18500.09
706.175	18576.02
706.52	18488.34
706.865	18397.04
707.209	18340.77
707.554	18301
707.899	18384.84
708.243	18191.85
708.588	18244.28
708.932	18035.7
709.277	17961.58
709.621	18101.46
709.966	17858.08
710.31	18014.68
710.654	17730.62
710.998	17914.35
711.342	17761.36
711.687	17694.92
712.031	17657.18
712.375	17580.57
712.719	17620.12
713.063	17536.5
713.407	17607.91
713.75	17518.42
714.094	17481.81
714.438	17455.37
714.782	17386.9
715.125	17308.71
715.469	17298.09
715.812	17278.88
716.156	17138.77
716.499	17187.13
716.843	17204.76
717.186	17137.19
717.53	17254.7
717.873	17187.58
718.216	17101.71
718.559	16992.79
718.902	16927.25
719.246	17056.29
719.589	16992.56
719.932	16863.75
720.275	16869.4
720.617	16885.45
720.96	16807.48
721.303	16814.94
721.646	16881.83
721.989	16749.63
722.331	16795.5
722.674	16772
723.016	16776.52
723.359	16707.82
723.701	16656.3
724.044	16590.54
724.386	16570.43
724.729	16675.96
725.071	16565.68
725.413	16520.71
725.755	16574.72
726.097	16501.95
726.439	16388.28
726.782	16424.22
727.124	16504.21
727.465	16316.2
727.807	16348.74
728.149	16274.39
728.491	16257.44
728.833	16385.8
729.175	16347.61
729.516	16190.77
729.858	16232.81
730.199	16236.88
730.541	16195.52
730.882	16265.35
731.224	16285.24
731.565	16168.85
731.906	16189.42
732.248	16257.89
732.589	16115.75
732.93	16072.36
733.271	16212.02
733.612	16064.68
733.953	16142.87
734.294	16084.11
734.635	16019.03
734.976	16104.22
735.317	15956.66
735.658	16061.74
735.999	16115.75
736.339	16045.69
736.68	16058.35
737.021	15950.56
737.361	16020.16
737.702	16010.44
738.042	16059.03
738.383	16029.42
738.723	15950.78
739.063	15981.97
739.404	15969.31
739.744	16002.08
740.084	15899.03
740.424	16020.38
740.764	15972.25
741.104	15925.47
741.444	15904.23
741.784	15953.49
742.124	15944
742.464	15959.14
742.804	15920.95
743.143	15906.26
743.483	15980.38
743.823	15990.1
744.162	15954.17
744.502	16025.13
744.841	15964.11
745.181	16140.15
745.52	15965.7
745.86	16089.31
746.199	16051.57
746.538	16059.03
746.877	16068.74
747.216	16098.8
747.556	16158.01
747.895	16219.7
748.234	16232.81
748.573	16274.16
748.911	16386.48
749.25	16242.98
749.589	16263.99
749.928	16380.37
750.267	16486.36
750.605	16553.48
750.944	16466.47
751.283	16556.87
751.621	16654.49
751.96	16568.17
752.298	16685.9
752.636	16746.92
752.975	16729.74
753.313	16735.85
753.651	16954.14
753.989	16916.86
754.327	16966.57
754.666	17002.73
755.004	17173.8
755.342	17237.08
755.679	17235.04
756.017	17345.09
756.355	17374.47
756.693	17395.49
757.031	17498.09
757.368	17550.97
757.706	17715.48
758.044	17708.7
758.381	17763.39
758.719	17799.32
759.056	17866.44
759.394	17905.08
759.731	17927
760.068	17927.45
760.405	18073.89
760.743	18091.06
761.08	18218.52
761.417	18192.53
761.754	18203.6
762.091	18324.28
762.428	18396.59
762.765	18363.6
763.102	18451.51
763.438	18525.63
763.775	18489.47
764.112	18610.15
764.449	18730.6
764.785	18650.6
765.122	18621.45
765.458	18634.1
765.795	18763.81
766.131	18692.18
766.467	18715.91
766.804	18791.16
767.14	18751.39
767.476	18762.91
767.812	18778.05
768.148	18851.5
768.485	18789.12
768.821	18778.96
769.157	18809.46
769.492	18828.45
769.828	18866.64
770.164	18786.41
770.5	18698.51
770.836	18806.07
771.171	18706.19
771.507	18743.02
771.842	18654.21
772.178	18741.44
772.513	18661.22
772.849	18681.78
773.184	18608.56
773.519	18686.75
773.855	18602.46
774.19	18482.01
774.525	18562.24
774.86	18594.78
775.195	18517.49
775.53	18486.99
775.865	18343.03
776.2	18246.77
776.535	18196.6
776.87	18346.2
777.205	18213.77
777.539	18164.51
777.874	18235.69
778.209	18025.75
778.543	18161.12
778.878	18050.39
779.212	17962.93
779.547	17872.09
779.881	17935.81
780.215	17816.95
780.55	17918.19
780.884	17793.22
781.218	17756.61
781.552	17793.44
781.886	17729.04
782.22	17675.93
782.554	17481.36
782.888	17461.93
783.222	17427.8
783.556	17317.52
783.889	17384.19
784.223	17223.52
784.557	17286.79
784.89	17175.16
785.224	17191.2
785.557	17055.84
785.891	17008.15
786.224	16934.71
786.558	17012.45
786.891	16783.53
787.224	16827.37
787.557	16772.45
787.891	16763.87
788.224	16728.39
788.557	16787.14
788.89	16729.07
789.223	16628.28
789.556	16557.54
789.888	16449.53
790.221	16423.54
790.554	16387.83
790.887	16343.77
791.219	16244.56
791.552	16235.07
791.884	16202.98
792.217	16160.72
792.549	16084.79
792.882	15997.79
793.214	15937
793.546	16120.04
793.879	15830.11
794.211	15732.93
794.543	15824.46
794.875	15759.15
795.207	15737.23
795.539	15641.18
795.871	15659.94
796.203	15550.34
796.535	15404.13
796.867	15441.42
797.198	15307.41
797.53	15398.93
797.862	15266.73
798.193	15303.57
798.525	15193.74
798.856	15181.99
799.188	15101.76
799.519	15023.57
799.85	15016.34
800.182	15006.17
800.513	15035.55
800.844	14688.44
801.175	14892.28
801.506	14822
801.837	14821.32
802.168	14729.57
802.499	14676.46
802.83	14544.04
803.161	14532.74
803.491	14600.99
803.822	14638.05
804.153	14512.85
804.483	14342.91
804.814	14337.94
805.145	14380.43
805.475	14324.84
805.805	14203.93
806.136	14297.27
806.466	14379.07
806.796	14252.52
807.126	14091.62
807.457	13995.35
807.787	14168.91
808.117	13972.75
808.447	13983.83
808.777	13974.11
809.107	13915.13
809.436	13921.46
809.766	13927.33
810.096	13863.38
810.426	13866.54
810.755	13794
811.085	13704.06
811.414	13728.01
811.744	13645.31
812.073	13610.5
812.403	13583.84
812.732	13467.68
813.061	13534.35
813.39	13382.71
813.719	13434.69
814.049	13495.93
814.378	13370.51
814.707	13337.97
815.036	13300.91
815.365	13279.21
815.693	13196.73
816.022	13204.19
816.351	13090.07
816.68	13067.69
817.008	13084.64
817.337	12999.67
817.665	13014.14
817.994	13020.69
818.322	12998.77
818.651	12845.55
818.979	12885.55
819.307	12981.82
819.636	12885.55
819.964	12813.24
820.292	12736.63
820.62	12796.06
820.948	12801.49
821.276	12839.9
821.604	12698.89
821.932	12747.7
822.259	12794.48
822.587	12677.65
822.915	12732.11
823.243	12709.74
823.57	12714.03
823.898	12686.46
824.225	12709.96
824.553	12664.99
824.88	12661.15
825.207	12725.78
825.535	12701.6
825.862	12770.75
826.189	12702.05
826.516	12803.52
826.843	12774.59
827.17	12730.07
827.497	12748.38
827.824	12711.54
828.151	12791.54
828.478	12654.37
828.805	12721.49
829.131	12662.73
829.458	12712.22
829.785	12575.5
830.111	12681.49
830.438	12687.82
830.764	12702.28
831.09	12666.8
831.417	12570.31
831.743	12626.8
832.069	12671.32
832.395	12603.52
832.722	12661.38
833.048	12604.2
833.374	12635.39
833.7	12565.33
834.026	12548.16
834.351	12562.85
834.677	12580.93
835.003	12646.69
835.329	12620.25
835.654	12502.28
835.98	12439.91
836.306	12470.19
836.631	12446.24
836.956	12352.68
837.282	12465.45
837.607	12425.9
837.932	12328.5
838.258	12408.95
838.583	12393.36
838.908	12350.42
839.233	12341.84
839.558	12349.29
839.883	12244.89
840.208	12172.12
840.533	12190.2
840.858	12241.27
841.182	12228.85
841.507	12196.08
841.832	12120.15
842.156	12132.12
842.481	12072.47
842.805	12050.77
843.13	12032.01
843.454	11961.73
843.778	11970.32
844.103	11950.89
844.427	11942.98
844.751	11955.41
845.075	11879.25
845.399	11851.91
845.723	11753.38
846.047	11801.96
846.371	11685.81
846.695	11708.86
847.019	11609.88
847.343	11594.51
847.666	11442.88
847.99	11456.89
848.313	11394.29
848.637	11401.75
848.96	11377.34
849.284	11350.22
849.607	11226.16
849.931	11180.06
850.254	11130.34
850.577	11092.6
850.9	11031.59
851.223	11036.33
851.546	10941.42
851.869	10877.47
852.192	10874.08
852.515	10899.39
852.838	10753.18
853.161	10804.7
853.483	10754.76
853.806	10722.22
854.129	10697.59
854.451	10596.35
854.774	10546.86
855.096	10501.66
855.419	10523.13
855.741	10510.02
856.063	10350.48
856.385	10344.37
856.708	10408.1
857.03	10276.58
857.352	10397.25
857.674	10304.15
857.996	10303.7
858.318	10192.74
858.64	10095.79
858.961	10126.3
859.283	10095.12
859.605	10080.2
859.926	10091.5
860.248	10046.08
860.57	10019.19
860.891	10059.18
861.212	10003.82
861.534	9903.71
861.855	9940.09
862.176	9947.55
862.498	9888.57
862.819	9899.64
863.14	9871.17
863.461	9811.51
863.782	9771.28
864.103	9839.08
864.424	9682.92
864.745	9748.91
865.065	9710.04
865.386	9709.36
865.707	9710.04
866.027	9661.46
866.348	9655.35
866.668	9698.06
866.989	9642.25
867.309	9538.07
867.63	9594.79
867.95	9570.61
868.27	9506.88
868.59	9546.66
868.91	9491.52
869.23	9557.95
869.55	9519.54
869.87	9490.16
870.19	9522.48
870.51	9476.6
870.83	9439.77
871.15	9355.25
871.469	9443.16
871.789	9458.97
872.109	9354.12
872.428	9317.51
872.748	9370.16
873.067	9393.89
873.386	9304.85
873.706	9342.37
874.025	9242.48
874.344	9190.05
874.663	9257.4
874.982	9201.81
875.301	9258.53
875.62	9192.31
875.939	9139.21
876.258	9223.27
876.577	9186.21
876.896	9122.94
877.214	9128.14
877.533	9143.28
877.852	9113.22
878.17	9071.41
878.489	9091.3
878.807	9099.66
879.125	9024.18
879.444	9030.29
879.762	9055.82
880.08	9018.53
880.398	9006.33
880.716	8984.86
881.034	8913.68
881.352	8937.63
881.67	8918.65
881.988	8913.23
882.306	8915.71
882.624	8873
882.941	8819.44
883.259	8813.34
883.577	8834.36
883.894	8825.54
884.212	8755.72
884.529	8685.89
884.846	8717.3
885.164	8690.63
885.481	8661.48
885.798	8692.21
886.115	8622.84
886.432	8581.48
886.75	8580.58
887.067	8621.03
887.383	8524.54
887.7	8597.75
888.017	8513.24
888.334	8496.06
888.651	8455.61
888.967	8467.14
889.284	8398.21
889.6	8430.98
889.917	8350.76
890.233	8351.21
890.55	8277.99
890.866	8302.39
891.182	8265.33
891.498	8210.19
891.815	8254.94
892.131	8241.15
892.447	8157.99
892.763	8165.9
893.079	8167.48
893.395	8066.24
893.71	8110.99
894.026	8141.27
894.342	7985.34
894.657	7976.3
894.973	7939.01
895.289	7974.95
895.604	7990.09
895.92	7869.64
896.235	7872.58
896.55	7801.16
896.865	7806.59
897.181	7798.23
897.496	7806.14
897.811	7748.51
898.126	7714.16
898.441	7712.81
898.756	7674.39
899.071	7590.1
899.386	7690.89
899.7	7552.81
900.015	7535.18
900.33	7543.32
900.644	7459.03
900.959	7513.49
901.273	7397.79
901.588	7424.9
901.902	7375.41
902.216	7332.25
902.531	7316.66
902.845	7333.38
903.159	7269.65
903.473	7209.32
903.787	7191.46
904.101	7177
904.415	7140.62
904.729	7094.74
905.042	7075.53
905.356	7080.28
905.67	7080.05
905.984	7028.76
906.297	6972.26
906.611	7012.71
906.924	7007.06
907.237	6954.18
907.551	6908.99
907.864	6865.37
908.177	6887.06
908.491	6911.24
908.804	6801.87
909.117	6818.82
909.43	6724.58
909.743	6725.71
910.056	6651.82
910.368	6645.04
910.681	6636.22
910.994	6606.85
911.307	6625.83
911.619	6575.21
911.932	6508.09
912.244	6532.95
912.557	6522.1
912.869	6391.03
913.181	6438.26
913.494	6455.44
913.806	6374.99
914.118	6307.19
914.43	6303.8
914.742	6282.11
915.054	6316.46
915.366	6262
915.678	6236.46
915.99	6192.85
916.302	6153.52
916.613	6130.7
916.925	6095.9
917.236	6115.56
917.548	6065.39
917.859	6091.38
918.171	6007.31
918.482	5970.93
918.794	5987.88
919.105	5959.86
919.416	5946.75
919.727	5878.73
920.038	5873.53
920.349	5891.16
920.66	5845.06
920.971	5808.22
921.282	5840.54
921.593	5745.17
921.903	5737.94
922.214	5681.45
922.525	5697.94
922.835	5706.76
923.146	5602.13
923.456	5603.93
923.767	5642.58
924.077	5578.62
924.387	5577.04
924.697	5548.34
925.008	5528.23
925.318	5521.22
925.628	5485.97
925.938	5444.84
926.248	5382.7
926.558	5410.27
926.867	5315.58
927.177	5383.83
927.487	5297.28
927.796	5309.48
928.106	5337.73
928.416	5297.95
928.725	5276.49
929.034	5207.11
929.344	5194.23
929.653	5212.53
929.962	5129.6
930.271	5120.33
930.581	5077.39
930.89	5088.69
931.199	5020.22
931.508	4995.36
931.817	5042.37
932.125	4990.84
932.434	4961.24
932.743	4947.45
933.051	4924.4
933.36	4972.31
933.669	4901.58
933.977	4892.31
934.286	4878.08
934.594	4838.08
934.902	4780
935.21	4789.72
935.519	4770.51
935.827	4784.52
936.135	4738.65
936.443	4660.46
936.751	4673.56
937.059	4662.72
937.367	4653.9
937.674	4584.98
937.982	4646.9
938.29	4608.93
938.597	4636.05
938.905	4507.47
939.213	4491.42
939.52	4483.06
939.827	4477.18
940.135	4444.87
940.442	4434.47
940.749	4446.9
941.056	4409.16
941.363	4418.2
941.67	4419.56
941.977	4373.46
942.284	4342.72
942.591	4259.79
942.898	4328.94
943.205	4270.86
943.511	4270.41
943.818	4256.63
944.125	4229.28
944.431	4197.42
944.738	4203.75
945.044	4217.53
945.35	4126.46
945.657	4151.09
945.963	4129.17
946.269	4115.84
946.575	4081.26
946.881	4076.74
947.187	4067.48
947.493	4042.39
947.799	3999.01
948.105	3999.46
948.41	3986.58
948.716	4001.72
949.022	3964.66
949.327	3983.86
949.633	3916.52
949.938	3908.16
950.244	3919.23
950.549	3888.73
950.854	3847.14
951.16	3852.79
951.465	3806.47
951.77	3825.45
952.075	3777.54
952.38	3781.84
952.685	3781.38
952.99	3737.09
953.294	3740.25
953.599	3717.43
953.904	3679.01
954.209	3667.26
954.513	3719.69
954.818	3669.75
955.122	3684.66
955.426	3637.88
955.731	3614.83
956.035	3579.13
956.339	3563.54
956.643	3610.77
956.948	3511.79
957.252	3535.06
957.556	3542.07
957.86	3523.99
958.163	3488.74
958.467	3498.68
958.771	3494.84
959.075	3479.47
959.378	3412.13
959.682	3445.57
959.985	3391.56
960.289	3385.46
960.592	3412.13
960.896	3371.9
961.199	3364.9
961.502	3325.35
961.805	3292.81
962.108	3293.94
962.411	3269.76
962.714	3253.94
963.017	3233.6
963.32	3223.88
963.623	3245.58
963.926	3206.71
964.228	3200.38
964.531	3194.51
964.833	3177.11
965.136	3154.73
965.438	3116.54
965.741	3139.14
966.043	3113.38
966.345	3098.24
966.648	3071.8
966.95	3091.01
967.252	3048.07
967.554	3046.04
967.856	3011.69
968.158	3035.41
968.46	2989.31
968.761	3011.46
969.063	3032.7
969.365	2961.29
969.666	2968.75
969.968	2920.39
970.269	2938.92
970.571	2942.99
970.872	2912.03
971.174	2883.1
971.475	2848.53
971.776	2891.69
972.077	2890.56
972.378	2826.15
972.679	2799.26
972.98	2818.7
973.281	2837.91
973.582	2794.74
973.883	2835.65
974.183	2793.16
974.484	2764.01
974.785	2774.63
975.085	2719.72
975.386	2730.56
975.686	2740.73
975.986	2722.65
976.287	2660.96
976.587	2664.12
976.887	2674.07
977.187	2650.79
977.487	2671.81
977.787	2616.67
978.087	2611.02
978.387	2594.3
978.687	2556.56
978.987	2571.92
979.286	2589.1
979.586	2617.8
979.885	2564.92
980.185	2551.36
980.484	2561.53
980.784	2556.33
981.083	2522.89
981.382	2529.21
981.682	2497.8
981.981	2453.73
982.28	2459.16
982.579	2482.89
982.878	2483.11
983.177	2461.19
983.475	2427.75
983.774	2373.06
984.073	2403.57
984.372	2375.54
984.67	2423
984.969	2406.05
985.267	2391.36
985.566	2339.16
985.864	2371.25
986.162	2350.01
986.461	2333.74
986.759	2305.26
987.057	2286.28
987.355	2306.85
987.653	2308.2
987.951	2284.02
988.249	2279.05
988.547	2287.41
988.844	2217.81
989.142	2256.23
989.44	2234.53
989.737	2199.05
990.035	2199.73
990.332	2238.83
990.63	2172.39
990.927	2165.61
991.224	2149.34
991.521	2172.39
991.819	2117.47
992.116	2152.05
992.413	2132.84
992.71	2091.94
993.006	2091.26
993.303	2076.34
993.6	2093.07
993.897	2070.69
994.193	2080.64
994.49	2047.42
994.787	2032.73
995.083	2034.31
995.379	2022.33
995.676	2025.5
995.972	2000.87
996.268	1998.83
996.565	1981.88
996.861	1973.52
997.157	1988.21
997.453	1941.88
997.749	1964.71
998.044	1920.87
998.34	1950.02
998.636	1920.87
998.932	1907.99
999.227	1917.93
999.523	1899.85
999.818	1890.13
1000.114	1876.35
1000.409	1870.93
1000.704	1864.15
1001	1827.76
1001.295	1840.87
1001.59	1836.12
1001.885	1806.75
1002.18	1783.02
1002.475	1784.83
1002.77	1802.9
1003.065	1767.88
1003.359	1772.85
1003.654	1762
1003.949	1742.57
1004.243	1706.86
1004.538	1764.49
1004.832	1735.56
1005.127	1711.16
1005.421	1706.41
1005.715	1712.51
1006.009	1686.07
1006.304	1682.91
1006.598	1670.93
1006.892	1688.56
1007.186	1631.84
1007.48	1658.5
1007.773	1622.34
1008.067	1637.94
1008.361	1622.8
1008.655	1586.41
1008.948	1585.28
1009.242	1583.93
1009.535	1584.38
1009.829	1580.31
1010.122	1561.33
1010.415	1573.76
1010.708	1602.23
1011.001	1510.71
1011.295	1530.6
1011.588	1496.25
1011.881	1481.78
1012.173	1475.68
1012.466	1520.65
1012.759	1484.72
1013.052	1475.68
1013.344	1451.5
1013.637	1453.54
1013.93	1459.64
1014.222	1465.06
1014.514	1438.39
1014.807	1416.93
1015.099	1395.01
1015.391	1422.12
1015.683	1400.66
1015.976	1391.39
1016.268	1401.11
1016.56	1373.09
1016.851	1393.65
1017.143	1408.11
1017.435	1355.01
1017.727	1368.34
1018.018	1333.99
1018.31	1323.82
1018.602	1305.06
1018.893	1306.19
1019.185	1302.35
1019.476	1303.93
1019.767	1278.62
1020.058	1252.41
1020.35	1274.33
1020.641	1270.49
1020.932	1263.94
1021.223	1237.72
1021.514	1264.61
1021.804	1226.2
1022.095	1216.25
1022.386	1254.67
1022.677	1197.04
1022.967	1193.66
1023.258	1211.73
1023.548	1197.5
1023.839	1188.23
1024.129	1176.93
1024.419	1213.54
1024.709	1131.28
1025	1172.41
1025.29	1138.74
1025.58	1143.71
1025.87	1119.76
1026.16	1141.68
1026.449	1122.02
1026.739	1122.47
1027.029	1081.12
1027.319	1089.48
1027.608	1095.13
1027.898	1074.79
1028.187	1070.04
1028.477	1061.91
1028.766	1064.84
1029.055	1040.21
1029.344	1039.53
1029.634	1055.35
1029.923	1041.79
1030.212	1039.53
1030.501	1018.74
1030.79	1035.24
1031.078	1035.47
1031.367	1021.91
1031.656	996.82
1031.945	976.49
1032.233	981.46
1032.522	990.95
1032.81	964.06
1033.099	962.7
1033.387	959.54
1033.675	964.06
1033.963	957.5
1034.251	965.86
1034.54	938.75
1034.828	941.68
1035.116	949.14
1035.403	927
1035.691	936.26
1035.979	925.19
1036.267	929.03
1036.554	884.96
1036.842	913.44
1037.129	872.99
1037.417	888.13
1037.704	889.48
1037.992	880.44
1038.279	853.55
1038.566	860.33
1038.853	860.33
1039.14	860.33
