Data from hue_28_FLMS001491_00055.txt Node
Date: Tue Feb 07 17:17:28 GMT 2017
User: dcchb
Spectrometer: FLMS00149
Trigger mode: 0
Integration Time (sec): 2.000000E-2
Scans to average: 10
Electric dark correction enabled: true
Nonlinearity correction enabled: false
Boxcar width: 0
XAxis mode: Wavelengths
Number of Pixels in Spectrum: 2048
>>>>>Begin Spectral Data<<<<<
341.393	-2.81
341.776	-2.81
342.16	-2.81
342.543	-64.28
342.927	-61.79
343.31	-69.25
343.693	-73.32
344.077	-57.72
344.46	-62.92
344.843	-54.56
345.226	-42.36
345.61	-38.29
345.993	-10.27
346.376	-5.3
346.759	34.7
347.142	30.63
347.525	35.15
347.908	61.37
348.291	69.96
348.674	76.06
349.057	106.11
349.44	133.91
349.823	136.85
350.206	164.42
350.588	183.63
350.971	210.07
351.354	244.19
351.737	252.32
352.119	256.17
352.502	257.07
352.884	288.26
353.267	282.61
353.65	275.6
354.032	293.45
354.414	314.47
354.797	301.36
355.179	321.02
355.562	331.87
355.944	316.5
356.326	346.11
356.709	339.78
357.091	335.03
357.473	330.29
357.855	315.6
358.238	362.15
358.62	357.41
359.002	361.47
359.384	339.78
359.766	348.59
360.148	343.39
360.53	328.48
360.912	342.72
361.294	350.85
361.676	328.71
362.057	335.71
362.439	343.62
362.821	332.77
363.203	311.76
363.584	323.06
363.966	335.49
364.348	316.95
364.729	330.51
365.111	334.58
365.493	326.67
365.874	321.7
366.256	314.7
366.637	320.34
367.019	323.06
367.4	302.49
367.781	309.72
368.163	321.93
368.544	302.27
368.925	334.81
369.306	348.82
369.688	311.08
370.069	331.42
370.45	326.9
370.831	320.8
371.212	331.64
371.593	324.86
371.974	317.41
372.355	343.85
372.736	352.66
373.117	324.19
373.498	298.65
373.879	302.94
374.26	326.45
374.641	313.57
375.021	317.18
375.402	323.96
375.783	318.99
376.163	343.62
376.544	330.51
376.925	331.42
377.305	321.93
377.686	321.02
378.066	342.27
378.447	336.84
378.827	324.19
379.208	344.07
379.588	335.94
379.968	340.46
380.349	342.72
380.729	365.09
381.109	356.28
381.489	339.78
381.87	336.16
382.25	328.93
382.63	342.04
383.01	331.19
383.39	356.28
383.77	335.49
384.15	351.53
384.53	339.55
384.91	349.5
385.29	346.33
385.67	358.31
386.049	351.08
386.429	351.53
386.809	355.15
387.189	327.12
387.568	348.82
387.948	330.29
388.328	380.46
388.707	341.59
389.087	354.02
389.466	348.37
389.846	366.67
390.225	373.22
390.605	353.11
390.984	355.15
391.363	365.54
391.743	364.41
392.122	353.56
392.501	364.64
392.881	360.57
393.26	401.25
393.639	374.81
394.018	373.45
394.397	360.34
394.776	369.38
395.155	376.39
395.534	380
395.913	372.77
396.292	411.64
396.671	381.36
397.05	372.32
397.429	367.58
397.808	403.51
398.186	373.45
398.565	405.09
398.944	411.42
399.323	385.2
399.701	402.6
400.08	381.36
400.458	410.96
400.837	389.95
401.215	399.66
401.594	404.18
401.972	415.94
402.351	401.02
402.729	404.18
403.107	401.25
403.486	437.63
403.864	432.21
404.242	422.71
404.62	434.24
404.999	431.53
405.377	428.36
405.755	426.33
406.133	433.79
406.511	433.56
406.889	424.75
407.267	420.46
407.645	419.78
408.023	434.01
408.401	441.7
408.779	447.35
409.156	422.94
409.534	451.19
409.912	432.88
410.29	441.25
410.667	452.32
411.045	458.65
411.422	440.79
411.8	465.43
412.178	458.19
412.555	469.72
412.933	449.38
413.31	460.68
413.687	481.02
414.065	471.98
414.442	482.6
414.819	497.29
415.197	482.83
415.574	490.51
415.951	490.06
416.328	494.13
416.705	474.46
417.082	491.19
417.46	509.94
417.837	486.22
418.214	497.52
418.591	496.84
418.967	491.41
419.344	518.31
419.721	516.5
420.098	487.57
420.475	498.87
420.852	517.85
421.228	510.85
421.605	518.98
421.982	519.21
422.358	524.18
422.735	547.01
423.111	515.14
423.488	531.41
423.864	547.01
424.241	554.91
424.617	553.11
424.994	556.04
425.37	535.71
425.746	547.68
426.123	556.72
426.499	537.29
426.875	563.05
427.251	572.77
427.627	583.84
428.003	575.93
428.379	562.37
428.756	582.94
429.132	557.17
429.507	589.04
429.883	581.81
430.259	593.78
430.635	613.44
431.011	607.34
431.387	595.14
431.763	630.84
432.138	630.84
432.514	607.79
432.89	620
433.265	628.59
433.641	658.19
434.016	657.96
434.392	656.38
434.767	656.38
435.143	662.03
435.518	650.51
435.894	669.26
436.269	678.53
436.644	675.14
437.02	682.82
437.395	699.32
437.77	709.04
438.145	692.09
438.52	708.13
438.895	720.79
439.271	727.79
439.646	711.29
440.021	711.97
440.395	728.47
440.77	704.06
441.145	706.32
441.52	746.55
441.895	735.48
442.27	747.9
442.645	743.16
443.019	756.49
443.394	738.41
443.769	767.79
444.143	754.46
444.518	771.63
444.892	763.95
445.267	790.84
445.641	768.24
446.016	789.94
446.39	768.47
446.764	769.37
447.139	798.52
447.513	805.3
447.887	788.58
448.262	787
448.636	800.56
449.01	815.25
449.384	816.38
449.758	821.57
450.132	823.61
450.506	850.05
450.88	862.93
451.254	838.52
451.628	839.2
452.002	843.49
452.376	848.47
452.75	857.05
453.123	883.27
453.497	886.88
453.871	888.69
454.244	886.43
454.618	924.85
454.992	898.63
455.365	933.21
455.739	924.4
456.112	967.79
456.486	920.78
456.859	963.27
457.232	953.1
457.606	968.46
457.979	968.24
458.352	984.96
458.725	993.55
459.099	1022.93
459.472	1000.1
459.845	1025.86
460.218	1034
460.591	1045.75
460.964	1041.91
461.337	1047.11
461.71	1080.1
462.083	1100.89
462.456	1095.47
462.829	1118.52
463.201	1116.26
463.574	1142.24
463.947	1126.2
464.32	1144.73
464.692	1168.91
465.065	1191.28
465.438	1200.55
465.81	1209.13
466.183	1211.62
466.555	1256.14
466.928	1251.62
467.3	1251.39
467.672	1267.89
468.045	1303.6
468.417	1310.38
468.789	1315.57
469.161	1348.79
469.534	1344.05
469.906	1400.99
470.278	1370.94
470.65	1381.11
471.022	1424.95
471.394	1446.19
471.766	1465.85
472.138	1503.14
472.51	1520.77
472.882	1562.35
473.253	1566.41
473.625	1568
473.997	1626.07
474.369	1619.29
474.74	1671.72
475.112	1687.54
475.484	1714.21
475.855	1770.25
476.227	1755.34
476.598	1803.47
476.97	1826.97
477.341	1892.28
477.713	1933.18
478.084	1922.11
478.455	1958.72
478.827	1995.33
479.198	2087.53
479.569	2076.46
479.94	2170.01
480.311	2176.57
480.682	2245.72
481.053	2315.55
481.424	2325.72
481.795	2373.4
482.166	2436.9
482.537	2490.23
482.908	2538.37
483.279	2548.99
483.65	2596.44
484.021	2703.56
484.391	2737.46
484.762	2737.68
485.133	2800.96
485.503	2875.31
485.874	2932.25
486.244	2987.17
486.615	3061.52
486.985	3093.38
487.356	3146.03
487.726	3163.43
488.097	3251.12
488.467	3295.63
488.837	3391.22
489.207	3435.29
489.578	3470.09
489.948	3574.72
490.318	3600.03
490.688	3647.26
491.058	3692.01
491.428	3766.13
491.798	3793.7
492.168	3941.27
492.538	3905.34
492.908	4008.16
493.278	4042.51
493.648	4084.31
494.017	4117.08
494.387	4201.82
494.757	4216.29
495.126	4301.03
495.496	4314.59
495.866	4346.23
496.235	4443.63
496.605	4529.95
496.974	4543.96
497.344	4588.93
497.713	4625.77
498.082	4652.43
498.452	4663.06
498.821	4755.93
499.19	4746.67
499.559	4804.52
499.928	4852.65
500.298	4901.69
500.667	4903.73
501.036	4936.04
501.405	4957.06
501.774	5005.87
502.143	5080.45
502.512	5062.14
502.88	5158.18
503.249	5153.66
503.618	5181.91
503.987	5222.59
504.356	5277.28
504.724	5306.65
505.093	5359.08
505.462	5333.32
505.83	5430.27
506.199	5478.63
506.567	5503.94
506.936	5465.52
507.304	5501
507.672	5558.17
508.041	5626.87
508.409	5658.06
508.777	5707.55
509.145	5739.64
509.514	5720.65
509.882	5740.77
510.25	5779.86
510.618	5767.66
510.986	5856.47
511.354	5833.87
511.722	5897.15
512.09	5944.83
512.458	5928.11
512.826	5945.96
513.193	6013.75
513.561	6068.44
513.929	6049.69
514.297	6168.55
514.664	6114.32
515.032	6174.65
515.4	6199.29
515.767	6208.55
516.135	6267.31
516.502	6135.11
516.869	6270.7
517.237	6255.33
517.604	6238.16
517.972	6306.85
518.339	6369.9
518.706	6399.28
519.073	6349.56
519.44	6396.8
519.808	6530.58
520.175	6481.76
520.542	6543.68
520.909	6596.79
521.276	6597.47
521.643	6636.34
522.009	6674.3
522.376	6701.87
522.743	6684.25
523.11	6755.2
523.477	6784.81
523.843	6829.33
524.21	6903.22
524.577	6935.76
524.943	6980.73
525.31	6990.23
525.676	7037.46
526.043	7021.19
526.409	7127.17
526.776	7110
527.142	7155.65
527.508	7215.76
527.874	7296.66
528.241	7277.68
528.607	7288.75
528.973	7357.22
529.339	7345.7
529.705	7411.23
530.071	7448.52
530.437	7494.85
530.803	7519.25
531.169	7613.26
531.535	7556.54
531.901	7623.2
532.267	7628.4
532.632	7691
532.998	7746.14
533.364	7755.4
533.73	7785.91
534.095	7798.79
534.461	7858.68
534.826	7894.61
535.192	7921.73
535.557	7999.24
535.923	7989.3
536.288	8049.86
536.653	8077.65
537.019	8078.33
537.384	8154.94
537.749	8134.83
538.114	8210.76
538.479	8226.58
538.845	8283.07
539.21	8244.88
539.575	8307.71
539.94	8279.01
540.305	8395.84
540.67	8457.31
541.034	8439.91
541.399	8405.56
541.764	8435.39
542.129	8502.5
542.494	8578.88
542.858	8566.68
543.223	8618.43
543.587	8659.56
543.952	8710.86
544.316	8756.96
544.681	8781.37
545.045	8806
545.41	8877.63
545.774	8911.53
546.138	8994.47
546.503	8976.61
546.867	8985.88
547.231	9002.38
547.595	9010.06
547.959	9100.68
548.324	9072.2
548.688	9162.6
549.052	9201.47
549.416	9187.23
549.779	9199.89
550.143	9297.51
550.507	9331.86
550.871	9321.92
551.235	9322.82
551.599	9387.45
551.962	9395.81
552.326	9441.69
552.689	9521.23
553.053	9471.06
553.417	9569.82
553.78	9584.73
554.143	9558.97
554.507	9685.52
554.87	9581.8
555.234	9782.47
555.597	9708.57
555.96	9728.46
556.323	9785.18
556.686	9837.16
557.05	9874.9
557.413	9930.26
557.776	9896.36
558.139	9951.05
558.502	9982.92
558.865	9919.19
559.228	9968.9
559.59	10055.23
559.953	10077.15
560.316	10179.97
560.679	10198.95
561.041	10258.39
561.404	10375.9
561.767	10346.07
562.129	10236.24
562.492	10333.19
562.854	10344.26
563.217	10393.98
563.579	10416.35
563.941	10500.19
564.304	10501.32
564.666	10610.92
565.028	10494.54
565.39	10606.63
565.753	10647.76
566.115	10691.37
566.477	10734.31
566.839	10792.16
567.201	10843.23
567.563	10888.2
567.925	10905.6
568.287	10935.21
568.648	10969.1
569.01	11029.67
569.372	11151.02
569.734	11100.85
570.095	11172.04
570.457	11208.87
570.819	11254.29
571.18	11309.89
571.542	11379.04
571.903	11397.12
572.265	11533.38
572.626	11510.33
572.987	11582.2
573.349	11628.97
573.71	11665.36
574.071	11737.67
574.432	11807.27
574.794	11978.12
575.155	12024.9
575.516	11995.74
575.877	12124.78
576.238	12239.81
576.599	12272.57
576.96	12347.37
577.32	12434.6
577.681	12526.8
578.042	12688.83
578.403	12770.19
578.763	12848.6
579.124	12969.5
579.485	13194.81
579.845	13321.58
580.206	13403.16
580.566	13530.62
580.927	13643.16
581.287	13890.38
581.648	13955.69
582.008	14219.64
582.368	14385.29
582.728	14595.22
583.089	14740.08
583.449	14928.32
583.809	15187.07
584.169	15288.31
584.529	15537.8
584.889	15781.86
585.249	15945.24
585.609	16149.76
585.969	16521.27
586.329	16712.46
586.688	17020.47
587.048	17234.25
587.408	17337.98
587.768	17694.58
588.127	17958.98
588.487	18117.39
588.846	18526.19
589.206	18698.17
589.565	19071.72
589.925	19429.22
590.284	19627.86
590.643	20035.08
591.003	20384.68
591.362	20710.54
591.721	20937.88
592.08	21333.58
592.44	21667.35
592.799	21964.07
593.158	22269.82
593.517	22596.37
593.876	22965.62
594.235	23309.34
594.593	23680.86
594.952	23919.05
595.311	24174.18
595.67	24669.76
596.029	25123.53
596.387	25354.04
596.746	25687.36
597.104	26026.56
597.463	26403.95
597.822	26749.03
598.18	27015.24
598.538	27227.89
598.897	27798.49
599.255	27921.65
599.613	28655.64
599.972	28732.93
600.33	29006.6
600.688	29317.32
601.046	29652.23
601.404	30142.61
601.762	30294.7
602.12	30901.24
602.478	31107.56
602.836	31472.29
603.194	31511.61
603.552	31920.87
603.91	32066.4
604.268	32642.43
604.625	32703.9
604.983	33138.46
605.341	33162.87
605.698	33754.04
606.056	34049.4
606.413	34211.43
606.771	34518.32
607.128	34900.9
607.485	35023.16
607.843	35227.68
608.2	35687.78
608.557	35879.18
608.914	35905.4
609.272	36517.13
609.629	36662.21
609.986	36939.72
610.343	37216.1
610.7	37444.11
611.057	37672.36
611.414	37779.92
611.771	38226.92
612.127	38511.88
612.484	38425.33
612.841	38774.02
613.198	38889.95
613.554	39051.3
613.911	39413.78
614.267	39623.27
614.624	39715.47
614.98	39835.69
615.337	40246.53
615.693	40366.52
616.05	40433.64
616.406	40766.29
616.762	40805.83
617.118	41076.79
617.475	41067.07
617.831	41373.95
618.187	41534.85
618.543	41847.39
618.899	42055.29
619.255	42008.06
619.611	42132.13
619.967	42359.69
620.323	42609.4
620.678	42631.77
621.034	42460.03
621.39	42580.48
621.746	42723.07
622.101	43178.2
622.457	42954.93
622.812	43113.57
623.168	43345.2
623.523	43405.09
623.879	43685.53
624.234	43458.65
624.589	43654.8
624.945	43658.41
625.3	43844.85
625.655	43957.16
626.01	44139.53
626.365	44087.1
626.72	44126.88
627.075	44257.27
627.43	44165.52
627.785	44193.32
628.14	44365.51
628.495	44461.78
628.85	44499.52
629.205	44344.95
629.559	44705.62
629.914	44542.91
630.269	44622.23
630.623	44526.19
630.978	44612.29
631.332	44847.08
631.687	45026.29
632.041	44777.93
632.396	44870.36
632.75	44582.68
633.104	44946.29
633.459	44660.42
633.813	44817.03
634.167	44829.91
634.521	44761.44
634.875	44958.49
635.229	44930.47
635.583	44763.47
635.937	44732.96
636.291	44791.27
636.645	44749.23
636.999	44695.45
637.352	44933.63
637.706	44668.11
638.06	44947.19
638.413	44729.12
638.767	44759.63
639.121	44876.69
639.474	44708.56
639.828	44666.07
640.181	44751.49
640.534	44758.27
640.888	44688.67
641.241	44542.68
641.594	44666.52
641.947	44725.73
642.301	44707.65
642.654	44687.54
643.007	44725.73
643.36	44804.37
643.713	44643.25
644.066	44827.2
644.419	44558.96
644.771	44367.1
645.124	43915.58
645.477	43876.94
645.83	43668.81
646.182	43427.69
646.535	43403.73
646.888	43559.43
647.24	43305.2
647.593	43676.04
647.945	43603.73
648.298	43434.24
648.65	43248.03
649.002	43210.97
649.355	43360.57
649.707	43196.96
650.059	43454.13
650.411	43892.76
650.763	43934.11
651.115	44575.45
651.467	44388.79
651.819	44285.52
652.171	44153.77
652.523	44069.25
652.875	44152.41
653.227	44032.64
653.578	44287.55
653.93	44129.14
654.282	44119.42
654.633	44004.62
654.985	44064.73
655.337	43985.41
655.688	44129.36
656.039	44193.32
656.391	43878.97
656.742	43869.93
657.094	44001.91
657.445	44028.12
657.796	44064.28
658.147	43975.47
658.498	43936.37
658.849	43829.71
659.2	43832.19
659.551	43789.71
659.902	44006.43
660.253	43909.26
660.604	44073.54
660.955	43773.67
661.306	43821.12
661.656	43921.23
662.007	43876.26
662.358	43865.87
662.708	43779.31
663.059	43868.35
663.409	43667.45
663.76	43787.9
664.11	43841.23
664.461	43969.37
664.811	43751.75
665.161	43862.7
665.511	43806.21
665.862	43809.14
666.212	43880.78
666.562	43827
666.912	43694.57
667.262	43626.55
667.612	43765.08
667.962	43801.01
668.312	43674.23
668.662	43874.91
669.011	43801.24
669.361	43675.14
669.711	43746.55
670.06	43664.74
670.41	43620.45
670.76	43479.21
671.109	43739.32
671.459	43597.85
671.808	43350.17
672.157	43617.74
672.507	43276.96
672.856	43276.28
673.205	43417.52
673.554	43599.66
673.904	43400.79
674.253	43676.49
674.602	43500.9
674.951	42914.7
675.3	42671.77
675.649	43350.4
675.998	43213
676.346	43328.93
676.695	43362.6
677.044	43141.82
677.393	43262.04
677.741	43260.68
678.09	43117.86
678.438	43090.07
678.787	43190.63
679.135	43158.09
679.484	42899.79
679.832	43016.17
680.181	42832.67
680.529	42983.86
680.877	42775.73
681.225	42820.47
681.573	43021.37
681.922	42720.59
682.27	42588.84
682.618	42730.3
682.966	42603.98
683.314	42591.78
683.661	42556.52
684.009	42410.99
684.357	42265.91
684.705	42254.38
685.053	42202.63
685.4	42180.71
685.748	41948.18
686.095	42059.59
686.443	41841.06
686.79	41888.52
687.138	42033.6
687.485	41784.57
687.832	41936.43
688.18	41717.67
688.527	41607.39
688.874	41546.83
689.221	41433.84
689.568	41283.79
689.915	41320.17
690.262	41280.62
690.609	41135.09
690.956	41129.89
691.303	41041.76
691.65	40853.52
691.997	40820.07
692.344	40613.75
692.69	40582.34
693.037	40552.28
693.383	40338.5
693.73	40469.12
694.077	40246.3
694.423	40235.23
694.769	40142.8
695.116	39959.08
695.462	39839.76
695.808	39817.61
696.155	39924.28
696.501	39569.48
696.847	39600.22
697.193	39221.92
697.539	39571.52
697.885	39133.79
698.231	39154.58
698.577	39141.92
698.923	38963.62
699.269	38905.54
699.614	38675.72
699.96	38715.27
700.306	38590.07
700.651	38452.9
700.997	38333.36
701.342	38475.95
701.688	38211.33
702.033	38058.34
702.379	38115.96
702.724	37919.58
703.069	38092.01
703.415	37647.95
703.76	37841.17
704.105	37809.53
704.45	37536.54
704.795	37490.44
705.14	37309.43
705.485	37326.38
705.83	37046.61
706.175	37218.13
706.52	36979.95
706.865	36996.89
707.209	36854.75
707.554	36729.1
707.899	36804.36
708.243	36634.87
708.588	36771.36
708.932	36433.52
709.277	36292.05
709.621	36387.42
709.966	36180.87
710.31	36279.4
710.654	36021.78
710.998	35933.19
711.342	36019.97
711.687	35866.98
712.031	35667.44
712.375	35635.57
712.719	35735.23
713.063	35663.6
713.407	35714.67
713.75	35490.04
714.094	35521.45
714.438	35182.7
714.782	35328.24
715.125	35158.75
715.469	35253.21
715.812	35039.66
716.156	34900.45
716.499	34862.94
716.843	34900
717.186	34749.04
717.53	34910.62
717.873	34758.31
718.216	34724.41
718.559	34489.84
718.902	34460.46
719.246	34463.85
719.589	34330.75
719.932	34225.22
720.275	34296.17
720.617	34235.61
720.96	34147.7
721.303	34065.67
721.646	34068.84
721.989	33830.42
722.331	34159
722.674	33855.51
723.016	33896.86
723.359	33842.85
723.701	33921.5
724.044	33590.2
724.386	33457.1
724.729	33594.5
725.071	33554.5
725.413	33450.1
725.755	33421.62
726.097	33359.02
726.439	33151.57
726.782	33236.77
727.124	33357.67
727.465	33116.54
727.807	33111.35
728.149	33079.48
728.491	32992.25
728.833	32972.59
729.175	32888.98
729.516	32726.72
729.858	32799.72
730.199	32846.04
730.541	32670.23
730.882	32660.51
731.224	32791.81
731.565	32485.6
731.906	32547.07
732.248	32588.65
732.589	32385.49
732.93	32261.88
733.271	32317.02
733.612	32359.5
733.953	32279.05
734.294	32149.11
734.635	32234.53
734.976	32151.6
735.317	31878.61
735.658	31989.79
735.999	31908.67
736.339	32042.9
736.68	32059.85
737.021	31948.21
737.361	31762
737.702	31894.2
738.042	31764.04
738.383	31752.29
738.723	31752.74
739.063	31600.65
739.404	31670.03
739.744	31552.29
740.084	31527.89
740.424	31454.44
740.764	31483.37
741.104	31493.54
741.444	31351.39
741.784	31309.59
742.124	31291.51
742.464	31141.68
742.804	31225.97
743.143	31072.76
743.483	31001.35
743.823	30819.2
744.162	30896.72
744.502	30988.69
744.841	30887.9
745.181	30957.05
745.52	30670.51
745.86	30833.21
746.199	30751.63
746.538	30696.72
746.877	30735.36
747.216	30611.3
747.556	30531.53
747.895	30552.77
748.234	30498.31
748.573	30511.64
748.911	30349.84
749.25	30428.25
749.589	30243.63
749.928	30249.5
750.267	30263.51
750.605	30169.96
750.944	30085.21
751.283	30069.62
751.621	30116.4
751.96	30004.54
752.298	30003.18
752.636	29872.34
752.975	29770.87
753.313	29570.65
753.651	29763.86
753.989	29630.31
754.327	29533.81
754.666	29344.44
755.004	29561.38
755.342	29419.24
755.679	29548.05
756.017	29348.28
756.355	29410.65
756.693	29229.87
757.031	29242.97
757.368	28860.61
757.706	29043.43
758.044	28936.09
758.381	28953.49
758.719	28814.51
759.056	28807.96
759.394	28737
759.731	28561.41
760.068	28555.53
760.405	28429.44
760.743	28419.94
761.08	28268.99
761.417	28238.71
761.754	28271.02
762.091	28091.37
762.428	28100.63
762.765	27936.12
763.102	27989
763.438	27833.97
763.775	27732.51
764.112	27577.93
764.449	27715.78
764.785	27450.93
765.122	27453.42
765.458	27299.52
765.795	27277.15
766.131	27305.17
766.467	27136.14
766.804	27025.18
767.14	26862.02
767.476	26880.78
767.812	26740.21
768.148	26725.98
768.485	26495.02
768.821	26414.12
769.157	26514.68
769.492	26338.64
769.828	26367.34
770.164	26122.6
770.5	26081.7
770.836	26027.24
771.171	25776.17
771.507	25744.99
771.842	25642.84
772.178	25634.93
772.513	25604.88
772.849	25391.78
773.184	25463.41
773.519	25343.42
773.855	25232.46
774.19	25071.56
774.525	25104.55
774.86	25057.77
775.195	24923.77
775.53	24875.63
775.865	24604.68
776.2	24512.02
776.535	24399.49
776.87	24333.72
777.205	24310.45
777.539	24235.87
777.874	24310.9
778.209	23989.55
778.543	23995.43
778.878	23866.39
779.212	23831.82
779.547	23764.93
779.881	23768.32
780.215	23520.41
780.55	23591.82
780.884	23497.36
781.218	23391.15
781.552	23447.87
781.886	23276.35
782.22	23077.94
782.554	22974.66
782.888	22845.18
783.222	22745.29
783.556	22499.65
783.889	22589.36
784.223	22415.81
784.557	22485.64
784.89	22387.11
785.224	22390.05
785.557	22180.56
785.891	22114.57
786.224	22100.34
786.558	22043.62
786.891	21868.25
787.224	21837.52
787.557	21758.88
787.891	21659.44
788.224	21681.36
788.557	21569.5
788.89	21561.14
789.223	21476.4
789.556	21350.3
789.888	21276.18
790.221	21071.44
790.554	20919.13
790.887	20994.6
791.219	20940.82
791.552	20821.5
791.884	20799.35
792.217	20766.59
792.549	20732.92
792.882	20440.04
793.214	20445.92
793.546	20501.06
793.879	20354.62
794.211	20233.49
794.543	20350.78
794.875	20181.52
795.207	20257.9
795.539	20136.09
795.871	20162.53
796.203	19941.3
796.535	19851.36
796.867	19819.49
797.198	19742.43
797.53	19656.79
797.862	19496.34
798.193	19603.45
798.525	19514.42
798.856	19462.44
799.188	19320.98
799.519	19262.45
799.85	19181.77
800.182	19139.74
800.513	19130.47
800.844	18944.94
801.175	19139.74
801.506	19099.96
801.837	18879.63
802.168	18914.21
802.499	18834.21
802.83	18669.69
803.161	18714.89
803.491	18635.12
803.822	18597.38
804.153	18496.59
804.483	18360.55
804.814	18352.64
805.145	18240.33
805.475	18296.6
805.805	18213.21
806.136	18196.94
806.466	18178.41
806.796	18150.61
807.126	18019.31
807.457	17952.42
807.787	17923.5
808.117	17913.55
808.447	17800.11
808.777	17825.65
809.107	17648.02
809.436	17631.08
809.766	17755.82
810.096	17652.54
810.426	17521.25
810.755	17552.21
811.085	17551.53
811.414	17464.3
811.744	17329.84
812.073	17291.88
812.403	17294.81
812.732	17182.95
813.061	17150.41
813.39	17100.02
813.719	17031.09
814.049	17129.62
814.378	17008.27
814.707	16970.3
815.036	16865.67
815.365	16755.17
815.693	16667.94
816.022	16775.28
816.351	16567.38
816.68	16612.35
817.008	16654.15
817.337	16476.76
817.665	16441.95
817.994	16483.31
818.322	16471.11
818.651	16368.74
818.979	16334.84
819.307	16354.5
819.636	16345.69
819.964	16242.64
820.292	16205.58
820.62	16243.09
820.948	16241.28
821.276	16192.92
821.604	16189.31
821.932	16196.76
822.259	16218.68
822.587	16116.99
822.915	16094.39
823.243	16164.45
823.57	16128.97
823.898	16051.91
824.225	15994.96
824.553	16047.16
824.88	16075.41
825.207	16071.79
825.535	16100.04
825.862	16082.64
826.189	16000.16
826.516	16108.86
826.843	16124.67
827.17	16111.57
827.497	16110.44
827.824	16050.1
828.151	16075.86
828.478	16012.59
828.805	16101.62
829.131	16037.67
829.458	16041.97
829.785	15924.45
830.111	16024.11
830.438	16071.79
830.764	16105.92
831.09	16106.14
831.417	15955.64
831.743	16063.21
832.069	15981.85
832.395	15978.69
832.722	15932.14
833.048	15853.04
833.374	15894.85
833.7	15933.27
834.026	15889.2
834.351	15959.93
834.677	15877.68
835.003	15927.17
835.329	15865.7
835.654	15809.88
835.98	15705.7
836.306	15800.39
836.631	15642.88
836.956	15692.14
837.282	15731.92
837.607	15756.77
837.932	15625.48
838.258	15570.79
838.583	15586.84
838.908	15465.48
839.233	15492.83
839.558	15504.13
839.883	15405.6
840.208	15441.75
840.533	15384.58
840.858	15390
841.182	15296.22
841.507	15316.56
841.832	15216.22
842.156	15265.49
842.481	15286.05
842.805	15204.47
843.13	15225.72
843.454	15105.27
843.778	15099.84
844.103	15069.34
844.427	15166.73
844.751	15000.64
845.075	15024.36
845.399	14911.83
845.723	14842.9
846.047	14922.9
846.371	14732.85
846.695	14726.29
847.019	14589.57
847.343	14481.78
847.666	14409.24
847.99	14381.67
848.313	14408.11
848.637	14342.8
848.96	14358.17
849.284	14261.67
849.607	14120.89
849.931	14127.44
850.254	13988.23
850.577	13883.83
850.9	13852.87
851.223	13897.39
851.546	13722.03
851.869	13630.05
852.192	13735.81
852.515	13772.65
852.838	13610.39
853.161	13521.58
853.483	13515.48
853.806	13389.83
854.129	13444.75
854.451	13312.77
854.774	13295.6
855.096	13264.19
855.419	13148.03
855.741	13120.91
856.063	13164.3
856.385	13041.82
856.708	13067.13
857.03	13018.09
857.352	12980.8
857.674	12960.69
857.996	12883.4
858.318	12886.79
858.64	12862.84
858.961	12800.02
859.283	12772.22
859.605	12756.63
859.926	12681.83
860.248	12726.8
860.57	12626.46
860.891	12724.99
861.212	12583.53
861.534	12524.54
861.855	12486.58
862.176	12474.38
862.498	12474.38
862.819	12525.9
863.14	12405.9
863.461	12407.71
863.782	12393.7
864.103	12318.9
864.424	12300.59
864.745	12412
865.065	12219.69
865.386	12180.82
865.707	12150.32
866.027	12126.81
866.348	12164.33
866.668	12156.87
866.989	12137.66
867.309	11958.68
867.63	12139.69
867.95	12066.25
868.27	11980.15
868.59	12039.13
868.91	11980.83
869.23	11968.17
869.55	11963.43
869.87	11966.14
870.19	11910.77
870.51	11979.47
870.83	11907.61
871.15	11741.29
871.469	11782.64
871.789	11931.56
872.109	11841.17
872.428	11754.17
872.748	11723.89
873.067	11724.11
873.386	11697.9
873.706	11724.56
874.025	11655.64
874.344	11651.57
874.663	11653.38
874.982	11676.43
875.301	11661.29
875.62	11555.08
875.939	11519.6
876.258	11550.11
876.577	11542.87
876.896	11490.45
877.214	11475.76
877.533	11473.27
877.852	11451.58
878.17	11471.69
878.489	11350.34
878.807	11400.28
879.125	11354.63
879.444	11370.45
879.762	11318.7
880.08	11334.29
880.398	11241.87
880.716	11226.95
881.034	11288.87
881.352	11205.26
881.67	11200.74
881.988	11179.72
882.306	11173.62
882.624	11109.89
882.941	11039.61
883.259	11054.53
883.577	11032.83
883.894	11032.61
884.212	10996.45
884.529	11059.95
884.846	10955.09
885.164	10843.91
885.481	10935.21
885.798	10979.73
886.115	10814.98
886.432	10878.49
886.75	10678.72
887.067	10841.65
887.383	10678.26
887.7	10735.89
888.017	10674.65
888.334	10681.2
888.651	10679.39
888.967	10577.93
889.284	10468.78
889.6	10534.77
889.917	10515.78
890.233	10493.86
890.55	10424.71
890.866	10422.9
891.182	10380.42
891.498	10330.02
891.815	10369.12
892.131	10322.57
892.447	10234.66
892.763	10199.18
893.079	10138.84
893.395	10153.53
893.71	10101.33
894.026	10133.87
894.342	10104.04
894.657	10020.65
894.973	10022.01
895.289	10024.27
895.604	9995.12
895.92	9901.56
896.235	9848.68
896.55	9872.64
896.865	9873.31
897.181	9798.74
897.496	9852.52
897.811	9755.35
898.126	9697.73
898.441	9646.88
898.756	9649.82
899.071	9664.73
899.386	9621.8
899.7	9494.34
900.015	9540.22
900.33	9400.11
900.644	9471.97
900.959	9461.8
901.273	9361.24
901.588	9364.85
901.902	9363.04
902.216	9292.99
902.531	9248.25
902.845	9205.76
903.159	9181.81
903.473	9177.06
903.787	9036.73
904.101	9024.52
904.415	9023.17
904.729	9034.24
905.042	8963.06
905.356	8979.1
905.67	8910.63
905.984	8874.24
906.297	8820.69
906.611	8797.41
906.924	8760.57
907.237	8760.57
907.551	8671.99
907.864	8686.9
908.177	8611.65
908.491	8584.08
908.804	8567.59
909.117	8514.48
909.43	8489.62
909.743	8457.08
910.056	8434.93
910.368	8424.76
910.681	8312.45
910.994	8321.04
911.307	8272.9
911.619	8290.53
911.932	8249.63
912.244	8175.28
912.557	8163.98
912.869	8106.13
913.181	8062.29
913.494	8088.5
913.806	8036.53
914.118	8032.68
914.43	7919.92
914.742	7943.65
915.054	7891.9
915.366	7829.53
915.678	7843.76
915.99	7825.23
916.302	7743.88
916.613	7622.53
916.925	7738.45
917.236	7706.59
917.548	7657.1
917.859	7573.04
918.171	7592.47
918.482	7510.89
918.794	7522.42
919.105	7497.56
919.416	7504.79
919.727	7374.85
920.038	7363.32
920.349	7340.27
920.66	7278.81
920.971	7319.71
921.282	7258.47
921.593	7205.81
921.903	7148.87
922.214	7094.86
922.525	7134.18
922.835	7105.93
923.146	7070.22
923.456	7033.61
923.767	6966.95
924.077	6962.66
924.387	6940.06
924.697	6910.91
925.008	6893.51
925.318	6890.34
925.628	6858.93
925.938	6762.21
926.248	6743.9
926.558	6720.85
926.867	6734.19
927.177	6665.04
927.487	6632.27
927.796	6544.59
928.106	6602.67
928.416	6531.03
928.725	6554.76
929.034	6524.48
929.344	6507.98
929.653	6511.82
929.962	6407.19
930.271	6341.66
930.581	6368.32
930.89	6338.72
931.199	6294.88
931.508	6302.11
931.817	6337.81
932.125	6243.8
932.434	6204.48
932.743	6140.08
933.051	6123.13
933.36	6122
933.669	6091.94
933.977	6056.01
934.286	6076.58
934.594	6061.89
934.902	6037.26
935.21	5978.5
935.519	5945.73
935.827	5919.29
936.135	5880.42
936.443	5857.37
936.751	5867.09
937.059	5841.56
937.367	5822.8
937.674	5797.04
937.982	5798.84
938.29	5747.77
938.597	5701.9
938.905	5627.78
939.213	5644.05
939.52	5609.92
939.827	5615.57
940.135	5548.46
940.442	5550.26
940.749	5568.79
941.056	5590.04
941.363	5483.37
941.67	5458.51
941.977	5468.68
942.284	5413.54
942.591	5414.45
942.898	5396.37
943.205	5315.24
943.511	5303.94
943.818	5335.35
944.125	5233.44
944.431	5240.44
944.738	5233.44
945.044	5191.18
945.35	5161.57
945.657	5134.91
945.963	5128.13
946.269	5123.61
946.575	5105.76
946.881	5054.46
947.187	5037.51
947.493	5021.01
947.799	5008.58
948.105	4981.47
948.41	4956.61
948.716	4908.92
949.022	4902.15
949.327	4897.63
949.633	4842.26
949.938	4832.09
950.244	4866.89
950.549	4766.33
950.854	4739.21
951.16	4722.71
951.465	4740.34
951.77	4745.31
952.075	4640.46
952.38	4653.79
952.685	4701.02
952.99	4623.06
953.294	4652.21
953.599	4595.94
953.904	4572.66
954.209	4574.92
954.513	4531.99
954.818	4550.29
955.122	4459.22
955.426	4516.17
955.731	4457.41
956.035	4398.66
956.339	4404.98
956.643	4445.89
956.948	4417.86
957.252	4346.45
957.556	4409.95
957.86	4368.6
958.163	4343.97
958.467	4298.32
958.771	4294.48
959.075	4285.21
959.378	4210.41
959.682	4185.78
959.985	4214.25
960.289	4179.45
960.592	4168.15
960.896	4161.15
961.199	4094.48
961.502	4109.85
961.805	4101.49
962.108	4113.24
962.411	4063.3
962.714	4021.94
963.017	3993.47
963.32	3990.08
963.623	3960.25
963.926	3948.5
964.228	3978.33
964.531	3941.94
964.833	3940.36
965.136	3876.86
965.438	3912.11
965.741	3855.62
966.043	3882.96
966.345	3843.19
966.648	3790.54
966.95	3790.76
967.252	3783.3
967.554	3760.93
967.856	3752.57
968.158	3736.75
968.46	3712.8
968.761	3694.95
969.063	3673.93
969.365	3683.42
969.666	3630.09
969.968	3590.32
970.269	3608.17
970.571	3579.24
970.872	3573.59
971.174	3557.55
971.475	3541.5
971.776	3555.74
972.077	3497.66
972.378	3460.83
972.679	3535.4
972.98	3455.86
973.281	3462.41
973.582	3430.32
973.883	3396.2
974.183	3457.66
974.484	3396.2
974.785	3391
975.085	3365.46
975.386	3384.44
975.686	3316.42
975.986	3311.9
976.287	3313.49
976.587	3283.88
976.887	3275.07
977.187	3315.75
977.487	3289.31
977.787	3245.92
978.087	3163.43
978.387	3171.12
978.687	3195.07
978.987	3169.76
979.286	3181.74
979.586	3186.48
979.885	3114.62
980.185	3087.05
980.484	3090.44
980.784	3086.15
981.083	3115.98
981.382	3063.55
981.682	3075.98
981.981	3018.13
982.28	3016.77
982.579	2997.56
982.878	3027.17
983.177	3012.7
983.475	2984.91
983.774	2957.11
984.073	2922.76
984.372	2944.23
984.67	2931.35
984.969	2948.75
985.267	2904.91
985.566	2907.4
985.864	2861.97
986.162	2841.41
986.461	2810.22
986.759	2831.69
987.057	2785.14
987.355	2802.09
987.653	2825.14
987.951	2797.34
988.249	2770.68
988.547	2734.07
988.844	2738.13
989.142	2722.77
989.44	2707.63
989.737	2711.24
990.035	2689.1
990.332	2634.86
990.63	2659.72
990.927	2635.76
991.224	2647.06
991.521	2630.11
991.819	2606.84
992.116	2620.85
992.413	2589.21
992.71	2571.81
993.006	2557.57
993.303	2551.25
993.6	2556.9
993.897	2552.15
994.193	2518.93
994.49	2527.29
994.787	2501.3
995.083	2470.57
995.379	2437.8
995.676	2436.9
995.972	2457.46
996.268	2451.59
996.565	2405.04
996.861	2401.19
997.157	2403.45
997.453	2387.63
997.749	2384.92
998.044	2384.25
998.34	2371.36
998.636	2335.66
998.932	2304.25
999.227	2336.34
999.523	2291.82
999.818	2268.32
1000.114	2305.83
1000.409	2239.39
1000.704	2265.38
1001	2245.94
1001.295	2233.74
1001.59	2222.22
1001.885	2204.59
1002.18	2201.2
1002.475	2169.34
1002.77	2160.52
1003.065	2150.58
1003.359	2134.76
1003.654	2152.39
1003.949	2128.88
1004.243	2106.51
1004.538	2105.83
1004.832	2081.65
1005.127	2106.51
1005.421	2062.67
1005.715	2043.01
1006.009	2030.13
1006.304	2031.71
1006.598	2046.18
1006.892	1998.04
1007.186	2011.37
1007.48	1983.8
1007.773	2006.85
1008.067	1979.74
1008.361	1939.96
1008.655	1933.41
1008.948	1947.42
1009.242	1931.83
1009.535	1914.43
1009.829	1922.34
1010.122	1906.74
1010.415	1868.33
1010.708	1857.25
1011.001	1852.96
1011.295	1823.36
1011.588	1882.34
1011.881	1820.64
1012.173	1782.68
1012.466	1828.55
1012.759	1769.57
1013.052	1769.8
1013.344	1758.95
1013.637	1767.54
1013.93	1762.11
1014.222	1734.77
1014.514	1727.77
1014.807	1725.05
1015.099	1726.18
1015.391	1719.4
1015.683	1691.61
1015.976	1693.87
1016.268	1685.96
1016.56	1650.71
1016.851	1640.99
1017.143	1641.89
1017.435	1626.07
1017.727	1593.76
1018.018	1622.23
1018.31	1613.64
1018.602	1603.47
1018.893	1555.57
1019.185	1563.25
1019.476	1558.05
1019.767	1564.61
1020.058	1537.26
1020.35	1504.04
1020.641	1508.79
1020.932	1509.01
1021.223	1498.17
1021.514	1518.51
1021.804	1478.51
1022.095	1460.65
1022.386	1464.5
1022.677	1467.89
1022.967	1436.93
1023.258	1426.76
1023.548	1417.49
1023.839	1402.58
1024.129	1398.96
1024.419	1385.85
1024.709	1379.98
1025	1369.58
1025.29	1343.37
1025.58	1370.03
1025.87	1323.93
1026.16	1346.31
1026.449	1337.49
1026.739	1309.02
1027.029	1299.53
1027.319	1305.4
1027.608	1296.59
1027.898	1293.2
1028.187	1283.26
1028.477	1257.27
1028.766	1242.58
1029.055	1233.99
1029.344	1267.44
1029.634	1213.2
1029.923	1235.35
1030.212	1222.02
1030.501	1213.2
1030.79	1179.98
1031.078	1199.42
1031.367	1154.22
1031.656	1181.79
1031.945	1173.2
1032.233	1145.18
1032.522	1146.31
1032.81	1120.78
1033.099	1154.22
1033.387	1134.56
1033.675	1155.58
1033.963	1106.99
1034.251	1101.34
1034.54	1120.32
1034.828	1064.73
1035.116	1076.93
1035.403	1093.66
1035.691	1080.78
1035.979	1048.01
1036.267	1089.14
1036.554	1069.03
1036.842	1054.34
1037.129	1053.21
1037.417	1040.33
1037.704	1034.68
1037.992	1020.89
1038.279	999.2
1038.566	1007.78
1038.853	1007.78
1039.14	1007.78
