Data from hue_110_FLMS001491_00072.txt Node
Date: Tue Feb 07 17:01:47 GMT 2017
User: dcchb
Spectrometer: FLMS00149
Trigger mode: 0
Integration Time (sec): 2.000000E-2
Scans to average: 10
Electric dark correction enabled: true
Nonlinearity correction enabled: false
Boxcar width: 0
XAxis mode: Wavelengths
Number of Pixels in Spectrum: 2048
>>>>>Begin Spectral Data<<<<<
341.393	2.25
341.776	2.25
342.16	2.25
342.543	-83.4
342.927	-65.78
343.31	-61.26
343.693	-68.26
344.077	-87.47
344.46	-68.71
344.843	-67.13
345.226	-29.39
345.61	-35.72
345.993	-21.93
346.376	5.64
346.759	24.39
347.142	31.85
347.525	54
347.908	61
348.291	79.08
348.674	84.73
349.057	99.19
349.44	116.37
349.823	136.93
350.206	144.16
350.588	204.5
350.971	222.58
351.354	218.51
351.737	240.43
352.119	245.63
352.502	259.41
352.884	279.53
353.267	278.17
353.65	288.57
354.032	319.98
354.414	293.31
354.797	303.48
355.179	294.22
355.562	316.36
355.944	341.22
356.326	333.08
356.709	328.34
357.091	320.88
357.473	364.5
357.855	361.78
358.238	355
358.62	334.67
359.002	319.07
359.384	348.23
359.766	348.23
360.148	363.14
360.53	351.16
360.912	357.26
361.294	318.85
361.676	336.25
362.057	321.11
362.439	349.58
362.821	324.72
363.203	334.44
363.584	324.5
363.966	333.99
364.348	329.69
364.729	337.15
365.111	327.89
365.493	333.08
365.874	321.56
366.256	336.7
366.637	321.11
367.019	322.69
367.4	328.79
367.781	309.13
368.163	308.23
368.544	319.3
368.925	321.11
369.306	319.53
369.688	332.63
370.069	292.41
370.45	305.51
370.831	309.58
371.212	302.58
371.593	298.96
371.974	316.59
372.355	296.7
372.736	339.64
373.117	316.36
373.498	337.83
373.879	312.97
374.26	327.89
374.641	312.97
375.021	323.37
375.402	317.94
375.783	326.53
376.163	317.94
376.544	313.2
376.925	325.85
377.305	333.76
377.686	338.96
378.066	319.3
378.447	317.94
378.827	321.79
379.208	341.67
379.588	324.72
379.968	353.2
380.349	331.5
380.729	341.67
381.109	340.32
381.489	377.6
381.87	337.6
382.25	372.41
382.63	353.2
383.01	336.7
383.39	349.81
383.77	347.1
384.15	345.29
384.53	345.29
384.91	358.62
385.29	353.2
385.67	356.59
386.049	366.08
386.429	380.31
386.809	377.83
387.189	390.94
387.568	381.67
387.948	365.17
388.328	378.06
388.707	384.38
389.087	377.6
389.466	366.76
389.846	370.15
390.225	376.47
390.605	386.42
390.984	383.25
391.363	405.85
391.743	389.13
392.122	397.49
392.501	395.91
392.881	369.24
393.26	398.85
393.639	393.42
394.018	397.26
394.397	416.92
394.776	380.09
395.155	383.25
395.534	399.52
395.913	400.88
396.292	404.04
396.671	429.58
397.05	414.44
397.429	412.4
397.808	418.51
398.186	427.77
398.565	407.88
398.944	388.45
399.323	418.05
399.701	410.37
400.08	404.95
400.458	404.27
400.837	415.34
401.215	430.71
401.594	431.61
401.972	431.84
402.351	437.49
402.729	434.78
403.107	441.78
403.486	442.01
403.864	430.03
404.242	420.77
404.62	445.62
404.999	465.74
405.377	438.84
405.755	472.06
406.133	463.48
406.511	446.3
406.889	441.1
407.267	484.27
407.645	463.93
408.023	478.39
408.401	484.72
408.779	490.59
409.156	483.59
409.534	493.08
409.912	481.56
410.29	491.5
410.667	486.3
411.045	488.56
411.422	499.86
411.8	481.33
412.178	499.63
412.555	504.61
412.933	511.61
413.31	495.79
413.687	495.79
414.065	514.1
414.442	525.17
414.819	514.55
415.197	512.74
415.574	541.89
415.951	542.8
416.328	545.73
416.705	539.18
417.082	547.77
417.46	556.13
417.837	548.9
418.214	553.64
418.591	533.53
418.967	571.72
419.344	568.33
419.721	609.91
420.098	581.21
420.475	584.15
420.852	587.77
421.228	578.5
421.605	601.78
421.982	608.56
422.358	588.22
422.735	599.29
423.111	601.78
423.488	629.57
423.864	611.04
424.241	625.28
424.617	633.64
424.994	656.24
425.37	632.74
425.746	653.98
426.123	661.44
426.499	647.65
426.875	644.94
427.251	662.34
427.627	662.79
428.003	660.31
428.379	655.79
428.756	681.1
429.132	678.84
429.507	685.62
429.883	686.52
430.259	708.67
430.635	705.73
431.011	731.04
431.387	722.23
431.763	751.83
432.138	747.99
432.514	749.8
432.89	741.66
433.265	758.84
433.641	758.16
434.016	774.65
434.392	780.3
434.767	791.38
435.143	803.13
435.518	804.03
435.894	803.35
436.269	817.59
436.644	820.98
437.02	831.38
437.395	857.82
437.77	813.07
438.145	887.19
438.52	872.73
438.895	874.77
439.271	895.1
439.646	887.19
440.021	899.85
440.395	897.36
440.77	878.15
441.145	898.27
441.52	929.23
441.895	914.99
442.27	938.72
442.645	929
443.019	932.16
443.394	975.33
443.769	951.15
444.143	953.41
444.518	963.12
444.892	950.24
445.267	973.52
445.641	994.76
446.016	989.11
446.39	1012.16
446.764	1004.71
447.139	1001.77
447.513	1036.57
447.887	1011.03
448.262	1013.97
448.636	1030.92
449.01	1060.3
449.384	1028.43
449.758	1059.62
450.132	1050.13
450.506	1071.82
450.88	1073.18
451.254	1090.13
451.628	1091.48
452.002	1108.66
452.376	1115.44
452.75	1115.89
453.123	1159.73
453.497	1147.3
453.871	1149.33
454.244	1202.21
454.618	1164.02
454.992	1193.63
455.365	1203.57
455.739	1224.81
456.112	1241.99
456.486	1231.59
456.859	1275.21
457.232	1303
457.606	1285.38
457.979	1307.3
458.352	1325.37
458.725	1350.01
459.099	1358.14
459.472	1360.18
459.845	1410.8
460.218	1387.75
460.591	1409.67
460.964	1420.51
461.337	1478.82
461.71	1461.87
462.083	1510.91
462.456	1501.87
462.829	1504.13
463.201	1554.75
463.574	1561.07
463.947	1585.71
464.32	1624.35
464.692	1590.9
465.065	1659.83
465.438	1703.44
465.81	1684.91
466.183	1736.44
466.555	1742.54
466.928	1750.45
467.3	1771.92
467.672	1837.68
468.045	1851.46
468.417	1884.46
468.789	1914.29
469.161	1939.6
469.534	1949.54
469.906	1980.27
470.278	2032.93
470.65	2086.71
471.022	2114.51
471.394	2170.32
471.766	2179.82
472.138	2200.83
472.51	2269.76
472.882	2331.68
473.253	2384.56
473.625	2391.79
473.997	2480.37
474.369	2514.5
474.74	2559.69
475.112	2568.96
475.484	2677.66
475.855	2724.66
476.227	2807.82
476.598	2897.54
476.97	2928.95
477.341	2987.48
477.713	3084.2
478.084	3119.9
478.455	3229.96
478.827	3299.11
479.198	3418.65
479.569	3477.41
479.94	3601.7
480.311	3660.91
480.682	3759.44
481.053	3872.88
481.424	3961.69
481.795	4076.71
482.166	4168.46
482.537	4275.81
482.908	4386.09
483.279	4511.51
483.65	4617.27
484.021	4744.72
484.391	4896.81
484.762	4955.11
485.133	5094.99
485.503	5112.85
485.874	5357.13
486.244	5488.88
486.615	5591.48
486.985	5746.5
487.356	5923.45
487.726	6031.24
488.097	6241.86
488.467	6262.42
488.837	6501.51
489.207	6631.68
489.578	6781.5
489.948	6959.35
490.318	7087.71
490.688	7165
491.058	7345.56
491.428	7582.61
491.798	7665.1
492.168	7922.72
492.538	8044.75
492.908	8180.79
493.278	8430.95
493.648	8506.88
494.017	8650.38
494.387	8804.95
494.757	8921.79
495.126	9083.36
495.496	9115
495.866	9335.79
496.235	9428.89
496.605	9644.48
496.974	9664.59
497.344	9798.37
497.713	10003.56
498.082	10132.15
498.452	10296.21
498.821	10442.88
499.19	10498.01
499.559	10659.59
499.928	10813.94
500.298	10867.95
500.667	10968.96
501.036	11049.19
501.405	11217.09
501.774	11357.65
502.143	11470.87
502.512	11590.87
502.88	11674.71
503.249	11716.29
503.618	11842.39
503.987	11947.69
504.356	12055.94
504.724	12189.27
505.093	12238.99
505.462	12350.62
505.83	12384.52
506.199	12507.45
506.567	12716.71
506.936	12724.17
507.304	12847.33
507.672	12916.71
508.041	12967.78
508.409	13101.79
508.777	13202.58
509.145	13339.97
509.514	13335.91
509.882	13433.3
510.25	13492.96
510.618	13504.26
510.986	13586.75
511.354	13694.99
511.722	13829.45
512.09	13936.34
512.458	13928.89
512.826	14027.87
513.193	14099.28
513.561	14129.33
513.929	14204.36
514.297	14323.68
514.664	14336.33
515.032	14426.95
515.4	14487.29
515.767	14524.12
516.135	14592.14
516.502	14443.9
516.869	14749.2
517.237	14763.21
517.604	14671.24
517.972	14789.88
518.339	14951.23
518.706	14946.71
519.073	14946.71
519.44	15008.86
519.808	15202.98
520.175	15158.23
520.542	15271.22
520.909	15273.26
521.276	15304.22
521.643	15349.86
522.009	15477.77
522.376	15507.6
522.743	15548.05
523.11	15633.25
523.477	15768.61
523.843	15733.13
524.21	15894.03
524.577	15895.16
524.943	16005.89
525.31	15999.79
525.676	16103.52
526.043	16172.67
526.409	16181.71
526.776	16227.13
527.142	16244.53
527.508	16255.15
527.874	16341.25
528.241	16288.82
528.607	16403.85
528.973	16435.94
529.339	16418.09
529.705	16437.97
530.071	16438.2
530.437	16572.21
530.803	16562.04
531.169	16593
531.535	16463.51
531.901	16510.96
532.267	16504.41
532.632	16565.88
532.998	16568.82
533.364	16552.32
533.73	16656.72
534.095	16618.31
534.461	16665.54
534.826	16631.19
535.192	16593.45
535.557	16659.21
535.923	16606.33
536.288	16528.36
536.653	16631.41
537.019	16577.86
537.384	16547.8
537.749	16492.89
538.114	16514.81
538.479	16507.57
538.845	16416.05
539.21	16449.5
539.575	16452.21
539.94	16455.6
540.305	16367.47
540.67	16299.44
541.034	16414.92
541.399	16399.55
541.764	16307.81
542.129	16292.66
542.494	16378.09
542.858	16326.11
543.223	16216.96
543.587	16330.4
543.952	16180.35
544.316	16131.99
544.681	16080.69
545.045	16129.28
545.41	15997.76
545.774	16085.66
546.138	16096.96
546.503	16033.01
546.867	16051.54
547.231	16059
547.595	16010.19
547.959	16022.84
548.324	15862.39
548.688	15953.01
549.052	15948.04
549.416	15930.41
549.779	15847.48
550.143	15786.46
550.507	15872.34
550.871	15818.55
551.235	15768.84
551.599	15889.51
551.962	15773.81
552.326	15794.37
552.689	15781.94
553.053	15669.18
553.417	15713.02
553.78	15823.75
554.143	15674.38
554.507	15692.23
554.87	15667.6
555.234	15770.42
555.597	15614.26
555.96	15604.77
556.323	15588.28
556.686	15522.97
557.05	15615.17
557.413	15566.81
557.776	15570.88
558.139	15621.5
558.502	15496.75
558.865	15636.64
559.228	15647.48
559.59	15615.85
559.953	15587.37
560.316	15680.25
560.679	15597.77
561.041	15706.92
561.404	15735.17
561.767	15708.27
562.129	15655.39
562.492	15798.44
562.854	15727.71
563.217	15777.42
563.579	15759.8
563.941	15780.81
564.304	15858.55
564.666	15860.36
565.028	15818.78
565.39	15849.29
565.753	15858.1
566.115	15947.59
566.477	15902.84
566.839	15994.37
567.201	15966.35
567.563	15926.57
567.925	16129.73
568.287	16120.92
568.648	15957.53
569.01	16042.28
569.372	16059
569.734	16031.88
570.095	16166.34
570.457	16043.86
570.819	16088.6
571.18	16105.33
571.542	16204.98
571.903	16227.58
572.265	16243.85
572.626	16205.89
572.987	16235.49
573.349	16299.44
573.71	16373.79
574.071	16324.53
574.432	16417.86
574.794	16464.41
575.155	16430.06
575.516	16258.77
575.877	16422.83
576.238	16390.97
576.599	16346.9
576.96	16396.62
577.32	16415.83
577.681	16510.96
578.042	16499.21
578.403	16465.32
578.763	16439.1
579.124	16501.7
579.485	16489.27
579.845	16541.7
580.206	16422.38
580.566	16504.86
580.927	16342.38
581.287	16531.08
581.648	16487.46
582.008	16411.31
582.368	16487.69
582.728	16481.13
583.089	16485.65
583.449	16389.16
583.809	16451.98
584.169	16425.54
584.529	16326.79
584.889	16444.75
585.249	16369.72
585.609	16361.14
585.969	16418.54
586.329	16322.04
586.688	16377.41
587.048	16381.25
587.408	16310.07
587.768	16325.43
588.127	16292.21
588.487	16332.44
588.846	16366.11
589.206	16331.08
589.565	16266
589.925	16276.39
590.284	16293.79
590.643	16307.35
591.003	16299.44
591.362	16303.74
591.721	16300.35
592.08	16264.87
592.44	16351.65
592.799	16252.67
593.158	16197.3
593.517	16170.41
593.876	16281.14
594.235	16120.01
594.593	16174.48
594.952	16159.33
595.311	16209.05
595.67	16143.74
596.029	16206.11
596.387	16211.76
596.746	16199.33
597.104	16164.08
597.463	16240.91
597.822	16202.72
598.18	16072.11
598.538	16118.66
598.897	16200.24
599.255	15986.01
599.613	16361.82
599.972	16156.17
600.33	16222.38
600.688	16086.12
601.046	16132.67
601.404	16191.2
601.762	16117.98
602.12	16215.15
602.478	16146
602.836	16196.4
603.194	16127.02
603.552	16123.86
603.91	16059
604.268	16094.03
604.625	15984.65
604.983	16151.43
605.341	16026.46
605.698	16099.22
606.056	16173.35
606.413	16132.22
606.771	16148.04
607.128	16238.43
607.485	16110.75
607.843	16138.54
608.2	16235.94
608.557	16254.93
608.914	16232.33
609.272	16281.59
609.629	16329.27
609.986	16319.78
610.343	16259.45
610.7	16437.29
611.057	16362.04
611.414	16366.56
611.771	16327.69
612.127	16324.98
612.484	16261.25
612.841	16349.61
613.198	16339.22
613.554	16315.72
613.911	16450.85
614.267	16494.92
614.624	16382.38
614.98	16405.43
615.337	16523.17
615.693	16471.42
616.05	16458.99
616.406	16426.67
616.762	16439.55
617.118	16426.67
617.475	16425.09
617.831	16545.31
618.187	16565.88
618.543	16541.02
618.899	16629.38
619.255	16629.15
619.611	16571.08
619.967	16653.56
620.323	16683.39
620.678	16679.1
621.034	16584.18
621.39	16653.79
621.746	16589.38
622.101	16684.07
622.457	16542.6
622.812	16660.11
623.168	16717.51
623.523	16702.82
623.879	16682.71
624.234	16623.05
624.589	16550.29
624.945	16660.11
625.3	16703.5
625.655	16674.35
626.01	16670.28
626.365	16723.84
626.72	16687.91
627.075	16666.67
627.43	16632.54
627.785	16603.62
628.14	16649.94
628.495	16666.67
628.85	16599.1
629.205	16477.07
629.559	16634.8
629.914	16479.1
630.269	16503.05
630.623	16533.56
630.978	16505.31
631.332	16554.8
631.687	16535.14
632.041	16478.2
632.396	16463.51
632.75	16434.36
633.104	16507.57
633.459	16410.18
633.813	16344.64
634.167	16384.64
634.521	16309.61
634.875	16356.17
635.229	16297.41
635.583	16204.08
635.937	16282.5
636.291	16190.52
636.645	16207.92
636.999	16207.24
637.352	16284.53
637.706	16121.37
638.06	16243.85
638.413	16050.64
638.767	16023.07
639.121	16105.1
639.474	15990.75
639.828	15952.11
640.181	16039.79
640.534	16043.41
640.888	15987.81
641.241	15895.61
641.594	15946.91
641.947	16152.78
642.301	15964.09
642.654	15965.44
643.007	15989.62
643.36	15962.28
643.713	15882.96
644.066	15979.9
644.419	15950.53
644.771	15775.62
645.124	15641.16
645.477	15658.56
645.83	15530.88
646.182	15456.98
646.535	15441.61
646.888	15430.99
647.24	15305.12
647.593	15433.7
647.945	15368.85
648.298	15317.32
648.65	15335.63
649.002	15174.73
649.355	15335.4
649.707	15333.37
650.059	15423.54
650.411	15567.49
650.763	15563.42
651.115	15859.91
651.467	15781.94
651.819	15754.37
652.171	15741.49
652.523	15602.06
652.875	15735.39
653.227	15658.78
653.578	15772
653.93	15742.17
654.282	15661.49
654.633	15609.07
654.985	15659.24
655.337	15677.99
655.688	15701.04
656.039	15710.76
656.391	15495.62
656.742	15600.71
657.094	15642.06
657.445	15600.48
657.796	15624.21
658.147	15681.16
658.498	15590.99
658.849	15712.79
659.2	15649.97
659.551	15657.65
659.902	15633.93
660.253	15737.43
660.604	15710.31
660.955	15554.83
661.306	15797.08
661.656	15784.88
662.007	15725.67
662.358	15642.29
662.708	15790.08
663.059	15747.14
663.409	15632.34
663.76	15765.45
664.11	15737.2
664.461	15773.13
664.811	15711.21
665.161	15805.22
665.511	15662.85
665.862	15664.43
666.212	15703.98
666.562	15751.44
666.912	15710.31
667.262	15680.25
667.612	15664.88
667.962	15769.74
668.312	15671.21
668.662	15680.03
669.011	15711.21
669.361	15729.29
669.711	15713.92
670.06	15630.08
670.41	15660.37
670.76	15593.93
671.109	15603.64
671.459	15583.08
671.808	15574.72
672.157	15554.61
672.507	15563.42
672.856	15517.09
673.205	15501.05
673.554	15568.16
673.904	15493.82
674.253	15562.06
674.602	15498.56
674.951	15346.7
675.3	15190.32
675.649	15466.92
675.998	15517.32
676.346	15439.35
676.695	15493.14
677.044	15397.77
677.393	15500.6
677.741	15395.51
678.09	15397.32
678.438	15317.32
678.787	15329.98
679.135	15365.46
679.484	15286.14
679.832	15242.75
680.181	15208.85
680.529	15239.13
680.877	15293.37
681.225	15183.54
681.573	15286.14
681.922	15146.25
682.27	15111
682.618	15133.37
682.966	15058.8
683.314	15015.18
683.661	15048.4
684.009	14892.25
684.357	15013.38
684.705	14898.8
685.053	14970.67
685.4	14948.29
685.748	14746.72
686.095	14755.08
686.443	14657.68
686.79	14668.75
687.138	14753.5
687.485	14681.63
687.832	14572.03
688.18	14611.13
688.527	14499.04
688.874	14494.07
689.221	14454.75
689.568	14409.32
689.915	14473.5
690.262	14309.67
690.609	14376.33
690.956	14213.85
691.303	14238.71
691.65	14154.87
691.997	14191.25
692.344	14117.58
692.69	13969.11
693.037	14066.96
693.383	13966.85
693.73	14105.38
694.077	13803.46
694.423	13917.13
694.769	13825.39
695.116	13857.25
695.462	13773.64
695.808	13743.81
696.155	13624.03
696.501	13645.5
696.847	13589.69
697.193	13474.21
697.539	13538.39
697.885	13396.24
698.231	13356.02
698.577	13349.92
698.923	13339.75
699.269	13199.64
699.614	13106.53
699.96	13114.67
700.306	13121
700.651	13022.47
700.997	12965.29
701.342	12902.92
701.688	12986.76
702.033	12885.52
702.379	12859.99
702.724	12795.13
703.069	12837.84
703.415	12602.82
703.76	12717.84
704.105	12706.77
704.45	12601.69
704.795	12556.72
705.14	12504.06
705.485	12460.68
705.83	12465.42
706.175	12432.2
706.52	12442.6
706.865	12269.04
707.209	12363.73
707.554	12279.44
707.899	12230.17
708.243	12213.45
708.588	12125.54
708.932	12076.73
709.277	12061.59
709.621	12044.64
709.966	11975.72
710.31	11976.62
710.654	11865.66
710.998	11932.78
711.342	11860.01
711.687	11822.95
712.031	11810.07
712.375	11724.2
712.719	11735.95
713.063	11706.34
713.407	11749.73
713.75	11673.35
714.094	11777.76
714.438	11588.16
714.782	11646.01
715.125	11576.63
715.469	11600.13
715.812	11488.72
716.156	11420.48
716.499	11416.86
716.843	11477.2
717.186	11414.83
717.53	11530.3
717.873	11447.82
718.216	11466.35
718.559	11324.89
718.902	11349.29
719.246	11364.88
719.589	11375.73
719.932	11276.3
720.275	11319.24
720.617	11252.8
720.96	11250.09
721.303	11207.6
721.646	11272.46
721.989	11107.26
722.331	11203.53
722.674	11257.09
723.016	11119.02
723.359	11135.51
723.701	11160.14
724.044	11106.81
724.386	11082.41
724.729	11161.05
725.071	11150.88
725.413	11008.51
725.755	11080.37
726.097	11025.01
726.439	11050.09
726.782	11015.06
727.124	11022.75
727.465	10956.76
727.807	11036.53
728.149	10956.53
728.491	10944.33
728.833	10937.55
729.175	10994.73
729.516	10955.63
729.858	10918.57
730.199	10855.29
730.541	10867.95
730.882	10864.11
731.224	10943.2
731.565	10905.91
731.906	10912.02
732.248	10904.11
732.589	10805.8
732.93	10800.38
733.271	10810.32
733.612	10862.3
733.953	10862.53
734.294	10840.15
734.635	10822.3
734.976	10824.33
735.317	10804.45
735.658	10858.23
735.999	10765.58
736.339	10838.57
736.68	10876.76
737.021	10808.29
737.361	10749.99
737.702	10928.74
738.042	10858.91
738.383	10799.02
738.723	10875.41
739.063	10890.1
739.404	10883.32
739.744	10902.07
740.084	10896.65
740.424	10827.27
740.764	10919.25
741.104	10887.38
741.444	10874.05
741.784	10917.21
742.124	10931
742.464	11011
742.804	10986.36
743.143	11038.11
743.483	11068.17
743.823	11021.39
744.162	11093.48
744.502	11145.23
744.841	11113.37
745.181	11233.14
745.52	11299.12
745.86	11260.03
746.199	11296.41
746.538	11354.72
746.877	11367.14
747.216	11413.92
747.556	11475.62
747.895	11510.64
748.234	11564.88
748.573	11558.33
748.911	11612.56
749.25	11790.18
749.589	11750.41
749.928	11890.29
750.267	11947.24
750.605	11966.22
750.944	12172.1
751.283	12130.51
751.621	12315.82
751.96	12284.18
752.298	12466.32
752.636	12593.55
752.975	12615.02
753.313	12711.74
753.651	12941.57
753.989	12962.81
754.327	13044.16
754.666	13203.71
755.004	13290.26
755.342	13463.36
755.679	13594.66
756.017	13667.88
756.355	13873.75
756.693	13927.53
757.031	14058.37
757.368	14167.97
757.706	14367.29
758.044	14497.46
758.381	14605.93
758.719	14765.47
759.056	15001.85
759.394	15064
759.731	15120.94
760.068	15417.21
760.405	15496.98
760.743	15639.35
761.08	15901.94
761.417	16017.87
761.754	16107.81
762.091	16346.22
762.428	16434.58
762.765	16612.2
763.102	16863.72
763.438	16943.95
763.775	17009.26
764.112	17137.84
764.449	17421.45
764.785	17460.32
765.122	17555.68
765.458	17710.03
765.795	17855.34
766.131	17964.26
766.467	18217.36
766.804	18273.63
767.14	18367.19
767.476	18540.06
767.812	18591.14
768.148	18795.88
768.485	18830.45
768.821	18867.06
769.157	18975.53
769.492	19059.37
769.828	19419.14
770.164	19250.1
770.5	19377.1
770.836	19462.07
771.171	19514.28
771.507	19733.93
771.842	19652.58
772.178	19743.65
772.513	19858.67
772.849	19994.71
773.184	19962.4
773.519	20141.83
773.855	20045.33
774.19	20106.8
774.525	20215.73
774.86	20165.78
775.195	20461.14
775.53	20291.2
775.865	20273.58
776.2	20294.82
776.535	20248.72
776.87	20328.72
777.205	20341.82
777.539	20399.22
777.874	20389.51
778.209	20358.77
778.543	20399.68
778.878	20326.91
779.212	20339.11
779.547	20395.61
779.881	20543.63
780.215	20425.66
780.55	20428.38
780.884	20424.99
781.218	20483.97
781.552	20518.09
781.886	20380.69
782.22	20421.37
782.554	20322.16
782.888	20173.92
783.222	20338.66
783.556	20264.76
783.889	20326.68
784.223	20099.34
784.557	20124.2
784.89	20241.26
785.224	20130.76
785.557	20104.54
785.891	20007.14
786.224	20018.67
786.558	20112.68
786.891	20029.29
787.224	19849.63
787.557	19885.34
787.891	19769.64
788.224	19772.35
788.557	19763.99
788.89	19864.1
789.223	19745.91
789.556	19674.72
789.888	19735.29
790.221	19625.01
790.554	19443.99
790.887	19665.46
791.219	19447.61
791.552	19510.66
791.884	19460.72
792.217	19369.42
792.549	19368.74
792.882	19292.36
793.214	19245.58
793.546	19264.11
793.879	19186.37
794.211	18988.87
794.543	19123.55
794.875	19045.36
795.207	19121.07
795.539	18980.73
795.871	19083.1
796.203	18893.05
796.535	18758.14
796.867	18822.32
797.198	18735.76
797.53	18765.82
797.862	18728.76
798.193	18701.64
798.525	18540.74
798.856	18595.88
799.188	18437.47
799.519	18323.57
799.85	18234.08
800.182	18319.28
800.513	18299.62
800.844	18125.84
801.175	18275.44
801.506	18249
801.837	18065.95
802.168	18050.58
802.499	18045.39
802.83	18019.85
803.161	17904.37
803.491	17945.5
803.822	17947.76
804.153	17848.1
804.483	17731.5
804.814	17638.84
805.145	17629.8
805.475	17674.32
805.805	17572.41
806.136	17590.94
806.466	17539.19
806.796	17460.54
807.126	17353.88
807.457	17442.92
807.787	17423.71
808.117	17259.42
808.447	17200.89
808.777	17284.5
809.107	17233.66
809.436	17208.8
809.766	17057.84
810.096	16991.63
810.426	16939.43
810.755	16947.79
811.085	16995.47
811.414	17014
811.744	16835.48
812.073	16831.41
812.403	16807.68
812.732	16713.9
813.061	16794.12
813.39	16621.02
813.719	16572.66
814.049	16662.82
814.378	16585.09
814.707	16489.04
815.036	16473
815.365	16491.3
815.693	16313.46
816.022	16338.99
816.351	16343.06
816.68	16291.31
817.008	16364.98
817.337	16153.46
817.665	16150.97
817.994	16139.9
818.322	16152.1
818.651	16089.05
818.979	16063.07
819.307	16136.96
819.636	15985.33
819.964	15938.1
820.292	16008.38
820.62	16003.18
820.948	15942.39
821.276	15991.2
821.604	15911.21
821.932	15945.78
822.259	15883.41
822.587	15932.45
822.915	15940.58
823.243	15892.68
823.57	15882.05
823.898	15796.63
824.225	15835.73
824.553	15849.29
824.88	15832.11
825.207	15811.1
825.535	15885.67
825.862	15919.12
826.189	15833.69
826.516	15910.3
826.843	15951.88
827.17	15908.49
827.497	16034.59
827.824	15857.87
828.151	15952.79
828.478	15851.77
828.805	15990.3
829.131	15874.14
829.458	15866.46
829.785	15740.59
830.111	15805.9
830.438	15780.59
830.764	15943.3
831.09	15921.6
831.417	15920.92
831.743	15908.49
832.069	15873.69
832.395	15826.69
832.722	15848.83
833.048	15749.4
833.374	15813.81
833.7	15762.96
834.026	15759.8
834.351	15781.94
834.677	15732
835.003	15766.35
835.329	15744.2
835.654	15700.14
835.98	15752.34
836.306	15717.09
836.631	15641.38
836.956	15682.96
837.282	15647.03
837.607	15566.58
837.932	15569.52
838.258	15500.14
838.583	15523.42
838.908	15428.73
839.233	15467.15
839.558	15470.09
839.883	15486.13
840.208	15335.18
840.533	15255.86
840.858	15326.14
841.182	15340.15
841.507	15306.48
841.832	15258.12
842.156	15197.1
842.481	15183.99
842.805	15136.54
843.13	15115.07
843.454	15025.58
843.778	15054.96
844.103	14937.22
844.427	14908.97
844.751	14907.39
845.075	14913.94
845.399	14830.33
845.723	14789.88
846.047	14754.17
846.371	14618.81
846.695	14687.06
847.019	14601.64
847.343	14592.6
847.666	14446.61
847.99	14387.86
848.313	14393.28
848.637	14244.58
848.96	14199.16
849.284	14215.43
849.607	14144.7
849.931	14059.28
850.254	13948.32
850.577	13912.61
850.9	13767.99
851.223	13836.68
851.546	13748.32
851.869	13631.94
852.192	13726.4
852.515	13593.75
852.838	13456.36
853.161	13471.95
853.483	13443.7
853.806	13364.83
854.129	13442.57
854.451	13311.27
854.774	13252.97
855.096	13249.36
855.419	13164.39
855.741	13137.72
856.063	13151.96
856.385	13085.52
856.708	13064.95
857.03	12953.09
857.352	12942.02
857.674	12922.36
857.996	12937.72
858.318	12850.72
858.64	12903.38
858.961	12870.61
859.283	12781.12
859.605	12654.57
859.926	12709.93
860.248	12609.37
860.57	12676.26
860.891	12606.43
861.212	12527.11
861.534	12628.81
861.855	12520.11
862.176	12524.63
862.498	12485.08
862.819	12408.7
863.14	12371.41
863.461	12306.78
863.782	12295.71
864.103	12302.04
864.424	12317.18
864.745	12287.8
865.065	12266.78
865.386	12151.98
865.707	12166.45
866.027	12146.33
866.348	12145.2
866.668	12140.91
866.989	12139.1
867.309	11993.34
867.63	12003.29
867.95	12026.34
868.27	11978.88
868.59	12029.05
868.91	11993.34
869.23	11900.46
869.55	11855.49
869.87	11993.57
870.19	11895.72
870.51	11895.49
870.83	11867.24
871.15	11803.74
871.469	11848.71
871.789	11876.06
872.109	11773.69
872.428	11747.7
872.748	11814.59
873.067	11721.94
873.386	11754.25
873.706	11704.76
874.025	11605.56
874.344	11599.23
874.663	11694.82
874.982	11567.82
875.301	11582.96
875.62	11649.4
875.939	11523.75
876.258	11533.92
876.577	11367.37
876.896	11473.36
877.214	11453.92
877.533	11399.23
877.852	11454.37
878.17	11414.15
878.489	11486.92
878.807	11414.15
879.125	11383.87
879.444	11409.63
879.762	11341.61
880.08	11406.47
880.398	11284.43
880.716	11313.13
881.034	11222.06
881.352	11258.45
881.67	11231.33
881.988	11200.37
882.306	11223.65
882.624	11168.28
882.941	11088.73
883.259	11084.21
883.577	11079.02
883.894	11024.55
884.212	11046.93
884.529	10975.29
884.846	11041.5
885.164	10946.14
885.481	10892.35
885.798	10871.56
886.115	10787.5
886.432	10807.39
886.75	10844.67
887.067	10808.29
887.383	10736.88
887.7	10740.95
888.017	10748.18
888.334	10686.03
888.651	10652.81
888.967	10637.9
889.284	10602.64
889.6	10536.43
889.917	10460.73
890.233	10461.86
890.55	10481.29
890.866	10492.82
891.182	10383.67
891.498	10346.61
891.815	10321.75
892.131	10288.08
892.447	10270.68
892.763	10190
893.079	10194.07
893.395	10171.92
893.71	10206.95
894.026	10147.52
894.342	10091.92
894.657	10021.64
894.973	10006.05
895.289	10013.06
895.604	9959.5
895.92	9884.02
896.235	9820.07
896.55	9846.73
896.865	9792.72
897.181	9729.67
897.496	9730.8
897.811	9780.52
898.126	9671.6
898.441	9653.97
898.756	9594.99
899.071	9503.69
899.386	9616.91
899.7	9494.2
900.015	9395.45
900.33	9336.92
900.644	9363.58
900.959	9340.31
901.273	9343.47
901.588	9319.06
901.902	9248.1
902.216	9198.16
902.531	9170.59
902.845	9217.82
903.159	9119.29
903.473	9081.55
903.787	9065.96
904.101	8969.69
904.415	8950.03
904.729	8995.91
905.042	8917.49
905.356	8945.29
905.67	8870.94
905.984	8809.47
906.297	8773.09
906.611	8781.22
906.924	8802.69
907.237	8775.57
907.551	8686.76
907.864	8663.71
908.177	8591.17
908.491	8577.61
908.804	8552.53
909.117	8500.33
909.43	8456.03
909.743	8387.56
910.056	8414.45
910.368	8282.71
910.681	8350.95
910.994	8253.78
911.307	8266.89
911.619	8176.49
911.932	8240
912.244	8115.7
912.557	8135.14
912.869	8088.81
913.181	8056.27
913.494	8028.02
913.806	7971.3
914.118	7981.92
914.43	7890.4
914.742	7919.1
915.054	7856.05
915.366	7877.52
915.678	7864.19
915.99	7769.73
916.302	7719.56
916.613	7684.76
916.925	7649.5
917.236	7604.53
917.548	7583.97
917.859	7666.45
918.171	7470.98
918.482	7492.22
918.794	7480.69
919.105	7433.24
919.416	7374.48
919.727	7376.29
920.038	7344.2
920.349	7357.08
920.66	7268.04
920.971	7286.8
921.282	7239.34
921.593	7221.26
921.903	7150.76
922.214	7155.28
922.525	7159.8
922.835	7097.2
923.146	7026.02
923.456	7021.72
923.767	6986.92
924.077	6955.06
924.387	6931.78
924.697	6874.16
925.008	6819.92
925.318	6803.42
925.628	6807.94
925.938	6808.17
926.248	6722.75
926.558	6677.32
926.867	6670.54
927.177	6662.18
927.487	6702.86
927.796	6606.82
928.106	6596.2
928.416	6495.41
928.725	6543.09
929.034	6468.06
929.344	6547.16
929.653	6448.86
929.962	6352.81
930.271	6437.56
930.581	6378.12
930.89	6308.97
931.199	6346.03
931.508	6289.31
931.817	6335.64
932.125	6258.8
932.434	6207.05
932.743	6109.66
933.051	6148.75
933.36	6141.29
933.669	6107.17
933.977	6096.55
934.286	6078.24
934.594	6048.19
934.902	6012.94
935.21	5949.21
935.519	5955.08
935.827	5944.91
936.135	5930.9
936.443	5852.71
936.751	5841.64
937.059	5870.79
937.367	5836.44
937.674	5809.1
937.982	5794.86
938.29	5702.66
938.597	5707.41
938.905	5671.25
939.213	5648.65
939.52	5629.22
939.827	5652.49
940.135	5563
940.442	5571.59
940.749	5544.92
941.056	5544.02
941.363	5509.22
941.67	5431.26
941.977	5457.7
942.284	5411.37
942.591	5440.97
942.898	5370.01
943.205	5351.94
943.511	5290.47
943.818	5287.53
944.125	5275.78
944.431	5290.24
944.738	5236.46
945.044	5205.72
945.35	5216.57
945.657	5133.18
945.963	5136.8
946.269	5128.44
946.575	5132.73
946.881	5097.03
947.187	5073.52
947.493	5047.08
947.799	5013.64
948.105	4965.28
948.41	4954.66
948.716	4953.53
949.022	4937.03
949.327	4900.42
949.633	4897.48
949.938	4887.77
950.244	4883.93
950.549	4816.36
950.854	4779.75
951.16	4847.09
951.465	4734.32
951.77	4763.7
952.075	4718.96
952.38	4708.34
952.685	4646.42
952.99	4643.03
953.294	4630.82
953.599	4594.67
953.904	4583.59
954.209	4527.1
954.513	4568.68
954.818	4515.8
955.122	4527.55
955.426	4462.69
955.731	4508.57
956.035	4474.9
956.339	4466.76
956.643	4441.45
956.948	4404.16
957.252	4334.56
957.556	4403.49
957.86	4319.19
958.163	4379.31
958.467	4341.79
958.771	4281.23
959.075	4271.74
959.378	4234.68
959.682	4243.94
959.985	4223.38
960.289	4211.63
960.592	4217.5
960.896	4172.31
961.199	4136.6
961.502	4151.29
961.805	4132.31
962.108	4107.67
962.411	4048.24
962.714	4022.25
963.017	4059.54
963.32	4043.5
963.623	3980.22
963.926	4034
964.228	3968.7
964.531	3948.81
964.833	3993.55
965.136	3896.15
965.438	3895.48
965.741	3880.56
966.043	3890.51
966.345	3854.57
966.648	3842.6
966.95	3826.33
967.252	3808.02
967.554	3740
967.856	3757.63
968.158	3740.68
968.46	3770.51
968.761	3744.52
969.063	3737.29
969.365	3677.4
969.666	3676.05
969.968	3663.39
970.269	3639.66
970.571	3640.34
970.872	3604.18
971.174	3574.81
971.475	3633.11
971.776	3546.33
972.077	3548.37
972.378	3539.33
972.679	3533.23
972.98	3511.53
973.281	3499.1
973.582	3485.09
973.883	3456.17
974.183	3434.02
974.484	3453.91
974.785	3399.22
975.085	3369.61
975.386	3388.82
975.686	3426.56
975.986	3350.86
976.287	3345.21
976.587	3307.7
976.887	3342.95
977.187	3311.09
977.487	3259.11
977.787	3218.66
978.087	3278.09
978.387	3192.22
978.687	3228.6
978.987	3226.79
979.286	3150.64
979.586	3169.85
979.885	3201.26
980.185	3130.07
980.484	3134.14
980.784	3110.41
981.083	3098.66
981.382	3075.16
981.682	3075.84
981.981	3038.55
982.28	3063.18
982.579	3013.92
982.878	3012.11
983.177	3018.21
983.475	2984.54
983.774	3003.52
984.073	2966.46
984.372	2891.21
984.67	2942.73
984.969	2936.41
985.267	2927.82
985.566	2912.68
985.864	2862.28
986.162	2848.27
986.461	2844.43
986.759	2839.46
987.057	2799.01
987.355	2805.79
987.653	2777.54
987.951	2810.53
988.249	2796.97
988.547	2800.82
988.844	2767.14
989.142	2721.72
989.44	2729.63
989.737	2729.18
990.035	2677.88
990.332	2718.11
990.63	2659.58
990.927	2684.89
991.224	2629.75
991.521	2655.96
991.819	2597.88
992.116	2636.07
992.413	2600.6
992.71	2557.21
993.006	2566.7
993.303	2609.41
993.6	2557.21
993.897	2552.01
994.193	2530.09
994.49	2531.67
994.787	2523.99
995.083	2491.45
995.379	2470.43
995.676	2498.68
995.972	2488.28
996.268	2429.75
996.565	2440.6
996.861	2416.42
997.157	2386.82
997.453	2416.87
997.749	2412.35
998.044	2365.12
998.34	2373.48
998.636	2333.94
998.932	2317.44
999.227	2358.79
999.523	2312.47
999.818	2273.15
1000.114	2310.43
1000.409	2302.52
1000.704	2265.91
1001	2254.62
1001.295	2234.05
1001.59	2201.74
1001.885	2230.21
1002.18	2195.63
1002.475	2160.83
1002.77	2157.67
1003.065	2131.68
1003.359	2165.35
1003.654	2183.43
1003.949	2122.64
1004.243	2120.16
1004.538	2116.09
1004.832	2092.59
1005.127	2127.61
1005.421	2073.83
1005.715	2058.46
1006.009	2063.89
1006.304	2027.5
1006.598	2055.07
1006.892	2032.02
1007.186	1975.53
1007.48	1982.53
1007.773	1971.69
1008.067	1971.91
1008.361	1946.6
1008.655	1942.99
1008.948	1917.45
1009.242	1929.2
1009.535	1929.2
1009.829	1886.94
1010.122	1883.78
1010.415	1889.65
1010.708	1870.67
1011.001	1855.76
1011.295	1836.55
1011.588	1877.68
1011.881	1800.39
1012.173	1828.41
1012.466	1794.29
1012.759	1793.61
1013.052	1789.09
1013.344	1772.37
1013.637	1744.57
1013.93	1746.15
1014.222	1753.39
1014.514	1739.15
1014.807	1722.65
1015.099	1693.73
1015.391	1694.18
1015.683	1682.43
1015.976	1670.22
1016.268	1659.38
1016.56	1662.99
1016.851	1635.88
1017.143	1635.2
1017.435	1638.81
1017.727	1614.18
1018.018	1621.86
1018.31	1624.58
1018.602	1591.81
1018.893	1586.61
1019.185	1579.15
1019.476	1561.53
1019.767	1558.59
1020.058	1525.6
1020.35	1509.1
1020.641	1523.11
1020.932	1481.08
1021.223	1496.44
1021.514	1481.98
1021.804	1482.66
1022.095	1466.61
1022.386	1448.08
1022.677	1442.21
1022.967	1467.07
1023.258	1415.99
1023.548	1404.02
1023.839	1416.67
1024.129	1399.72
1024.419	1377.35
1024.709	1392.27
1025	1372.38
1025.29	1375.77
1025.58	1357.46
1025.87	1356.79
1026.16	1336.45
1026.449	1308.2
1026.739	1318.82
1027.029	1311.36
1027.319	1324.92
1027.608	1290.8
1027.898	1297.58
1028.187	1264.81
1028.477	1300.74
1028.766	1262.33
1029.055	1251.7
1029.344	1266.85
1029.634	1244.7
1029.923	1244.02
1030.212	1252.16
1030.501	1194.98
1030.79	1186.4
1031.078	1214.87
1031.367	1157.7
1031.656	1166.73
1031.945	1180.97
1032.233	1166.28
1032.522	1159.73
1032.81	1148.88
1033.099	1164.7
1033.387	1127.87
1033.675	1110.92
1033.963	1129.45
1034.251	1115.66
1034.54	1105.49
1034.828	1102.33
1035.116	1078.83
1035.403	1080.64
1035.691	1063.91
1035.979	1054.87
1036.267	1069.79
1036.554	1076.34
1036.842	1049
1037.129	1031.6
1037.417	1044.25
1037.704	1041.99
1037.992	1032.95
1038.279	1010.13
1038.566	1019.17
1038.853	1019.17
1039.14	1019.17
