Data from hue_150_FLMS001491_00065.txt Node
Date: Tue Feb 07 16:54:22 GMT 2017
User: dcchb
Spectrometer: FLMS00149
Trigger mode: 0
Integration Time (sec): 2.000000E-2
Scans to average: 10
Electric dark correction enabled: true
Nonlinearity correction enabled: false
Boxcar width: 0
XAxis mode: Wavelengths
Number of Pixels in Spectrum: 2048
>>>>>Begin Spectral Data<<<<<
341.393	-11.5
341.776	-11.5
342.16	-11.5
342.543	-42
342.927	-67.54
343.31	-78.61
343.693	-68.9
344.077	-71.61
344.46	-64.83
344.843	-37.03
345.226	-35
345.61	-25.73
345.993	-24.83
346.376	19.91
346.759	1.16
347.142	23.3
347.525	43.64
347.908	50.87
348.291	74.6
348.674	87.03
349.057	106.01
349.44	130.19
349.823	147.14
350.206	142.85
350.588	182.17
350.971	221.94
351.354	225.56
351.737	247.48
352.119	240.02
352.502	248.84
352.884	282.96
353.267	288.38
353.65	283.18
354.032	305.1
354.414	294.94
354.797	313.69
355.179	325.9
355.562	326.8
355.944	324.54
356.326	327.48
356.709	371.09
357.091	334.26
357.473	349.17
357.855	335.61
358.238	354.14
358.62	317.76
359.002	330.64
359.384	355.73
359.766	331.09
360.148	320.02
360.53	347.82
360.912	346.23
361.294	327.25
361.676	335.61
362.057	328.38
362.439	299
362.821	315.5
363.203	334.93
363.584	322.96
363.966	323.18
364.348	319.34
364.729	332.22
365.111	332.45
365.493	338.55
365.874	319.79
366.256	338.55
366.637	293.58
367.019	324.99
367.4	321.15
367.781	308.72
368.163	333.13
368.544	292.9
368.925	297.87
369.306	329.06
369.688	320.7
370.069	310.75
370.45	317.76
370.831	294.26
371.212	310.53
371.593	312.34
371.974	316.18
372.355	309.4
372.736	297.87
373.117	319.57
373.498	324.54
373.879	309.17
374.26	320.02
374.641	311.88
375.021	316.4
375.402	328.61
375.783	330.42
376.163	331.77
376.544	334.26
376.925	341.26
377.305	319.34
377.686	326.57
378.066	337.19
378.447	303.3
378.827	348.72
379.208	339.45
379.588	352.11
379.968	354.14
380.349	329.51
380.729	337.65
381.109	333.8
381.489	333.58
381.87	338.55
382.25	346.91
382.63	336.06
383.01	355.05
383.39	351.43
383.77	355.05
384.15	342.39
384.53	381.71
384.91	357.08
385.29	349.17
385.67	362.5
386.049	363.63
386.429	348.27
386.809	360.24
387.189	358.21
387.568	375.84
387.948	340.13
388.328	366.8
388.707	372.22
389.087	376.29
389.466	369.06
389.846	388.94
390.225	374.03
390.605	380.81
390.984	381.04
391.363	378.78
391.743	383.52
392.122	379.91
392.501	346.91
392.881	386.23
393.26	398.21
393.639	378.55
394.018	382.39
394.397	399.11
394.776	417.42
395.155	408.83
395.534	404.31
395.913	401.6
396.292	405.89
396.671	421.94
397.05	396.18
397.429	396.63
397.808	402.5
398.186	366.35
398.565	403.41
398.944	404.76
399.323	419.9
399.701	420.36
400.08	425.55
400.458	416.74
400.837	423.52
401.215	434.59
401.594	420.81
401.972	410.19
402.351	435.27
402.729	417.87
403.107	422.39
403.486	439.79
403.864	430.75
404.242	439.56
404.62	420.36
404.999	462.61
405.377	439.11
405.755	437.08
406.133	439.56
406.511	454.48
406.889	433.69
407.267	473.91
407.645	457.87
408.023	457.42
408.401	462.16
408.779	451.77
409.156	486.12
409.534	470.75
409.912	467.13
410.29	496.29
410.667	466.91
411.045	498.55
411.422	497.87
411.8	492.44
412.178	488.6
412.555	492.44
412.933	501.03
413.31	508.49
413.687	507.36
414.065	512.78
414.442	521.37
414.819	531.77
415.197	510.3
415.574	543.06
415.951	546.45
416.328	542.39
416.705	524.53
417.082	547.81
417.46	547.81
417.837	553.91
418.214	565.66
418.591	583.97
418.967	549.17
419.344	566.34
419.721	547.81
420.098	569.5
420.475	594.59
420.852	602.72
421.228	576.96
421.605	586.45
421.982	576.06
422.358	585.1
422.735	593.91
423.111	591.88
423.488	593.46
423.864	623.06
424.241	616.06
424.617	621.71
424.994	617.19
425.37	627.58
425.746	642.5
426.123	634.81
426.499	629.62
426.875	631.65
427.251	660.8
427.627	656.73
428.003	664.64
428.379	672.78
428.756	661.71
429.132	676.62
429.507	682.95
429.883	686.34
430.259	718.88
430.635	682.72
431.011	707.81
431.387	738.31
431.763	729.5
432.138	731.31
432.514	743.51
432.89	734.02
433.265	770.4
433.641	756.62
434.016	759.1
434.392	756.39
434.767	778.76
435.143	781.7
435.518	799.1
435.894	808.82
436.269	833.23
436.644	828.93
437.02	824.19
437.395	855.15
437.77	855.15
438.145	833.9
438.52	844.75
438.895	854.7
439.271	867.8
439.646	886.56
440.021	884.52
440.395	891.08
440.77	885.88
441.145	878.88
441.52	936.05
441.895	923.62
442.27	928.82
442.645	922.26
443.019	932.21
443.394	954.35
443.769	949.61
444.143	944.18
444.518	955.71
444.892	967.91
445.267	974.24
445.641	981.25
446.016	986.44
446.39	998.42
446.764	975.14
447.139	1020.34
447.513	1014.46
447.887	1025.99
448.262	1026.67
448.636	1055.37
449.01	1035.93
449.384	1040.45
449.758	1075.25
450.132	1068.93
450.506	1036.39
450.88	1078.42
451.254	1077.29
451.628	1099.21
452.002	1097.85
452.376	1127.23
452.75	1120.68
453.123	1125.42
453.497	1147.57
453.871	1140.79
454.244	1155.93
454.618	1202.71
454.992	1190.05
455.365	1223.72
455.739	1238.41
456.112	1227.57
456.486	1258.98
456.859	1264.18
457.232	1301.46
457.606	1291.29
457.979	1279.32
458.352	1347.11
458.725	1340.33
459.099	1343.04
459.472	1361.8
459.845	1387.79
460.218	1413.55
460.591	1402.93
460.964	1447.22
461.337	1444.74
461.71	1472.31
462.083	1509.59
462.456	1513.21
462.829	1519.76
463.201	1572.19
463.574	1551.85
463.947	1615.13
464.32	1616.48
464.692	1616.48
465.065	1648.12
465.438	1687.22
465.81	1688.57
466.183	1716.59
466.555	1748.91
466.928	1788.91
467.3	1774.67
467.672	1806.53
468.045	1866.42
468.417	1891.73
468.789	1909.36
469.161	1949.81
469.534	1952.29
469.906	2034.78
470.278	2011.05
470.65	2065.06
471.022	2124.49
471.394	2146.41
471.766	2179.41
472.138	2237.48
472.51	2307.54
472.882	2313.41
473.253	2358.61
473.625	2421.66
473.997	2475.44
474.369	2506.18
474.74	2531.04
475.112	2606.29
475.484	2660.3
475.855	2716.34
476.227	2776.9
476.598	2884.7
476.97	2911.14
477.341	2959.5
477.713	3031.59
478.084	3107.74
478.455	3236.55
478.827	3270
479.198	3397.45
479.569	3452.14
479.94	3517.9
480.311	3562.65
480.682	3708.86
481.053	3819.59
481.424	3918.8
481.795	3975.52
482.166	4097.1
482.537	4224.55
482.908	4346.35
483.279	4444.66
483.65	4520.36
484.021	4658.66
484.391	4784.99
484.762	4921.48
485.133	5004.87
485.503	5094.81
485.874	5188.82
486.244	5347.91
486.615	5479.88
486.985	5605.3
487.356	5803.49
487.726	5817.95
488.097	6031.06
488.467	6086.65
488.837	6247.32
489.207	6387.2
489.578	6573.64
489.948	6669.91
490.318	6791.94
490.688	6900.19
491.058	7035.32
491.428	7229.44
491.798	7382.88
492.168	7483.9
492.538	7652.48
492.908	7817.22
493.278	7981.97
493.648	8014.73
494.017	8229.87
494.387	8370.66
494.757	8502.63
495.126	8602.74
495.496	8686.58
495.866	8860.13
496.235	8922.05
496.605	9117.98
496.974	9238.43
497.344	9378.99
497.713	9480.91
498.082	9556.61
498.452	9702.37
498.821	9748.02
499.19	9839.77
499.559	10042.93
499.928	10094.45
500.298	10185.98
500.667	10409.47
501.036	10383.26
501.405	10509.36
501.774	10546.64
502.143	10703.7
502.512	10785.96
502.88	10886.07
503.249	10954.54
503.618	11069.79
503.987	11164.71
504.356	11207.87
504.724	11300.97
505.093	11376.68
505.462	11461.65
505.83	11504.58
506.199	11625.26
506.567	11794.52
506.936	11747.29
507.304	11962.2
507.672	12048.98
508.041	12018.7
508.409	12146.83
508.777	12270.21
509.145	12289.2
509.514	12354.05
509.882	12425.46
510.25	12431.11
510.618	12497.1
510.986	12585.23
511.354	12686.93
511.722	12858.67
512.09	12871.55
512.458	12799.24
512.826	12881.05
513.193	12963.98
513.561	13032
513.929	13085.79
514.297	13159.68
514.664	13270.19
515.032	13237.42
515.4	13309.06
515.767	13455.72
516.135	13427.02
516.502	13311.32
516.869	13538.2
517.237	13639.44
517.604	13458.66
517.972	13700.46
518.339	13712.44
518.706	13704.53
519.073	13778.2
519.44	13785.65
519.808	13882.38
520.175	13817.07
520.542	14003.73
520.909	14043.5
521.276	13948.14
521.643	14105.19
522.009	14102.03
522.376	14217.28
522.743	14169.37
523.11	14256.83
523.477	14444.39
523.843	14458.41
524.21	14490.95
524.577	14522.36
524.943	14482.81
525.31	14597.84
525.676	14638.06
526.043	14675.12
526.409	14754.89
526.776	14860.88
527.142	14699.98
527.508	14844.16
527.874	14947.43
528.241	14930.94
528.607	14918.05
528.973	14975.45
529.339	14968.45
529.705	15026.53
530.071	15113.76
530.437	15025.17
530.803	15029.46
531.169	15017.94
531.535	15006.19
531.901	15009.8
532.267	15043.02
532.632	15122.34
532.998	15004.61
533.364	15161.66
533.73	15003.7
534.095	15171.15
534.461	15097.94
534.826	15015
535.192	15135.68
535.557	15106.98
535.923	15025.62
536.288	15044.83
536.653	15063.14
537.019	15033.08
537.384	15018.62
537.749	15217.93
538.114	15036.24
538.479	14998.96
538.845	15012.06
539.21	14920.99
539.575	14934.55
539.94	14890.94
540.305	14957.83
540.67	14828.34
541.034	14783.82
541.399	14800.54
541.764	14717.38
542.129	14802.8
542.494	14785.4
542.858	14723.03
543.223	14563.71
543.587	14775.46
543.952	14640.1
544.316	14583.83
544.681	14578.85
545.045	14499.99
545.41	14539.08
545.774	14565.97
546.138	14459.99
546.503	14432.64
546.867	14382.93
547.231	14470.83
547.595	14446.65
547.959	14418.41
548.324	14361.23
548.688	14294.12
549.052	14280.56
549.416	14363.72
549.779	14357.62
550.143	14289.14
550.507	14335.02
550.871	14238.75
551.235	14170.28
551.599	14215.93
551.962	14166.44
552.326	14174.57
552.689	14205.53
553.053	14016.61
553.417	14138.64
553.78	14174.57
554.143	14104.06
554.507	14085.99
554.87	14094.8
555.234	14180.22
555.597	14020.68
555.96	14055.25
556.323	14030.39
556.686	14093.22
557.05	14065.42
557.413	14048.02
557.776	14037.63
558.139	14036.95
558.502	14120.79
558.865	14013.9
559.228	14066.33
559.59	14085.99
559.953	13974.58
560.316	14135.7
560.679	14113.78
561.041	14148.81
561.404	14095.48
561.767	14160.11
562.129	14132.54
562.492	14201.24
562.854	14081.92
563.217	14133.89
563.579	14138.87
563.941	14142.03
564.304	14216.15
564.666	14224.74
565.028	14236.94
565.39	14253.44
565.753	14328.92
566.115	14240.33
566.477	14248.92
566.839	14349.93
567.201	14350.61
567.563	14318.52
567.925	14492.53
568.287	14311.52
568.648	14496.37
569.01	14452.08
569.372	14533.66
569.734	14488.69
570.095	14533.66
570.457	14605.07
570.819	14573.43
571.18	14492.08
571.542	14553.54
571.903	14582.47
572.265	14631.28
572.626	14591.51
572.987	14639.42
573.349	14658.17
573.71	14687.1
574.071	14772.07
574.432	14741.56
574.794	14761.22
575.155	14735.23
575.516	14728.91
575.877	14804.16
576.238	14794.67
576.599	14891.39
576.96	14796.93
577.32	14840.77
577.681	14870.82
578.042	14838.06
578.403	14868.11
578.763	14807.32
579.124	14892.97
579.485	14895.68
579.845	14978.39
580.206	14855
580.566	14888.9
580.927	14893.87
581.287	14878.28
581.648	14820.43
582.008	14902.69
582.368	14871.5
582.728	14852.29
583.089	14777.04
583.449	14801.67
583.809	14798.06
584.169	14781.56
584.529	14714.22
584.889	14862.69
585.249	14771.39
585.609	14668.12
585.969	14772.75
586.329	14773.88
586.688	14787.44
587.048	14823.14
587.408	14763.26
587.768	14780.66
588.127	14736.14
588.487	14658.85
588.846	14832.41
589.206	14701.11
589.565	14742.69
589.925	14754.89
590.284	14743.37
590.643	14720.55
591.003	14808
591.362	14727.32
591.721	14728.45
592.08	14761.9
592.44	14707.44
592.799	14699.98
593.158	14659.08
593.517	14708.57
593.876	14648.91
594.235	14656.37
594.593	14708.57
594.952	14610.27
595.311	14633.32
595.67	14709.02
596.029	14750.83
596.387	14714.44
596.746	14694.33
597.104	14710.15
597.463	14618.4
597.822	14623.37
598.18	14586.76
598.538	14629.93
598.897	14710.6
599.255	14576.82
599.613	14757.15
599.972	14644.84
600.33	14629.47
600.688	14614.11
601.046	14744.05
601.404	14664.05
601.762	14654.78
602.12	14648.91
602.478	14770.94
602.836	14668.57
603.194	14649.81
603.552	14581.11
603.91	14725.74
604.268	14672.18
604.625	14626.54
604.983	14724.39
605.341	14653.65
605.698	14716.7
606.056	14792.63
606.413	14768
606.771	14744.27
607.128	14762.8
607.485	14639.64
607.843	14720.09
608.2	14795.57
608.557	14805.51
608.914	14779.75
609.272	14736.82
609.629	14807.1
609.986	14779.75
610.343	14719.19
610.7	14931.61
611.057	14886.64
611.414	14848.68
611.771	14797.38
612.127	14856.59
612.484	14872.41
612.841	14888
613.198	14786.31
613.554	14841.22
613.911	14941.33
614.267	14925.06
614.624	14834.67
614.98	15020.42
615.337	14977.04
615.693	14963.7
616.05	14881.9
616.406	15014.1
616.762	14926.42
617.118	15019.07
617.475	14978.17
617.831	15112.17
618.187	15055.23
618.543	15126.86
618.899	15124.15
619.255	15079.41
619.611	15111.72
619.967	15170.7
620.323	15108.33
620.678	15054.55
621.034	15161.21
621.39	15074.21
621.746	15143.81
622.101	15188.1
622.457	15025.62
622.812	15071.5
623.168	15113.98
623.523	15036.47
623.879	15166.18
624.234	15100.42
624.589	15111.04
624.945	15069.91
625.3	15123.25
625.655	15151.04
626.01	15076.02
626.365	15139.74
626.72	15145.84
627.075	15098.84
627.43	15031.5
627.785	15049.35
628.14	15141.1
628.495	15119.63
628.85	15112.17
629.205	15073.98
629.559	15124.15
629.914	15088.45
630.269	15087.09
630.623	15012.74
630.978	15008.22
631.332	15106.3
631.687	15086.19
632.041	15041.21
632.396	15088.22
632.75	14985.17
633.104	15014.77
633.459	14941.1
633.813	14827.66
634.167	14960.99
634.521	14927.55
634.875	14949.69
635.229	14838.96
635.583	14744.05
635.937	14755.8
636.291	14796.25
636.645	14728.45
636.999	14835.8
637.352	14733.88
637.706	14723.71
638.06	14791.73
638.413	14730.04
638.767	14673.54
639.121	14652.3
639.474	14601.68
639.828	14531.4
640.181	14668.34
640.534	14540.66
640.888	14523.49
641.241	14423.6
641.594	14556.93
641.947	14559.87
642.301	14496.14
642.654	14457.28
643.007	14502.47
643.36	14439.65
643.713	14512.87
644.066	14443.04
644.419	14377.5
644.771	14250.28
645.124	14182.93
645.477	14153.78
645.83	14120.33
646.182	14096.83
646.535	13970.06
646.888	14020.9
647.24	13939.32
647.593	13982.03
647.945	13888.48
648.298	13818.2
648.65	13841.47
649.002	13806.22
649.355	13904.97
649.707	13920.11
650.059	14023.61
650.411	14102.26
650.763	14168.92
651.115	14389.03
651.467	14304.51
651.819	14203.04
652.171	14170.96
652.523	14210.5
652.875	14161.46
653.227	14151.29
653.578	14275.81
653.93	14216.15
654.282	14132.99
654.633	14104.74
654.985	14190.84
655.337	14255.02
655.688	14212.76
656.039	14304.96
656.391	14120.56
656.742	14135.48
657.094	14138.64
657.445	14212.31
657.796	14169.37
658.147	14145.65
658.498	14143.39
658.849	14161.92
659.2	14184.06
659.551	14125.76
659.902	14290.73
660.253	14195.59
660.604	14161.69
660.955	14128.02
661.306	14218.41
661.656	14166.66
662.007	14230.61
662.358	14227.45
662.708	14324.4
663.059	14195.59
663.409	14169.37
663.76	14234.23
664.11	14222.48
664.461	14248.47
664.811	14318.07
665.161	14264.29
665.511	14234.46
665.862	14220.22
666.212	14284.85
666.562	14347.22
666.912	14279.2
667.262	14279.2
667.612	14212.31
667.962	14299.31
668.312	14193.1
668.662	14326.66
669.011	14187.23
669.361	14207.34
669.711	14259.31
670.06	14197.4
670.41	14202.37
670.76	14115.36
671.109	14271.74
671.459	14110.84
671.808	14167.34
672.157	14168.02
672.507	13964.41
672.856	14029.04
673.205	14075.82
673.554	14137.51
673.904	14053.9
674.253	14183.61
674.602	14095.02
674.951	13899.78
675.3	13831.08
675.649	14053.9
675.998	14093.22
676.346	14025.65
676.695	14030.17
677.044	14000.11
677.393	14046.89
677.741	13971.64
678.09	13971.41
678.438	13922.83
678.787	13867.69
679.135	13942.71
679.484	13830.4
679.832	13860.91
680.181	13739.55
680.529	13768.93
680.877	13751.76
681.225	13761.7
681.573	13851.64
681.922	13714.92
682.27	13646.45
682.618	13678.99
682.966	13627.47
683.314	13603.51
683.661	13515.38
684.009	13479.45
684.357	13472.67
684.705	13526.68
685.053	13536.62
685.4	13519.22
685.748	13410.75
686.095	13384.99
686.443	13389.28
686.79	13335.72
687.138	13419.79
687.485	13360.81
687.832	13250.75
688.18	13291.66
688.527	13172.56
688.874	13166.91
689.221	13177.31
689.568	13143.19
689.915	13060.25
690.262	13100.02
690.609	13048.72
690.956	12995.62
691.303	12969.4
691.65	12839.92
691.997	12854.38
692.344	12745.68
692.69	12729.64
693.037	12808.51
693.383	12562.41
693.73	12587.27
694.077	12591.79
694.423	12551.79
694.769	12492.13
695.116	12510.66
695.462	12404
695.808	12443.54
696.155	12430.44
696.501	12292.13
696.847	12341.17
697.193	12199.71
697.539	12218.24
697.885	12194.74
698.231	12151.35
698.577	12029.77
698.923	12046.04
699.269	12055.08
699.614	11976.66
699.96	12017.11
700.306	11894.18
700.651	11813.05
700.997	11815.31
701.342	11738.7
701.688	11655.32
702.033	11614.19
702.379	11701.42
702.724	11624.58
703.069	11696.22
703.415	11509.33
703.76	11529.67
704.105	11482.21
704.45	11441.99
704.795	11424.81
705.14	11332.61
705.485	11309.79
705.83	11284.93
706.175	11227.08
706.52	11245.16
706.865	11230.69
707.209	11135.55
707.554	11117.7
707.899	11119.51
708.243	11051.72
708.588	11075.9
708.932	10947.31
709.277	11015.56
709.621	11002
709.966	10820.99
710.31	10859.63
710.654	10770.37
710.998	10827.09
711.342	10872.28
711.687	10805.62
712.031	10726.75
712.375	10629.58
712.719	10701.89
713.063	10672.74
713.407	10730.14
713.75	10646.08
714.094	10624.16
714.438	10545.06
714.782	10550.71
715.125	10493.99
715.469	10560.43
715.812	10481.11
716.156	10459.87
716.499	10457.83
716.843	10438.85
717.186	10387.55
717.53	10509.13
717.873	10437.95
718.216	10407.89
718.559	10304.39
718.902	10325.41
719.246	10382.35
719.589	10257.16
719.932	10310.04
720.275	10250.61
720.617	10289.02
720.96	10284.5
721.303	10254.67
721.646	10248.8
721.989	10180.55
722.331	10244.96
722.674	10203.38
723.016	10186.2
723.359	10179.42
723.701	10180.1
724.044	10151.4
724.386	10090.61
724.729	10096.26
725.071	10038.63
725.413	10108.91
725.755	10047.9
726.097	10017.62
726.439	9985.98
726.782	10002.93
727.124	10061.68
727.465	10044.28
727.807	9985.3
728.149	9964.51
728.491	9912.54
728.833	10019.88
729.175	9972.42
729.516	9999.99
729.858	9977.62
730.199	10040.89
730.541	9971.74
730.882	9930.39
731.224	9917.06
731.565	9832.31
731.906	9948.69
732.248	9907.11
732.589	9938.3
732.93	9867.34
733.271	9900.11
733.612	9933.78
733.953	9947.56
734.294	9799.09
734.635	9845.65
734.976	9863.5
735.317	9858.53
735.658	9830.05
735.999	9858.75
736.339	9851.97
736.68	9868.7
737.021	9815.36
737.361	9784.18
737.702	9875.47
738.042	9885.87
738.383	9805.42
738.723	9799.77
739.063	9854.23
739.404	9862.82
739.744	9832.31
740.084	9853.78
740.424	9907.79
740.764	9919.77
741.104	9959.31
741.444	9894.01
741.784	9875.02
742.124	9947.11
742.464	9947.11
742.804	9936.49
743.143	10032.76
743.483	10078.86
743.823	9956.38
744.162	9992.99
744.502	10090.38
744.841	10080.89
745.181	10097.16
745.52	10087.22
745.86	10201.12
746.199	10200.44
746.538	10276.14
746.877	10302.81
747.216	10341.68
747.556	10359.76
747.895	10447.66
748.234	10388
748.573	10473.43
748.911	10522.69
749.25	10557.72
749.589	10619.64
749.928	10667.77
750.267	10786.41
750.605	10875.22
750.944	10887.88
751.283	10880.42
751.621	10998.38
751.96	11053.3
752.298	11176.68
752.636	11219.62
752.975	11243.35
753.313	11407.41
753.651	11495.32
753.989	11563.34
754.327	11686.73
754.666	11695.54
755.004	11903.67
755.342	12032.25
755.679	12186.37
756.017	12232.93
756.355	12462.3
756.693	12479.25
757.031	12702.07
757.368	12677.44
757.706	12879.46
758.044	13036.97
758.381	13182.28
758.719	13242.84
759.056	13514.7
759.394	13607.13
759.731	13621.37
760.068	13850.51
760.405	13897.06
760.743	14171.41
761.08	14296.83
761.417	14350.61
761.754	14513.77
762.091	14698.62
762.428	14870.82
762.765	15049.12
763.102	15163.7
763.438	15287.31
763.775	15349.68
764.112	15600.75
764.449	15805.49
764.785	15870.12
765.122	16012.71
765.458	16052.71
765.795	16271.46
766.131	16374.06
766.467	16514.17
766.804	16621.74
767.14	16784.67
767.476	16995.51
767.812	16958.23
768.148	17245
768.485	17311.21
768.821	17383.98
769.157	17469.85
769.492	17568.15
769.828	17771.99
770.164	17805.66
770.5	17797.3
770.836	18004.98
771.171	17988.48
771.507	18153
771.842	18098.99
772.178	18260.79
772.513	18340.34
772.849	18459.43
773.184	18468.92
773.519	18611.52
773.855	18629.82
774.19	18696.71
774.525	18714.11
774.86	18878.85
775.195	18884.5
775.53	18906.2
775.865	18844.73
776.2	18921.79
776.535	18966.31
776.87	18944.61
777.205	19028.23
777.539	18977.83
777.874	19121.11
778.209	19100.99
778.543	19049.92
778.878	19075.91
779.212	19128.79
779.547	19080.2
779.881	19188.22
780.215	19118.62
780.55	19266.87
780.884	19138.73
781.218	19197.49
781.552	19282.46
781.886	19200.65
782.22	19183.48
782.554	19145.74
782.888	19074.55
783.222	19043.6
783.556	19077.49
783.889	19118.85
784.223	18962.02
784.557	19012.41
784.89	19098.74
785.224	18956.37
785.557	18947.1
785.891	18888.12
786.224	18946.65
786.558	18938.29
786.891	18758.63
787.224	18781.91
787.557	18775.58
787.891	18805.64
788.224	18911.62
788.557	18719.08
788.89	18874.56
789.223	18750.95
789.556	18625.75
789.888	18663.04
790.221	18565.19
790.554	18538.75
790.887	18547.11
791.219	18408.81
791.552	18488.13
791.884	18362.71
792.217	18334.46
792.549	18320.9
792.882	18240
793.214	18274.12
793.546	18315.48
793.879	18131.53
794.211	18044.3
794.543	18168.14
794.875	18083.39
795.207	18196.84
795.539	17988.03
795.871	18003.4
796.203	17942.61
796.535	17887.92
796.867	17808.37
797.198	17786.45
797.53	17860.58
797.862	17742.39
798.193	17821.48
798.525	17622.39
798.856	17644.99
799.188	17520.25
799.519	17516.86
799.85	17463.3
800.182	17405.67
800.513	17420.59
800.844	17258.56
801.175	17398.21
801.506	17338.78
801.837	17221.5
802.168	17177.43
802.499	17144.89
802.83	17062.18
803.161	17091.78
803.491	16984.44
803.822	17006.13
804.153	16916.65
804.483	16786.93
804.814	16942.86
805.145	16848.62
805.475	16897.21
805.805	16772.69
806.136	16762.07
806.466	16715.07
806.796	16616.54
807.126	16536.77
807.457	16583.1
807.787	16548.97
808.117	16428.3
808.447	16408.64
808.777	16439.14
809.107	16314.4
809.436	16353.95
809.766	16334.29
810.096	16325.47
810.426	16197.57
810.755	16177.46
811.085	16151.24
811.414	16217.45
811.744	16040.96
812.073	16083.45
812.403	16107.63
812.732	15961.87
813.061	16018.59
813.39	15843.23
813.719	15863.34
814.049	15931.81
814.378	15830.57
814.707	15783.79
815.036	15823.34
815.365	15724.13
815.693	15536.12
816.022	15735.89
816.351	15576.79
816.68	15580.86
817.008	15561.88
817.337	15426.97
817.665	15408.66
817.994	15396.91
818.322	15425.61
818.651	15388.78
818.979	15324.15
819.307	15330.02
819.636	15343.13
819.964	15240.98
820.292	15294.99
820.62	15256.35
820.948	15300.19
821.276	15317.37
821.604	15198.05
821.932	15259.06
822.259	15216.13
822.587	15217.71
822.915	15182.23
823.243	15172.96
823.57	15137.94
823.898	15246.86
824.225	15202.11
824.553	15151.72
824.88	15200.76
825.207	15183.13
825.535	15202.11
825.862	15244.6
826.189	15155.11
826.516	15203.24
826.843	15346.29
827.17	15198.5
827.497	15232.62
827.824	15233.3
828.151	15322.79
828.478	15219.06
828.805	15363.47
829.131	15210.7
829.458	15175.9
829.785	15204.15
830.111	15189.46
830.438	15287.31
830.764	15243.92
831.09	15300.19
831.417	15163.02
831.743	15178.84
832.069	15195.79
832.395	15155.56
832.722	15163.02
833.048	15107.65
833.374	15110.37
833.7	15012.51
834.026	14980.2
834.351	15158.73
834.677	15192.62
835.003	15095.45
835.329	15020.42
835.654	15091.83
835.98	14910.6
836.306	15001.89
836.631	15035.11
836.956	15073.53
837.282	14989.24
837.607	14910.37
837.932	14844.16
838.258	14967.09
838.583	14945.4
838.908	14832.41
839.233	14887.55
839.558	14790.15
839.883	14719.87
840.208	14605.07
840.533	14748.34
840.858	14653.43
841.182	14746.08
841.507	14610.04
841.832	14565.97
842.156	14616.37
842.481	14630.83
842.805	14563.94
843.13	14489.82
843.454	14507.9
843.778	14392.87
844.103	14450.27
844.427	14298.64
844.751	14418.86
845.075	14320.1
845.399	14290.05
845.723	14109.94
846.047	14196.04
846.371	14070.84
846.695	14037.17
847.019	13972.77
847.343	13910.4
847.666	13794.92
847.99	13764.41
848.313	13760.34
848.637	13709.72
848.96	13655.26
849.284	13593.57
849.607	13481.93
849.931	13439.67
850.254	13389.28
850.577	13319.68
850.9	13224.54
851.223	13248.04
851.546	13189.06
851.869	13106.58
852.192	13118.55
852.515	13024.09
852.838	12966.02
853.161	13008.95
853.483	12938.22
853.806	12845.57
854.129	12891.67
854.451	12715.4
854.774	12741.16
855.096	12655.29
855.419	12725.34
855.741	12594.5
856.063	12539.36
856.385	12539.13
856.708	12493.03
857.03	12475.41
857.352	12441.51
857.674	12354.28
857.996	12406.26
858.318	12295.3
858.64	12314.96
858.961	12256.2
859.283	12207.62
859.605	12140.05
859.926	12210.55
860.248	12132.14
860.57	12104.79
860.891	12165.13
861.212	12002.88
861.534	12028.41
861.855	12017.11
862.176	11923.56
862.498	11977.34
862.819	11942.31
863.14	11822.09
863.461	11869.77
863.782	11807.18
864.103	11921.97
864.424	11769.89
864.745	11759.49
865.065	11704.35
865.386	11681.98
865.707	11713.84
866.027	11661.87
866.348	11602.66
866.668	11593.17
866.989	11634.75
867.309	11528.54
867.63	11575.09
867.95	11663
868.27	11544.36
868.59	11491.93
868.91	11503.45
869.23	11493.51
869.55	11360.41
869.87	11466.85
870.19	11453.74
870.51	11455.32
870.83	11439.95
871.15	11401.08
871.469	11329.67
871.789	11421.2
872.109	11371.03
872.428	11249.45
872.748	11293.97
873.067	11210.81
873.386	11348.88
873.706	11255.1
874.025	11222.11
874.344	11185.5
874.663	11190.47
874.982	11210.13
875.301	11170.58
875.62	11173.29
875.939	11090.13
876.258	11083.58
876.577	11061.21
876.896	11054.88
877.214	10985.28
877.533	10977.59
877.852	10982.79
878.17	10930.36
878.489	10910.25
878.807	10988.21
879.125	10890.59
879.444	10950.7
879.762	10881.55
880.08	10876.58
880.398	10808.56
880.716	10891.27
881.034	10800.87
881.352	10785.73
881.67	10778.73
881.988	10764.49
882.306	10685.62
882.624	10735.79
882.941	10611.27
883.259	10612.18
883.577	10620.09
883.894	10619.18
884.212	10545.29
884.529	10515.23
884.846	10491.5
885.164	10544.38
885.481	10385.97
885.798	10489.92
886.115	10421.68
886.432	10378.06
886.75	10410.83
887.067	10340.77
887.383	10266.42
887.7	10324.28
888.017	10316.14
888.334	10241.57
888.651	10224.62
888.967	10169.25
889.284	10184.17
889.6	10201.57
889.917	10091.74
890.233	10063.04
890.55	10013.1
890.866	10104.17
891.182	10022.59
891.498	9909.6
891.815	9945.53
892.131	9868.02
892.447	9859.43
892.763	9754.8
893.079	9792.77
893.395	9808.58
893.71	9719.32
894.026	9767.68
894.342	9651.07
894.657	9699.21
894.973	9613.79
895.289	9612.66
895.604	9644.97
895.92	9505.09
896.235	9542.6
896.55	9474.81
896.865	9400.91
897.181	9430.97
897.496	9426.45
897.811	9386.9
898.126	9371.53
898.441	9322.95
898.756	9198.66
899.071	9187.81
899.386	9161.14
899.7	9113.69
900.015	9081.37
900.33	9014.48
900.644	9010.86
900.959	9049.73
901.273	8990.98
901.588	8974.71
901.902	8921.38
902.216	8860.59
902.531	8840.7
902.845	8812
903.159	8784.2
903.473	8706.24
903.787	8642.96
904.101	8573.14
904.415	8663.08
904.729	8534.72
905.042	8609.07
905.356	8597.54
905.67	8478
905.984	8515.06
906.297	8449.75
906.611	8448.39
906.924	8433.7
907.237	8421.05
907.551	8360.94
907.864	8307.38
908.177	8251.79
908.491	8268.06
908.804	8192.58
909.117	8153.03
909.43	8026.48
909.743	8064.67
910.056	8083.21
910.368	8016.99
910.681	7998.69
910.994	8000.95
911.307	7923.44
911.619	7861.06
911.932	7843.89
912.244	7798.02
912.557	7749.88
912.869	7756.43
913.181	7777.22
913.494	7706.49
913.806	7682.31
914.118	7628.75
914.43	7562.32
914.742	7585.37
915.054	7543.78
915.366	7486.39
915.678	7454.07
915.99	7443.9
916.302	7374.3
916.613	7310.34
916.925	7352.15
917.236	7313.06
917.548	7239.84
917.859	7307.63
918.171	7228.99
918.482	7194.42
918.794	7168.65
919.105	7184.47
919.416	7122.33
919.727	7050.69
920.038	7075.77
920.349	7061.76
920.66	7001.2
920.971	7000.97
921.282	6937.02
921.593	6930.47
921.903	6869.68
922.214	6864.71
922.525	6815.67
922.835	6808.21
923.146	6758.49
923.456	6787.42
923.767	6673.53
924.077	6671.49
924.387	6654.99
924.697	6607.76
925.008	6628.78
925.318	6580.19
925.628	6543.13
925.938	6574.32
926.248	6492.51
926.558	6457.49
926.867	6479.41
927.177	6406.87
927.487	6424.72
927.796	6335.68
928.106	6377.49
928.416	6352.4
928.725	6269.69
929.034	6293.87
929.344	6292.07
929.653	6290.71
929.962	6145.18
930.271	6159.87
930.581	6138.85
930.89	6081.22
931.199	6105.4
931.508	6055.91
931.817	6072.64
932.125	6056.37
932.434	6034.45
932.743	5945.18
933.051	5939.08
933.36	5940.21
933.669	5894.79
933.977	5839.87
934.286	5851.17
934.594	5836.48
934.902	5793.1
935.21	5758.75
935.519	5721.69
935.827	5721.69
936.135	5648.24
936.443	5612.54
936.751	5682.36
937.059	5605.76
937.367	5590.16
937.674	5603.95
937.982	5554.23
938.29	5533.89
938.597	5558.53
938.905	5464.29
939.213	5440.79
939.52	5417.51
939.827	5469.71
940.135	5408.7
940.442	5313.79
940.749	5318.76
941.056	5368.7
941.363	5301.36
941.67	5283.96
941.977	5241.92
942.284	5196.95
942.591	5160.8
942.898	5168.25
943.205	5170.51
943.511	5139.55
943.818	5143.62
944.125	5071.08
944.431	5059.78
944.738	5080.8
945.044	5020.01
945.35	5015.94
945.657	5017.98
945.963	4973.23
946.269	4928.94
946.575	4956.06
946.881	4908.15
947.187	4916.06
947.493	4894.59
947.799	4846.45
948.105	4832.44
948.41	4782.95
948.716	4791.77
949.022	4736.4
949.327	4780.92
949.633	4693.92
949.938	4724.42
950.244	4693.01
950.549	4665.22
950.854	4622.05
951.16	4575.73
951.465	4571.43
951.77	4580.47
952.075	4584.54
952.38	4529.85
952.685	4506.58
952.99	4504.32
953.294	4458.89
953.599	4450.31
953.904	4432
954.209	4412.79
954.513	4432
954.818	4344.55
955.122	4332.34
955.426	4348.16
955.731	4317.2
956.035	4290.08
956.339	4252.57
956.643	4243.53
956.948	4275.17
957.252	4229.52
957.556	4233.14
957.86	4222.74
958.163	4190.65
958.467	4148.85
958.771	4161.27
959.075	4140.71
959.378	4098.45
959.682	4112.91
959.985	4072.92
960.289	4067.72
960.592	4035.4
960.896	4027.27
961.199	4023.88
961.502	3992.69
961.805	3958.57
962.108	3911.79
962.411	3933.48
962.714	3928.06
963.017	3890.55
963.32	3889.42
963.623	3837.89
963.926	3850.1
964.228	3799.02
964.531	3832.92
964.833	3790.44
965.136	3749.99
965.438	3779.59
965.741	3742.3
966.043	3698.91
966.345	3681.51
966.648	3697.33
966.95	3681.51
967.252	3690.33
967.554	3633.61
967.856	3619.59
968.158	3609.88
968.46	3636.32
968.761	3580.73
969.063	3597.45
969.365	3561.52
969.666	3573.95
969.968	3520.39
970.269	3506.38
970.571	3476.1
970.872	3489.43
971.174	3442.88
971.475	3465.93
971.776	3430.9
972.077	3450.56
972.378	3456.66
972.679	3373.27
972.98	3379.6
973.281	3373.5
973.582	3354.52
973.883	3327.4
974.183	3315.87
974.484	3333.95
974.785	3307.29
975.085	3298.25
975.386	3293.73
975.686	3281.75
975.986	3242.88
976.287	3212.83
976.587	3197.68
976.887	3210.11
977.187	3175.99
977.487	3195.88
977.787	3191.81
978.087	3161.08
978.387	3129.89
978.687	3103.9
978.987	3116.78
979.286	3087.86
979.586	3081.3
979.885	3074.52
980.185	3053.51
980.484	3011.93
980.784	3025.03
981.083	3035.43
981.382	3014.19
981.682	2988.65
981.981	2993.17
982.28	2942.32
982.579	2942.78
982.878	2939.39
983.177	2839.95
983.475	2917.01
983.774	2892.16
984.073	2842.67
984.372	2832.95
984.67	2829.56
984.969	2853.96
985.267	2835.66
985.566	2818.71
985.864	2787.53
986.162	2784.81
986.461	2767.87
986.759	2759.96
987.057	2696.45
987.355	2691.03
987.653	2728.77
987.951	2726.51
988.249	2691.93
988.547	2682.44
988.844	2667.3
989.142	2676.57
989.44	2624.82
989.737	2645.38
990.035	2617.13
990.332	2611.94
990.63	2564.25
990.927	2565.61
991.224	2568.1
991.521	2562.45
991.819	2556.12
992.116	2533.07
992.413	2525.84
992.71	2510.24
993.006	2513.86
993.303	2472.96
993.6	2474.99
993.897	2446.74
994.193	2463.92
994.49	2470.47
994.787	2402.45
995.083	2409.91
995.379	2387.54
995.676	2373.07
995.972	2393.19
996.268	2341.21
996.565	2339.85
996.861	2338.05
997.157	2364.71
997.453	2307.99
997.749	2310.25
998.044	2353.64
998.34	2310.7
998.636	2267.09
998.932	2248.33
999.227	2246.3
999.523	2247.2
999.818	2216.24
1000.114	2227.54
1000.409	2192.06
1000.704	2178.73
1001	2195.45
1001.295	2175.11
1001.59	2165.4
1001.885	2145.51
1002.18	2126.75
1002.475	2115.45
1002.77	2125.62
1003.065	2087.21
1003.359	2076.13
1003.654	2055.34
1003.949	2053.76
1004.243	2060.09
1004.538	2058.28
1004.832	2051.27
1005.127	2030.26
1005.421	2004.27
1005.715	2006.3
1006.009	2007.89
1006.304	1961.78
1006.598	1953.42
1006.892	1949.58
1007.186	1906.19
1007.48	1943.71
1007.773	1922.24
1008.067	1964.72
1008.361	1904.16
1008.655	1860.09
1008.948	1884.72
1009.242	1882.24
1009.535	1863.93
1009.829	1813.09
1010.122	1837.72
1010.415	1804.05
1010.708	1822.35
1011.001	1796.59
1011.295	1772.19
1011.588	1766.08
1011.881	1764.95
1012.173	1765.41
1012.466	1721.56
1012.759	1724.05
1013.052	1689.25
1013.344	1733.99
1013.637	1728.57
1013.93	1697.61
1014.222	1724.28
1014.514	1701.23
1014.807	1656.03
1015.099	1667.78
1015.391	1672.98
1015.683	1656.48
1015.976	1637.95
1016.268	1623.94
1016.56	1629.36
1016.851	1599.99
1017.143	1604.51
1017.435	1600.21
1017.727	1587.78
1018.018	1574.68
1018.31	1563.15
1018.602	1545.98
1018.893	1486.99
1019.185	1529.93
1019.476	1541.23
1019.767	1487.45
1020.058	1477.28
1020.35	1481.57
1020.641	1443.15
1020.932	1472.53
1021.223	1466.43
1021.514	1462.81
1021.804	1430.95
1022.095	1416.26
1022.386	1430.73
1022.677	1404.74
1022.967	1407.67
1023.258	1375.59
1023.548	1376.04
1023.839	1364.06
1024.129	1352.54
1024.419	1371.07
1024.709	1363.83
1025	1327.9
1025.29	1349.37
1025.58	1313.44
1025.87	1322.48
1026.16	1293.78
1026.449	1276.38
1026.739	1281.12
1027.029	1277.06
1027.319	1245.65
1027.608	1260.11
1027.898	1255.59
1028.187	1261.69
1028.477	1220.56
1028.766	1221.01
1029.055	1224.63
1029.344	1213.33
1029.634	1194.35
1029.923	1179.66
1030.212	1187.79
1030.501	1194.8
1030.79	1165.42
1031.078	1153.9
1031.367	1172.43
1031.656	1163.61
1031.945	1148.47
1032.233	1148.7
1032.522	1096.72
1032.81	1113.45
1033.099	1097.85
1033.387	1096.72
1033.675	1106.21
1033.963	1110.96
1034.251	1111.86
1034.54	1092.43
1034.828	1079.77
1035.116	1058.53
1035.403	1052.88
1035.691	1033
1035.979	1033.9
1036.267	1024.18
1036.554	1044.07
1036.842	1027.57
1037.129	1020.57
1037.417	1012.66
1037.704	1028.25
1037.992	1003.62
1038.279	1007.69
1038.566	1007.01
1038.853	1007.01
1039.14	1007.01
