Data from hue_130_FLMS001491_00008.txt Node
Date: Tue Feb 07 16:57:05 GMT 2017
User: dcchb
Spectrometer: FLMS00149
Trigger mode: 0
Integration Time (sec): 2.000000E-2
Scans to average: 10
Electric dark correction enabled: true
Nonlinearity correction enabled: false
Boxcar width: 0
XAxis mode: Wavelengths
Number of Pixels in Spectrum: 2048
>>>>>Begin Spectral Data<<<<<
341.393	-23.93
341.776	-23.93
342.16	-23.93
342.543	-75.9
342.927	-59.63
343.31	-62.34
343.693	-78.39
344.077	-64.83
344.46	-70.7
344.843	-42.91
345.226	-40.87
345.61	-21.21
345.993	-20.99
346.376	-1.33
346.759	-18.5
347.142	42.06
347.525	35.06
347.908	49.29
348.291	94.49
348.674	90.2
349.057	110.99
349.44	124.77
349.823	160.25
350.206	162.28
350.588	185.56
350.971	219.68
351.354	216.75
351.737	245.67
352.119	235.28
352.502	272.34
352.884	291.77
353.267	292.68
353.65	273.47
354.032	304.88
354.414	303.98
354.797	305.33
355.179	310.08
355.562	295.39
355.944	312.56
356.326	327.25
356.709	306.01
357.091	321.83
357.473	337.42
357.855	348.04
358.238	344.43
358.62	333.35
359.002	315.27
359.384	353.24
359.766	322.05
360.148	331.77
360.53	334.71
360.912	352.11
361.294	343.07
361.676	300.13
362.057	333.35
362.439	340.81
362.821	341.26
363.203	328.83
363.584	304.88
363.966	294.71
364.348	319.12
364.729	319.12
365.111	299
365.493	296.74
365.874	339.23
366.256	328.16
366.637	309.17
367.019	315.5
367.4	332
367.781	319.79
368.163	300.13
368.544	310.75
368.925	329.96
369.306	305.78
369.688	322.28
370.069	312.11
370.45	312.56
370.831	325.44
371.212	303.3
371.593	301.94
371.974	308.95
372.355	331.77
372.736	291.77
373.117	317.53
373.498	334.26
373.879	312.56
374.26	282.73
374.641	313.92
375.021	315.27
375.402	319.79
375.783	300.36
376.163	329.74
376.544	326.35
376.925	336.74
377.305	320.25
377.686	337.42
378.066	320.7
378.447	328.38
378.827	344.88
379.208	345.33
379.588	340.58
379.968	318.89
380.349	358.66
380.729	321.38
381.109	342.84
381.489	338.55
381.87	329.29
382.25	343.97
382.63	333.13
383.01	345.33
383.39	331.32
383.77	359.34
384.15	341.71
384.53	341.26
384.91	327.48
385.29	365.89
385.67	350.75
386.049	353.69
386.429	380.36
386.809	331.77
387.189	360.92
387.568	379.45
387.948	341.71
388.328	370.87
388.707	372.67
389.087	382.17
389.466	376.97
389.846	371.77
390.225	365.44
390.605	371.77
390.984	383.75
391.363	356.86
391.743	392.79
392.122	360.7
392.501	368.83
392.881	379.68
393.26	383.52
393.639	385.33
394.018	383.75
394.397	386.01
394.776	384.2
395.155	401.83
395.534	400.47
395.913	391.88
396.292	376.97
396.671	399.11
397.05	390.98
397.429	397.53
397.808	413.35
398.186	379.23
398.565	417.64
398.944	405.22
399.323	421.94
399.701	402.28
400.08	411.09
400.458	404.54
400.837	415.16
401.215	428.49
401.594	391.2
401.972	398.44
402.351	419.9
402.729	419.23
403.107	428.72
403.486	433.92
403.864	415.84
404.242	423.97
404.62	423.07
404.999	433.92
405.377	430.3
405.755	433.69
406.133	423.29
406.511	438.43
406.889	435.95
407.267	431.2
407.645	429.17
408.023	461.03
408.401	446.12
408.779	458.55
409.156	474.37
409.534	477.53
409.912	456.74
410.29	472.78
410.667	473.69
411.045	490.86
411.422	485.44
411.8	473.24
412.178	478.43
412.555	500.58
412.933	499.9
413.31	509.39
413.687	529.73
414.065	506.91
414.442	500.58
414.819	515.72
415.197	506.23
415.574	520.01
415.951	532.67
416.328	521.37
416.705	514.37
417.082	534.25
417.46	512.78
417.837	533.12
418.214	539.68
418.591	534.93
418.967	543.97
419.344	543.52
419.721	557.75
420.098	543.29
420.475	565.21
420.852	547.13
421.228	565.44
421.605	566.12
421.982	583.74
422.358	567.47
422.735	590.07
423.111	571.76
423.488	589.17
423.864	592.56
424.241	596.4
424.617	586.91
424.994	613.12
425.37	595.49
425.746	617.41
426.123	604.08
426.499	617.41
426.875	625.1
427.251	631.88
427.627	617.19
428.003	629.84
428.379	628.03
428.756	639.56
429.132	658.32
429.507	655.83
429.883	663.97
430.259	684.76
430.635	665.1
431.011	669.39
431.387	702.16
431.763	717.75
432.138	681.82
432.514	701.7
432.89	711.87
433.265	724.3
433.641	715.04
434.016	745.55
434.392	735.38
434.767	747.35
435.143	726.34
435.518	760.46
435.894	762.72
436.269	778.09
436.644	784.87
437.02	779.89
437.395	795.94
437.77	802.04
438.145	809.95
438.52	828.26
438.895	798.88
439.271	796.84
439.646	851.31
440.021	844.53
440.395	849.95
440.77	850.18
441.145	847.92
441.52	856.95
441.895	849.5
442.27	841.81
442.645	846.33
443.019	865.32
443.394	871.64
443.769	878.42
444.143	872.32
444.518	897.86
444.892	897.18
445.267	902.6
445.641	911.42
446.016	904.86
446.39	943.05
446.764	933.56
447.139	925.65
447.513	934.69
447.887	953.22
448.262	925.2
448.636	944.41
449.01	976.5
449.384	993.22
449.758	981.02
450.132	976.05
450.506	1010.85
450.88	1001.81
451.254	1002.49
451.628	1021.92
452.002	1037.29
452.376	1032.09
452.75	1061.7
453.123	1051.53
453.497	1058.98
453.871	1062.15
454.244	1101.47
454.618	1100.34
454.992	1121.81
455.365	1092.88
455.739	1122.94
456.112	1152.31
456.486	1163.84
456.859	1181.24
457.232	1183.05
457.606	1185.31
457.979	1210.39
458.352	1229.83
458.725	1252.88
459.099	1246.55
459.472	1282.03
459.845	1326.32
460.218	1302.82
460.591	1293.78
460.964	1325.64
461.337	1335.36
461.71	1359.77
462.083	1377.62
462.456	1380.1
462.829	1374.68
463.201	1402.48
463.574	1425.98
463.947	1444.96
464.32	1456.49
464.692	1493.32
465.065	1515.47
465.438	1527.22
465.81	1577.16
466.183	1549.14
466.555	1649.02
466.928	1622.81
467.3	1662.81
467.672	1663.94
468.045	1688.8
468.417	1722.69
468.789	1752.75
469.161	1790.94
469.534	1780.77
469.906	1863.93
470.278	1881.11
470.65	1887.44
471.022	1939.86
471.394	1987.32
471.766	2011.5
472.138	2058.96
472.51	2072.97
472.882	2131.95
473.253	2211.95
473.625	2214.89
473.997	2268.67
474.369	2316.13
474.74	2350.47
475.112	2412.62
475.484	2448.55
475.855	2512.05
476.227	2545.95
476.598	2664.14
476.97	2704.82
477.341	2775.1
477.713	2852.16
478.084	2850.57
478.455	2986.84
478.827	3054.86
479.198	3148.42
479.569	3206.72
479.94	3281.07
480.311	3387.28
480.682	3459.6
481.053	3597.45
481.424	3696.43
481.795	3764
482.166	3867.27
482.537	3931
482.908	4076.76
483.279	4150.2
483.65	4319.01
484.021	4378.44
484.391	4489.85
484.762	4564.88
485.133	4677.19
485.503	4819.79
485.874	4973
486.244	5094.36
486.615	5172.55
486.985	5366.89
487.356	5472.43
487.726	5573.89
488.097	5736.6
488.467	5866.31
488.837	6054.78
489.207	6160.77
489.578	6293.2
489.948	6429.01
490.318	6580.65
490.688	6652.96
491.058	6841.88
491.428	6999.62
491.798	7092.05
492.168	7333.39
492.538	7411.58
492.908	7615.2
493.278	7739.49
493.648	7835.75
494.017	7993.49
494.387	8126.82
494.757	8270.77
495.126	8418.56
495.496	8503.08
495.866	8664.66
496.235	8777.2
496.605	8956.85
496.974	9027.14
497.344	9187.81
497.713	9335.6
498.082	9408.14
498.452	9601.58
498.821	9625.09
499.19	9787.12
499.559	9938.75
499.928	10028.92
500.298	10128.8
500.667	10277.05
501.036	10254
501.405	10522.46
501.774	10520.66
502.143	10742.34
502.512	10731.5
502.88	10818.05
503.249	10968.1
503.618	11031.38
503.987	11104.14
504.356	11155.22
504.724	11298.26
505.093	11385.04
505.462	11470.24
505.83	11592.04
506.199	11688.31
506.567	11833.16
506.936	11855.31
507.304	11938.47
507.672	12019.15
508.041	12140.5
508.409	12195.41
508.777	12324.45
509.145	12453.03
509.514	12471.56
509.882	12534.39
510.25	12543.2
510.618	12643.99
510.986	12660.49
511.354	12786.36
511.722	12813.02
512.09	12939.8
512.458	12905.9
512.826	13072.9
513.193	13072.45
513.561	13259.34
513.929	13244.43
514.297	13295.05
514.664	13393.12
515.032	13408.72
515.4	13514.93
515.767	13463.86
516.135	13672.44
516.502	13456.17
516.869	13731.42
517.237	13765.77
517.604	13714.47
517.972	13660.91
518.339	13881.92
518.706	13854.81
519.073	13853.68
519.44	14012.32
519.808	14022.71
520.175	14012.32
520.542	14091.64
520.909	14228.81
521.276	14076.27
521.643	14218.41
522.009	14215.47
522.376	14307.67
522.743	14372.98
523.11	14421.12
523.477	14529.59
523.843	14523.26
524.21	14576.59
524.577	14667.21
524.943	14662.24
525.31	14662.02
525.676	14774.56
526.043	14846.64
526.409	14794.67
526.776	14954.44
527.142	14888.45
527.508	14905.17
527.874	14958.5
528.241	15007.54
528.607	14932.29
528.973	15102.91
529.339	15081.44
529.705	15016.81
530.071	15156.47
530.437	15075.79
530.803	15068.11
531.169	15198.72
531.535	15028.33
531.901	15075.11
532.267	15039.63
532.632	15140.2
532.998	15109.91
533.364	15117.37
533.73	15047.54
534.095	15191.04
534.461	15090.48
534.826	15096.58
535.192	15075.11
535.557	15167.31
535.923	15045.51
536.288	15036.24
536.653	15086.64
537.019	14910.14
537.384	15051.61
537.749	15040.08
538.114	14940.43
538.479	14898.39
538.845	14974.78
539.21	14851.39
539.575	14875.57
539.94	14820.2
540.305	14874.67
540.67	14826.08
541.034	14747.21
541.399	14833.08
541.764	14607.55
542.129	14713.99
542.494	14723.48
542.858	14717.16
543.223	14660.66
543.587	14633.32
543.952	14589.48
544.316	14491.4
544.681	14435.13
545.045	14472.64
545.41	14511.29
545.774	14368.46
546.138	14394.68
546.503	14317.39
546.867	14323.49
547.231	14372.53
547.595	14250.73
547.959	14231.07
548.324	14200.11
548.688	14184.74
549.052	14216.38
549.416	14112.65
549.779	14091.18
550.143	14081.24
550.507	14101.58
550.871	14057.29
551.235	14031.75
551.599	14084.4
551.962	14010.73
552.326	13936.16
552.689	14035.14
553.053	13857.52
553.417	13861.81
553.78	13933
554.143	13921.7
554.507	13834.69
554.87	13805.09
555.234	13888.48
555.597	13788.82
555.96	13728.71
556.323	13764.86
556.686	13787.24
557.05	13729.16
557.413	13809.16
557.776	13766.9
558.139	13702.72
558.502	13750.85
558.865	13729.38
559.228	13848.03
559.59	13780.46
559.953	13670.18
560.316	13817.74
560.679	13814.35
561.041	13780
561.404	13827.69
561.767	13781.81
562.129	13730.74
562.492	13827.46
562.854	13788.59
563.217	13745.88
563.579	13802.83
563.941	13861.81
564.304	13852.09
564.666	13848.03
565.028	13850.51
565.39	13988.36
565.753	13944.07
566.115	13949.72
566.477	13944.07
566.839	13955.82
567.201	14010.73
567.563	13976.84
567.925	14051.64
568.287	14062.94
568.648	14063.84
569.01	14132.54
569.372	14073.78
569.734	13983.39
570.095	14062.94
570.457	14167.11
570.819	14093.67
571.18	14215.02
571.542	14130.05
571.903	14217.96
572.265	14208.02
572.626	14240.56
572.987	14147.45
573.349	14227.68
573.71	14248.92
574.071	14275.59
574.432	14223.38
574.794	14381.12
575.155	14350.39
575.516	14213.21
575.877	14324.62
576.238	14287.34
576.599	14384.96
576.96	14368.01
577.32	14303.38
577.681	14356.71
578.042	14359.88
578.403	14347.9
578.763	14382.93
579.124	14436.94
579.485	14405.53
579.845	14404.17
580.206	14402.14
580.566	14452.3
580.927	14424.51
581.287	14428.8
581.648	14405.75
582.008	14459.08
582.368	14404.4
582.728	14402.59
583.089	14375.92
583.449	14344.74
583.809	14451.17
584.169	14335.7
584.529	14315.58
584.889	14408.69
585.249	14335.24
585.609	14319.43
585.969	14316.94
586.329	14294.57
586.688	14279.88
587.048	14326.66
587.408	14317.62
587.768	14289.37
588.127	14179.09
588.487	14252.99
588.846	14214.34
589.206	14172.76
589.565	14199.88
589.925	14270.61
590.284	14137.06
590.643	14218.41
591.003	14156.49
591.362	14267.68
591.721	14260.22
592.08	14208.47
592.44	14221.35
592.799	14160.56
593.158	14143.84
593.517	14202.37
593.876	14191.75
594.235	14131.18
594.593	14149.49
594.952	14053.67
595.311	14090.05
595.67	14126.21
596.029	14153.55
596.387	14245.98
596.746	14148.36
597.104	14078.3
597.463	14110.17
597.822	14138.64
598.18	14067.45
598.538	13950.85
598.897	14102.03
599.255	14007.34
599.613	14159.88
599.972	14104.97
600.33	14133.67
600.688	14086.21
601.046	14142.93
601.404	14130.73
601.762	14155.59
602.12	14204.4
602.478	14171.41
602.836	14143.16
603.194	14101.8
603.552	14187
603.91	14081.47
604.268	14156.04
604.625	14139.77
604.983	14127.79
605.341	14009.83
605.698	14093.44
606.056	14249.6
606.413	14162.59
606.771	14102.26
607.128	14150.16
607.485	14128.24
607.843	14160.79
608.2	14190.16
608.557	14219.32
608.914	14209.82
609.272	14229.48
609.629	14260.22
609.986	14254.12
610.343	14227
610.7	14381.8
611.057	14389.25
611.414	14310.39
611.771	14315.36
612.127	14347.22
612.484	14343.38
612.841	14354.23
613.198	14280.1
613.554	14305.41
613.911	14455.02
614.267	14327.79
614.624	14367.79
614.98	14285.75
615.337	14429.03
615.693	14393.1
616.05	14386.77
616.406	14465.86
616.762	14436.48
617.118	14388.8
617.475	14419.76
617.831	14425.41
618.187	14548.57
618.543	14537.95
618.899	14586.76
619.255	14579.76
619.611	14565.97
619.967	14598.97
620.323	14573.2
620.678	14584.96
621.034	14547.67
621.39	14492.3
621.746	14456.15
622.101	14683.71
622.457	14451.63
622.812	14481.23
623.168	14637.84
623.523	14566.88
623.879	14655.24
624.234	14468.12
624.589	14618.85
624.945	14566.2
625.3	14677.61
625.655	14600.1
626.01	14618.63
626.365	14530.95
626.72	14633.77
627.075	14570.04
627.43	14506.77
627.785	14474.22
628.14	14582.92
628.495	14575.92
628.85	14544.5
629.205	14544.73
629.559	14607.1
629.914	14485.98
630.269	14476.48
630.623	14416.15
630.978	14441.46
631.332	14516.26
631.687	14529.36
632.041	14489.36
632.396	14528.01
632.75	14398.29
633.104	14413.43
633.459	14379.54
633.813	14340.44
634.167	14354.23
634.521	14378.18
634.875	14316.71
635.229	14319.43
635.583	14154.23
635.937	14302.7
636.291	14203.04
636.645	14247.11
636.999	14170.28
637.352	14247.34
637.706	14120.11
638.06	14183.61
638.413	14105.65
638.767	14070.39
639.121	14122.59
639.474	14034.69
639.828	14075.59
640.181	14071.52
640.534	14013.22
640.888	14061.58
641.241	13994.91
641.594	13957.63
641.947	14016.83
642.301	14015.48
642.654	13930.74
643.007	14052.54
643.36	13939.32
643.713	14003.73
644.066	14078.08
644.419	13877.4
644.771	13855.94
645.124	13710.4
645.477	13706.33
645.83	13650.06
646.182	13637.41
646.535	13517.86
646.888	13590.18
647.24	13389.96
647.593	13525.77
647.945	13501.14
648.298	13437.19
648.65	13422.95
649.002	13441.71
649.355	13429.73
649.707	13421.6
650.059	13548.37
650.411	13629.73
650.763	13664.3
651.115	13810.51
651.467	13837.63
651.819	13756.73
652.171	13740.68
652.523	13694.58
652.875	13700.68
653.227	13632.44
653.578	13813.22
653.93	13750.85
654.282	13744.3
654.633	13683.51
654.985	13742.72
655.337	13736.39
655.688	13804.41
656.039	13798.76
656.391	13656.84
656.742	13767.12
657.094	13769.38
657.445	13720.8
657.796	13722.61
658.147	13742.27
658.498	13789.5
658.849	13690.97
659.2	13742.04
659.551	13729.61
659.902	13783.39
660.253	13773.9
660.604	13784.07
660.955	13751.76
661.306	13809.61
661.656	13783.17
662.007	13820
662.358	13750.63
662.708	13879.44
663.059	13764.86
663.409	13737.75
663.76	13768.71
664.11	13815.26
664.461	13862.04
664.811	13826.56
665.161	13758.54
665.511	13767.58
665.862	13829.72
666.212	13783.62
666.562	13808.03
666.912	13742.27
667.262	13801.02
667.612	13790.17
667.962	13796.5
668.312	13801.47
668.662	13869.95
669.011	13741.14
669.361	13777.29
669.711	13762.83
670.06	13798.31
670.41	13692.32
670.76	13758.31
671.109	13763.06
671.459	13742.04
671.808	13681.25
672.157	13780.91
672.507	13654.36
672.856	13671.31
673.205	13780
673.554	13691.42
673.904	13630.18
674.253	13595.83
674.602	13635.15
674.951	13456.62
675.3	13368.49
675.649	13600.57
675.998	13495.27
676.346	13620.69
676.695	13569.61
677.044	13556.06
677.393	13573.46
677.741	13551.99
678.09	13433.35
678.438	13474.48
678.787	13527.81
679.135	13509.28
679.484	13476.96
679.832	13478.77
680.181	13385.44
680.529	13414.82
680.877	13366
681.225	13339.79
681.573	13411.65
681.922	13323.75
682.27	13311.09
682.618	13244.43
682.966	13216.86
683.314	13273.13
683.661	13168.72
684.009	13154.94
684.357	13128.95
684.705	13106.8
685.053	13080.59
685.4	13060.93
685.748	13062.51
686.095	13032.91
686.443	12880.37
686.79	12942.51
687.138	12985.22
687.485	12989.74
687.832	12888.73
688.18	12911.55
688.527	12883.98
688.874	12827.26
689.221	12725.12
689.568	12719.47
689.915	12668.4
690.262	12696.19
690.609	12572.13
690.956	12587.27
691.303	12579.36
691.65	12478.8
691.997	12460.27
692.344	12392.92
692.69	12327.16
693.037	12435.63
693.383	12302.08
693.73	12279.71
694.077	12118.35
694.423	12220.5
694.769	12051.46
695.116	12139.82
695.462	12073.38
695.808	12016.89
696.155	12039.49
696.501	11997.9
696.847	11951.13
697.193	11917
697.539	11892.37
697.885	11800.85
698.231	11701.42
698.577	11713.84
698.923	11706.61
699.269	11628.88
699.614	11637.24
699.96	11510.91
700.306	11510.46
700.651	11467.07
700.997	11375.1
701.342	11404.47
701.688	11357.02
702.033	11297.58
702.379	11325.38
702.724	11307.98
703.069	11326.96
703.415	11154.31
703.76	11067.76
704.105	11160.41
704.45	11112.73
704.795	11028.89
705.14	11028.66
705.485	10951.38
705.83	10917.26
706.175	10941.21
706.52	10858.73
706.865	10895.33
707.209	10804.49
707.554	10761.33
707.899	10787.99
708.243	10739.86
708.588	10758.39
708.932	10620.09
709.277	10609.24
709.621	10637.71
709.966	10544.38
710.31	10547.32
710.654	10450.83
710.998	10512.07
711.342	10537.83
711.687	10425.74
712.031	10358.63
712.375	10387.1
712.719	10324.05
713.063	10346.87
713.407	10332.86
713.75	10335.8
714.094	10322.02
714.438	10291.06
714.782	10222.36
715.125	10270.27
715.469	10322.69
715.812	10171.96
716.156	10146.88
716.499	10196.14
716.843	10096.94
717.186	10115.02
717.53	10161.79
717.873	10135.35
718.216	10125.19
718.559	10042.93
718.902	10047.22
719.246	9993.66
719.589	10018.07
719.932	9936.72
720.275	9938.75
720.617	9982.59
720.96	9901.69
721.303	9918.86
721.646	9904.85
721.989	9783.05
722.331	9894.01
722.674	9856.72
723.016	9832.09
723.359	9826.89
723.701	9884.06
724.044	9847.9
724.386	9832.54
724.729	9813.78
725.071	9761.13
725.413	9765.2
725.755	9855.81
726.097	9719.09
726.439	9674.8
726.782	9726.33
727.124	9742.14
727.465	9678.19
727.807	9741.02
728.149	9650.62
728.491	9630.28
728.833	9730.39
729.175	9707.34
729.516	9708.93
729.858	9641.81
730.199	9698.08
730.541	9607.69
730.882	9590.96
731.224	9655.59
731.565	9590.28
731.906	9606.78
732.248	9629.38
732.589	9565.43
732.93	9549.61
733.271	9604.75
733.612	9659.89
733.953	9598.87
734.294	9625.76
734.635	9612.88
734.976	9667.8
735.317	9590.06
735.658	9594.58
735.999	9572.21
736.339	9548.48
736.68	9639.77
737.021	9557.74
737.361	9610.17
737.702	9617.18
738.042	9579.89
738.383	9620.79
738.723	9636.39
739.063	9605.43
739.404	9685.2
739.744	9668.93
740.084	9677.51
740.424	9731.98
740.764	9660.57
741.104	9732.2
741.444	9659.89
741.784	9740.56
742.124	9697.85
742.464	9781.24
742.804	9737.17
743.143	9804.29
743.483	9886.1
743.823	9843.84
744.162	9878.64
744.502	9884.97
744.841	9963.83
745.181	9948.24
745.52	9927.9
745.86	10015.36
746.199	10033.89
746.538	10104.4
746.877	10132.42
747.216	10148.46
747.556	10204.28
747.895	10250.38
748.234	10296.48
748.573	10302.58
748.911	10378.29
749.25	10437.72
749.589	10491.05
749.928	10544.61
750.267	10678.39
750.605	10699.18
750.944	10833.64
751.283	10830.03
751.621	10974.43
751.96	11044.03
752.298	11117.7
752.636	11235.89
752.975	11309.56
753.313	11434.3
753.651	11576.45
753.989	11585.49
754.327	11683.79
754.666	11801.53
755.004	11977.11
755.342	12102.76
755.679	12338.91
756.017	12324.9
756.355	12551.11
756.693	12600.6
757.031	12820.03
757.368	12866.58
757.706	13076.97
758.044	13130.3
758.381	13420.01
758.719	13550.63
759.056	13723.06
759.394	13803.28
759.731	13965.99
760.068	14128.24
760.405	14275.13
760.743	14440.1
761.08	14643.49
761.417	14740.66
761.754	14993.98
762.091	15160.31
762.428	15275.33
762.765	15375.44
763.102	15607.75
763.438	15767.98
763.775	15858.14
764.112	16108.98
764.449	16312.14
764.785	16426.71
765.122	16580.84
765.458	16662.87
765.795	16766.82
766.131	17022.86
766.467	17178.11
766.804	17079.81
767.14	17433.69
767.476	17442.51
767.812	17606.34
768.148	17862.61
768.485	17783.06
768.821	17964.75
769.157	18030.51
769.492	18162.04
769.828	18402.26
770.164	18357.96
770.5	18554.12
770.836	18594.34
771.171	18724.06
771.507	18847.44
771.842	18834.34
772.178	18973.09
772.513	19068
772.849	19089.24
773.184	19193.42
773.519	19285.85
773.855	19376.69
774.19	19402.68
774.525	19482.45
774.86	19641.55
775.195	19657.36
775.53	19721.54
775.865	19637.7
776.2	19583.69
776.535	19648.1
776.87	19670.25
777.205	19794.76
777.539	19822.56
777.874	19870.01
778.209	19767.64
778.543	19864.36
778.878	19844.48
779.212	19964.7
779.547	19963.35
779.881	20054.19
780.215	19945.27
780.55	20034.53
780.884	20030.69
781.218	19985.04
781.552	20035.66
781.886	20027.98
782.22	19965.6
782.554	20001.99
782.888	19877.47
783.222	19884.48
783.556	19801.09
783.889	19872.73
784.223	19754.09
784.557	19711.15
784.89	19884.7
785.224	19725.16
785.557	19656.46
785.891	19781.88
786.224	19728.55
786.558	19714.31
786.891	19564.71
787.224	19523.13
787.557	19720.19
787.891	19628.66
788.224	19628.44
788.557	19604.94
788.89	19573.07
789.223	19592.73
789.556	19362.68
789.888	19370.14
790.221	19373.08
790.554	19253.53
790.887	19262.12
791.219	19240.88
791.552	19269.35
791.884	19119.98
792.217	19207.43
792.549	19085.18
792.882	19069.81
793.214	19018.96
793.546	19004.5
793.879	18907.1
794.211	18906.88
794.543	18893.77
794.875	18844.73
795.207	19037.49
795.539	18828.91
795.871	18908.01
796.203	18655.36
796.535	18635.92
796.867	18654.45
797.198	18521.12
797.53	18541.46
797.862	18470.28
798.193	18519.32
798.525	18397.06
798.856	18506.21
799.188	18246.55
799.519	18195.26
799.85	18101.02
800.182	18211.98
800.513	18110.29
800.844	18014.24
801.175	18089.95
801.506	18085.88
801.837	18033
802.168	17966.11
802.499	17914.13
802.83	17804.53
803.161	17802.95
803.491	17829.39
803.822	17783.97
804.153	17757.75
804.483	17651.54
804.814	17593.24
805.145	17563.63
805.475	17486.57
805.805	17387.82
806.136	17469.17
806.466	17494.94
806.796	17394.15
807.126	17315.51
807.457	17338.56
807.787	17268.27
808.117	17225.79
808.447	17125.91
808.777	17170.65
809.107	17193.47
809.436	16970.88
809.766	17006.59
810.096	17004.1
810.426	16927.49
810.755	16923.65
811.085	16920.04
811.414	16784.22
811.744	16668.29
812.073	16683.43
812.403	16676.88
812.732	16673.04
813.061	16697.67
813.39	16527.5
813.719	16468.52
814.049	16604.79
814.378	16496.77
814.707	16468.3
815.036	16400.27
815.365	16395.3
815.693	16297.23
816.022	16340.84
816.351	16238.47
816.68	16189.43
817.008	16226.95
817.337	16042.54
817.665	16010.45
817.994	16149.89
818.322	16075.09
818.651	16020.4
818.979	15882.1
819.307	16010.68
819.636	15912.15
819.964	15876.45
820.292	15858.82
820.62	15888.2
820.948	15882.32
821.276	15941.08
821.604	15830.12
821.932	15928.87
822.259	15859.72
822.587	15847.97
822.915	15818.14
823.243	15792.83
823.57	15878.48
823.898	15914.41
824.225	15762.78
824.553	15743.12
824.88	15845.49
825.207	15871.48
825.535	15833.74
825.862	15925.03
826.189	15736.34
826.516	15974.07
826.843	15928.87
827.17	15846.17
827.497	15920.51
827.824	15894.3
828.151	15951.25
828.478	15932.26
828.805	15906.73
829.131	15901.08
829.458	15903.34
829.785	15842.55
830.111	15942.21
830.438	15900.18
830.764	15902.21
831.09	15904.69
831.417	15867.86
831.743	15848.43
832.069	15945.6
832.395	15743.12
832.722	15821.31
833.048	15829.22
833.374	15801.19
833.7	15744.47
834.026	15809.1
834.351	15802.1
834.677	15801.42
835.003	15758.03
835.329	15746.73
835.654	15727.52
835.98	15582.67
836.306	15707.19
836.631	15588.77
836.956	15650.69
837.282	15699.95
837.607	15657.47
837.932	15525.5
838.258	15530.92
838.583	15534.31
838.908	15365.5
839.233	15490.92
839.558	15395.78
839.883	15467.19
840.208	15279.4
840.533	15351.26
840.858	15289.12
841.182	15310.13
841.507	15281.43
841.832	15199.18
842.156	15209.57
842.481	15189.01
842.805	15182.23
843.13	15058.16
843.454	15023.59
843.778	15031.05
844.103	14979.75
844.427	15003.48
844.751	14965.96
845.075	14887.77
845.399	14768.91
845.723	14709.02
846.047	14799.19
846.371	14625.86
846.695	14694.11
847.019	14503.15
847.343	14518.97
847.666	14503.83
847.99	14340.44
848.313	14389.71
848.637	14259.31
848.96	14224.29
849.284	14260.22
849.607	14109.71
849.931	14049.6
850.254	14003.28
850.577	13945.42
850.9	13824.98
851.223	13876.5
851.546	13823.62
851.869	13671.99
852.192	13699.33
852.515	13561.71
852.838	13514.93
853.161	13537.3
853.483	13479.22
853.806	13402.61
854.129	13383.18
854.451	13332.33
854.774	13260.7
855.096	13288.72
855.419	13166.69
855.741	13238.1
856.063	13103.86
856.385	13061.61
856.708	13166.69
857.03	12954.94
857.352	13056.18
857.674	12951.78
857.996	12862.97
858.318	12808.96
858.64	12888.95
858.961	12747.49
859.283	12747.72
859.605	12692.8
859.926	12757.43
860.248	12679.24
860.57	12530.09
860.891	12587.95
861.212	12527.61
861.534	12507.72
861.855	12433.6
862.176	12515.41
862.498	12458.23
862.819	12483.77
863.14	12361.29
863.461	12459.59
863.782	12351.79
864.103	12312.25
864.424	12286.71
864.745	12291
865.065	12189.76
865.386	12208.52
865.707	12240.16
866.027	12173.49
866.348	12168.52
866.668	12162.42
866.989	12199.93
867.309	12035.64
867.63	12106.83
867.95	12068.86
868.27	12015.31
868.59	12020.73
868.91	12070.45
869.23	11940.05
869.55	11933.05
869.87	11958.13
870.19	11881.75
870.51	11882.2
870.83	11951.35
871.15	11933.05
871.469	11820.51
871.789	11841.75
872.109	11826.16
872.428	11696.44
872.748	11839.94
873.067	11724.92
873.386	11797.46
873.706	11686.5
874.025	11661.42
874.344	11666.16
874.663	11675.2
874.982	11657.12
875.301	11543.68
875.62	11555.66
875.939	11497.35
876.258	11578.25
876.577	11541.42
876.896	11446.73
877.214	11430.69
877.533	11517.69
877.852	11415.77
878.17	11490.57
878.489	11435.43
878.807	11443.57
879.125	11361.31
879.444	11397.02
879.762	11324.48
880.08	11316.34
880.398	11290.35
880.716	11328.77
881.034	11243.8
881.352	11245.16
881.67	11220.52
881.988	11227.53
882.306	11098.04
882.624	11157.93
882.941	11114.99
883.259	11067.99
883.577	11003.81
883.894	11059.17
884.212	11025.95
884.529	11008.78
884.846	10979.4
885.164	10974.43
885.481	10928.1
885.798	10872.28
886.115	10855.34
886.432	10848.56
886.75	10780.54
887.067	10856.47
887.383	10775.79
887.7	10799.07
888.017	10758.39
888.334	10729.69
888.651	10730.37
888.967	10656.47
889.284	10668.45
889.6	10511.62
889.917	10484.72
890.233	10505.74
890.55	10472.52
890.866	10489.47
891.182	10370.83
891.498	10392.52
891.815	10365.63
892.131	10279.53
892.447	10262.58
892.763	10242.92
893.079	10216.93
893.395	10197.27
893.71	10164.73
894.026	10079.99
894.342	10085.19
894.657	10012.87
894.973	10036.37
895.289	9941.91
895.604	10023.27
895.92	9900.56
896.235	9886.55
896.55	9901.24
896.865	9847.9
897.181	9823.5
897.496	9795.25
897.811	9748.7
898.126	9687.68
898.441	9682.49
898.756	9653.56
899.071	9609.72
899.386	9608.14
899.7	9499.67
900.015	9434.58
900.33	9391.65
900.644	9384.64
900.959	9401.81
901.273	9367.47
901.588	9343.96
901.902	9288.6
902.216	9247.69
902.531	9225.55
902.845	9137.19
903.159	9094.25
903.473	9078.21
903.787	9056.29
904.101	9039.56
904.415	9011.99
904.729	8988.94
905.042	8922.51
905.356	8882.73
905.67	8858.33
905.984	8879.57
906.297	8856.07
906.611	8757.54
906.924	8817.65
907.237	8733.36
907.551	8711.89
907.864	8609.29
908.177	8661.27
908.491	8637.99
908.804	8505.79
909.117	8501.5
909.43	8413.37
909.743	8388.51
910.056	8385.12
910.368	8362.75
910.681	8361.39
910.994	8398.9
911.307	8243.65
911.619	8150.32
911.932	8201.39
912.244	8074.39
912.557	8137.67
912.869	8092.47
913.181	8065.35
913.494	8016.99
913.806	8016.54
914.118	7986.94
914.43	7859.71
914.742	7906.26
915.054	7827.85
915.366	7780.39
915.678	7849.31
915.99	7726.6
916.302	7702.42
916.613	7691.8
916.925	7652.93
917.236	7688.87
917.548	7572.26
917.859	7575.65
918.171	7562.09
918.482	7503.11
918.794	7406.39
919.105	7453.62
919.416	7355.77
919.727	7408.2
920.038	7403.22
920.349	7332.26
920.66	7329.1
920.971	7225.83
921.282	7266.28
921.593	7214.75
921.903	7160.52
922.214	7137.24
922.525	7073.74
922.835	7050.24
923.146	7047.3
923.456	7021.54
923.767	7001.43
924.077	7030.8
924.387	6954.2
924.697	6890.24
925.008	6850.7
925.318	6885.27
925.628	6875.55
925.938	6836.91
926.248	6771.38
926.558	6747.42
926.867	6782.45
927.177	6675.11
927.487	6668.78
927.796	6627.42
928.106	6656.12
928.416	6594.66
928.725	6568.22
929.034	6521.66
929.344	6501.55
929.653	6492.51
929.962	6450.48
930.271	6424.94
930.581	6379.07
930.89	6352.18
931.199	6315.79
931.508	6305.4
931.817	6300.65
932.125	6226.98
932.434	6268.56
932.743	6198.96
933.051	6168
933.36	6121.22
933.669	6146.53
933.977	6110.6
934.286	6103.82
934.594	6050.94
934.902	5983.6
935.21	5985.41
935.519	5998.06
935.827	5944.5
936.135	5914.45
936.443	5876.26
936.751	5880.33
937.059	5833.32
937.367	5819.99
937.674	5817.5
937.982	5767.33
938.29	5733.21
938.597	5740.89
938.905	5675.59
939.213	5662.03
939.52	5624.74
939.827	5671.97
940.135	5563.27
940.442	5557.4
940.749	5559.66
941.056	5567.57
941.363	5491.18
941.67	5434.01
941.977	5441.24
942.284	5399.21
942.591	5400.34
942.898	5390.62
943.205	5418.42
943.511	5330.06
943.818	5323.5
944.125	5249.38
944.431	5236.05
944.738	5220.68
945.044	5269.04
945.35	5169.38
945.657	5193.11
945.963	5140.01
946.269	5106.33
946.575	5115.83
946.881	5129.16
947.187	5069.27
947.493	5061.36
947.799	5034.7
948.105	4987.69
948.41	4975.72
948.716	4969.62
949.022	4961.03
949.327	4935.27
949.633	4833.8
949.938	4880.13
950.244	4887.36
950.549	4884.19
950.854	4845.1
951.16	4809.39
951.465	4781.6
951.77	4767.13
952.075	4698.89
952.38	4709.51
952.685	4693.46
952.99	4660.02
953.294	4665.22
953.599	4631.32
953.904	4571.66
954.209	4599.91
954.513	4575.73
954.818	4532.56
955.122	4514.03
955.426	4564.88
955.731	4465
956.035	4481.04
956.339	4465.22
956.643	4430.65
956.948	4385.9
957.252	4359.91
957.556	4379.35
957.86	4334.6
958.163	4331.67
958.467	4302.97
958.771	4287.15
959.075	4347.26
959.378	4281.95
959.682	4272.91
959.985	4226.36
960.289	4172.35
960.592	4207.6
960.896	4152.91
961.199	4168.05
961.502	4152.01
961.805	4113.37
962.108	4080.37
962.411	4114.5
962.714	4038.79
963.017	4010.09
963.32	4065.46
963.623	4036.31
963.926	4020.71
964.228	4002.86
964.531	3945.91
964.833	3955.86
965.136	3895.52
965.438	3921.73
965.741	3883.09
966.043	3891.23
966.345	3882.19
966.648	3828.85
966.95	3824.33
967.252	3805.8
967.554	3782.75
967.856	3776.43
968.158	3732.81
968.46	3732.59
968.761	3711.12
969.063	3693.04
969.365	3700.72
969.666	3720.83
969.968	3637.22
970.269	3630.89
970.571	3651.68
970.872	3634.51
971.174	3595.41
971.475	3570.33
971.776	3591.12
972.077	3568.07
972.378	3509.99
972.679	3528.75
972.98	3507.96
973.281	3475.64
973.582	3483.33
973.883	3440.39
974.183	3487.85
974.484	3448.98
974.785	3420.28
975.085	3407.85
975.386	3420.73
975.686	3364.91
975.986	3370.56
976.287	3334.86
976.587	3327.17
976.887	3300.96
977.187	3293.95
977.487	3308.42
977.787	3287.85
978.087	3260.96
978.387	3232.94
978.687	3240.4
978.987	3204.24
979.286	3174.63
979.586	3181.87
979.885	3148.87
980.185	3178.93
980.484	3120.17
980.784	3123.56
981.083	3115.88
981.382	3164.46
981.682	3090.57
981.981	3060.51
982.28	3059.61
982.579	3056.45
982.878	3061.64
983.177	3008.99
983.475	2990.68
983.774	2971.02
984.073	2960.63
984.372	2950.01
984.67	2973.96
984.969	2933.74
985.267	2900.29
985.566	2951.14
985.864	2920.18
986.162	2915.88
986.461	2872.95
986.759	2865.26
987.057	2828.65
987.355	2831.14
987.653	2784.36
987.951	2790.92
988.249	2805.83
988.547	2778.03
988.844	2760.63
989.142	2766.28
989.44	2700.3
989.737	2733.97
990.035	2709.79
990.332	2704.36
990.63	2710.01
990.927	2703.69
991.224	2670.47
991.521	2650.13
991.819	2623.69
992.116	2644.7
992.413	2631.37
992.71	2572.84
993.006	2594.76
993.303	2549.34
993.6	2566.29
993.897	2520.87
994.193	2565.84
994.49	2499.17
994.787	2521.54
995.083	2498.04
995.379	2467.31
995.676	2469.79
995.972	2444.26
996.268	2452.85
996.565	2412.62
996.861	2431.15
997.157	2425.73
997.453	2394.77
997.749	2378.27
998.044	2378.5
998.34	2376.91
998.636	2337.59
998.932	2364.94
999.227	2315.22
999.523	2329.68
999.818	2321.55
1000.114	2288.1
1000.409	2271.38
1000.704	2274.09
1001	2255.11
1001.295	2207.65
1001.59	2225.51
1001.885	2212.63
1002.18	2205.39
1002.475	2231.83
1002.77	2199.29
1003.065	2180.54
1003.359	2155.45
1003.654	2152.74
1003.949	2141.21
1004.243	2139.18
1004.538	2109.13
1004.832	2117.26
1005.127	2075.91
1005.421	2089.46
1005.715	2077.94
1006.009	2032.74
1006.304	2094.44
1006.598	2034.33
1006.892	2019.86
1007.186	1987.77
1007.48	2004.95
1007.773	1995.91
1008.067	1978.06
1008.361	1975.12
1008.655	1935.34
1008.948	1965.63
1009.242	1935.12
1009.535	1940.32
1009.829	1897.38
1010.122	1882.01
1010.415	1897.83
1010.708	1857.61
1011.001	1870.04
1011.295	1861.22
1011.588	1861.67
1011.881	1844.27
1012.173	1811.96
1012.466	1809.92
1012.759	1793.88
1013.052	1785.07
1013.344	1795.01
1013.637	1783.94
1013.93	1754.56
1014.222	1746.87
1014.514	1733.99
1014.807	1683.15
1015.099	1714.33
1015.391	1694.67
1015.683	1695.58
1015.976	1676.82
1016.268	1702.58
1016.56	1662.58
1016.851	1663.71
1017.143	1621.68
1017.435	1602.47
1017.727	1628.91
1018.018	1595.01
1018.31	1628.91
1018.602	1581
1018.893	1580.33
1019.185	1562.7
1019.476	1560.44
1019.767	1560.67
1020.058	1538.52
1020.35	1517.05
1020.641	1512.53
1020.932	1506.2
1021.223	1508.24
1021.514	1484.28
1021.804	1463.49
1022.095	1477.73
1022.386	1468.46
1022.677	1455.13
1022.967	1446.77
1023.258	1450.84
1023.548	1420.1
1023.839	1421.01
1024.129	1401.57
1024.419	1385.3
1024.709	1379.65
1025	1375.81
1025.29	1360.67
1025.58	1353.89
1025.87	1329.48
1026.16	1323.16
1026.449	1313.67
1026.739	1315.7
1027.029	1308.24
1027.319	1326.77
1027.608	1317.73
1027.898	1284.29
1028.187	1289.71
1028.477	1255.36
1028.766	1257.85
1029.055	1275.25
1029.344	1253.55
1029.634	1253.78
1029.923	1228.24
1030.212	1223.5
1030.501	1225.31
1030.79	1210.39
1031.078	1176.27
1031.367	1184.63
1031.656	1187.12
1031.945	1169.26
1032.233	1160.45
1032.522	1162.48
1032.81	1140.79
1033.099	1145.08
1033.387	1118.19
1033.675	1126.78
1033.963	1138.3
1034.251	1119.09
1034.54	1094.69
1034.828	1096.5
1035.116	1065.99
1035.403	1097.85
1035.691	1083.84
1035.979	1069.38
1036.267	1065.76
1036.554	1050.17
1036.842	1048.14
1037.129	1010.4
1037.417	1021.7
1037.704	1043.62
1037.992	1035.26
1038.279	1018.53
1038.566	1007.23
1038.853	1007.23
1039.14	1007.23
