Data from hue_34_FLMS001491_00029.txt Node
Date: Tue Feb 07 17:25:24 GMT 2017
User: dcchb
Spectrometer: FLMS00149
Trigger mode: 0
Integration Time (sec): 2.000000E-2
Scans to average: 10
Electric dark correction enabled: true
Nonlinearity correction enabled: false
Boxcar width: 0
XAxis mode: Wavelengths
Number of Pixels in Spectrum: 2048
>>>>>Begin Spectral Data<<<<<
341.393	0.96
341.776	0.96
342.16	0.96
342.543	-84.24
342.927	-68.19
343.31	-61.18
343.693	-70.68
344.077	-65.93
344.46	-44.01
344.843	-32.94
345.226	-21.86
345.61	-37.46
345.993	-12.15
346.376	-19.38
346.759	-11.69
347.142	7.74
347.525	35.99
347.908	58.59
348.291	75.31
348.674	92.71
349.057	106.95
349.44	115.08
349.823	145.82
350.206	164.57
350.588	208.19
350.971	218.36
351.354	239.37
351.737	243.21
352.119	242.08
352.502	258.35
352.884	272.82
353.267	281.18
353.65	287.05
354.032	290.67
354.414	307.17
354.797	314.17
355.179	313.49
355.562	312.14
355.944	332.7
356.326	349.88
356.709	319.6
357.091	331.8
357.473	347.39
357.855	322.53
358.238	344.45
358.62	341.29
359.002	355.98
359.384	359.37
359.766	334.06
360.148	322.76
360.53	341.74
360.912	331.57
361.294	342.19
361.676	338.13
362.057	336.32
362.439	339.93
362.821	306.49
363.203	330.67
363.584	325.47
363.966	333.38
364.348	322.08
364.729	328.64
365.111	313.72
365.493	311.69
365.874	305.13
366.256	303.33
366.637	309.43
367.019	302.42
367.4	299.48
367.781	293.16
368.163	323.44
368.544	311.46
368.925	326.6
369.306	306.94
369.688	320.27
370.069	318.01
370.45	306.49
370.831	303.1
371.212	324.79
371.593	294.29
371.974	296.77
372.355	307.39
372.736	313.04
373.117	334.28
373.498	316.43
373.879	331.12
374.26	315.3
374.641	309.43
375.021	318.92
375.402	318.92
375.783	311.01
376.163	329.77
376.544	313.72
376.925	338.13
377.305	341.97
377.686	311.91
378.066	326.38
378.447	338.35
378.827	320.27
379.208	326.15
379.588	318.47
379.968	334.74
380.349	328.41
380.729	315.98
381.109	329.99
381.489	343.78
381.87	327.05
382.25	327.96
382.63	348.3
383.01	353.04
383.39	335.19
383.77	327.05
384.15	330.44
384.53	344.23
384.91	358.92
385.29	350.56
385.67	346.49
386.049	349.2
386.429	370.89
386.809	357.34
387.189	337.67
387.568	347.17
387.948	356.43
388.328	339.26
388.707	348.3
389.087	372.93
389.466	356.21
389.846	368.63
390.225	375.19
390.605	351.23
390.984	347.39
391.363	373.38
391.743	385.36
392.122	386.26
392.501	374.51
392.881	385.36
393.26	380.16
393.639	375.64
394.018	366.37
394.397	372.93
394.776	367.73
395.155	372.7
395.534	377.45
395.913	375.64
396.292	379.48
396.671	390.1
397.05	377.45
397.429	386.94
397.808	380.61
398.186	387.62
398.565	377.22
398.944	396.2
399.323	370.89
399.701	380.39
400.08	413.6
400.458	405.7
400.837	406.83
401.215	388.97
401.594	390.55
401.972	377.9
402.351	388.07
402.729	400.27
403.107	396.43
403.486	393.94
403.864	401.63
404.242	403.21
404.62	422.87
404.999	420.61
405.377	416.09
405.755	419.48
406.133	402.08
406.511	438.46
406.889	395.07
407.267	436.2
407.645	417.9
408.023	424.23
408.401	460.16
408.779	411.57
409.156	442.98
409.534	433.04
409.912	448.86
410.29	443.66
410.667	443.66
411.045	436.66
411.422	445.92
411.8	455.41
412.178	451.34
412.555	465.81
412.933	472.59
413.31	484.79
413.687	484.56
414.065	475.07
414.442	477.56
414.819	468.74
415.197	468.97
415.574	480.95
415.951	485.92
416.328	466.03
416.705	480.27
417.082	487.5
417.46	499.48
417.837	514.62
418.214	486.37
418.591	509.87
418.967	495.86
419.344	512.36
419.721	502.87
420.098	521.4
420.475	521.62
420.852	516.88
421.228	506.03
421.605	528.63
421.982	537.44
422.358	539.25
422.735	527.27
423.111	555.3
423.488	549.19
423.864	539.25
424.241	536.31
424.617	532.92
424.994	551.45
425.37	539.25
425.746	549.87
426.123	566.14
426.499	556.88
426.875	553.04
427.251	559.59
427.627	590.78
428.003	598.91
428.379	569.53
428.756	599.36
429.132	581.06
429.507	586.03
429.883	579.93
430.259	615.63
430.635	617.44
431.011	585.58
431.387	603.43
431.763	607.27
432.138	602.07
432.514	623.09
432.89	625.35
433.265	620.38
433.641	641.4
434.016	645.92
434.392	666.25
434.767	694.05
435.143	646.59
435.518	670.32
435.894	670.1
436.269	684.78
436.644	678.68
437.02	700.38
437.395	689.76
437.77	705.57
438.145	707.61
438.52	703.77
438.895	715.07
439.271	711.9
439.646	723.88
440.021	715.07
440.395	708.74
440.77	723.2
441.145	738.79
441.52	737.66
441.895	729.53
442.27	748.06
442.645	737.66
443.019	759.81
443.394	743.09
443.769	757.78
444.143	762.3
444.518	767.49
444.892	762.52
445.267	759.58
445.641	767.72
446.016	783.31
446.39	814.27
446.764	793.48
447.139	791.67
447.513	792.35
447.887	790.54
448.262	796.19
448.636	798
449.01	797.32
449.384	836.64
449.758	846.36
450.132	825.57
450.506	834.84
450.88	826.93
451.254	837.32
451.628	874.38
452.002	873.25
452.376	852.92
452.75	885.68
453.123	878.23
453.497	884.78
453.871	873.25
454.244	904.21
454.618	887.04
454.992	934.04
455.365	923.87
455.739	945.12
456.112	947.83
456.486	958.9
456.859	964.1
457.232	975.62
457.606	954.61
457.979	978.79
458.352	990.31
458.725	1025.34
459.099	1005.91
459.472	1039.35
459.845	1059.92
460.218	1057.66
460.591	1045
460.964	1059.69
461.337	1069.63
461.71	1112.8
462.083	1112.8
462.456	1107.37
462.829	1105.34
463.201	1140.37
463.574	1132.23
463.947	1164.77
464.32	1195.96
464.692	1170.65
465.065	1196.64
465.438	1203.64
465.81	1244.77
466.183	1229.85
466.555	1252
466.928	1266.92
467.3	1263.98
467.672	1292.23
468.045	1324.32
468.417	1335.61
468.789	1354.15
469.161	1363.18
469.534	1399.34
469.906	1419.45
470.278	1440.47
470.65	1462.16
471.022	1495.16
471.394	1478.66
471.766	1550.98
472.138	1558.89
472.51	1572.67
472.882	1613.35
473.253	1633.01
473.625	1678.43
473.997	1693.35
474.369	1706.23
474.74	1724.98
475.112	1774.7
475.484	1821.03
475.855	1873.23
476.227	1876.84
476.598	1948.48
476.97	1975.37
477.341	2026.9
477.713	2063.96
478.084	2102.6
478.455	2160.23
478.827	2214.46
479.198	2263.95
479.569	2310.05
479.94	2383.27
480.311	2414.68
480.682	2463.95
481.053	2531.29
481.424	2584.17
481.795	2626.65
482.166	2700.32
482.537	2747.33
482.908	2834.11
483.279	2926.76
483.65	2982.8
484.021	3051.95
484.391	3124.27
484.762	3164.95
485.133	3233.19
485.503	3305.05
485.874	3432.73
486.244	3465.73
486.615	3554.99
486.985	3590.24
487.356	3764.25
487.726	3773.97
488.097	3868.88
488.467	3989.56
488.837	4059.61
489.207	4186.16
489.578	4213.05
489.948	4263.22
490.318	4377.12
490.688	4456.66
491.058	4543.89
491.428	4664.11
491.798	4751.34
492.168	4907.27
492.538	4930.32
492.908	5060.94
493.278	5135.51
493.648	5175.74
494.017	5299.8
494.387	5370.31
494.757	5382.74
495.126	5523.98
495.496	5584.09
495.866	5691.21
496.235	5732.79
496.605	5785.67
496.974	5902.95
497.344	5957.19
497.713	6092.55
498.082	6097.07
498.452	6206.45
498.821	6301.13
499.19	6288.93
499.559	6390.17
499.928	6451.19
500.298	6521.69
500.667	6609.83
501.036	6617.96
501.405	6715.59
501.774	6789.26
502.143	6880.78
502.512	6935.92
502.88	6944.73
503.249	7020.21
503.618	7088.01
503.987	7133.88
504.356	7236.25
504.724	7269.7
505.093	7334.55
505.462	7384.72
505.83	7421.1
506.199	7532.06
506.567	7614.32
506.936	7611.61
507.304	7682.11
507.672	7749.46
508.041	7829.68
508.409	7872.17
508.777	7939.51
509.145	8003.24
509.514	8034.87
509.882	8116.68
510.25	8175.21
510.618	8197.81
510.986	8223.34
511.354	8346.5
511.722	8431.93
512.09	8400.74
512.458	8421.76
512.826	8572.26
513.193	8564.58
513.561	8600.06
513.929	8701.97
514.297	8762.54
514.664	8789.66
515.032	8798.92
515.4	8937.9
515.767	8908.52
516.135	9050.21
516.502	8992.36
516.869	9164.11
517.237	9128.18
517.604	9168.85
517.972	9218.12
518.339	9293.37
518.706	9267.16
519.073	9379.02
519.44	9455.4
519.808	9463.99
520.175	9484.1
520.542	9590.76
520.909	9607.94
521.276	9632.35
521.643	9753.02
522.009	9733.81
522.376	9793.92
522.743	9877.31
523.11	10040.47
523.477	10063.29
523.843	10146.46
524.21	10236.85
524.577	10237.98
524.943	10308.49
525.31	10316.17
525.676	10461.7
526.043	10493.79
526.409	10569.72
526.776	10639.78
527.142	10645.43
527.508	10700.79
527.874	10780.34
528.241	10860.34
528.607	10846.78
528.973	10947.57
529.339	11019.65
529.705	11105.08
530.071	11134.23
530.437	11212.87
530.803	11275.01
531.169	11332.64
531.535	11244.28
531.901	11348.91
532.267	11416.71
532.632	11451.51
532.998	11500.77
533.364	11649.92
533.73	11732.4
534.095	11748.67
534.461	11844.49
534.826	11812.4
535.192	11904.83
535.557	12023.02
535.923	11938.95
536.288	11998.39
536.653	12103.92
537.019	12098.5
537.384	12135.33
537.749	12203.13
538.114	12210.13
538.479	12277.25
538.845	12256.23
539.21	12302.78
539.575	12417.81
539.94	12483.8
540.305	12606.05
540.67	12590.01
541.034	12585.26
541.399	12644.92
541.764	12703.45
542.129	12814.63
542.494	12786.16
542.858	12858.25
543.223	12885.14
543.587	13015.53
543.952	12925.14
544.316	13001.97
544.681	13041.3
545.045	13122.2
545.41	13162.87
545.774	13261.63
546.138	13260.05
546.503	13358.58
546.867	13303.21
547.231	13444.45
547.595	13492.36
547.959	13419.82
548.324	13498.68
548.688	13557.44
549.052	13592.02
549.416	13663.2
549.779	13697.55
550.143	13718.11
550.507	13793.14
550.871	13877.66
551.235	13871.1
551.599	13935.51
551.962	14038.78
552.326	14051.66
552.689	14113.81
553.053	14216.41
553.417	14045.56
553.78	14293.01
554.143	14256.63
554.507	14299.57
554.87	14342.5
555.234	14507.02
555.597	14394.48
555.96	14474.93
556.323	14497.53
556.686	14590.63
557.05	14566.23
557.413	14730.29
557.776	14770.97
558.139	14840.57
558.502	14918.53
558.865	14947.91
559.228	15107
559.59	15042.15
559.953	15092.54
560.316	15250.28
560.679	15281.91
561.041	15315.13
561.404	15429.71
561.767	15375.02
562.129	15316.94
562.492	15553.77
562.854	15525.07
563.217	15564.62
563.579	15579.08
563.941	15702.92
564.304	15756.7
564.666	15930.71
565.028	15894.1
565.39	15903.59
565.753	16028.34
566.115	16033.76
566.477	16104.49
566.839	16171.38
567.201	16250.02
567.563	16178.61
567.925	16393.07
568.287	16464.03
568.648	16428.55
569.01	16498.15
569.372	16620.86
569.734	16582.9
570.095	16662.9
570.457	16834.87
570.819	16872.61
571.18	16741.09
571.542	16943.57
571.903	17038.25
572.265	17142.88
572.626	17221.07
572.987	17321.41
573.349	17373.84
573.71	17500.84
574.071	17454.29
574.432	17571.57
574.794	17703.09
575.155	17763.66
575.516	17807.27
575.877	17977.44
576.238	18086.36
576.599	18225.34
576.96	18260.37
577.32	18278.22
577.681	18543.3
578.042	18627.82
578.403	18683.86
578.763	18865.32
579.124	18929.05
579.485	19154.81
579.845	19244.3
580.206	19228.7
580.566	19449.26
580.927	19612.2
581.287	19814
581.648	19970.83
582.008	20176.02
582.368	20246.76
582.728	20471.38
583.089	20583.02
583.449	20673.86
583.809	21078.15
584.169	21160.4
584.529	21386.39
584.889	21740.73
585.249	21658.24
585.609	21983.21
585.969	22298.45
586.329	22465
586.688	22564.89
587.048	22841.94
587.408	23058.66
587.768	23220.69
588.127	23476.28
588.487	23662.71
588.846	24005.08
589.206	24135.24
589.565	24333.65
589.925	24733.87
590.284	24948.55
590.643	25098.61
591.003	25455.66
591.362	25748.76
591.721	25993.05
592.08	26267.39
592.44	26459.47
592.799	26716.42
593.158	26855.4
593.517	26985.56
593.876	27407.47
594.235	27634.36
594.593	27845.88
594.952	28236.15
595.311	28262.82
595.67	28590.72
596.029	28970.14
596.387	29210.59
596.746	29462.78
597.104	29741.87
597.463	29920.63
597.822	30147.96
598.18	30266.83
598.538	30558.35
598.897	31007.83
599.255	30816.87
599.613	31517.65
599.972	31496.86
600.33	31779.56
600.688	31860.01
601.046	32068.59
601.404	32485.76
601.762	32535.47
602.12	32846.65
602.478	32984.95
602.836	33229.01
603.194	33204.16
603.552	33491.83
603.91	33636.46
604.268	33990.35
604.625	34042.55
604.983	34357.57
605.341	34385.37
605.698	34736.54
606.056	34933.83
606.413	35023.99
606.771	35298.56
607.128	35545.11
607.485	35493.36
607.843	35770.64
608.2	35980.35
608.557	36090.86
608.914	36272.78
609.272	36516.16
609.629	36782.82
609.986	36988.01
610.343	36893.1
610.7	37355.46
611.057	37345.29
611.414	37493.76
611.771	37628.9
612.127	37816.46
612.484	37832.73
612.841	38048.32
613.198	38094.2
613.554	38166.74
613.911	38444.02
614.267	38399.72
614.624	38611.47
614.98	38832.93
615.337	39099.14
615.693	39088.75
616.05	39073.61
616.406	39454.61
616.762	39418.91
617.118	39476.53
617.475	39478.11
617.831	39702.97
618.187	39771.44
618.543	39937.76
618.899	40168.94
619.255	40188.6
619.611	40203.07
619.967	40472.66
620.323	40505.88
620.678	40511.76
621.034	40471.76
621.39	40592.66
621.746	40633.56
622.101	40974.57
622.457	40802.83
622.812	40916.49
623.168	41159.65
623.523	41131.86
623.879	41302.93
624.234	41031.75
624.589	41302.47
624.945	41337.73
625.3	41513.32
625.655	41417.72
626.01	41459.31
626.365	41785.4
626.72	41654.33
627.075	41562.58
627.43	41578.4
627.785	41677.38
628.14	41665.63
628.495	41804.83
628.85	41665.63
629.205	41593.31
629.559	41979.52
629.914	41887.77
630.269	41876.7
630.623	41682.8
630.978	41813.19
631.332	41855.91
631.687	42057.48
632.041	41865.85
632.396	41960.54
632.75	41915.56
633.104	42019.74
633.459	41856.81
633.813	41873.98
634.167	41873.98
634.521	41953.76
634.875	41887.32
635.229	41902.46
635.583	41648.45
635.937	41836.02
636.291	41721.67
636.645	41755.57
636.999	41762.8
637.352	41777.94
637.706	41691.16
638.06	41780.88
638.413	41753.53
638.767	41626.31
639.121	41744.27
639.474	41627.66
639.828	41655.46
640.181	41596.7
640.534	41512.41
640.888	41433.09
641.241	41395.13
641.594	41567.1
641.947	41588.12
642.301	41462.47
642.654	41463.83
643.007	41519.19
643.36	41346.31
643.713	41314.22
644.066	41476.25
644.419	41297.28
644.771	41057.28
645.124	40689.16
645.477	40551.76
645.83	40493.68
646.182	40353.57
646.535	40281.03
646.888	40263.63
647.24	39972.34
647.593	40409.39
647.945	40187.47
648.298	40110.87
648.65	39946.8
649.002	39951.77
649.355	40025.44
649.707	40071.09
650.059	40204.88
650.411	40681.47
650.763	40738.42
651.115	41170.73
651.467	40946.55
651.819	40979.54
652.171	40936.38
652.523	40953.56
652.875	40883.05
653.227	40614.58
653.578	40899.55
653.93	40871.3
654.282	40800.11
654.633	40685.31
654.985	40806.67
655.337	40741.36
655.688	40700.46
656.039	40794.92
656.391	40682.83
656.742	40649.84
657.094	40732.77
657.445	40773.9
657.796	40714.24
658.147	40610.06
658.498	40578.42
658.849	40598.54
659.2	40558.09
659.551	40493.91
659.902	40699.1
660.253	40560.8
660.604	40601.02
660.955	40376.17
661.306	40598.31
661.656	40428.6
662.007	40518.77
662.358	40469.27
662.708	40575.94
663.059	40508.6
663.409	40194.25
663.76	40566.9
664.11	40341.14
664.461	40423.63
664.811	40482.61
665.161	40469.05
665.511	40521.48
665.862	40251.2
666.212	40429.28
666.562	40472.89
666.912	40324.65
667.262	40291.2
667.612	40388.15
667.962	40267.7
668.312	40159.68
668.662	40403.97
669.011	40373.01
669.361	40305.44
669.711	40252.56
670.06	40269.28
670.41	40214.82
670.76	40104.76
671.109	40348.83
671.459	40261.37
671.808	40160.81
672.157	40211.88
672.507	40003.98
672.856	39963.98
673.205	40045.11
673.554	40156.97
673.904	40143.41
674.253	40319.45
674.602	40053.69
674.951	39490.09
675.3	39342.3
675.649	40045.78
675.998	39926.46
676.346	39907.03
676.695	40127.59
677.044	39730.09
677.393	39844.21
677.741	39970.08
678.09	39888.27
678.438	39665.23
678.787	39756.07
679.135	39799.91
679.484	39544.55
679.832	39677.43
680.181	39560.6
680.529	39520.37
680.877	39551.33
681.225	39396.99
681.573	39687.37
681.922	39412.13
682.27	39364.45
682.618	39405.57
682.966	39228.18
683.314	39296.65
683.661	39093.27
684.009	38942.76
684.357	38909.99
684.705	38801.3
685.053	38958.81
685.4	38909.77
685.748	38703.45
686.095	38732.82
686.443	38528.31
686.79	38518.82
687.138	38637.01
687.485	38451.25
687.832	38377.35
688.18	38492.6
688.527	38223.01
688.874	38157.02
689.221	38157.7
689.568	38042.22
689.915	37914.31
690.262	37829.57
690.609	37760.65
690.956	37700.99
691.303	37744.83
691.65	37472.97
691.997	37488.79
692.344	37310.04
692.69	37264.16
693.037	37269.59
693.383	36946.43
693.73	37145.07
694.077	36900.56
694.423	36924.74
694.769	36801.12
695.116	36886.32
695.462	36745.53
695.808	36679.32
696.155	36733.78
696.501	36306.45
696.847	36360.46
697.193	36138.09
697.539	36304.41
697.885	36070.29
698.231	35980.35
698.577	35992.56
698.923	35815.16
699.269	35724.77
699.614	35555.73
699.96	35575.84
700.306	35418.56
700.651	35270.32
700.997	35141.73
701.342	35139.92
701.688	35044.11
702.033	34928.18
702.379	34999.14
702.724	34800.95
703.069	34923.43
703.415	34534.29
703.76	34534.29
704.105	34496.32
704.45	34527.51
704.795	34323.45
705.14	34168.65
705.485	34303.11
705.83	33988.99
706.175	34074.87
706.52	34013.17
706.865	33878.94
707.209	33874.87
707.554	33660.64
707.899	33833.74
708.243	33557.14
708.588	33463.58
708.932	33290.48
709.277	33409.35
709.621	33375.9
709.966	33130.94
710.31	33258.17
710.654	32908.12
710.998	33027.44
711.342	32986.08
711.687	32917.84
712.031	32815.24
712.375	32728.24
712.719	32685.07
713.063	32608.01
713.407	32751.51
713.75	32476.04
714.094	32533.44
714.438	32420.9
714.782	32361.69
715.125	32229.94
715.469	32193.79
715.812	32053.68
716.156	32003.06
716.499	31902.72
716.843	31952.44
717.186	31816.85
717.53	31922.15
717.873	31917.41
718.216	31809.62
718.559	31625.67
718.902	31467.93
719.246	31647.13
719.589	31425.22
719.932	31368.27
720.275	31393.36
720.617	31365.11
720.96	31235.39
721.303	31241.72
721.646	31288.95
721.989	30996.3
722.331	31178.22
722.674	31013.03
723.016	31166.69
723.359	31002.18
723.701	31106.81
724.044	30736.65
724.386	30560.38
724.729	30702.75
725.071	30694.62
725.413	30692.13
725.755	30662.98
726.097	30549.54
726.439	30397
726.782	30446.26
727.124	30560.16
727.465	30323.33
727.807	30345.02
728.149	30265.7
728.491	30197.45
728.833	30353.16
729.175	29967.63
729.516	29980.06
729.858	30016.44
730.199	29966.27
730.541	29883.34
730.882	29839.27
731.224	30003.34
731.565	29811.25
731.906	29820.29
732.248	29737.81
732.589	29558.83
732.93	29447.87
733.271	29531.26
733.612	29641.09
733.953	29592.72
734.294	29457.36
734.635	29451.94
734.976	29474.31
735.317	29238.84
735.658	29318.61
735.999	29247.65
736.339	29223.92
736.68	29160.42
737.021	29225.73
737.361	29066.64
737.702	29234.77
738.042	29089.24
738.383	29061.21
738.723	29085.17
739.063	28976.02
739.404	29000.2
739.744	28849.47
740.084	28799.75
740.424	28917.04
740.764	28793.65
741.104	28874.55
741.444	28731.05
741.784	28719.75
742.124	28624.84
742.464	28602.47
742.804	28528.12
743.143	28487.22
743.483	28591.85
743.823	28304.17
744.162	28353.89
744.502	28390.27
744.841	28159.09
745.181	28369.93
745.52	28141.92
745.86	28205.19
746.199	28137.85
746.538	28096.49
746.877	28023.5
747.216	28016.04
747.556	28037.96
747.895	28004.07
748.234	27968.13
748.573	27807.69
748.911	27838.87
749.25	27726.33
749.589	27616.51
749.928	27665.77
750.267	27746.45
750.605	27551.42
750.944	27443.85
751.283	27406.79
751.621	27505.55
751.96	27410.18
752.298	27307.59
752.636	27230.07
752.975	27291.99
753.313	27019.23
753.651	27337.19
753.989	27159.12
754.327	27023.3
754.666	26961.61
755.004	27023.53
755.342	26923.42
755.679	26955.96
756.017	26795.74
756.355	26694.5
756.693	26701.95
757.031	26717.32
757.368	26635.51
757.706	26491.56
758.044	26451.56
758.381	26426.71
758.719	26289.53
759.056	26458.12
759.394	26280.5
759.731	26100.16
760.068	26088.41
760.405	26070.33
760.743	25957.11
761.08	25946.72
761.417	25769.55
761.754	25805.25
762.091	25740.62
762.428	25550.8
762.765	25424.25
763.102	25508.09
763.438	25361.42
763.775	25219.73
764.112	25351.03
764.449	25302.44
764.785	25171.82
765.122	24958.95
765.458	24941.1
765.795	24893.64
766.131	24932.51
766.467	24775.45
766.804	24761.44
767.14	24611.61
767.476	24420.88
767.812	24390.15
768.148	24420.66
768.485	24348.79
768.821	24215.46
769.157	24194.9
769.492	23990.61
769.828	24067.45
770.164	23846.44
770.5	23718.3
770.836	23780.9
771.171	23603.5
771.507	23636.05
771.842	23330.52
772.178	23422.04
772.513	23370.74
772.849	23307.92
773.184	23184.98
773.519	23135.27
773.855	22981.15
774.19	22916.06
774.525	22832.22
774.86	22791.32
775.195	22753.36
775.53	22587.03
775.865	22492.12
776.2	22446.92
776.535	22212.81
776.87	22172.58
777.205	22142.3
777.539	22137.1
777.874	22098.46
778.209	21865.02
778.543	21881.97
778.878	21697.34
779.212	21763.1
779.547	21587.74
779.881	21653.5
780.215	21630.9
780.55	21540.73
780.884	21294.64
781.218	21252.15
781.552	21311.81
781.886	21161.08
782.22	21003.57
782.554	20937.13
782.888	20733.07
783.222	20796.57
783.556	20748.21
783.889	20617.59
784.223	20465.28
784.557	20501.44
784.89	20517.03
785.224	20332.4
785.557	20274.33
785.891	20246.3
786.224	20088.57
786.558	20126.53
786.891	19905.3
787.224	19828.91
787.557	19894.22
787.891	19802.25
788.224	19786.88
788.557	19743.49
788.89	19562.03
789.223	19707.56
789.556	19506.21
789.888	19529.26
790.221	19286.1
790.554	19226.44
790.887	19145.54
791.219	19226.22
791.552	19034.81
791.884	18955.72
792.217	18943.74
792.549	18860.35
792.882	18769.73
793.214	18680.92
793.546	18710.07
793.879	18479.8
794.211	18361.16
794.543	18562.28
794.875	18361.83
795.207	18376.3
795.539	18309.41
795.871	18345.34
796.203	18102.18
796.535	18085.46
796.867	17932.92
797.198	18025.35
797.53	17965.69
797.862	17932.01
798.193	17907.61
798.525	17796.2
798.856	17934.27
799.188	17624.68
799.519	17565.02
799.85	17474.63
800.182	17501.97
800.513	17395.76
800.844	17313.95
801.175	17489.77
801.506	17360.5
801.837	17302.43
802.168	17242.31
802.499	17143.11
802.83	17049.1
803.161	16932.94
803.491	17013.85
803.822	16943.34
804.153	16859.27
804.483	16858.6
804.814	16665.16
805.145	16690.01
805.475	16697.02
805.805	16631.26
806.136	16602.33
806.466	16534.99
806.796	16535.21
807.126	16354.65
807.457	16375.67
807.787	16383.35
808.117	16262.68
808.447	16267.43
808.777	16332.51
809.107	16252.74
809.436	16165.96
809.766	16181.1
810.096	16027.66
810.426	15942.69
810.755	16023.36
811.085	15922.12
811.414	15900.43
811.744	15823.82
812.073	15789.92
812.403	15705.86
812.732	15643.94
813.061	15656.37
813.39	15548.35
813.719	15563.94
814.049	15587.44
814.378	15410.5
814.707	15463.15
815.036	15430.39
815.365	15305.87
815.693	15191.52
816.022	15240.33
816.351	15198.98
816.68	15039.66
817.008	15178.64
817.337	14992.43
817.665	14922.83
817.994	15003.28
818.322	14966.44
818.651	14886.44
818.979	14864.3
819.307	14965.09
819.636	14749.05
819.964	14688.26
820.292	14906.33
820.62	14814.13
820.948	14674.25
821.276	14814.58
821.604	14779.55
821.932	14806.22
822.259	14807.8
822.587	14726
822.915	14612.33
823.243	14717.86
823.57	14669.95
823.898	14645.32
824.225	14615.72
824.553	14681.03
824.88	14689.39
825.207	14749.27
825.535	14686.68
825.862	14678.09
826.189	14660.46
826.516	14665.66
826.843	14697.75
827.17	14677.64
827.497	14725.32
827.824	14585.21
828.151	14686
828.478	14652.55
828.805	14662.27
829.131	14517.87
829.458	14599.67
829.785	14567.81
830.111	14590.18
830.438	14660.69
830.764	14614.59
831.09	14586.57
831.417	14609.62
831.743	14617.07
832.069	14565.55
832.395	14493.69
832.722	14616.17
833.048	14475.83
833.374	14559.22
833.7	14499.56
834.026	14417.76
834.351	14441.03
834.677	14428.38
835.003	14474.93
835.329	14460.24
835.654	14432.9
835.98	14341.37
836.306	14450.07
836.631	14408.94
836.956	14292.79
837.282	14310.41
837.607	14360.58
837.932	14273.13
838.258	14172.57
838.583	14240.81
838.908	14156.97
839.233	14213.47
839.558	14158.78
839.883	14103.41
840.208	14082.4
840.533	14075.39
840.858	14123.3
841.182	14080.59
841.507	14015.06
841.832	13969.86
842.156	13900.26
842.481	13825.23
842.805	13919.01
843.13	13807.6
843.454	13794.95
843.778	13835.85
844.103	13739.36
844.427	13717.89
844.751	13721.05
845.075	13650.32
845.399	13597.21
845.723	13487.39
846.047	13497.78
846.371	13377.78
846.695	13436.09
847.019	13290.55
847.343	13262.31
847.666	13161.29
847.99	13158.81
848.313	13128.07
848.637	13014.86
848.96	13001.3
849.284	12987.06
849.607	12922.88
849.931	12805.6
850.254	12734.86
850.577	12745.26
850.9	12643.11
851.223	12581.65
851.546	12573.74
851.869	12466.4
852.192	12537.35
852.515	12432.5
852.838	12359.73
853.161	12357.25
853.483	12266.4
853.806	12267.3
854.129	12283.58
854.451	12130.36
854.774	12176.23
855.096	12153.41
855.419	12099.4
855.741	12047.88
856.063	11987.54
856.385	12012.62
856.708	11916.58
857.03	11847.2
857.352	11868.9
857.674	11805.17
857.996	11852.4
858.318	11745.51
858.64	11703.25
858.961	11689.01
859.283	11740.54
859.605	11557.72
859.926	11653.76
860.248	11470.04
860.57	11483.6
860.891	11498.96
861.212	11431.85
861.534	11453.99
861.855	11403.6
862.176	11409.7
862.498	11470.94
862.819	11348.23
863.14	11296.71
863.461	11292.64
863.782	11251.29
864.103	11316.37
864.424	11177.84
864.745	11251.74
865.065	11152.76
865.386	11090.16
865.707	11075.92
866.027	11135.13
866.348	11025.53
866.668	11044.51
866.989	11013.33
867.309	10986.43
867.63	10951.86
867.95	10938.98
868.27	10905.08
868.59	10895.59
868.91	10851.07
869.23	10885.42
869.55	10851.75
869.87	10854.01
870.19	10866.89
870.51	10890.62
870.83	10910.5
871.15	10782.6
871.469	10787.34
871.789	10839.77
872.109	10743.95
872.428	10731.3
872.748	10732.66
873.067	10649.49
873.386	10722.26
873.706	10663.28
874.025	10604.98
874.344	10538.54
874.663	10627.35
874.982	10623.51
875.301	10526.56
875.62	10568.37
875.939	10556.62
876.258	10501.48
876.577	10448.82
876.896	10538.99
877.214	10454.7
877.533	10456.5
877.852	10367.47
878.17	10427.35
878.489	10387.13
878.807	10440.01
879.125	10304.87
879.444	10359.33
879.762	10351.2
880.08	10342.61
880.398	10216.51
880.716	10337.86
881.034	10209.51
881.352	10283.18
881.67	10240.24
881.988	10164.99
882.306	10187.81
882.624	10148.04
882.941	10120.24
883.259	10110.07
883.577	10044.09
883.894	10087.25
884.212	10071.2
884.529	10010.41
884.846	9998.89
885.164	9896.75
885.481	9949.17
885.798	9933.35
886.115	9948.04
886.432	9857.88
886.75	9862.4
887.067	9855.62
887.383	9783.08
887.7	9781.04
888.017	9769.29
888.334	9778.78
888.651	9723.87
888.967	9681.16
889.284	9609.97
889.6	9600.93
889.917	9535.85
890.233	9567.04
890.55	9545.34
890.866	9545.34
891.182	9457.66
891.498	9467.38
891.815	9482.75
892.131	9393.93
892.447	9424.89
892.763	9362.75
893.079	9397.78
893.395	9379.02
893.71	9270.55
894.026	9196.65
894.342	9211.57
894.657	9151.23
894.973	9169.31
895.289	9131.12
895.604	9113.94
895.92	9046.37
896.235	9000.5
896.55	8975.87
896.865	9036.66
897.181	8936.54
897.496	8937.45
897.811	8892.25
898.126	8879.6
898.441	8894.29
898.756	8793.5
899.071	8703.78
899.386	8743.1
899.7	8677.79
900.015	8692.71
900.33	8618.13
900.644	8573.62
900.959	8601.64
901.273	8550.34
901.588	8547.85
901.902	8514.18
902.216	8435.31
902.531	8440.51
902.845	8422.66
903.159	8326.84
903.473	8315.77
903.787	8287.3
904.101	8257.92
904.415	8294.3
904.729	8200.97
905.042	8193.51
905.356	8123.23
905.67	8103.35
905.984	8098.6
906.297	8067.19
906.611	8007.76
906.924	8021.99
907.237	7998.49
907.551	7984.93
907.864	7912.62
908.177	7862.22
908.491	7851.38
908.804	7846.18
909.117	7808.66
909.43	7734.54
909.743	7706.07
910.056	7680.98
910.368	7597.37
910.681	7672.62
910.994	7586.3
911.307	7595.79
911.619	7503.36
911.932	7531.16
912.244	7427.66
912.557	7455.45
912.869	7410.26
913.181	7369.58
913.494	7357.15
913.806	7319.19
914.118	7287.77
914.43	7193.99
914.742	7193.77
915.054	7194.9
915.366	7217.95
915.678	7106.08
915.99	7086.42
916.302	7058.4
916.613	7054.11
916.925	6993.32
917.236	7006.43
917.548	6955.13
917.859	6903.38
918.171	6922.81
918.482	6879.88
918.794	6807.34
919.105	6824.51
919.416	6781.12
919.727	6797.17
920.038	6750.16
920.349	6700.9
920.66	6699.09
920.971	6664.06
921.282	6633.33
921.593	6566.66
921.903	6563.5
922.214	6523.95
922.525	6528.92
922.835	6467.46
923.146	6471.98
923.456	6444.41
923.767	6392.88
924.077	6406.89
924.387	6312.43
924.697	6289.38
925.008	6296.16
925.318	6299.55
925.628	6257.07
925.938	6233.56
926.248	6105.21
926.558	6110.63
926.867	6135.49
927.177	6123.74
927.487	6103.62
927.796	6023.4
928.106	6001.71
928.416	5995.15
928.725	6026.56
929.034	5922.84
929.344	5994.48
929.653	5958.77
929.962	5853.69
930.271	5845.1
930.581	5807.59
930.89	5790.41
931.199	5779.57
931.508	5735.27
931.817	5749.28
932.125	5707.48
932.434	5715.61
932.743	5666.35
933.051	5620.02
933.36	5628.16
933.669	5559.01
933.977	5561.72
934.286	5565.11
934.594	5501.61
934.902	5465
935.21	5488.95
935.519	5483.98
935.827	5427.26
936.135	5413.25
936.443	5392.23
936.751	5334.38
937.059	5344.55
937.367	5325.11
937.674	5298.22
937.982	5284.66
938.29	5222.74
938.597	5225.46
938.905	5183.2
939.213	5114.05
939.52	5118.57
939.827	5112.69
940.135	5104.56
940.442	5132.12
940.749	5044.67
941.056	5078.34
941.363	5029.75
941.67	4986.82
941.977	4937.78
942.284	4961.96
942.591	4933.26
942.898	4929.19
943.205	4877.44
943.511	4880.83
943.818	4897.78
944.125	4828.4
944.431	4793.38
944.738	4780.95
945.044	4729.88
945.35	4698.01
945.657	4679.71
945.963	4694.62
946.269	4672.48
946.575	4654.17
946.881	4648.3
947.187	4608.97
947.493	4594.74
947.799	4573.27
948.105	4568.98
948.41	4530.78
948.716	4529.43
949.022	4486.49
949.327	4481.75
949.633	4470.67
949.938	4468.87
950.244	4485.14
950.549	4386.38
950.854	4394.07
951.16	4350.22
951.465	4406.27
951.77	4308.87
952.075	4262.77
952.38	4305.25
952.685	4291.7
952.99	4251.24
953.294	4201.98
953.599	4205.6
953.904	4178.48
954.209	4145.48
954.513	4095.09
954.818	4144.58
955.122	4150
955.426	4133.06
955.731	4085.82
956.035	4055.09
956.339	4062.1
956.643	4053.96
956.948	4024.36
957.252	3985.49
957.556	3980.06
957.86	3941.2
958.163	3971.25
958.467	3906.39
958.771	3909.11
959.075	3905.04
959.378	3879.05
959.682	3892.84
959.985	3865.72
960.289	3855.77
960.592	3813.97
960.896	3781.88
961.199	3780.3
961.502	3793.63
961.805	3772.39
962.108	3778.71
962.411	3708.21
962.714	3719.51
963.017	3680.19
963.32	3715.67
963.623	3673.86
963.926	3684.48
964.228	3641.54
964.531	3597.02
964.833	3605.84
965.136	3593.41
965.438	3539.62
965.741	3524.03
966.043	3504.15
966.345	3517.93
966.648	3469.57
966.95	3511.83
967.252	3491.94
967.554	3455.78
967.856	3399.52
968.158	3424.37
968.46	3399.97
968.761	3399.74
969.063	3405.84
969.365	3389.57
969.666	3338.5
969.968	3287.2
970.269	3320.42
970.571	3323.81
970.872	3282.46
971.174	3266.19
971.475	3263.02
971.776	3221.67
972.077	3258.95
972.378	3200.2
972.679	3228.9
972.98	3173.08
973.281	3195
973.582	3172.18
973.883	3157.04
974.183	3110.03
974.484	3118.17
974.785	3134.89
975.085	3137.6
975.386	3065.29
975.686	3063.7
975.986	3032.52
976.287	3025.97
976.587	3002.92
976.887	2995.91
977.187	3052.63
977.487	3002.01
977.787	2963.82
978.087	2980.32
978.387	2958.62
978.687	2915.46
978.987	2915.91
979.286	2891.96
979.586	2881.11
979.885	2864.16
980.185	2881.34
980.484	2844.28
980.784	2858.96
981.083	2802.24
981.382	2810.15
981.682	2796.59
981.981	2765.86
982.28	2764.73
982.579	2755.69
982.878	2760.44
983.177	2739.87
983.475	2773.09
983.774	2738.74
984.073	2712.08
984.372	2679.99
984.67	2689.03
984.969	2648.35
985.267	2683.15
985.566	2695.58
985.864	2626.43
986.162	2620.78
986.461	2599.76
986.759	2611.51
987.057	2581.68
987.355	2587.56
987.653	2594.11
987.951	2579.88
988.249	2593.66
988.547	2547.33
988.844	2521.12
989.142	2510.72
989.44	2506.88
989.737	2497.39
990.035	2464.62
990.332	2452.2
990.63	2445.19
990.927	2424.63
991.224	2444.96
991.521	2435.92
991.819	2406.09
992.116	2391.41
992.413	2393.21
992.71	2367.68
993.006	2383.04
993.303	2359.54
993.6	2372.88
993.897	2314.35
994.193	2301.01
994.49	2284.52
994.787	2307.79
995.083	2276.15
995.379	2271.41
995.676	2263.5
995.972	2247.68
996.268	2247.23
996.565	2213.56
996.861	2242.03
997.157	2221.02
997.453	2205.2
997.749	2195.93
998.044	2178.08
998.34	2194.12
998.636	2175.37
998.932	2129.72
999.227	2133.56
999.523	2122.03
999.818	2114.35
1000.114	2107.12
1000.409	2122.26
1000.704	2066.89
1001	2050.17
1001.295	2048.82
1001.59	2030.96
1001.885	2015.6
1002.18	2063.05
1002.475	2009.72
1002.77	1989.16
1003.065	2032.09
1003.359	1987.8
1003.654	1984.41
1003.949	1941.25
1004.243	1956.84
1004.538	1957.29
1004.832	1919.1
1005.127	1930.85
1005.421	1937.41
1005.715	1914.36
1006.009	1891.31
1006.304	1856.96
1006.598	1888.82
1006.892	1884.75
1007.186	1874.13
1007.48	1839.33
1007.773	1806.11
1008.067	1822.38
1008.361	1805.21
1008.655	1805.21
1008.948	1764.76
1009.242	1785.32
1009.535	1772.21
1009.829	1765.89
1010.122	1741.03
1010.415	1719.56
1010.708	1730.63
1011.001	1721.37
1011.295	1720.01
1011.588	1736.06
1011.881	1679.33
1012.173	1711.2
1012.466	1678.2
1012.759	1682.05
1013.052	1657.41
1013.344	1614.93
1013.637	1647.24
1013.93	1619
1014.222	1627.81
1014.514	1598.66
1014.807	1624.42
1015.099	1576.74
1015.391	1573.8
1015.683	1550.52
1015.976	1553.69
1016.268	1568.83
1016.56	1531.09
1016.851	1544.42
1017.143	1533.35
1017.435	1507.81
1017.727	1503.97
1018.018	1475.05
1018.31	1495.84
1018.602	1474.37
1018.893	1489.06
1019.185	1451.54
1019.476	1453.8
1019.767	1443.41
1020.058	1448.83
1020.35	1441.6
1020.641	1404.77
1020.932	1399.79
1021.223	1389.62
1021.514	1396.86
1021.804	1379.23
1022.095	1356.86
1022.386	1365.67
1022.677	1334.48
1022.967	1328.16
1023.258	1314.37
1023.548	1311.66
1023.839	1311.21
1024.129	1270.08
1024.419	1287.48
1024.709	1280.02
1025	1279.12
1025.29	1250.87
1025.58	1249.06
1025.87	1228.5
1026.16	1249.97
1026.449	1213.81
1026.739	1213.36
1027.029	1233.92
1027.319	1200.93
1027.608	1204.32
1027.898	1181.49
1028.187	1195.51
1028.477	1182.4
1028.766	1168.16
1029.055	1160.03
1029.344	1174.26
1029.634	1160.7
1029.923	1162.51
1030.212	1143.98
1030.501	1096.75
1030.79	1100.59
1031.078	1098.11
1031.367	1101.72
1031.656	1116.19
1031.945	1096.07
1032.233	1093.59
1032.522	1072.8
1032.81	1044.32
1033.099	1042.29
1033.387	1070.76
1033.675	1074.83
1033.963	1045.23
1034.251	1038.9
1034.54	1038.9
1034.828	1023.31
1035.116	1008.84
1035.403	1017.88
1035.691	989.63
1035.979	1003.87
1036.267	997.54
1036.554	985.12
1036.842	999.8
1037.129	982.86
1037.417	980.37
1037.704	966.58
1037.992	980.37
1038.279	956.42
1038.566	940.82
1038.853	940.82
1039.14	940.82
