Data from hue_50_FLMS001491_88.txt Node
Date: Mon Feb 06 15:11:10 GMT 2017
User: dcchb
Spectrometer: FLMS00149
Trigger mode: 0
Integration Time (sec): 2.000000E-2
Scans to average: 10
Electric dark correction enabled: true
Nonlinearity correction enabled: false
Boxcar width: 0
XAxis mode: Wavelengths
Number of Pixels in Spectrum: 2048
>>>>>Begin Spectral Data<<<<<
341.393	-12.4
341.776	-12.4
342.16	-12.4
342.543	-42.23
342.927	-80.65
343.31	-48.11
343.693	-66.86
344.077	-68.22
344.46	-67.31
344.843	-58.28
345.226	-43.81
345.61	-16.02
345.993	-28.22
346.376	-5.62
346.759	-12.17
347.142	21.5
347.525	52.46
347.908	87.26
348.291	63.3
348.674	99.91
349.057	90.2
349.44	126.13
349.823	138.33
350.206	158.44
350.588	184.66
350.971	199.8
351.354	236.41
351.737	266.69
352.119	264.2
352.502	254.71
352.884	305.78
353.267	287.48
353.65	317.76
354.032	305.33
354.414	310.75
354.797	307.59
355.179	332
355.562	319.57
355.944	337.87
356.326	330.87
356.709	338.78
357.091	339.45
357.473	341.04
357.855	345.78
358.238	357.53
358.62	370.19
359.002	340.13
359.384	353.01
359.766	337.87
360.148	324.77
360.53	352.79
360.912	327.93
361.294	330.64
361.676	328.38
362.057	324.31
362.439	337.65
362.821	344.65
363.203	344.2
363.584	317.76
363.966	333.8
364.348	334.93
364.729	313.47
365.111	313.47
365.493	341.04
365.874	335.16
366.256	307.14
366.637	308.72
367.019	309.85
367.4	327.03
367.781	324.09
368.163	336.06
368.544	311.88
368.925	311.66
369.306	329.51
369.688	305.1
370.069	307.82
370.45	301.49
370.831	313.01
371.212	311.43
371.593	335.84
371.974	315.5
372.355	321.83
372.736	313.92
373.117	317.99
373.498	329.06
373.879	300.81
374.26	307.82
374.641	312.34
375.021	320.25
375.402	334.48
375.783	331.32
376.163	318.66
376.544	310.08
376.925	329.29
377.305	321.6
377.686	343.75
378.066	327.7
378.447	337.42
378.827	316.86
379.208	336.06
379.588	352.11
379.968	331.32
380.349	336.97
380.729	357.08
381.109	323.41
381.489	354.14
381.87	334.93
382.25	329.06
382.63	337.42
383.01	344.88
383.39	326.8
383.77	337.65
384.15	338.1
384.53	349.62
384.91	340.36
385.29	328.38
385.67	354.6
386.049	351.43
386.429	369.96
386.809	345.78
387.189	357.31
387.568	364.09
387.948	353.69
388.328	349.85
388.707	344.88
389.087	368.83
389.466	367.7
389.846	380.58
390.225	355.73
390.605	357.76
390.984	381.04
391.363	357.53
391.743	360.7
392.122	357.76
392.501	346.69
392.881	386.23
393.26	381.04
393.639	371.32
394.018	362.96
394.397	395.27
394.776	385.1
395.155	407.93
395.534	363.41
395.913	379.23
396.292	377.65
396.671	374.48
397.05	362.28
397.429	376.29
397.808	379.45
398.186	374.71
398.565	382.39
398.944	385.1
399.323	397.31
399.701	402.28
400.08	392.11
400.458	394.37
400.837	380.58
401.215	387.59
401.594	416.51
401.972	402.05
402.351	411.09
402.729	402.05
403.107	398.44
403.486	399.34
403.864	430.07
404.242	400.92
404.62	417.19
404.999	408.83
405.377	417.87
405.755	389.17
406.133	436.63
406.511	421.49
406.889	417.87
407.267	418.77
407.645	431.66
408.023	414.48
408.401	441.82
408.779	437.76
409.156	431.66
409.534	449.73
409.912	433.46
410.29	440.02
410.667	442.95
411.045	444.76
411.422	434.37
411.8	455.61
412.178	484.08
412.555	450.86
412.933	459
413.31	482.28
413.687	481.6
414.065	479.56
414.442	477.98
414.819	478.66
415.197	478.89
415.574	487.02
415.951	473.91
416.328	482.05
416.705	478.21
417.082	503.29
417.46	493.12
417.837	499.22
418.214	494.7
418.591	482.05
418.967	483.18
419.344	503.97
419.721	506.91
420.098	489.51
420.475	503.52
420.852	504.65
421.228	493.8
421.605	535.61
421.982	512.56
422.358	525.44
422.735	550.75
423.111	529.51
423.488	552.1
423.864	550.52
424.241	574.25
424.617	550.52
424.994	559.34
425.37	572.22
425.746	545.78
426.123	548.04
426.499	560.92
426.875	553.01
427.251	552.1
427.627	551.2
428.003	574.02
428.379	563.18
428.756	594.36
429.132	597.53
429.507	615.38
429.883	602.5
430.259	604.98
430.635	604.76
431.011	621.25
431.387	618.54
431.763	620.12
432.138	640.69
432.514	625.1
432.89	636.62
433.265	641.59
433.641	660.12
434.016	671.42
434.392	654.02
434.767	667.58
435.143	651.76
435.518	650.41
435.894	679.11
436.269	696.73
436.644	694.47
437.02	681.37
437.395	706
437.77	693.12
438.145	706.45
438.52	712.1
438.895	737.41
439.271	705.32
439.646	724.98
440.021	711.42
440.395	745.32
440.77	724.3
441.145	715.72
441.52	767.47
441.895	735.6
442.27	766.11
442.645	742.83
443.019	766.79
443.394	784.41
443.769	762.95
444.143	748.71
444.518	785.77
444.892	787.13
445.267	796.39
445.641	797.52
446.016	780.12
446.39	805.66
446.764	787.13
447.139	801.82
447.513	807.92
447.887	803.4
448.262	817.41
448.636	807.01
449.01	783.96
449.384	840.46
449.758	847.01
450.132	820.35
450.506	840.46
450.88	846.79
451.254	847.01
451.628	873.9
452.002	881.59
452.376	881.36
452.75	880.46
453.123	896.05
453.497	881.59
453.871	913.9
454.244	913.68
454.618	945.77
454.992	951.87
455.365	937.86
455.739	959.1
456.112	983.05
456.486	970.62
456.859	965.43
457.232	999.32
457.606	1006.1
457.979	992.32
458.352	1014.92
458.725	1013.33
459.099	1028.48
459.472	1059.44
459.845	1075.25
460.218	1063.96
460.591	1096.95
460.964	1070.51
461.337	1103.28
461.71	1094.01
462.083	1132.2
462.456	1145.31
462.829	1150.28
463.201	1156.61
463.574	1156.38
463.947	1175.36
464.32	1190.05
464.692	1195.7
465.065	1235.7
465.438	1224.4
465.81	1265.76
466.183	1291.52
466.555	1317.73
466.928	1312.99
467.3	1335.13
467.672	1336.26
468.045	1385.75
468.417	1364.29
468.789	1414.23
469.161	1429.82
469.534	1460.33
469.906	1491.74
470.278	1492.64
470.65	1493.77
471.022	1543.72
471.394	1572.87
471.766	1602.92
472.138	1644.05
472.51	1696.25
472.882	1698.97
473.253	1718.63
473.625	1754.56
473.997	1821.45
474.369	1853.76
474.74	1868.23
475.112	1907.55
475.484	1947.77
475.855	1997.26
476.227	2053.31
476.598	2102.8
476.97	2158.84
477.341	2248.33
477.713	2246.07
478.084	2291.72
478.455	2374.2
478.827	2447.42
479.198	2540.53
479.569	2553.41
479.94	2651.03
480.311	2693.29
480.682	2774.19
481.053	2885.15
481.424	2974.87
481.795	3037.24
482.166	3097.8
482.537	3206.27
482.908	3296.44
483.279	3379.6
483.65	3489.2
484.021	3578.92
484.391	3631.8
484.762	3737.33
485.133	3821.62
485.503	3950.88
485.874	4101.62
486.244	4206.02
486.615	4329.18
486.985	4393.81
487.356	4561.04
487.726	4625.67
488.097	4793.8
488.467	4876.74
488.837	5044.64
489.207	5175.03
489.578	5280.79
489.948	5457.06
490.318	5571.63
490.688	5704.74
491.058	5859.08
491.428	5987.89
491.798	6106.08
492.168	6272.86
492.538	6357.38
492.908	6492.51
493.278	6706.29
493.648	6775.9
494.017	6922.78
494.387	7030.13
494.757	7234.64
495.126	7364.58
495.496	7485.71
495.866	7597.12
496.235	7770.22
496.605	7900.16
496.974	7959.59
497.344	8199.36
497.713	8266.93
498.082	8428.51
498.452	8568.16
498.821	8709.86
499.19	8791.89
499.559	8949.85
499.928	9125.66
500.298	9188.26
500.667	9443.17
501.036	9378.31
501.405	9556.84
501.774	9663.95
502.143	9792.31
502.512	9862.14
502.88	10047.22
503.249	10128.35
503.618	10341.9
503.987	10319.76
504.356	10491.73
504.724	10639.3
505.093	10701.22
505.462	10846.52
505.83	10944.15
506.199	11025.95
506.567	11216.91
506.936	11276.12
507.304	11494.87
507.672	11523.12
508.041	11649.44
508.409	11815.76
508.777	11922.65
509.145	12019.15
509.514	12020.28
509.882	12318.12
510.25	12260.95
510.618	12490.77
510.986	12594.05
511.354	12714.95
511.722	12746.13
512.09	12939.35
512.458	12996.75
512.826	13084.88
513.193	13171.66
513.561	13319.45
513.929	13387.47
514.297	13573.23
514.664	13658.2
515.032	13782.04
515.4	13861.13
515.767	13904.07
516.135	14019.55
516.502	13983.39
516.869	14343.15
517.237	14410.5
517.604	14314
517.972	14647.33
518.339	14662.69
518.706	14779.75
519.073	14813.88
519.44	14968.45
519.808	15115.56
520.175	15082.12
520.542	15282.11
520.909	15421.77
521.276	15421.54
521.643	15601.43
522.009	15776.56
522.376	15913.06
522.743	15940.17
523.11	16113.5
523.477	16274.4
523.843	16364.34
524.21	16542.19
524.577	16626.71
524.943	16748.74
525.31	16918
525.676	17009.98
526.043	17035.96
526.409	17234.38
526.776	17369.29
527.142	17377.88
527.508	17513.92
527.874	17757.75
528.241	17808.15
528.607	17821.93
528.973	18014.24
529.339	18100.34
529.705	18154.35
530.071	18405.87
530.437	18443.16
530.803	18565.64
531.169	18628.01
531.535	18642.02
531.901	18706.2
532.267	18855.35
532.632	19020.77
532.998	18972.86
533.364	19253.08
533.73	19253.76
534.095	19361.1
534.461	19448.56
534.826	19734.2
535.192	19605.16
535.557	19755.67
535.923	19813.52
536.288	19755.89
536.653	20016
537.019	19884.48
537.384	20056.22
537.749	20260.51
538.114	20218.48
538.479	20218.93
538.845	20382.32
539.21	20401.98
539.575	20553.16
539.94	20576.21
540.305	20672.03
540.67	20639.49
541.034	20804
541.399	20956.31
541.764	20944.34
542.129	21100.94
542.494	21154.95
542.858	21084.67
543.223	21180.04
543.587	21413.48
543.952	21404.44
544.316	21554.49
544.681	21509.52
545.045	21581.83
545.41	21775.5
545.774	21820.92
546.138	21870.19
546.503	21881.03
546.867	21779.12
547.231	22080.8
547.595	22048.04
547.959	22228.6
548.324	22246
548.688	22346.56
549.052	22422.04
549.416	22583.84
549.779	22510.4
550.143	22510.62
550.507	22754.46
550.871	22762.59
551.235	22830.61
551.599	23010.5
551.962	23023.83
552.326	23096.14
552.689	23086.65
553.053	23098.86
553.417	23259.98
553.78	23528.9
554.143	23363.03
554.507	23399.86
554.87	23609.58
555.234	23824.49
555.597	23653.42
555.96	23928.66
556.323	23968.89
556.686	24063.8
557.05	24121.43
557.413	24239.62
557.776	24304.7
558.139	24395.77
558.502	24468.31
558.865	24511.02
559.228	24732.03
559.59	24809.55
559.953	24887.51
560.316	25187.84
560.679	25113.72
561.041	25296.54
561.404	25379.47
561.767	25529.53
562.129	25373.15
562.492	25680.48
562.854	25785.34
563.217	25727.26
563.579	25965
563.941	26050.42
564.304	26074.6
564.666	26272.33
565.028	26355.27
565.39	26316.62
565.753	26537.64
566.115	26495.6
566.477	26588.71
566.839	26812.66
567.201	26920.45
567.563	26945.76
567.925	27127.9
568.287	27194.57
568.648	27191.18
569.01	27374.22
569.372	27427.1
569.734	27504.84
570.095	27690.37
570.457	27851.95
570.819	27941.44
571.18	28022.12
571.542	28181.21
571.903	28117.03
572.265	28313.18
572.626	28352.28
572.987	28512.5
573.349	28638.15
573.71	28610.35
574.071	28800.85
574.432	28913.62
574.794	29098.7
575.155	29112.48
575.516	29129.21
575.877	29242.88
576.238	29403.77
576.599	29474.06
576.96	29494.39
577.32	29708.4
577.681	29744.33
578.042	29845.35
578.403	29980.26
578.763	30116.75
579.124	30025.91
579.485	30279.68
579.845	30507.47
580.206	30500.47
580.566	30588.83
580.927	30718.77
581.287	30905.88
581.648	30908.14
582.008	31156.72
582.368	31191.75
582.728	31279.88
583.089	31363.05
583.449	31491.18
583.809	31638.07
584.169	31682.13
584.529	31697.27
584.889	32153.53
585.249	31989.7
585.609	32071.05
585.969	32294.55
586.329	32440.53
586.688	32502.22
587.048	32758.71
587.408	32817.92
587.768	32861.76
588.127	32882.33
588.487	32932.5
588.846	33190.79
589.206	33082.1
589.565	33356.67
589.925	33729.31
590.284	33523.44
590.643	33717.33
591.003	33924.33
591.362	34131.79
591.721	34050.43
592.08	34185.34
592.44	34378.79
592.799	34598.67
593.158	34563.41
593.517	34669.85
593.876	34850.64
594.235	34859.45
594.593	35008.37
594.952	35248.37
595.311	35168.82
595.67	35315.48
596.029	35564.06
596.387	35808.13
596.746	35811.97
597.104	35877.5
597.463	35939.65
597.822	36141.68
598.18	36113.2
598.538	36156.37
598.897	36450.82
599.255	36215.12
599.613	36809
599.972	36796.12
600.33	36869.34
600.688	36727.65
601.046	36971.94
601.404	37194.98
601.762	37131.48
602.12	37246.51
602.478	37529.89
602.836	37531.7
603.194	37327.18
603.552	37639.49
603.91	37543.22
604.268	37739.37
604.625	37861.86
604.983	38009.2
605.341	37933.49
605.698	38046.71
606.056	38315.63
606.413	38279.93
606.771	38465.91
607.128	38535.29
607.485	38342.52
607.843	38429.75
608.2	38754.04
608.557	38875.39
608.914	38748.84
609.272	39021.15
609.629	39024.31
609.986	39317.64
610.343	39173.24
610.7	39602.38
611.057	39387.24
611.414	39514.24
611.771	39554.92
612.127	39669.04
612.484	39674.01
612.841	39891.41
613.198	39800.79
613.554	39931.63
613.911	40225.86
614.267	40292.98
614.624	40183.15
614.98	40324.84
615.337	40340.44
615.693	40453.65
616.05	40348.8
616.406	40723.93
616.762	40538.17
617.118	40485.74
617.475	40636.93
617.831	40797.37
618.187	40994.43
618.543	40833.76
618.899	41164.14
619.255	41204.59
619.611	41170.02
619.967	41293.18
620.323	41364.59
620.678	41091.6
621.034	41280.52
621.39	41308.77
621.746	41308.77
622.101	41659.95
622.457	41337.92
622.812	41623.79
623.168	41623.79
623.523	41682.77
623.879	41812.26
624.234	41645.26
624.589	41739.5
624.945	41708.76
625.3	41792.6
625.655	41689.55
626.01	41958.02
626.365	42003.67
626.72	41821.98
627.075	41926.61
627.43	41932.03
627.785	41823.79
628.14	41887.29
628.495	41910.11
628.85	41843.45
629.205	41873.05
629.559	41975.65
629.914	41840.51
630.269	41954.41
630.623	41876.89
630.978	41678.93
631.332	41844.35
631.687	42145.81
632.041	41900.62
632.396	42042.09
632.75	41929.32
633.104	41877.35
633.459	41702.66
633.813	41812.94
634.167	41810.91
634.521	41737.69
634.875	41821.53
635.229	41845.48
635.583	41652.72
635.937	41610.23
636.291	41654.3
636.645	41586.51
636.999	41422.44
637.352	41743.56
637.706	41546.28
638.06	41621.53
638.413	41525.49
638.767	41381.31
639.121	41468.09
639.474	41409.56
639.828	41301.77
640.181	41397.58
640.534	41532.95
640.888	41345.16
641.241	40986.97
641.594	41280.98
641.947	41325.95
642.301	41116.91
642.654	41156.91
643.007	41058.61
643.36	41155.56
643.713	41117.82
644.066	41192.17
644.419	40934.77
644.771	40738.17
645.124	40462.02
645.477	40280.55
645.83	40180.89
646.182	39942.71
646.535	39898.19
646.888	39965.31
647.24	39714.46
647.593	39960.11
647.945	39946.55
648.298	39740.9
648.65	39605.77
649.002	39658.42
649.355	39749.27
649.707	39725.76
650.059	39859.09
650.411	40266.77
650.763	40255.92
651.115	40845.73
651.467	40487.33
651.819	40636.02
652.171	40495.91
652.523	40502.47
652.875	40353.09
653.227	40151.51
653.578	40509.7
653.93	40426.99
654.282	40251.17
654.633	40133.66
654.985	40252.98
655.337	40228.12
655.688	40179.54
656.039	40307.44
656.391	40076.71
656.742	40042.14
657.094	40039.43
657.445	40193.55
657.796	40081.69
658.147	39928.92
658.498	40070.39
658.849	40134.11
659.2	39996.72
659.551	39802.37
659.902	40134.11
660.253	39943.16
660.604	40004.4
660.955	39804.18
661.306	40068.13
661.656	39893.44
662.007	40050.73
662.358	39941.12
662.708	39956.49
663.059	39914.46
663.409	39701.81
663.76	40075.13
664.11	40134.57
664.461	40017.51
664.811	39873.78
665.161	39874.91
665.511	39790.39
665.862	39934.57
666.212	39973.44
666.562	39928.47
666.912	39887.34
667.262	39861.58
667.612	39713.33
667.962	39836.04
668.312	39773.45
668.662	40140.44
669.011	39894.8
669.361	39807.57
669.711	39605.09
670.06	39616.16
670.41	39581.13
670.76	39495.71
671.109	39713.56
671.459	39583.39
671.808	39532.55
672.157	39551.3
672.507	39276.96
672.856	39312.67
673.205	39446
673.554	39617.29
673.904	39349.5
674.253	39612.32
674.602	39362.84
674.951	38885.11
675.3	38617.32
675.649	39314.02
675.998	39386.56
676.346	39403.74
676.695	39456.17
677.044	39200.13
677.393	39326.23
677.741	39200.13
678.09	39215.72
678.438	39135.27
678.787	39183.86
679.135	39030.87
679.484	38919
679.832	39040.81
680.181	38870.42
680.529	38934.82
680.877	38804.88
681.225	38818.89
681.573	39031.09
681.922	38568.05
682.27	38582.52
682.618	38700.71
682.966	38509.52
683.314	38625
683.661	38487.83
684.009	38380.94
684.357	38259.14
684.705	38213.49
685.053	38317.44
685.4	38147.95
685.748	38064.79
686.095	38044.9
686.443	37955.19
686.79	37840.39
687.138	37963.1
687.485	37958.13
687.832	37713.39
688.18	37773.05
688.527	37520.4
688.874	37563.33
689.221	37342.78
689.568	37313.85
689.915	37449.44
690.262	37328.76
690.609	37137.81
690.956	37044.48
691.303	37088.32
691.65	36895.56
691.997	36926.29
692.344	36618.73
692.69	36569.69
693.037	36620.99
693.383	36378.28
693.73	36506.19
694.077	36284.5
694.423	36316.14
694.769	36110.72
695.116	36129.02
695.462	36041.11
695.808	35947.78
696.155	36000.21
696.501	35712.08
696.847	35844.06
697.193	35396.16
697.539	35578.75
697.885	35319.33
698.231	35282.04
698.577	35348.7
698.923	35181.48
699.269	34953.23
699.614	34875.27
699.96	34799.11
700.306	34732.22
700.651	34762.28
700.997	34519.35
701.342	34405.23
701.688	34539.46
702.033	34377.2
702.379	34417.2
702.724	34113.03
703.069	34172.46
703.415	33929.76
703.76	33864.45
704.105	33901.06
704.45	33861.51
704.795	33634.62
705.14	33700.84
705.485	33529.99
705.83	33479.15
706.175	33530.9
706.52	33325.25
706.865	33377.91
707.209	33287.51
707.554	33154.41
707.899	33144.02
708.243	33003.91
708.588	32922.1
708.932	32714.42
709.277	32702.45
709.621	32675.55
709.966	32564.37
710.31	32711.26
710.654	32185.4
710.998	32369.57
711.342	32287.09
711.687	32176.13
712.031	32269.01
712.375	32053.2
712.719	32122.57
713.063	32066.76
713.407	32170.48
713.75	32005.06
714.094	31879.42
714.438	31728.01
714.782	31840.32
715.125	31530.05
715.469	31697.95
715.812	31488.69
716.156	31328.47
716.499	31311.07
716.843	31357.4
717.186	31169.6
717.53	31290.05
717.873	31182.71
718.216	31283.05
718.559	31083.96
718.902	30783.17
719.246	30934.58
719.589	30885.77
719.932	30623.18
720.275	30747.92
720.617	30770.52
720.96	30715.83
721.303	30663.18
721.646	30625.89
721.989	30267.26
722.331	30614.59
722.674	30462.96
723.016	30470.41
723.359	30421.38
723.701	30432.67
724.044	30069.29
724.386	30064.55
724.729	30253.02
725.071	30017.54
725.413	29962.86
725.755	30016.87
726.097	29911.11
726.439	29713.15
726.782	29817.1
727.124	29900.94
727.465	29639.93
727.807	29592.47
728.149	29545.47
728.491	29559.48
728.833	29598.57
729.175	29396.32
729.516	29382.98
729.858	29303.89
730.199	29368.52
730.541	29310.22
730.882	29221.63
731.224	29334.4
731.565	29085.14
731.906	29114.97
732.248	29129.43
732.589	28942.32
732.93	28823.68
733.271	28926.5
733.612	28940.96
733.953	28984.8
734.294	28775.32
734.635	28654.87
734.976	28830.91
735.317	28587.3
735.658	28669.33
735.999	28539.84
736.339	28521.99
736.68	28553.4
737.021	28427.98
737.361	28339.17
737.702	28597.92
738.042	28417.81
738.383	28227.53
738.723	28326.29
739.063	28110.02
739.404	28358.15
739.744	28150.47
740.084	28171.49
740.424	28161.77
740.764	27956.36
741.104	28180.53
741.444	27895.11
741.784	27839.97
742.124	27965.85
742.464	27877.04
742.804	27857.83
743.143	27783.25
743.483	27775.57
743.823	27644.27
744.162	27744.61
744.502	27640.21
744.841	27572.41
745.181	27598.62
745.52	27482.02
745.86	27477.27
746.199	27367.9
746.538	27281.57
746.877	27479.08
747.216	27346.2
747.556	27308.24
747.895	27380.78
748.234	27123.16
748.573	27203.83
748.911	27279.31
749.25	27075.25
749.589	26919.55
749.928	26991.41
750.267	27000.67
750.605	26862.15
750.944	26847.46
751.283	26664.86
751.621	26739.44
751.96	26719.1
752.298	26672.77
752.636	26497.86
752.975	26469.39
753.313	26510.29
753.651	26472.78
753.989	26473.23
754.327	26353.23
754.666	26231.2
755.004	26117.31
755.342	26268.04
755.679	26200.24
756.017	26001.6
756.355	26008.16
756.693	25859.24
757.031	25946.01
757.368	25773.36
757.706	25795.51
758.044	25596.19
758.381	25813.81
758.719	25582.63
759.056	25628.96
759.394	25550.54
759.731	25248.86
760.068	25295.41
760.405	25321.62
760.743	25123.66
761.08	25187.39
761.417	25067.17
761.754	24959.6
762.091	24956.43
762.428	24863.78
762.765	24648.19
763.102	24751.24
763.438	24473.51
763.775	24494.3
764.112	24578.14
764.449	24412.95
764.785	24302.89
765.122	24279.62
765.458	24087.98
765.795	24099.96
766.131	24104.25
766.467	23916.46
766.804	23863.58
767.14	23755.11
767.476	23838.05
767.812	23589.69
768.148	23776.58
768.485	23501.33
768.821	23407.77
769.157	23390.6
769.492	23427.66
769.828	23324.61
770.164	23159.65
770.5	23073.32
770.836	23146.31
771.171	22941.12
771.507	22839.65
771.842	22621.81
772.178	22601.24
772.513	22562.37
772.849	22531.87
773.184	22445.99
773.519	22434.69
773.855	22360.8
774.19	22141.82
774.525	22047.58
774.86	22131.2
775.195	22097.07
775.53	22005.1
775.865	21781.15
776.2	21730.3
776.535	21595.39
776.87	21566.92
777.205	21414.15
777.539	21361.73
777.874	21412.35
778.209	21227.72
778.543	21190.21
778.878	21067.04
779.212	20990.89
779.547	20935.07
779.881	20957.44
780.215	20777.79
780.55	20771.69
780.884	20665.02
781.218	20610.33
781.552	20615.98
781.886	20532.14
782.22	20411.69
782.554	20359.72
782.888	20195.66
783.222	20134.41
783.556	20022.78
783.889	19970.8
784.223	19804.71
784.557	19826.17
784.89	19819.17
785.224	19716.57
785.557	19563.58
785.891	19511.15
786.224	19455.79
786.558	19532.62
786.891	19280.65
787.224	19202.91
787.557	19263.93
787.891	19169.02
788.224	19123.14
788.557	19110.26
788.89	18989.13
789.223	18919.76
789.556	18762.25
789.888	18776.03
790.221	18771.29
790.554	18585.53
790.887	18527.68
791.219	18551.18
791.552	18458.53
791.884	18428.47
792.217	18297.17
792.549	18192.09
792.882	18076.84
793.214	18001.59
793.546	18169.95
793.879	17999.33
794.211	17892.89
794.543	17975.83
794.875	17831.2
795.207	17816.51
795.539	17720.47
795.871	17698.55
796.203	17606.34
796.535	17503.3
796.867	17513.24
797.198	17404.54
797.53	17429.4
797.862	17281.83
798.193	17177.2
798.525	17252.46
798.856	17184.66
799.188	17067.38
799.519	17005.23
799.85	16924.1
800.182	16911.22
800.513	16913.48
800.844	16719.14
801.175	16789.87
801.506	16728.4
801.837	16623.55
802.168	16602.08
802.499	16608.86
802.83	16445.7
803.161	16421.52
803.491	16456.54
803.822	16428.75
804.153	16246.83
804.483	16158.47
804.814	16132.26
805.145	16155.54
805.475	16099.94
805.805	16094.29
806.136	16042.54
806.466	16014.07
806.796	15978.82
807.126	15785.15
807.457	15866.5
807.787	15842.78
808.117	15737.24
808.447	15645.04
808.777	15760.29
809.107	15662.67
809.436	15605.72
809.766	15641.88
810.096	15526.63
810.426	15430.36
810.755	15460.41
811.085	15413.18
811.414	15367.99
811.744	15180.42
812.073	15254.32
812.403	15241.21
812.732	15057.49
813.061	15141.33
813.39	15102.91
813.719	15071.72
814.049	15119.4
814.378	14995.57
814.707	14921.44
815.036	14914.44
815.365	14766.65
815.693	14664.05
816.022	14645.74
816.351	14625.63
816.68	14628.8
817.008	14588.12
817.337	14531.62
817.665	14459.76
817.994	14524.17
818.322	14441.68
818.651	14349.48
818.979	14365.53
819.307	14426.09
819.636	14304.06
819.964	14278.52
820.292	14215.7
820.62	14308.35
820.948	14227.68
821.276	14254.34
821.604	14216.38
821.932	14234.46
822.259	14255.25
822.587	14179.32
822.915	14123.27
823.243	14177.06
823.57	14198.52
823.898	14108.58
824.225	14111.07
824.553	14141.58
824.88	14212.99
825.207	14104.74
825.535	14033.11
825.862	14212.08
826.189	14070.62
826.516	14180.22
826.843	14203.72
827.17	14221.35
827.497	14209.15
827.824	14222.25
828.151	14243.04
828.478	14074.91
828.805	14210.95
829.131	14161.01
829.458	14145.19
829.785	14054.8
830.111	14080.11
830.438	14243.27
830.764	14100.67
831.09	14190.16
831.417	14031.3
831.743	14068.81
832.069	14108.13
832.395	14062.48
832.722	14057.51
833.048	14074.69
833.374	14012.99
833.7	14003.5
834.026	13956.5
834.351	13986.78
834.677	14007.34
835.003	14022.26
835.329	13981.58
835.654	13955.37
835.98	13915.14
836.306	13918.53
836.631	13834.01
836.956	13928.93
837.282	13788.14
837.607	13794.92
837.932	13763.96
838.258	13750.4
838.583	13712.21
838.908	13651.42
839.233	13703.4
839.558	13664.3
839.883	13563.97
840.208	13555.83
840.533	13573.68
840.858	13553.34
841.182	13504.53
841.507	13465.89
841.832	13385.21
842.156	13442.61
842.481	13419.11
842.805	13407.13
843.13	13343.41
843.454	13334.59
843.778	13270.87
844.103	13266.8
844.427	13187.25
844.751	13210.75
845.075	13189.29
845.399	13114.03
845.723	13067.26
846.047	13130.53
846.371	12969.63
846.695	12976.86
847.019	12900.71
847.343	12776.87
847.666	12752.46
847.99	12710.43
848.313	12747.94
848.637	12608.74
848.96	12591.79
849.284	12586.82
849.607	12483.09
849.931	12389.53
850.254	12349.31
850.577	12227.05
850.9	12224.57
851.223	12214.62
851.546	12111.35
851.869	12012.37
852.192	12127.39
852.515	11941.41
852.838	11917.23
853.161	11965.82
853.483	11907.74
853.806	11826.61
854.129	11783.45
854.451	11731.02
854.774	11634.3
855.096	11651.25
855.419	11579.84
855.741	11613.28
856.063	11588.65
856.385	11529.44
856.708	11447.86
857.03	11432.72
857.352	11436.79
857.674	11411.48
857.996	11371.03
858.318	11285.16
858.64	11364.25
858.961	11274.08
859.283	11103.47
859.605	11192.05
859.926	11212.16
860.248	11118.15
860.57	11110.92
860.891	11092.39
861.212	11058.04
861.534	10985.05
861.855	10987.08
862.176	10987.54
862.498	10939.18
862.819	10949.12
863.14	10891.72
863.461	10851.49
863.782	10840.87
864.103	10792.06
864.424	10815.11
864.745	10889.91
865.065	10786.86
865.386	10667.54
865.707	10764.72
866.027	10751.61
866.348	10630.26
866.668	10741.44
866.989	10635.68
867.309	10641.33
867.63	10587.09
867.95	10594.1
868.27	10512.75
868.59	10583.48
868.91	10586.87
869.23	10538.06
869.55	10445.63
869.87	10515.46
870.19	10471.62
870.51	10449.92
870.83	10500.77
871.15	10419.42
871.469	10395.91
871.789	10396.37
872.109	10424.39
872.428	10348.46
872.748	10412.41
873.067	10357.72
873.386	10336.25
873.706	10230.95
874.025	10322.69
874.344	10260.32
874.663	10300.1
874.982	10257.84
875.301	10175.81
875.62	10157.05
875.939	10127.22
876.258	10157.5
876.577	10144.39
876.896	10080.67
877.214	10112.76
877.533	10083.15
877.852	10002.7
878.17	10070.95
878.489	10056.04
878.807	10044.06
879.125	9979.43
879.444	9995.7
879.762	9967
880.08	9940.33
880.398	9952.31
880.716	9914.57
881.034	9854.91
881.352	9825.76
881.67	9851.97
881.988	9858.07
882.306	9867.79
882.624	9789.83
882.941	9767.46
883.259	9729.26
883.577	9665.31
883.894	9691.07
884.212	9689.72
884.529	9589.15
884.846	9618.98
885.164	9619.89
885.481	9599.78
885.798	9637.51
886.115	9468.03
886.432	9522.26
886.75	9480.23
887.067	9486.56
887.383	9394.13
887.7	9425.77
888.017	9382.38
888.334	9346.22
888.651	9357.3
888.967	9244.08
889.284	9300.12
889.6	9298.54
889.917	9234.36
890.233	9208.15
890.55	9151.65
890.866	9136.06
891.182	9170.63
891.498	9125.89
891.815	9055.38
892.131	9037.3
892.447	9029.17
892.763	9016.74
893.079	8987.36
893.395	8928.38
893.71	8896.97
894.026	8936.74
894.342	8865.11
894.657	8798.21
894.973	8782.85
895.289	8813.36
895.604	8801.83
895.92	8736.52
896.235	8716.18
896.55	8689.52
896.865	8641.83
897.181	8618.78
897.496	8628.05
897.811	8563.64
898.126	8487.49
898.441	8493.82
898.756	8481.39
899.071	8422.41
899.386	8402.97
899.7	8387.38
900.015	8348.51
900.33	8319.81
900.644	8322.97
900.959	8223.09
901.273	8221.28
901.588	8168.18
901.902	8177.67
902.216	8085.92
902.531	8135.86
902.845	8132.47
903.159	8015.18
903.473	7995.52
903.787	8001.85
904.101	7987.84
904.415	7969.08
904.729	7910.78
905.042	7902.42
905.356	7842.08
905.67	7842.08
905.984	7844.34
906.297	7800.95
906.611	7715.53
906.924	7744.68
907.237	7668.08
907.551	7658.81
907.864	7652.93
908.177	7570
908.491	7581.98
908.804	7494.75
909.117	7537.23
909.43	7518.7
909.743	7428.08
910.056	7374.07
910.368	7364.13
910.681	7311.02
910.994	7318.03
911.307	7268.76
911.619	7170.69
911.932	7212.04
912.244	7196.68
912.557	7121.2
912.869	7124.13
913.181	7153.29
913.494	7107.19
913.806	7042.33
914.118	7028.09
914.43	6969.11
914.742	6972.5
915.054	6962.11
915.366	6982.44
915.678	6885.72
915.99	6896.8
916.302	6833.29
916.613	6819.06
916.925	6763.24
917.236	6748.78
917.548	6769.57
917.859	6685.95
918.171	6644.83
918.482	6662.23
918.794	6567.77
919.105	6621.1
919.416	6583.58
919.727	6579.52
920.038	6510.59
920.349	6455.9
920.66	6445.51
920.971	6413.42
921.282	6377.94
921.593	6377.04
921.903	6299.07
922.214	6357.6
922.525	6306.3
922.835	6246.42
923.146	6193.31
923.456	6219.3
923.767	6166.42
924.077	6165.74
924.387	6158.74
924.697	6111.96
925.008	6060.43
925.318	6078.29
925.628	6056.59
925.938	6053.88
926.248	5966.43
926.558	5931.17
926.867	5913.77
927.177	5902.47
927.487	5878.07
927.796	5807.33
928.106	5802.59
928.416	5769.14
928.725	5801.01
929.034	5745.87
929.344	5767.79
929.653	5728.01
929.962	5666.09
930.271	5637.17
930.581	5615.25
930.89	5584.97
931.199	5567.34
931.508	5516.04
931.817	5537.96
932.125	5496.83
932.434	5512.88
932.743	5392.65
933.051	5432.88
933.36	5395.82
933.669	5393.33
933.977	5361.02
934.286	5380.9
934.594	5345.2
934.902	5274.92
935.21	5271.3
935.519	5269.49
935.827	5267.91
936.135	5235.14
936.443	5201.47
936.751	5200.57
937.059	5135.26
937.367	5084.87
937.674	5108.37
937.982	5095.26
938.29	5058.65
938.597	5041.25
938.905	4961.71
939.213	4988.82
939.52	4945.66
939.827	4977.3
940.135	4972.55
940.442	4927.58
940.749	4880.8
941.056	4902.05
941.363	4798.32
941.67	4845.32
941.977	4779.79
942.284	4756.74
942.591	4740.92
942.898	4766.46
943.205	4726.91
943.511	4690.98
943.818	4678.78
944.125	4643.52
944.431	4628.16
944.738	4632
945.044	4594.26
945.35	4610.75
945.657	4514.94
945.963	4519.01
946.269	4476.97
946.575	4485.11
946.881	4470.87
947.187	4474.49
947.493	4397.88
947.799	4388.16
948.105	4424.32
948.41	4395.62
948.716	4371.21
949.022	4357.88
949.327	4379.12
949.633	4306.13
949.938	4307.26
950.244	4304.77
950.549	4242.63
950.854	4180.03
951.16	4195.17
951.465	4223.42
951.77	4201.5
952.075	4152.01
952.38	4186.58
952.685	4172.8
952.99	4127.83
953.294	4127.83
953.599	4070.66
953.904	4053.93
954.209	4046.48
954.513	3965.57
954.818	4009.41
955.122	3980.94
955.426	4029.07
955.731	3967.83
956.035	3925.12
956.339	3909.98
956.643	3930.77
956.948	3868.63
957.252	3848.29
957.556	3839.7
957.86	3876.76
958.163	3880.83
958.467	3839.7
958.771	3803.09
959.075	3794.05
959.378	3704.56
959.682	3761.51
959.985	3722.42
960.289	3682.19
960.592	3659.37
960.896	3673.6
961.199	3709.08
961.502	3672.93
961.805	3615.75
962.108	3606.49
962.411	3608.07
962.714	3578.47
963.017	3598.35
963.32	3561.52
963.623	3507.28
963.926	3545.92
964.228	3493.95
964.531	3473.38
964.833	3474.29
965.136	3449.88
965.438	3425.47
965.741	3401.52
966.043	3400.16
966.345	3421.86
966.648	3388.64
966.95	3341.64
967.252	3373.05
967.554	3382.09
967.856	3326.72
968.158	3258.7
968.46	3285.82
968.761	3328.75
969.063	3314.52
969.365	3276.55
969.666	3215.31
969.968	3235.2
970.269	3161.3
970.571	3169.21
970.872	3158.14
971.174	3157.91
971.475	3179.83
971.776	3132.38
972.077	3136.22
972.378	3136.67
972.679	3110.91
972.98	3071.59
973.281	3023.45
973.582	3053.28
973.883	3072.04
974.183	2999.95
974.484	3026.39
974.785	2978.48
975.085	2991.59
975.386	2994.53
975.686	2958.37
975.986	2975.09
976.287	2935.54
976.587	2931.7
976.887	2943.68
977.187	2905.71
977.487	2902.32
977.787	2876.11
978.087	2834.53
978.387	2856
978.687	2817.58
978.987	2817.81
979.286	2770.35
979.586	2817.13
979.885	2787.53
980.185	2740.52
980.484	2760.63
980.784	2775.1
981.083	2743.23
981.382	2734.42
981.682	2704.36
981.981	2723.35
982.28	2695.78
982.579	2670.01
982.878	2686.74
983.177	2696
983.475	2641.54
983.774	2619.17
984.073	2625.95
984.372	2627.08
984.67	2562.45
984.969	2624.82
985.267	2568.32
985.566	2609.68
985.864	2529.91
986.162	2524.71
986.461	2521.09
986.759	2526.52
987.057	2511.15
987.355	2484.26
987.653	2482.22
987.951	2484.48
988.249	2415.11
988.547	2501.66
988.844	2438.16
989.142	2421.66
989.44	2417.14
989.737	2405.16
990.035	2380.98
990.332	2369.46
990.63	2402.22
990.927	2370.14
991.224	2352.73
991.521	2346.41
991.819	2348.89
992.116	2327.88
992.413	2320.42
992.71	2291.72
993.006	2276.13
993.303	2285.84
993.6	2280.19
993.897	2265.96
994.193	2245.84
994.49	2231.38
994.787	2256.69
995.083	2216.47
995.379	2229.8
995.676	2213.98
995.972	2163.59
996.268	2180.31
996.565	2162.68
996.861	2192.74
997.157	2129.92
997.453	2138.73
997.749	2169.01
998.044	2131.27
998.34	2105.28
998.636	2104.38
998.932	2079.3
999.227	2077.04
999.523	2093.31
999.818	2012.86
1000.114	2036.81
1000.409	2017.38
1000.704	2036.36
1001	1995.91
1001.295	1980.77
1001.59	1990.94
1001.885	1968.11
1002.18	1947.77
1002.475	1949.81
1002.77	1945.51
1003.065	1936.02
1003.359	1898.51
1003.654	1905.74
1003.949	1924.95
1004.243	1894.89
1004.538	1862.13
1004.832	1862.13
1005.127	1863.93
1005.421	1859.41
1005.715	1842.47
1006.009	1830.26
1006.304	1826.87
1006.598	1833.65
1006.892	1798.85
1007.186	1814.67
1007.48	1798.63
1007.773	1788.91
1008.067	1758.85
1008.361	1743.94
1008.655	1736.48
1008.948	1711.62
1009.242	1741
1009.535	1719.76
1009.829	1708.68
1010.122	1692.19
1010.415	1654.45
1010.708	1644.28
1011.001	1656.71
1011.295	1655.13
1011.588	1650.83
1011.881	1645.63
1012.173	1627.78
1012.466	1595.69
1012.759	1629.82
1013.052	1628.23
1013.344	1581.68
1013.637	1604.05
1013.93	1563.6
1014.222	1585.07
1014.514	1569.03
1014.807	1539.42
1015.099	1535.81
1015.391	1561.34
1015.683	1531.97
1015.976	1520.44
1016.268	1518.41
1016.56	1495.13
1016.851	1470.95
1017.143	1461.01
1017.435	1465.07
1017.727	1466.43
1018.018	1456.04
1018.31	1455.13
1018.602	1465.07
1018.893	1413.78
1019.185	1403.83
1019.476	1422.82
1019.767	1399.77
1020.058	1418.75
1020.35	1382.14
1020.641	1357.96
1020.932	1354.79
1021.223	1357.96
1021.514	1332.42
1021.804	1316.6
1022.095	1338.52
1022.386	1313.44
1022.677	1286.77
1022.967	1300.56
1023.258	1283.38
1023.548	1296.27
1023.839	1273.44
1024.129	1262.82
1024.419	1289.94
1024.709	1247.45
1025	1247
1025.29	1276.15
1025.58	1233.22
1025.87	1214.23
1026.16	1209.49
1026.449	1199.54
1026.739	1198.64
1027.029	1191.64
1027.319	1161.81
1027.608	1160.9
1027.898	1155.93
1028.187	1158.64
1028.477	1170.17
1028.766	1129.49
1029.055	1109.15
1029.344	1127.23
1029.634	1147.34
1029.923	1132.65
1030.212	1124.97
1030.501	1115.25
1030.79	1111.41
1031.078	1079.1
1031.367	1070.28
1031.656	1070.06
1031.945	1090.85
1032.233	1034.8
1032.522	1042.03
1032.81	1042.49
1033.099	1036.16
1033.387	1049.72
1033.675	1022.6
1033.963	1024.41
1034.251	1029.15
1034.54	1028.25
1034.828	1014.46
1035.116	1001.81
1035.403	987.35
1035.691	970.85
1035.979	961.13
1036.267	983.51
1036.554	954.58
1036.842	985.77
1037.129	931.98
1037.417	954.35
1037.704	931.3
1037.992	949.38
1038.279	914.81
1038.566	915.03
1038.853	915.03
1039.14	915.03
