Data from hue_40_FLMS001491_60.txt Node
Date: Mon Feb 06 15:08:07 GMT 2017
User: dcchb
Spectrometer: FLMS00149
Trigger mode: 0
Integration Time (sec): 2.000000E-2
Scans to average: 10
Electric dark correction enabled: true
Nonlinearity correction enabled: false
Boxcar width: 0
XAxis mode: Wavelengths
Number of Pixels in Spectrum: 2048
>>>>>Begin Spectral Data<<<<<
341.393	-20.51
341.776	-20.51
342.16	-20.51
342.543	-63.22
342.927	-65.7
343.31	-77.46
343.693	-58.02
344.077	-81.07
344.46	-54.41
344.843	-54.86
345.226	-44.24
345.61	-40.17
345.993	-23.67
346.376	-3.11
346.759	11.36
347.142	21.52
347.525	45.93
347.908	56.1
348.291	76.66
348.674	101.97
349.057	123.44
349.44	124.35
349.823	160.05
350.206	194.63
350.588	196.89
350.971	201.41
351.354	235.76
351.737	248.41
352.119	256.55
352.502	294.74
352.884	270.33
353.267	289.77
353.65	289.09
354.032	288.64
354.414	325.92
354.797	304.23
355.179	330.9
355.562	351.23
355.944	341.52
356.326	344.45
356.709	352.59
357.091	328.64
357.473	339.03
357.855	355.08
358.238	343.78
358.62	351.91
359.002	360.95
359.384	346.04
359.766	342.65
360.148	339.93
360.53	360.72
360.912	335.19
361.294	341.97
361.676	355.08
362.057	338.35
362.439	359.14
362.821	341.29
363.203	340.61
363.584	332.03
363.966	312.36
364.348	322.99
364.729	325.92
365.111	316.43
365.493	323.89
365.874	341.74
366.256	317.56
366.637	339.26
367.019	344.23
367.4	330.44
367.781	313.72
368.163	331.57
368.544	348.3
368.925	314.85
369.306	342.42
369.688	339.26
370.069	310.78
370.45	319.6
370.831	304.68
371.212	316.66
371.593	300.61
371.974	330.9
372.355	327.28
372.736	313.27
373.117	329.31
373.498	306.94
373.879	335.41
374.26	335.41
374.641	322.53
375.021	318.24
375.402	329.31
375.783	338.35
376.163	339.71
376.544	350.33
376.925	316.66
377.305	340.61
377.686	339.48
378.066	332.25
378.447	332.25
378.827	346.49
379.208	354.17
379.588	343.55
379.968	352.14
380.349	349.88
380.729	321.63
381.109	341.74
381.489	359.6
381.87	366.15
382.25	363.44
382.63	368.18
383.01	369.99
383.39	374.28
383.77	353.27
384.15	367.96
384.53	354.62
384.91	340.61
385.29	344.91
385.67	365.7
386.049	349.88
386.429	365.02
386.809	368.63
387.189	365.47
387.568	365.02
387.948	372.48
388.328	380.39
388.707	373.61
389.087	368.63
389.466	369.76
389.846	378.58
390.225	364.11
390.605	366.6
390.984	381.52
391.363	381.74
391.743	388.75
392.122	387.39
392.501	407.05
392.881	357.34
393.26	382.87
393.639	386.49
394.018	383.1
394.397	355.08
394.776	386.26
395.155	382.65
395.534	404.34
395.913	397.79
396.292	382.65
396.671	382.87
397.05	398.24
397.429	426.03
397.808	390.33
398.186	377.9
398.565	396.88
398.944	435.75
399.323	404.34
399.701	387.84
400.08	414.96
400.458	414.06
400.837	418.12
401.215	409.76
401.594	409.09
401.972	396.66
402.351	415.86
402.729	433.72
403.107	414.73
403.486	433.04
403.864	427.16
404.242	439.14
404.62	459.71
404.999	435.53
405.377	415.86
405.755	436.2
406.133	423.77
406.511	431.23
406.889	445.02
407.267	445.47
407.645	441.85
408.023	440.27
408.401	439.37
408.779	454.96
409.156	446.6
409.534	454.06
409.912	452.47
410.29	459.03
410.667	445.92
411.045	469.87
411.422	469.2
411.8	484.11
412.178	475.3
412.555	494.05
412.933	493.6
413.31	489.76
413.687	496.99
414.065	504.45
414.442	498.12
414.819	505.81
415.197	518.23
415.574	509.42
415.951	493.83
416.328	515.07
416.705	501.51
417.082	531.12
417.46	533.83
417.837	536.31
418.214	525.01
418.591	529.53
418.967	534.73
419.344	535.86
419.721	528.63
420.098	534.96
420.475	524.34
420.852	552.81
421.228	571.79
421.605	555.07
421.982	574.73
422.358	544.22
422.735	558.46
423.111	580.61
423.488	550.78
423.864	572.7
424.241	566.6
424.617	575.41
424.994	590.55
425.37	569.31
425.746	559.82
426.123	595.75
426.499	616.31
426.875	595.97
427.251	589.65
427.627	597.55
428.003	614.28
428.379	614.96
428.756	626.25
429.132	619.93
429.507	620.83
429.883	600.27
430.259	623.09
430.635	635.07
431.011	633.49
431.387	633.26
431.763	664.22
432.138	661.51
432.514	674.84
432.89	667.84
433.265	694.5
433.641	683.43
434.016	673.26
434.392	702.18
434.767	724.11
435.143	717.33
435.518	693.15
435.894	732.47
436.269	720.26
436.644	728.62
437.02	730.21
437.395	732.47
437.77	759.36
438.145	752.35
438.52	758.91
438.895	750.55
439.271	745.57
439.646	755.06
440.021	783.99
440.395	772.01
440.77	756.65
441.145	793.71
441.52	800.94
441.895	795.52
442.27	799.13
442.645	795.97
443.019	813.59
443.394	793.03
443.769	839.36
444.143	816.08
444.518	820.15
444.892	809.75
445.267	826.7
445.641	833.93
446.016	851.11
446.39	843.88
446.764	833.71
447.139	854.5
447.513	858.79
447.887	860.82
448.262	857.89
448.636	849.53
449.01	884.33
449.384	893.82
449.758	864.67
450.132	916.19
450.506	891.78
450.88	892.24
451.254	920.26
451.628	955.29
452.002	922.52
452.376	938.56
452.75	933.82
453.123	923.2
453.497	958.9
453.871	958
454.244	985.57
454.618	988.05
454.992	1021.27
455.365	989.63
455.739	1029.18
456.112	1011.56
456.486	1017.66
456.859	1032.12
457.232	1051.78
457.606	1055.17
457.979	1066.02
458.352	1092.23
458.725	1104.89
459.099	1101.5
459.472	1111.89
459.845	1152.34
460.218	1153.92
460.591	1139.69
460.964	1142.85
461.337	1203.41
461.71	1176.52
462.083	1179.46
462.456	1221.72
462.829	1209.29
463.201	1228.5
463.574	1238.44
463.947	1247.48
464.32	1302.4
464.692	1307.14
465.065	1317.76
465.438	1343.3
465.81	1343.75
466.183	1367.7
466.555	1395.5
466.928	1386.69
467.3	1406.8
467.672	1439.34
468.045	1453.58
468.417	1477.53
468.789	1509.85
469.161	1507.81
469.534	1489.06
469.906	1568.6
470.278	1589.17
470.65	1610.64
471.022	1641.37
471.394	1681.14
471.766	1715.72
472.138	1729.95
472.51	1747.13
472.882	1798.43
473.253	1876.39
473.625	1856.5
473.997	1871.65
474.369	1931.53
474.74	1975.82
475.112	1991.87
475.484	2046.78
475.855	2116.16
476.227	2109.83
476.598	2215.82
476.97	2242.26
477.341	2278.41
477.713	2339.2
478.084	2414
478.455	2453.78
478.827	2494.91
479.198	2587.56
479.569	2624.85
479.94	2682.25
480.311	2756.59
480.682	2830.26
481.053	2939.64
481.424	2991.16
481.795	3025.51
482.166	3085.63
482.537	3201.78
482.908	3314.32
483.279	3343.25
483.65	3484.71
484.021	3498.95
484.391	3609.91
484.762	3679.51
485.133	3798.83
485.503	3901.42
485.874	3959.73
486.244	4041.08
486.615	4172.15
486.985	4294.86
487.356	4423.89
487.726	4479.71
488.097	4608.97
488.467	4658.92
488.837	4870.21
489.207	4890.1
489.578	5080.6
489.948	5126.25
490.318	5274.04
490.688	5375.28
491.058	5478.78
491.428	5552.9
491.798	5706.12
492.168	5834.71
492.538	5916.29
492.908	6027.92
493.278	6144.75
493.648	6185.66
494.017	6375.93
494.387	6488.47
494.757	6567.12
495.126	6696.6
495.496	6813.44
495.866	6859.31
496.235	7026.31
496.605	7097.72
496.974	7224.73
497.344	7369.81
497.713	7462.91
498.082	7549.46
498.452	7700.42
498.821	7810.02
499.19	7827.2
499.559	7930.7
499.928	8055.44
500.298	8082.78
500.667	8217.69
501.036	8271.93
501.405	8394.86
501.774	8447.29
502.143	8595.08
502.512	8593.95
502.88	8755.08
503.249	8780.16
503.618	8866.26
503.987	8971.35
504.356	9110.1
504.724	9181.28
505.093	9247.04
505.462	9310.09
505.83	9385.12
506.199	9555.29
506.567	9644.77
506.936	9722.29
507.304	9774.04
507.672	9875.28
508.041	9973.13
508.409	10021.26
508.777	10114.59
509.145	10216.74
509.514	10295.15
509.882	10407.92
510.25	10426
510.618	10503.51
510.986	10534.02
511.354	10591.64
511.722	10776.5
512.09	10865.99
512.458	10903.27
512.826	10983.27
513.193	11019.43
513.561	11092.87
513.929	11200.67
514.297	11352.53
514.664	11375.8
515.032	11450.15
515.4	11541
515.767	11598.85
516.135	11726.75
516.502	11629.58
516.869	11852.63
517.237	11901.66
517.604	11864.15
517.972	12068.44
518.339	12150.7
518.706	12127.2
519.073	12210.36
519.44	12263.91
519.808	12455.32
520.175	12366.51
520.542	12542.33
520.909	12710.46
521.276	12620.52
521.643	12686.5
522.009	12867.51
522.376	12886.5
522.743	13024.8
523.11	13153.16
523.477	13266.6
523.843	13335.53
524.21	13471.34
524.577	13488.06
524.943	13569.19
525.31	13679.24
525.676	13823.87
526.043	13866.13
526.409	13955.85
526.776	14066.58
527.142	14062.06
527.508	14236.74
527.874	14267.7
528.241	14287.36
528.607	14478.77
528.973	14604.19
529.339	14579.11
529.705	14689.84
530.071	14795.83
530.437	14941.36
530.803	15058.87
531.169	15092.54
531.535	15084.86
531.901	15085.99
532.267	15228.58
532.632	15327.11
532.998	15439.2
533.364	15548.12
533.73	15510.61
534.095	15628.57
534.461	15675.58
534.826	15790.38
535.192	15854.78
535.557	15917.6
535.923	15958.05
536.288	16023.36
536.653	16178.39
537.019	16066.3
537.384	16032.4
537.749	16324.15
538.114	16275.79
538.479	16284.15
538.845	16482.11
539.21	16384.03
539.575	16488.89
539.94	16567.76
540.305	16743.57
540.67	16692.95
541.034	16789.9
541.399	16864.7
541.764	16936.11
542.129	17043.68
542.494	16986.73
542.858	17040.96
543.223	17164.58
543.587	17324.57
543.952	17226.27
544.316	17355.53
544.681	17327.06
545.045	17390.11
545.41	17543.55
545.774	17602.53
546.138	17666.26
546.503	17634.4
546.867	17644.11
547.231	17835.29
547.595	17901.51
547.959	17933.37
548.324	18005.23
548.688	18010.66
549.052	18198.67
549.416	18197.54
549.779	18233.25
550.143	18311.21
550.507	18394.6
550.871	18540.59
551.235	18491.1
551.599	18586.46
551.962	18615.16
552.326	18633.01
552.689	18801.14
553.053	18749.17
553.417	18795.49
553.78	19011.31
554.143	18925.66
554.507	19096.5
554.87	19110.97
555.234	19259.66
555.597	19202.26
555.96	19222.15
556.323	19328.81
556.686	19433.44
557.05	19505.53
557.413	19453.33
557.776	19528.36
558.139	19770.38
558.502	19821
558.865	19872.53
559.228	19902.81
559.59	19937.84
559.953	19994.11
560.316	20199.3
560.679	20306.42
561.041	20449.46
561.404	20444.04
561.767	20559.52
562.129	20517.71
562.492	20722.22
562.854	20686.74
563.217	20768.32
563.579	20833.41
563.941	21040.86
564.304	20963.12
564.666	21222.78
565.028	21126.28
565.39	21257.12
565.753	21440.85
566.115	21477.01
566.477	21518.36
566.839	21499.38
567.201	21764.46
567.563	21719.03
567.925	21954.28
568.287	21900.95
568.648	21907.05
569.01	22108.18
569.372	22191.34
569.734	22118.34
570.095	22369.19
570.457	22414.61
570.819	22493.25
571.18	22578.22
571.542	22644.88
571.903	22658.67
572.265	22857.76
572.626	22942.5
572.987	23052.11
573.349	23045.1
573.71	23199.67
574.071	23142.05
574.432	23429.04
574.794	23554.92
575.155	23592.2
575.516	23579.55
575.877	23724.4
576.238	23728.7
576.599	23993.1
576.96	23943.61
577.32	23982.48
577.681	24452.97
578.042	24379.75
578.403	24512.41
578.763	24631.5
579.124	24790.14
579.485	24979.51
579.845	25198.94
580.206	25264.7
580.566	25304.48
580.927	25419.73
581.287	25703.11
581.648	25768.42
582.008	25994.4
582.368	26083.66
582.728	26190.1
583.089	26336.99
583.449	26601.39
583.809	26596.87
584.169	26871.21
584.529	26948.05
584.889	27328.6
585.249	27262.84
585.609	27358.21
585.969	27776.5
586.329	27750.06
586.688	28086.55
587.048	28132.2
587.408	28277.96
587.768	28476.82
588.127	28781.67
588.487	28838.17
588.846	29172.4
589.206	29246.29
589.565	29527.64
589.925	29768.54
590.284	29872.27
590.643	30175.99
591.003	30279.03
591.362	30652.58
591.721	30698.01
592.08	30876.98
592.44	31085.34
592.799	31265.22
593.158	31478.78
593.517	31679
593.876	31807.58
594.235	31880.35
594.593	32093
594.952	32485.08
595.311	32465.64
595.67	32789.48
596.029	32960.09
596.387	33258.62
596.746	33443.24
597.104	33540.87
597.463	33622.45
597.822	33808.89
598.18	33930.92
598.538	34151.7
598.897	34384.01
599.255	34372.26
599.613	35045.01
599.972	34862.87
600.33	35171.79
600.688	35134.05
601.046	35360.71
601.404	35687.93
601.762	35628.05
602.12	35974.48
602.478	36137.86
602.836	36279.33
603.194	36136.06
603.552	36410.85
603.91	36434.8
604.268	36858.97
604.625	36668.7
604.983	36873.66
605.341	36876.38
605.698	37133.09
606.056	37222.13
606.413	37440.88
606.771	37664.83
607.128	37668.44
607.485	37522.91
607.843	37828.89
608.2	38164.02
608.557	38326.73
608.914	38220.29
609.272	38543.22
609.629	38653.5
609.986	38819.37
610.343	38764.46
610.7	39192.25
611.057	39104.34
611.414	39187.27
611.771	39345.01
612.127	39597.43
612.484	39609.64
612.841	39817.77
613.198	39682.85
613.554	39942.28
613.911	40023.41
614.267	40262.95
614.624	40245.1
614.98	40199.45
615.337	40496.39
615.693	40649.84
616.05	40612.1
616.406	40942.48
616.762	40755.6
617.118	40855.93
617.475	40928.25
617.831	41092.08
618.187	41208.69
618.543	41291.63
618.899	41439.19
619.255	41516.03
619.611	41451.17
619.967	41678.51
620.323	41746.53
620.678	41534.78
621.034	41480.55
621.39	41700.2
621.746	41584.5
622.101	42052.06
622.457	41833.53
622.812	41938.61
623.168	42155.11
623.523	42144.26
623.879	42200.53
624.234	41990.82
624.589	42229
624.945	42376.12
625.3	42382.44
625.655	42233.3
626.01	42380.64
626.365	42536.34
626.72	42475.32
627.075	42495.66
627.43	42457.7
627.785	42385.61
628.14	42539.5
628.495	42620.4
628.85	42499.73
629.205	42613.85
629.559	42922.32
629.914	42530.24
630.269	42670.57
630.623	42509.9
630.978	42513.29
631.332	42686.62
631.687	42792.83
632.041	42535.21
632.396	42714.64
632.75	42474.19
633.104	42711.48
633.459	42546.96
633.813	42444.59
634.167	42593.51
634.521	42515.32
634.875	42628.31
635.229	42574.3
635.583	42370.24
635.937	42317.59
636.291	42421.54
636.645	42485.49
636.999	42350.36
637.352	42536.79
637.706	42155.11
638.06	42384.25
638.413	42295.22
638.767	42168.67
639.121	42316.01
639.474	42065.84
639.828	42204.37
640.181	42179.74
640.534	42287.76
640.888	42200.53
641.241	41970.03
641.594	42079.63
641.947	42273.75
642.301	42020.65
642.654	42092.74
643.007	42074.2
643.36	42066.75
643.713	42027.2
644.066	42080.76
644.419	41840.76
644.771	41620.88
645.124	41359.42
645.477	41159.65
645.83	41052.99
646.182	40856.61
646.535	40740.23
646.888	40718.08
647.24	40556.96
647.593	40923.27
647.945	40796.95
648.298	40490.29
648.65	40585.88
649.002	40499.33
649.355	40625.2
649.707	40579.78
650.059	40712.66
650.411	41080.56
650.763	41128.24
651.115	41521.22
651.467	41430.83
651.819	41394.9
652.171	41239.65
652.523	41248.24
652.875	41286.2
653.227	41155.13
653.578	41430.15
653.93	41243.04
654.282	40912.43
654.633	41059.32
654.985	41123.95
655.337	41085.08
655.688	41092.99
656.039	41213.21
656.391	40794.69
656.742	41019.32
657.094	41097.51
657.445	41105.64
657.796	41186.32
658.147	40998.53
658.498	40956.04
658.849	40963.5
659.2	41062.03
659.551	40861.81
659.902	41080.56
660.253	40935.03
660.604	40895.48
660.955	40707.69
661.306	40953.78
661.656	40844.86
662.007	40979.32
662.358	40970.05
662.708	40909.94
663.059	40831.07
663.409	40685.31
663.76	40856.61
664.11	40951.07
664.461	40929.15
664.811	40812.09
665.161	40875.82
665.511	40675.37
665.862	40774.58
666.212	40843.28
666.562	40911.07
666.912	40694.35
667.262	40698.87
667.612	40765.09
667.962	40679.66
668.312	40768.48
668.662	40821.13
669.011	40718.31
669.361	40789.04
669.711	40555.37
670.06	40553.57
670.41	40477.18
670.76	40597.41
671.109	40704.52
671.459	40643.06
671.808	40558.31
672.157	40613
672.507	40388.83
672.856	40482.38
673.205	40542.04
673.554	40510.63
673.904	40377.75
674.253	40477.86
674.602	40432.67
674.951	39882.62
675.3	39724.21
675.649	40308.83
675.998	40354.25
676.346	40280.13
676.695	40464.3
677.044	40177.31
677.393	40267.02
677.741	40325.1
678.09	40188.83
678.438	40160.81
678.787	40275.61
679.135	40240.81
679.484	39908.84
679.832	39999.23
680.181	39836.98
680.529	40105.22
680.877	39937.09
681.225	39868.61
681.573	40124.43
681.922	39820.48
682.27	39708.16
682.618	39691.44
682.966	39480.83
683.314	39702.06
683.661	39528.28
684.009	39320.15
684.357	39260.49
684.705	39297.78
685.053	39238.8
685.4	39271.34
685.748	39036.54
686.095	39028.63
686.443	38881.52
686.79	38917.9
687.138	38922.2
687.485	38914.06
687.832	38702.09
688.18	38752.71
688.527	38641.53
688.874	38514.75
689.221	38536.67
689.568	38512.94
689.915	38471.81
690.262	38307.3
690.609	38194.53
690.956	37985.27
691.303	37904.14
691.65	37823.02
691.997	37888.33
692.344	37694.43
692.69	37535.79
693.037	37632.97
693.383	37312.52
693.73	37430.48
694.077	37217.83
694.423	37159.53
694.769	37149.14
695.116	36987.11
695.462	37023.49
695.808	36829.37
696.155	36904.4
696.501	36725.64
696.847	36820.78
697.193	36400.23
697.539	36644.52
697.885	36304.86
698.231	36125.89
698.577	36197.3
698.923	36162.27
699.269	35976.96
699.614	35900.36
699.96	35759.12
700.306	35824.43
700.651	35564.32
700.997	35484.77
701.342	35593.24
701.688	35530.2
702.033	35212.92
702.379	35309.64
702.724	35159.13
703.069	35235.29
703.415	34788.07
703.76	34996.65
704.105	34977.22
704.45	34792.36
704.795	34580.62
705.14	34539.49
705.485	34519.6
705.83	34401.86
706.175	34299.95
706.52	34300.4
706.865	34027.41
707.209	34092.27
707.554	34032.16
707.899	34042.33
708.243	33872.84
708.588	33798.94
708.932	33666.29
709.277	33545.16
709.621	33568.21
709.966	33471.49
710.31	33453.19
710.654	33186.3
710.998	33243.48
711.342	33212.52
711.687	33220.43
712.031	33036.25
712.375	32924.61
712.719	32831.51
713.063	32967.1
713.407	32982.01
713.75	32637.39
714.094	32770.72
714.438	32706.77
714.782	32648.92
715.125	32437.85
715.469	32566.43
715.812	32339.32
716.156	32173.67
716.499	32325.53
716.843	32246.44
717.186	32054.58
717.53	32192.66
717.873	32127.35
718.216	32151.53
718.559	31947.01
718.902	31698.88
719.246	31895.49
719.589	31688.04
719.932	31581.6
720.275	31627.47
720.617	31543.18
720.96	31534.14
721.303	31479.68
721.646	31491.88
721.989	31318.56
722.331	31376.63
722.674	31280.36
723.016	31332.79
723.359	31129.18
723.701	31207.15
724.044	31082.63
724.386	30865.46
724.729	30864.1
725.071	30794.28
725.413	30883.54
725.755	30794.5
726.097	30699.14
726.439	30551.12
726.782	30711.34
727.124	30681.74
727.465	30483.1
727.807	30601.29
728.149	30405.36
728.491	30314.74
728.833	30382.08
729.175	30271.58
729.516	30034.97
729.858	30205.82
730.199	30149.77
730.541	30104.8
730.882	30233.61
731.224	30110
731.565	29952.94
731.906	29981.87
732.248	29900.74
732.589	29774.19
732.93	29741.65
733.271	29812.61
733.612	29693.06
733.953	29597.7
734.294	29593.4
734.635	29542.1
734.976	29621.2
735.317	29510.92
735.658	29514.08
735.999	29548.88
736.339	29382.79
736.68	29502.11
737.021	29301.88
737.361	29273.41
737.702	29233.86
738.042	29259.17
738.383	29246.07
738.723	29196.12
739.063	29105.73
739.404	29079.97
739.744	28998.16
740.084	28893.08
740.424	29058.5
740.764	28871.61
741.104	28960.88
741.444	28691.96
741.784	28689.92
742.124	28752.75
742.464	28761.79
742.804	28657.61
743.143	28518.63
743.483	28524.96
743.823	28357.05
744.162	28349.37
744.502	28478.63
744.841	28371.74
745.181	28442.02
745.52	28289.26
745.86	28259.43
746.199	28197.06
746.538	28132.88
746.877	28257.62
747.216	28211.74
747.556	28083.16
747.895	28072.76
748.234	27881.36
748.573	27818.08
748.911	27856.5
749.25	27911.64
749.589	27666.9
749.928	27828.7
750.267	27849.95
750.605	27665.77
750.944	27680.68
751.283	27470.07
751.621	27552.55
751.96	27512.78
752.298	27400.69
752.636	27491.31
752.975	27231.43
753.313	27245.67
753.651	27299.68
753.989	27204.76
754.327	27161.83
754.666	27021.49
755.004	27045.67
755.342	26955.73
755.679	27061.04
756.017	26856.07
756.355	26951.89
756.693	26683.65
757.031	26818.11
757.368	26570.88
757.706	26684.33
758.044	26500.83
758.381	26453.82
758.719	26287.05
759.056	26402.3
759.394	26335.41
759.731	26177.67
760.068	26207.95
760.405	26121.18
760.743	25913.95
761.08	26012.03
761.417	25904.46
761.754	25788.98
762.091	25828.76
762.428	25727.74
762.765	25597.12
763.102	25519.61
763.438	25429.67
763.775	25312.16
764.112	25497.69
764.449	25480.06
764.785	25206.63
765.122	25068.1
765.458	24902.45
765.795	24920.53
766.131	24899.74
766.467	24882.11
766.804	24629.92
767.14	24695.45
767.476	24579.3
767.812	24430.15
768.148	24494.55
768.485	24280.32
768.821	24266.76
769.157	24199.87
769.492	24101.8
769.828	24101.12
770.164	23895.7
770.5	23834.46
770.836	23819.77
771.171	23681.02
771.507	23651.19
771.842	23376.84
772.178	23540
772.513	23454.58
772.849	23382.49
773.184	23179.11
773.519	23178.43
773.855	23067.47
774.19	22973.01
774.525	22823.41
774.86	22889.4
775.195	22690.08
775.53	22660.48
775.865	22571.89
776.2	22436.3
776.535	22206.03
776.87	22354.27
777.205	22108.63
777.539	22083.09
777.874	22110.89
778.209	21940.95
778.543	21913.15
778.878	21801.74
779.212	21734.63
779.547	21758.58
779.881	21631.58
780.215	21580.73
780.55	21488.98
780.884	21335.99
781.218	21367.63
781.552	21327.41
781.886	21223.23
782.22	21086.06
782.554	20996.57
782.888	20746.4
783.222	20811.49
783.556	20758.61
783.889	20639.29
784.223	20491.04
784.557	20463.25
784.89	20584.37
785.224	20429.58
785.557	20247.66
785.891	20225.51
786.224	20135.12
786.558	20217.15
786.891	19935.35
787.224	19901.23
787.557	19840.66
787.891	19823.94
788.224	19831.4
788.557	19779.2
788.89	19717.73
789.223	19671.63
789.556	19585.98
789.888	19435.03
790.221	19341.47
790.554	19193
790.887	19207.46
791.219	19135.37
791.552	19213.56
791.884	19061.02
792.217	18977.86
792.549	18930.63
792.882	18691.54
793.214	18718.66
793.546	18769.05
793.879	18518.21
794.211	18522.96
794.543	18486.12
794.875	18447.03
795.207	18498.33
795.539	18346.01
795.871	18361.16
796.203	18145.12
796.535	18066.25
796.867	18119.13
797.198	18029.64
797.53	17987.15
797.862	17833.03
798.193	17846.14
798.525	17828.74
798.856	17748.06
799.188	17662.42
799.519	17494.96
799.85	17527.73
800.182	17476.89
800.513	17496.32
800.844	17349.43
801.175	17354.85
801.506	17351.01
801.837	17344.23
802.168	17196.21
802.499	17206.61
802.83	17048.65
803.161	17050.46
803.491	17034.86
803.822	16947.41
804.153	16828.77
804.483	16815.66
804.814	16743.57
805.145	16773.4
805.475	16650.47
805.805	16657.47
806.136	16570.47
806.466	16605.5
806.796	16570.69
807.126	16389.91
807.457	16309.01
807.787	16390.59
808.117	16310.81
808.447	16121.67
808.777	16282.79
809.107	16195.56
809.436	16176.35
809.766	16074.89
810.096	15981.56
810.426	16014.32
810.755	15990.14
811.085	15995.12
811.414	15865.18
811.744	15839.19
812.073	15794.44
812.403	15751.73
812.732	15583.15
813.061	15597.61
813.39	15546.31
813.719	15536.15
814.049	15559.42
814.378	15535.24
814.707	15457.73
815.036	15426.77
815.365	15336.15
815.693	15184.97
816.022	15275.81
816.351	15284.17
816.68	15114.24
817.008	15162.6
817.337	15016.38
817.665	15007.8
817.994	15051.19
818.322	15069.04
818.651	14873.79
818.979	14875.15
819.307	14963.73
819.636	14790.63
819.964	14802.61
820.292	14755.6
820.62	14882.6
820.948	14728.26
821.276	14776.84
821.604	14764.64
821.932	14681.03
822.259	14702.72
822.587	14776.39
822.915	14651.65
823.243	14585.44
823.57	14669.05
823.898	14740.23
824.225	14582.05
824.553	14616.4
824.88	14615.94
825.207	14610.97
825.535	14657.07
825.862	14686.9
826.189	14615.49
826.516	14650.97
826.843	14760.35
827.17	14741.59
827.497	14700.46
827.824	14638.54
828.151	14678.31
828.478	14679.44
828.805	14659.56
829.131	14664.3
829.458	14627.02
829.785	14466.12
830.111	14652.33
830.438	14569.39
830.764	14627.24
831.09	14592.22
831.417	14465.89
831.743	14578.88
832.069	14646.9
832.395	14481.48
832.722	14534.82
833.048	14455.27
833.374	14525.78
833.7	14376.85
834.026	14479
834.351	14524.87
834.677	14464.08
835.003	14486.68
835.329	14488.26
835.654	14407.59
835.98	14386.34
836.306	14338.66
836.631	14341.83
836.956	14378.44
837.282	14319.91
837.607	14242.62
837.932	14249.85
838.258	14240.59
838.583	14222.06
838.908	14136.18
839.233	14189.97
839.558	14188.84
839.883	14144.54
840.208	14086.47
840.533	13992.91
840.858	14086.69
841.182	13941.61
841.507	13999.24
841.832	13921.95
842.156	13968.05
842.481	13885.34
842.805	13798.11
843.13	13773.25
843.454	13827.04
843.778	13749.98
844.103	13701.62
844.427	13617.1
844.751	13640.6
845.075	13660.49
845.399	13587.72
845.723	13515.86
846.047	13580.94
846.371	13395.41
846.695	13441.74
847.019	13322.87
847.343	13255.3
847.666	13223.44
847.99	13174.85
848.313	13162.87
848.637	13021.18
848.96	13074.29
849.284	12936.89
849.607	12866.61
849.931	12865.25
850.254	12777.57
850.577	12685.37
850.9	12646.28
851.223	12672.04
851.546	12593.85
851.869	12515.89
852.192	12571.03
852.515	12438.15
852.838	12383.01
853.161	12371.26
853.483	12303.69
853.806	12309.79
854.129	12309.34
854.451	12223.92
854.774	12142.11
855.096	12107.08
855.419	12036.12
855.741	12058.27
856.063	11870.25
856.385	11934.21
856.708	11832.97
857.03	11827.32
857.352	11820.54
857.674	11813.98
857.996	11724.27
858.318	11637.94
858.64	11728.79
858.961	11739.18
859.283	11569.24
859.605	11574.22
859.926	11566.76
860.248	11483.6
860.57	11456.7
860.891	11594.78
861.212	11438.85
861.534	11376.71
861.855	11363.37
862.176	11394.79
862.498	11326.54
862.819	11326.54
863.14	11325.41
863.461	11261.91
863.782	11258.74
864.103	11229.59
864.424	11238.41
864.745	11209.71
865.065	11167.67
865.386	11153.66
865.707	11133.55
866.027	11070.05
866.348	11062.82
866.668	11017.17
866.989	11065.3
867.309	10969.49
867.63	11056.49
867.95	11010.39
868.27	10987.79
868.59	10989.15
868.91	10911.41
869.23	10896.27
869.55	10813.78
869.87	10909.37
870.19	10815.82
870.51	10781.24
870.83	10859.88
871.15	10684.52
871.469	10833.67
871.789	10781.47
872.109	10817.4
872.428	10699.21
872.748	10688.36
873.067	10755.48
873.386	10696.27
873.706	10701.47
874.025	10695.14
874.344	10628.7
874.663	10585.54
874.982	10624.18
875.301	10623.28
875.62	10524.98
875.939	10562.04
876.258	10556.84
876.577	10446.79
876.896	10480.91
877.214	10454.02
877.533	10432.32
877.852	10468.71
878.17	10451.53
878.489	10409.27
878.807	10448.82
879.125	10304.87
879.444	10332.67
879.762	10327.02
880.08	10281.82
880.398	10302.84
880.716	10237.98
881.034	10216.51
881.352	10295.6
881.67	10222.39
881.988	10214.48
882.306	10191.88
882.624	10155.72
882.941	10210.64
883.259	10071.66
883.577	10060.36
883.894	10046.57
884.212	10010.41
884.529	9983.97
884.846	9990.75
885.164	9986.46
885.481	9948.27
885.798	9959.12
886.115	9855.39
886.432	9823.75
886.75	9790.31
887.067	9812.23
887.383	9783.75
887.7	9867.37
888.017	9762.29
888.334	9809.97
888.651	9677.77
888.967	9640.71
889.284	9672.34
889.6	9593.25
889.917	9487.94
890.233	9521.16
890.55	9544.21
890.866	9553.25
891.182	9452.69
891.498	9457.43
891.815	9450.43
892.131	9382.86
892.447	9401.84
892.763	9324.11
893.079	9324.11
893.395	9326.59
893.71	9187.84
894.026	9228.51
894.342	9188.29
894.657	9167.5
894.973	9120.04
895.289	9071.46
895.604	9176.09
895.92	8974.28
896.235	9043.21
896.55	9017.22
896.865	8969.76
897.181	8930.22
897.496	8972.25
897.811	8854.29
898.126	8838.47
898.441	8822.42
898.756	8764.8
899.071	8734.52
899.386	8775.87
899.7	8715.99
900.015	8676.44
900.33	8615.2
900.644	8548.76
900.959	8590.79
901.273	8582.88
901.588	8434.19
901.902	8459.5
902.216	8520.74
902.531	8438.25
902.845	8401.87
903.159	8383.34
903.473	8305.15
903.787	8204.13
904.101	8234.42
904.415	8236.9
904.729	8189.9
905.042	8125.04
905.356	8117.13
905.67	8115.55
905.984	8132.72
906.297	8075.32
906.611	8034.2
906.924	8003.24
907.237	7952.16
907.551	7929.34
907.864	7900.19
908.177	7862.67
908.491	7849.57
908.804	7807.99
909.117	7798.95
909.43	7717.82
909.743	7699.52
910.056	7695.67
910.368	7624.94
910.681	7590.14
910.994	7567.99
911.307	7574.09
911.619	7520.99
911.932	7501.33
912.244	7456.58
912.557	7497.94
912.869	7380.65
913.181	7334.78
913.494	7411.84
913.806	7316.25
914.118	7275.12
914.43	7303.37
914.742	7186.31
915.054	7149.7
915.366	7126.87
915.678	7111.28
915.99	7176.82
916.302	7040.1
916.613	7022.24
916.925	7006.65
917.236	7020.66
917.548	6914.22
917.859	6895.02
918.171	6857.96
918.482	6829.26
918.794	6842.59
919.105	6786.77
919.416	6805.3
919.727	6750.16
920.038	6783.83
920.349	6700.22
920.66	6663.16
920.971	6672.88
921.282	6651.18
921.593	6604.4
921.903	6537.06
922.214	6549.26
922.525	6523.27
922.835	6523.73
923.146	6460.45
923.456	6427.91
923.767	6376.61
924.077	6405.31
924.387	6418.42
924.697	6325.31
925.008	6323.96
925.318	6196.5
925.628	6320.79
925.938	6228.82
926.248	6170.29
926.558	6150.63
926.867	6052.55
927.177	6080.12
927.487	6066.11
927.796	6020.46
928.106	6015.04
928.416	6054.13
928.725	6002.38
929.034	5897.53
929.344	5952.67
929.653	5940.01
929.962	5891.65
930.271	5862.5
930.581	5793.58
930.89	5794.71
931.199	5737.31
931.508	5747.93
931.817	5757.65
932.125	5761.26
932.434	5657.76
932.743	5640.36
933.051	5615.28
933.36	5589.29
933.669	5510.42
933.977	5499.8
934.286	5469.74
934.594	5469.29
934.902	5476.52
935.21	5455.51
935.519	5450.76
935.827	5445.34
936.135	5428.84
936.443	5316.53
936.751	5317.88
937.059	5305
937.367	5270.43
937.674	5284.66
937.982	5233.82
938.29	5239.69
938.597	5260.03
938.905	5173.25
939.213	5209.19
939.52	5154.5
939.827	5148.4
940.135	5112.46
940.442	5071.79
940.749	5052.35
941.056	5111.11
941.363	4978
941.67	5003.54
941.977	4976.42
942.284	4921.96
942.591	4966.25
942.898	4885.8
943.205	4901.62
943.511	4863.21
943.818	4870.89
944.125	4796.77
944.431	4811.46
944.738	4786.15
945.044	4757.9
945.35	4827.73
945.657	4716.32
945.963	4649.65
946.269	4657.79
946.575	4740.27
946.881	4669.76
947.187	4656.21
947.493	4601.29
947.799	4580.73
948.105	4612.59
948.41	4539.15
948.716	4531.46
949.022	4495.76
949.327	4500.96
949.633	4467.06
949.938	4425.25
950.244	4460.05
950.549	4372.82
950.854	4380.96
951.16	4405.59
951.465	4307.51
951.77	4301.86
952.075	4341.19
952.38	4294.41
952.685	4266.38
952.99	4199.72
953.294	4231.81
953.599	4168.31
953.904	4172.83
954.209	4139.38
954.513	4141.42
954.818	4185.94
955.122	4105.49
955.426	4106.16
955.731	4097.35
956.035	4064.81
956.339	4071.14
956.643	4062.77
956.948	4012.38
957.252	4000.18
957.556	3982.78
957.86	3939.61
958.163	3913.85
958.467	3946.62
958.771	3896.68
959.075	3939.39
959.378	3903.46
959.682	3879.73
959.985	3856.9
960.289	3792.95
960.592	3795.44
960.896	3785.49
961.199	3803.12
961.502	3780.3
961.805	3721.54
962.108	3721.54
962.411	3724.25
962.714	3695.33
963.017	3672.5
963.32	3679.28
963.623	3664.59
963.926	3664.59
964.228	3628.89
964.531	3617.14
964.833	3580.98
965.136	3562.9
965.438	3551.6
965.741	3546.4
966.043	3533.3
966.345	3505.73
966.648	3527.87
966.95	3491.26
967.252	3498.5
967.554	3457.14
967.856	3456.01
968.158	3404.03
968.46	3402.68
968.761	3402.68
969.063	3401.1
969.365	3370.36
969.666	3358.84
969.968	3346.18
970.269	3320.2
970.571	3336.69
970.872	3296.47
971.174	3311.16
971.475	3236.58
971.776	3269.12
972.077	3208.56
972.378	3221.44
972.679	3167.66
972.98	3218.73
973.281	3178.28
973.582	3198.62
973.883	3129.01
974.183	3145.96
974.484	3155.23
974.785	3119.52
975.085	3088.56
975.386	3086.53
975.686	3064.61
975.986	3114.78
976.287	3032.29
976.587	3020.32
976.887	2993.88
977.187	3010.6
977.487	3013.76
977.787	2986.19
978.087	2942.58
978.387	2931.73
978.687	2923.37
978.987	2935.35
979.286	2911.39
979.586	2881.56
979.885	2869.81
980.185	2852.18
980.484	2853.54
980.784	2854.44
981.083	2872.3
981.382	2859.19
981.682	2802.69
981.981	2791.85
982.28	2806.54
982.579	2776.48
982.878	2785.97
983.177	2783.71
983.475	2741
983.774	2711.85
984.073	2708.46
984.372	2713.66
984.67	2692.19
984.969	2676.82
985.267	2690.16
985.566	2666.65
985.864	2630.95
986.162	2610.38
986.461	2621.46
986.759	2613.77
987.057	2590.27
987.355	2588.01
987.653	2601.34
987.951	2567.45
988.249	2529.93
988.547	2534.68
988.844	2535.36
989.142	2536.49
989.44	2496.71
989.737	2474.79
990.035	2477.51
990.332	2450.61
990.63	2436.38
990.927	2432.31
991.224	2464.85
991.521	2432.53
991.819	2404.97
992.116	2366.77
992.413	2427.34
992.71	2394.34
993.006	2376.49
993.303	2371.97
993.6	2338.75
993.897	2294.69
994.193	2351.86
994.49	2310.28
994.787	2303.5
995.083	2289.94
995.379	2280.67
995.676	2286.78
995.972	2268.92
996.268	2249.49
996.565	2272.31
996.861	2232.77
997.157	2216.5
997.453	2227.79
997.749	2197.74
998.044	2167.01
998.34	2163.39
998.636	2191.64
998.932	2139.44
999.227	2134.92
999.523	2110.96
999.818	2109.15
1000.114	2113.9
1000.409	2114.35
1000.704	2077.97
1001	2069.61
1001.295	2065.76
1001.59	2055.6
1001.885	2073.9
1002.18	2037.97
1002.475	2001.13
1002.77	1991.42
1003.065	2016.73
1003.359	1996.84
1003.654	1991.87
1003.949	1932.89
1004.243	1991.64
1004.538	1958.2
1004.832	1920.23
1005.127	1925.66
1005.421	1913.68
1005.715	1916.39
1006.009	1870.06
1006.304	1882.04
1006.598	1848.82
1006.892	1881.81
1007.186	1870.74
1007.48	1832.78
1007.773	1831.19
1008.067	1829.39
1008.361	1800.01
1008.655	1807.69
1008.948	1786.45
1009.242	1770.63
1009.535	1758.65
1009.829	1751.65
1010.122	1753.23
1010.415	1725.43
1010.708	1728.15
1011.001	1660.8
1011.295	1737.41
1011.588	1704.42
1011.881	1665.78
1012.173	1668.04
1012.466	1675.49
1012.759	1659.22
1013.052	1669.39
1013.344	1630.75
1013.637	1656.96
1013.93	1608.38
1014.222	1605.89
1014.514	1625.1
1014.807	1620.13
1015.099	1573.8
1015.391	1577.87
1015.683	1564.76
1015.976	1570.41
1016.268	1570.18
1016.56	1549.62
1016.851	1505.33
1017.143	1492.9
1017.435	1504.42
1017.727	1509.4
1018.018	1473.69
1018.31	1496.97
1018.602	1475.95
1018.893	1471.2
1019.185	1470.07
1019.476	1447.25
1019.767	1457.19
1020.058	1444.99
1020.35	1428.27
1020.641	1396.18
1020.932	1383.3
1021.223	1385.78
1021.514	1379.91
1021.804	1386.46
1022.095	1387.82
1022.386	1372.45
1022.677	1343.75
1022.967	1364.77
1023.258	1347.82
1023.548	1317.54
1023.839	1324.77
1024.129	1304.88
1024.419	1299.23
1024.709	1287.48
1025	1284.54
1025.29	1281.15
1025.58	1280.25
1025.87	1267.14
1026.16	1260.59
1026.449	1228.72
1026.739	1245.67
1027.029	1216.75
1027.319	1235.05
1027.608	1237.99
1027.898	1210.87
1028.187	1195.51
1028.477	1189.4
1028.766	1187.14
1029.055	1207.48
1029.344	1185.56
1029.634	1164.55
1029.923	1151.21
1030.212	1158.22
1030.501	1105.56
1030.79	1133.36
1031.078	1121.16
1031.367	1101.95
1031.656	1117.32
1031.945	1141.72
1032.233	1093.14
1032.522	1127.03
1032.81	1083.87
1033.099	1081.84
1033.387	1056.75
1033.675	1055.85
1033.963	1054.04
1034.251	1036.87
1034.54	1013.14
1034.828	1034.83
1035.116	1017.66
1035.403	1023.98
1035.691	1029.86
1035.979	1007.94
1036.267	1019.01
1036.554	989.63
1036.842	1001.39
1037.129	992.35
1037.417	974.04
1037.704	960.48
1037.992	974.27
1038.279	948.51
1038.566	907.38
1038.853	907.38
1039.14	907.38
