Data from hue_340_FLMS001491_50.txt Node
Date: Mon Feb 06 15:43:11 GMT 2017
User: dcchb
Spectrometer: FLMS00149
Trigger mode: 0
Integration Time (sec): 2.000000E-2
Scans to average: 10
Electric dark correction enabled: true
Nonlinearity correction enabled: false
Boxcar width: 0
XAxis mode: Wavelengths
Number of Pixels in Spectrum: 2048
>>>>>Begin Spectral Data<<<<<
341.393	-27.82
341.776	-27.82
342.16	-27.82
342.543	-80.48
342.927	-79.12
343.31	-59.91
343.693	-82.74
344.077	-64.89
344.46	-68.28
344.843	-44.09
345.226	-37.32
345.61	-30.08
345.993	-10.88
346.376	4.49
346.759	-15.17
347.142	46.75
347.525	51.04
347.908	57.6
348.291	81.1
348.674	73.64
349.057	98.73
349.44	128.78
349.823	157.48
350.206	174.2
350.588	185.96
350.971	199.06
351.354	216.69
351.737	211.27
352.119	251.26
352.502	252.85
352.884	270.47
353.267	288.1
353.65	286.97
354.032	280.87
354.414	288.1
354.797	301.66
355.179	333.52
355.562	327.87
355.944	319.06
356.326	312.28
356.709	352.5
357.091	334.88
357.473	333.97
357.855	322.45
358.238	330.58
358.62	325.39
359.002	326.97
359.384	328.1
359.766	331.26
360.148	348.89
360.53	320.64
360.912	324.48
361.294	333.52
361.676	322
362.057	325.61
362.439	320.87
362.821	318.16
363.203	322.45
363.584	329.23
363.966	324.48
364.348	309.79
364.729	322.22
365.111	325.16
365.493	297.82
365.874	316.35
366.256	320.64
366.637	293.98
367.019	323.58
367.4	335.33
367.781	328.78
368.163	314.54
368.544	309.34
368.925	290.36
369.306	307.76
369.688	310.02
370.069	315.9
370.45	298.49
370.831	316.35
371.212	301.21
371.593	325.39
371.974	317.03
372.355	317.25
372.736	304.6
373.117	307.99
373.498	305.73
373.879	329.23
374.26	295.11
374.641	300.08
375.021	307.99
375.402	310.02
375.783	338.72
376.163	324.48
376.544	320.87
376.925	303.92
377.305	294.65
377.686	340.75
378.066	334.2
378.447	319.74
378.827	320.19
379.208	322.68
379.588	320.64
379.968	322
380.349	323.81
380.729	326.97
381.109	313.64
381.489	333.07
381.87	322
382.25	326.06
382.63	321.09
383.01	348.21
383.39	338.04
383.77	316.8
384.15	336.46
384.53	346.86
384.91	336.69
385.29	338.49
385.67	339.4
386.049	337.14
386.429	360.64
386.809	327.87
387.189	340.53
387.568	342.34
387.948	344.82
388.328	347.99
388.707	340.08
389.087	337.14
389.466	336.91
389.846	355.44
390.225	344.82
390.605	349.12
390.984	340.08
391.363	360.19
391.743	327.42
392.122	347.76
392.501	363.35
392.881	374.88
393.26	360.19
393.639	364.48
394.018	380.3
394.397	362.9
394.776	376.01
395.155	367.19
395.534	359.51
395.913	370.81
396.292	350.92
396.671	366.29
397.05	364.71
397.429	385.05
397.808	338.27
398.186	366.97
398.565	356.12
398.944	378.27
399.323	370.58
399.701	355.67
400.08	371.04
400.458	376.91
400.837	390.92
401.215	396.8
401.594	378.94
401.972	384.82
402.351	369.23
402.729	387.31
403.107	369.45
403.486	396.8
403.864	397.93
404.242	394.31
404.62	395.44
404.999	399.51
405.377	394.31
405.755	399.28
406.133	388.21
406.511	423.46
406.889	427.53
407.267	396.12
407.645	408.1
408.023	422.56
408.401	411.71
408.779	418.94
409.156	420.75
409.534	414.42
409.912	437.25
410.29	442.22
410.667	435.67
411.045	448.1
411.422	442.45
411.8	446.97
412.178	446.74
412.555	462.33
412.933	462.78
413.31	487.87
413.687	456.46
414.065	451.26
414.442	474.54
414.819	474.31
415.197	473.41
415.574	466.63
415.951	515.21
416.328	489
416.705	518.6
417.082	497.13
417.46	505.27
417.837	526.06
418.214	488.77
418.591	523.12
418.967	545.04
419.344	531.94
419.721	531.71
420.098	533.29
420.475	526.06
420.852	556.79
421.228	548.66
421.605	547.3
421.982	539.62
422.358	570.58
422.735	570.58
423.111	564.25
423.488	566.28
423.864	576
424.241	577.36
424.617	583.69
424.994	592.5
425.37	617.81
425.746	628.2
426.123	587.3
426.499	620.75
426.875	602.67
427.251	625.04
427.627	618.49
428.003	621.42
428.379	647.19
428.756	626.85
429.132	647.86
429.507	667.07
429.883	659.84
430.259	664.81
430.635	673.63
431.011	665.94
431.387	676.79
431.763	682.67
432.138	680.18
432.514	699.16
432.89	693.96
433.265	712.04
433.641	720.63
434.016	705.26
434.392	734.19
434.767	741.42
435.143	737.81
435.518	748.65
435.894	760.63
436.269	761.76
436.644	765.15
437.02	764.47
437.395	770.8
437.77	772.83
438.145	806.73
438.52	782.1
438.895	827.75
439.271	801.08
439.646	813.74
440.021	814.41
440.395	811.48
440.77	812.38
441.145	832.49
441.52	842.21
441.895	848.54
442.27	833.4
442.645	832.49
443.019	856.45
443.394	842.89
443.769	848.31
444.143	864.81
444.518	869.55
444.892	879.72
445.267	862.55
445.641	867.75
446.016	867.29
446.39	895.54
446.764	919.72
447.139	882.43
447.513	897.8
447.887	905.26
448.262	872.49
448.636	911.59
449.01	895.32
449.384	938.25
449.758	918.82
450.132	949.55
450.506	941.42
450.88	924.02
451.254	928.08
451.628	926.5
452.002	964.01
452.376	957.46
452.75	967.18
453.123	968.76
453.497	963.11
453.871	964.01
454.244	980.96
454.618	993.39
454.992	990.23
455.365	980.96
455.739	998.82
456.112	1020.51
456.486	1022.77
456.859	1032.94
457.232	1053.5
457.606	1040.62
457.979	1054.86
458.352	1061.19
458.725	1105.93
459.099	1080.4
459.472	1093.95
459.845	1077.46
460.218	1112.94
460.591	1117.23
460.964	1133.95
461.337	1136.89
461.71	1155.42
462.083	1195.87
462.456	1164.23
462.829	1175.08
463.201	1206.72
463.574	1200.39
463.947	1203.1
464.32	1210.79
464.692	1228.64
465.065	1254.85
465.438	1274.51
465.81	1281.52
466.183	1263.89
466.555	1307.06
466.928	1291.01
467.3	1314.06
467.672	1333.5
468.045	1313.38
468.417	1338.69
468.789	1369.65
469.161	1365.36
469.534	1369.88
469.906	1408.52
470.278	1413.27
470.65	1404.91
471.022	1447.84
471.394	1466.15
471.766	1489.65
472.138	1511.8
472.51	1499.59
472.882	1555.41
473.253	1553.15
473.625	1578.69
473.997	1570.1
474.369	1613.94
474.74	1619.36
475.112	1676.76
475.484	1631.12
475.855	1684.22
476.227	1694.62
476.598	1726.71
476.97	1752.24
477.341	1761.73
477.713	1845.8
478.084	1796.99
478.455	1839.92
478.827	1896.65
479.198	1942.52
479.569	1913.59
479.94	1975.74
480.311	1967.6
480.682	2033.36
481.053	2081.05
481.424	2093.25
481.795	2105.68
482.166	2165.56
482.537	2150.2
482.908	2200.59
483.279	2220.03
483.65	2244.43
484.021	2264.54
484.391	2334.15
484.762	2328.27
485.133	2301.61
485.503	2357.2
485.874	2423.18
486.244	2442.39
486.615	2450.98
486.985	2492.79
487.356	2530.98
487.726	2545.89
488.097	2607.36
488.467	2634.25
488.837	2671.09
489.207	2715.38
489.578	2738.88
489.948	2758.77
490.318	2825.21
490.688	2826.56
491.058	2831.08
491.428	2847.13
491.798	2955.6
492.168	2941.59
492.538	2935.26
492.908	2994.47
493.278	3010.51
493.648	2999.21
494.017	3057.07
494.387	3085.77
494.757	3114.24
495.126	3105.88
495.496	3143.39
495.866	3170.96
496.235	3205.09
496.605	3208.7
496.974	3227.01
497.344	3258.19
497.713	3317.17
498.082	3340.45
498.452	3349.04
498.821	3355.36
499.19	3381.13
499.559	3342.48
499.928	3405.76
500.298	3396.72
500.667	3457.96
501.036	3481.46
501.405	3451.41
501.774	3485.3
502.143	3513.78
502.512	3479.88
502.88	3588.8
503.249	3524.4
503.618	3565.3
503.987	3574.34
504.356	3613.21
504.724	3623.15
505.093	3638.75
505.462	3595.58
505.83	3664.96
506.199	3680.33
506.567	3701.12
506.936	3727.56
507.304	3716.03
507.672	3807.1
508.041	3764.17
508.409	3781.79
508.777	3791.74
509.145	3827.89
509.514	3802.81
509.882	3822.47
510.25	3829.7
510.618	3852.98
510.986	3860.66
511.354	3915.58
511.722	3912.19
512.09	3948.34
512.458	3946.76
512.826	3945.18
513.193	3969.36
513.561	3950.15
513.929	4009.58
514.297	4008.91
514.664	3987.44
515.032	4045.74
515.4	4069.92
515.767	4085.51
516.135	4100.2
516.502	4029.02
516.869	4130.03
517.237	4116.93
517.604	4143.37
517.972	4109.69
518.339	4144.95
518.706	4124.16
519.073	4134.78
519.44	4200.99
519.808	4204.61
520.175	4200.54
520.542	4203.25
520.909	4232.63
521.276	4248.22
521.643	4240.99
522.009	4274.89
522.376	4247.77
522.743	4272.63
523.11	4350.59
523.477	4332.06
523.843	4388.56
524.21	4356.24
524.577	4429.91
524.943	4413.19
525.31	4441.44
525.676	4502.9
526.043	4526.86
526.409	4497.93
526.776	4548.78
527.142	4572.73
527.508	4571.15
527.874	4634.43
528.241	4634.65
528.607	4643.92
528.973	4666.06
529.339	4666.29
529.705	4754.87
530.071	4735.89
530.437	4730.69
530.803	4746.51
531.169	4829
531.535	4801.43
531.901	4817.7
532.267	4786.96
532.632	4882.33
532.998	4897.7
533.364	4889.56
533.73	4874.65
534.095	4920.29
534.461	4929.56
534.826	4994.42
535.192	4968.65
535.557	5048.43
535.923	5036
536.288	5028.09
536.653	5066.96
537.019	5089.1
537.384	5090.01
537.749	5111.93
538.114	5147.63
538.479	5167.52
538.845	5182.43
539.21	5167.75
539.575	5242.09
539.94	5238.48
540.305	5272.6
540.67	5265.82
541.034	5305.14
541.399	5282.54
541.764	5381.07
542.129	5358.93
542.494	5410.22
542.858	5435.76
543.223	5437.57
543.587	5475.53
543.952	5433.5
544.316	5452.71
544.681	5466.04
545.045	5514.18
545.41	5562.31
545.774	5569.77
546.138	5629.43
546.503	5596.43
546.867	5600.73
547.231	5685.47
547.595	5701.97
547.959	5694.29
548.324	5688.41
548.688	5713.49
549.052	5729.31
549.416	5796.88
549.779	5753.49
550.143	5812.25
550.507	5910.55
550.871	5856.99
551.235	5806.82
551.599	5881.63
551.962	5932.47
552.326	5909.65
552.689	5979.48
553.053	5933.15
553.417	5967.95
553.78	6018.12
554.143	6002.53
554.507	5995.52
554.87	6080.04
555.234	6126.82
555.597	6078.23
555.96	6078.46
556.323	6099.92
556.686	6133.82
557.05	6173.14
557.413	6176.98
557.776	6231.9
558.139	6191.22
558.502	6231.45
558.865	6220.37
559.228	6253.37
559.59	6278.22
559.953	6285.46
560.316	6383.31
560.679	6367.04
561.041	6388.28
561.404	6320.26
561.767	6449.75
562.129	6408.62
562.492	6452.23
562.854	6453.14
563.217	6451.78
563.579	6461.27
563.941	6475.51
564.304	6532.91
564.666	6539.46
565.028	6565.45
565.39	6617.88
565.753	6650.64
566.115	6602.74
566.477	6692
566.839	6728.61
567.201	6715.95
567.563	6770.64
567.925	6733.35
568.287	6731.32
568.648	6828.04
569.01	6846.57
569.372	6884.99
569.734	6888.38
570.095	6948.94
570.457	6946.68
570.819	7011.09
571.18	6992.56
571.542	7056.96
571.903	7026.91
572.265	7070.29
572.626	7156.85
572.987	7142.83
573.349	7199.78
573.71	7254.02
574.071	7373.56
574.432	7291.08
574.794	7430.96
575.155	7472.09
575.516	7529.72
575.877	7583.28
576.238	7628.25
576.599	7666.21
576.96	7779.88
577.32	7785.53
577.681	7922.25
578.042	8033.88
578.403	8027.56
578.763	8070.04
579.124	8164.05
579.485	8263.71
579.845	8387.55
580.206	8484.27
580.566	8557.94
580.927	8690.59
581.287	8840.19
581.648	8925.39
582.008	9068.43
582.368	9103.91
582.728	9358.6
583.089	9400.85
583.449	9541.42
583.809	9691.02
584.169	9917.68
584.529	10035.41
584.889	10241.51
585.249	10378.91
585.609	10448.74
585.969	10752.68
586.329	10867.71
586.688	11123.3
587.048	11289.17
587.408	11417.3
587.768	11651.87
588.127	11969.15
588.487	12131.18
588.846	12494.78
589.206	12538.63
589.565	12805.96
589.925	13128.21
590.284	13297.93
590.643	13510.35
591.003	13834.41
591.362	14096.32
591.721	14328.41
592.08	14589.19
592.44	14880.03
592.799	15150.31
593.158	15436.18
593.517	15683.85
593.876	15927.69
594.235	16210.84
594.593	16506.43
594.952	16768.34
595.311	16907.1
595.67	17307.31
596.029	17778.26
596.387	17992.94
596.746	18416.66
597.104	18442.88
597.463	18782.3
597.822	19048.28
598.18	19302.52
598.538	19515.62
598.897	19920.58
599.255	19924.65
599.613	20572.99
599.972	20769.14
600.33	21002.81
600.688	21291.39
601.046	21509.01
601.404	21864.48
601.762	22178.82
602.12	22471.25
602.478	22728.87
602.836	23009.54
603.194	23083.88
603.552	23427.6
603.91	23665.56
604.268	23971.54
604.625	24191.65
604.983	24503.51
605.341	24583.96
605.698	24967.22
606.056	25073.66
606.413	25360.43
606.771	25729.92
607.128	25925.84
607.485	25985.05
607.843	26165.84
608.2	26680.63
608.557	26838.81
608.914	26917.68
609.272	27217.56
609.629	27415.07
609.986	27733.48
610.343	27842.18
610.7	28147.48
611.057	28307.7
611.414	28460.24
611.771	28558.99
612.127	28906.78
612.484	29059.77
612.841	29305.42
613.198	29276.94
613.554	29483.49
613.911	29900.88
614.267	29901.56
614.624	30153.08
614.98	30225.39
615.337	30498.15
615.693	30574.76
616.05	30703.35
616.406	31018.82
616.762	30970.23
617.118	31254.74
617.475	31256.55
617.831	31536.32
618.187	31504.23
618.543	31757.1
618.899	32181.05
619.255	32116.42
619.611	32103.31
619.967	32470.3
620.323	32614.03
620.678	32540.36
621.034	32511.21
621.39	32664.2
621.746	32685.44
622.101	33219.44
622.457	32933.12
622.812	33259.66
623.168	33427.34
623.523	33344.18
623.879	33564.06
624.234	33440.9
624.589	33723.83
624.945	33756.82
625.3	33989.13
625.655	33881.79
626.01	34067.32
626.365	34177.83
626.72	34115.46
627.075	34124.5
627.43	34171.28
627.785	34230.94
628.14	34406.3
628.495	34338.5
628.85	34349.13
629.205	34360.2
629.559	34607.42
629.914	34375.57
630.269	34515.22
630.623	34543.92
630.978	34444.26
631.332	34709.79
631.687	34669.57
632.041	34644.48
632.396	34711.83
632.75	34709.79
633.104	34742.11
633.459	34657.37
633.813	34742.11
634.167	34753.63
634.521	34921.99
634.875	34853.97
635.229	34673.18
635.583	34703.01
635.937	34773.07
636.291	34851.94
636.645	34841.77
636.999	34685.61
637.352	34853.29
637.706	34681.77
638.06	34769.23
638.413	34723.8
638.767	34693.3
639.121	34816.91
639.474	34601.55
639.828	34666.18
640.181	34703.01
640.534	34817.59
640.888	34677.03
641.241	34627.99
641.594	34712.96
641.947	34786.63
642.301	34662.34
642.654	34792.5
643.007	34796.34
643.36	34743.24
643.713	34751.15
644.066	34776.68
644.419	34639.96
644.771	34378.95
645.124	34206.08
645.477	34079.08
645.83	33903.71
646.182	33653.1
646.535	33674.79
646.888	33808.57
647.24	33580.78
647.593	33769.48
647.945	33732.42
648.298	33518.64
648.65	33544.85
649.002	33519.09
649.355	33622.82
649.707	33697.39
650.059	33816.48
650.411	34101.22
650.763	34246.08
651.115	34485.39
651.467	34398.39
651.819	34340.99
652.171	34357.71
652.523	34216.25
652.875	34265.51
653.227	34095.35
653.578	34485.62
653.93	34244.72
654.282	34256.92
654.633	34043.6
654.985	34162.24
655.337	34275.91
655.688	34201.78
656.039	34355.45
656.391	34009.02
656.742	34086.31
657.094	34079.3
657.445	34190.03
657.796	33927.67
658.147	34054.44
658.498	34211.5
658.849	34123.37
659.2	34032.3
659.551	33892.41
659.902	34089.7
660.253	33965.63
660.604	34161.33
660.955	33823.04
661.306	34026.2
661.656	33946.65
662.007	34035.46
662.358	34030.26
662.708	34040.88
663.059	33928.57
663.409	33894.22
663.76	33956.82
664.11	34040.43
664.461	34021.9
664.811	34040.66
665.161	33992.98
665.511	33978.29
665.862	34028.91
666.212	34053.99
666.562	34008.57
666.912	34085.4
667.262	33922.7
667.612	34020.09
667.962	33966.31
668.312	33907.33
668.662	34051.51
669.011	33960.66
669.361	33895.13
669.711	33821
670.06	33716.15
670.41	33719.54
670.76	33714.57
671.109	33901.91
671.459	33850.83
671.808	33748.01
672.157	33865.07
672.507	33583.95
672.856	33722.47
673.205	33774.22
673.554	33819.2
673.904	33722.02
674.253	33936.71
674.602	33740.55
674.951	33287.46
675.3	32941.25
675.649	33725.86
675.998	33545.3
676.346	33651.29
676.695	33562.71
677.044	33494.23
677.393	33387.12
677.741	33562.03
678.09	33465.98
678.438	33423.95
678.787	33494.23
679.135	33531.97
679.484	33256.95
679.832	33469.6
680.181	33123.85
680.529	33418.08
680.877	33056.73
681.225	33276.61
681.573	33315.25
681.922	33161.81
682.27	33064.41
682.618	33056.5
682.966	33056.96
683.314	32978.77
683.661	32859.9
684.009	32770.18
684.357	32679.34
684.705	32739
685.053	32699
685.4	32632.11
685.748	32534.48
686.095	32530.87
686.443	32318.22
686.79	32448.38
687.138	32526.8
687.485	32438.67
687.832	32362.96
688.18	32372.68
688.527	32047.26
688.874	32101.73
689.221	32126.81
689.568	31948.28
689.915	31910.32
690.262	31921.17
690.609	31812.47
690.956	31819.02
691.303	31734.73
691.65	31508.07
691.997	31597.11
692.344	31389.65
692.69	31302.88
693.037	31468.75
693.383	31142.88
693.73	31285.48
694.077	30959.38
694.423	31091.36
694.769	31035.99
695.116	30948.08
695.462	30910.35
695.808	30709.67
696.155	30861.99
696.501	30571.37
696.847	30570.47
697.193	30434.88
697.539	30393.07
697.885	30306.97
698.231	30265.16
698.577	30239.63
698.923	30026.98
699.269	29938.85
699.614	29785.86
699.96	29875.12
700.306	29809.36
700.651	29720.32
700.997	29718.51
701.342	29650.49
701.688	29567.56
702.033	29520.1
702.379	29428.8
702.724	29357.84
703.069	29307
703.415	29097.51
703.76	29035.37
704.105	29119.21
704.45	28921.7
704.795	28823.62
705.14	28646.68
705.485	28642.83
705.83	28620.91
706.175	28683.74
706.52	28535.04
706.865	28377.98
707.209	28470.18
707.554	28310.19
707.899	28383.18
708.243	28206.69
708.588	28141.38
708.932	27968.73
709.277	27948.16
709.621	28060.25
709.966	27749.52
710.31	27807.15
710.654	27626.14
710.998	27738.9
711.342	27679.92
711.687	27620.26
712.031	27651.22
712.375	27386.6
712.719	27410.1
713.063	27428.4
713.407	27360.38
713.75	27298.24
714.094	27303.89
714.438	27058.47
714.782	27196.77
715.125	27024.12
715.469	27100.95
715.812	27042.88
716.156	26834.75
716.499	26852.6
716.843	26970.11
717.186	26644.92
717.53	26901.41
717.873	26801.53
718.216	26674.3
718.559	26574.41
718.902	26431.59
719.246	26448.99
719.589	26416.45
719.932	26291.26
720.275	26540.29
720.617	26368.54
720.96	26096.01
721.303	26087.2
721.646	26234.99
721.989	25973.53
722.331	26135.56
722.674	26054.88
723.016	25990.7
723.359	25999.97
723.701	25991.15
724.044	25804.72
724.386	25779.18
724.729	25794.1
725.071	25712.74
725.413	25677.94
725.755	25673.87
726.097	25651.95
726.439	25430.94
726.782	25425.97
727.124	25415.57
727.465	25506.42
727.807	25390.94
728.149	25369.7
728.491	25279.76
728.833	25251.51
729.175	25215.35
729.516	25192.98
729.858	25169.93
730.199	25251.96
730.541	25146.43
730.882	25135.58
731.224	25104.4
731.565	24924.74
731.906	24946.43
732.248	24927.68
732.589	24891.29
732.93	24723.84
733.271	24763.16
733.612	24797.29
733.953	24809.04
734.294	24605.2
734.635	24598.65
734.976	24721.58
735.317	24540.57
735.658	24560.91
735.999	24579.44
736.339	24486.33
736.68	24556.39
737.021	24443.62
737.361	24359.78
737.702	24519.1
738.042	24314.81
738.383	24251.54
738.723	24308.26
739.063	24346.68
739.404	24188.49
739.744	24192.33
740.084	24044.54
740.424	24055.16
740.764	24050.41
741.104	24008.38
741.444	23965.22
741.784	23928.16
742.124	24029.85
742.464	23947.14
742.804	23924.77
743.143	23770.42
743.483	23878.89
743.823	23782.85
744.162	23688.39
744.502	23767.71
744.841	23654.04
745.181	23758.22
745.52	23562.74
745.86	23624.89
746.199	23606.81
746.538	23528.62
746.877	23458.11
747.216	23466.25
747.556	23379.02
747.895	23281.62
748.234	23378.34
748.573	23281.17
748.911	23332.24
749.25	23230.77
749.589	23031.91
749.928	23179.48
750.267	23161.17
750.605	23068.74
750.944	23005.92
751.283	22867.17
751.621	23087.05
751.96	22833.27
752.298	22899.26
752.636	22831.24
752.975	22774.74
753.313	22618.36
753.651	22799.82
753.989	22646.83
754.327	22633.95
754.666	22552.15
755.004	22586.95
755.342	22520.28
755.679	22547.4
756.017	22345.37
756.355	22472.15
756.693	22225.15
757.031	22261.31
757.368	22177.92
757.706	22133.18
758.044	22109.45
758.381	22073.52
758.719	22006.85
759.056	22005.04
759.394	21893.63
759.731	21789.23
760.068	21806.86
760.405	21805.27
760.743	21445.06
761.08	21584.26
761.417	21492.29
761.754	21504.27
762.091	21456.13
762.428	21386.3
762.765	21319.41
763.102	21301.33
763.438	21134.11
763.775	21050.04
764.112	21040.32
764.449	21012.75
764.785	20957.61
765.122	20875.58
765.458	20779.99
765.795	20712.2
766.131	20594.01
766.467	20625.87
766.804	20449.6
767.14	20415.93
767.476	20377.97
767.812	20314.69
768.148	20365.31
768.485	20189.5
768.821	20066.11
769.157	20119.67
769.492	20057.52
769.828	19977.07
770.164	19847.13
770.5	19803.52
770.836	19820.47
771.171	19586.35
771.507	19711.32
771.842	19508.84
772.178	19481.27
772.513	19444.21
772.849	19429.07
773.184	19346.36
773.519	19203.53
773.855	19203.99
774.19	19131.22
774.525	19096.87
774.86	19147.72
775.195	18994.5
775.53	18912.92
775.865	18877.22
776.2	18626.37
776.535	18542.99
776.87	18510.22
777.205	18503.44
777.539	18437.91
777.874	18443.33
778.209	18281.3
778.543	18202.88
778.878	18130.57
779.212	18131.7
779.547	17997.01
779.881	18076.78
780.215	17819.39
780.55	17932.83
780.884	17764.25
781.218	17783.91
781.552	17630.24
781.886	17562
782.22	17530.58
782.554	17388.67
782.888	17300.76
783.222	17241.33
783.556	17285.17
783.889	17202.01
784.223	16951.39
784.557	17059.41
784.89	17079.52
785.224	16896.7
785.557	16855.8
785.891	16835.24
786.224	16695.13
786.558	16698.74
786.891	16726.54
787.224	16472.31
787.557	16481.35
787.891	16361.12
788.224	16439.54
788.557	16421.46
788.89	16327.45
789.223	16295.81
789.556	16152.99
789.888	16146.21
790.221	16023.96
790.554	16052.43
790.887	15974.69
791.219	15918.88
791.552	15866.45
791.884	15786
792.217	15774.02
792.549	15667.81
792.882	15580.35
793.214	15541.94
793.546	15568.83
793.879	15468.27
794.211	15348.49
794.543	15418.78
794.875	15356.86
795.207	15432.11
795.539	15306.91
795.871	15164.09
796.203	15142.85
796.535	15051.78
796.867	15054.04
797.198	15049.07
797.53	14952.12
797.862	14897.89
798.193	14900.14
798.525	14757.78
798.856	14777.66
799.188	14635.29
799.519	14610.89
799.85	14563.88
800.182	14610.21
800.513	14496.54
800.844	14441.63
801.175	14480.95
801.506	14463.32
801.837	14381.51
802.168	14361.4
802.499	14291.12
802.83	14251.57
803.161	14138.58
803.491	14178.58
803.822	14143.1
804.153	14075.76
804.483	13901.75
804.814	13907.63
805.145	13886.84
805.475	13858.82
805.805	13762.77
806.136	13776.78
806.466	13801.64
806.796	13699.5
807.126	13691.36
807.457	13609.33
807.787	13607.75
808.117	13540.63
808.447	13501.09
808.777	13461.99
809.107	13456.34
809.436	13440.3
809.766	13398.94
810.096	13356.68
810.426	13261.54
810.755	13323.46
811.085	13281.88
811.414	13277.81
811.744	13080.98
812.073	13191.94
812.403	13147.65
812.732	13015.22
813.061	12981.1
813.39	12957.6
813.719	12935.45
814.049	12978.16
814.378	12901.78
814.707	12860.88
815.036	12819.07
815.365	12784.49
815.693	12765.96
816.022	12636.25
816.351	12638.06
816.68	12593.31
817.008	12621.79
817.337	12521.45
817.665	12411.17
817.994	12515.8
818.322	12494.33
818.651	12398.74
818.979	12412.53
819.307	12451.62
819.636	12370.27
819.964	12228.12
820.292	12370.49
820.62	12360.55
820.948	12283.26
821.276	12312.19
821.604	12233.55
821.932	12311.51
822.259	12289.82
822.587	12288.69
822.915	12268.58
823.243	12202.81
823.57	12254.56
823.898	12270.38
824.225	12161.91
824.553	12204.85
824.88	12252.76
825.207	12267.9
825.535	12174.57
825.862	12290.04
826.189	12196.04
826.516	12236.26
826.843	12204.4
827.17	12328.69
827.497	12238.07
827.824	12237.16
828.151	12242.36
828.478	12138.41
828.805	12257.28
829.131	12191.97
829.458	12125.98
829.785	12102.25
830.111	12118.52
830.438	12208.69
830.764	12165.3
831.09	12166.88
831.417	12088.02
831.743	12165.08
832.069	12096.38
832.395	12044.63
832.722	12118.52
833.048	12045.08
833.374	12127.11
833.7	11944.74
834.026	12002.59
834.351	12010.73
834.677	12040.33
835.003	12086.21
835.329	12036.72
835.654	11888.25
835.98	11970.5
836.306	11996.27
836.631	11932.54
836.956	11855.48
837.282	11964.18
837.607	11850.51
837.932	11872.88
838.258	11821.13
838.583	11868.13
838.908	11797.4
839.233	11870.85
839.558	11772.32
839.883	11783.16
840.208	11745.43
840.533	11680.34
840.858	11745.43
841.182	11727.57
841.507	11699.33
841.832	11650.51
842.156	11619.55
842.481	11587.24
842.805	11550.63
843.13	11534.58
843.454	11519.44
843.778	11450.52
844.103	11391.54
844.427	11427.47
844.751	11429.95
845.075	11464.76
845.399	11324.65
845.723	11316.28
846.047	11309.05
846.371	11237.19
846.695	11162.16
847.019	11175.05
847.343	11067.03
847.666	11004.2
847.99	10948.16
848.313	10922.4
848.637	10867.03
848.96	10842.17
849.284	10900.48
849.607	10736.86
849.931	10772.12
850.254	10623.42
850.577	10666.36
850.9	10588.85
851.223	10475.4
851.546	10396.31
851.869	10453.71
852.192	10480.6
852.515	10350.66
852.838	10324.45
853.161	10353.82
853.483	10295.07
853.806	10201.29
854.129	10167.61
854.451	10134.62
854.774	10156.31
855.096	10111.34
855.419	10096.43
855.741	9981.86
856.063	10017.11
856.385	9897.79
856.708	9924.68
857.03	9881.75
857.352	9914.29
857.674	9879.03
857.996	9794.74
858.318	9717
858.64	9691.69
858.961	9699.15
859.283	9672.71
859.605	9668.87
859.926	9704.12
860.248	9620.28
860.57	9611.47
860.891	9581.87
861.212	9587.06
861.534	9520.17
861.855	9570.12
862.176	9501.87
862.498	9482.89
862.819	9484.02
863.14	9420.06
863.461	9373.96
863.782	9383.91
864.103	9366.28
864.424	9370.8
864.745	9411.7
865.065	9338.71
865.386	9331.03
865.707	9279.05
866.027	9235.66
866.348	9289.67
866.668	9206.28
866.989	9162.67
867.309	9173.52
867.63	9185.72
867.95	9173.29
868.27	9110.01
868.59	9146.4
868.91	9117.47
869.23	9040.86
869.55	9072.5
869.87	9094.2
870.19	9130.58
870.51	9054.65
870.83	9081.99
871.15	9044.25
871.469	9019.4
871.789	9055.33
872.109	9043.35
872.428	8986.85
872.748	9010.58
873.067	8947.08
873.386	9007.42
873.706	8976.91
874.025	8865.05
874.344	8862.11
874.663	8923.35
874.982	8829.8
875.301	8831.6
875.62	8805.16
875.939	8836.58
876.258	8783.02
876.577	8763.81
876.896	8717.71
877.214	8760.19
877.533	8719.97
877.852	8679.07
878.17	8714.32
878.489	8751.83
878.807	8731.04
879.125	8682.23
879.444	8664.6
879.762	8625.28
880.08	8623.47
880.398	8564.04
880.716	8680.65
881.034	8572.63
881.352	8601.1
881.67	8546.41
881.988	8548
882.306	8544.61
882.624	8537.37
882.941	8467.55
883.259	8437.04
883.577	8412.18
883.894	8372.18
884.212	8419.41
884.529	8350.49
884.846	8366.98
885.164	8263.03
885.481	8306.42
885.798	8328.79
886.115	8278.17
886.432	8256.48
886.75	8266.42
887.067	8229.81
887.383	8160.89
887.7	8184.84
888.017	8084.5
888.334	8169.25
888.651	8133.09
888.967	8084.05
889.284	8068.91
889.6	8072.08
889.917	8004.28
890.233	7976.71
890.55	7964.06
890.866	7942.81
891.182	7941.46
891.498	7911.85
891.815	7854.91
892.131	7842.93
892.447	7843.16
892.763	7796.6
893.079	7759.09
893.395	7775.81
893.71	7746.66
894.026	7773.78
894.342	7693.55
894.657	7683.61
894.973	7608.13
895.289	7715.7
895.604	7624.4
895.92	7574.46
896.235	7558.19
896.55	7545.08
896.865	7509.6
897.181	7535.59
897.496	7458.31
897.811	7411.3
898.126	7422.6
898.441	7372.66
898.756	7328.37
899.071	7275.71
899.386	7300.57
899.7	7301.02
900.015	7293.57
900.33	7215.6
900.644	7212.66
900.959	7179.67
901.273	7127.47
901.588	7086.11
901.902	7111.42
902.216	7071.88
902.531	7064.19
902.845	7009.73
903.159	6961.37
903.473	6969.96
903.787	6905.78
904.101	6881.15
904.415	6915.95
904.729	6823.07
905.042	6803.41
905.356	6794.6
905.67	6776.06
905.984	6745.56
906.297	6773.8
906.611	6709.17
906.924	6729.96
907.237	6658.78
907.551	6636.41
907.864	6624.43
908.177	6590.08
908.491	6569.29
908.804	6543.53
909.117	6468.95
909.43	6488.61
909.743	6476.64
910.056	6450.2
910.368	6400.93
910.681	6382.63
910.994	6336.3
911.307	6291.56
911.619	6344.21
911.932	6304.44
912.244	6276.64
912.557	6224.89
912.869	6172.01
913.181	6162.52
913.494	6217.21
913.806	6146.93
914.118	6159.13
914.43	6066.25
914.742	6087.27
915.054	5981.74
915.366	6017.21
915.678	6024.67
915.99	5951
916.302	5993.26
916.613	5891.79
916.925	5918.69
917.236	5870.1
917.548	5799.59
917.859	5849.31
918.171	5794.17
918.482	5743.1
918.794	5767.28
919.105	5755.3
919.416	5685.25
919.727	5687.05
920.038	5619.03
920.349	5602.54
920.66	5569.32
920.971	5587.85
921.282	5543.33
921.593	5536.1
921.903	5514.18
922.214	5519.6
922.525	5459.04
922.835	5461.52
923.146	5403.67
923.456	5455.2
923.767	5373.16
924.077	5340.17
924.387	5351.24
924.697	5304.92
925.008	5272.6
925.318	5288.42
925.628	5313.5
925.938	5265.82
926.248	5216.11
926.558	5163
926.867	5133.62
927.177	5136.11
927.487	5119.16
927.796	5094.98
928.106	5113.51
928.416	5082.1
928.725	5051.14
929.034	5039.16
929.344	4990.35
929.653	4993.96
929.962	4942.89
930.271	4894.08
930.581	4876.45
930.89	4905.83
931.199	4889.33
931.508	4831.03
931.817	4815.89
932.125	4807.08
932.434	4776.34
932.743	4755.1
933.051	4738.83
933.36	4723.46
933.669	4645.05
933.977	4683.24
934.286	4645.27
934.594	4710.13
934.902	4588.33
935.21	4604.14
935.519	4600.98
935.827	4581.32
936.135	4540.42
936.443	4510.81
936.751	4532.73
937.059	4520.98
937.367	4484.37
937.674	4445.05
937.982	4413.64
938.29	4443.47
938.597	4427.88
938.905	4375.45
939.213	4370.93
939.52	4346.3
939.827	4388.1
940.135	4301.78
940.442	4283.02
940.749	4280.54
941.056	4304.49
941.363	4229.92
941.67	4222.69
941.977	4199.64
942.284	4221.1
942.591	4171.39
942.898	4151.28
943.205	4142.91
943.511	4119.86
943.818	4128.68
944.125	4065.18
944.431	4061.79
944.738	4057.94
945.044	4025.4
945.35	4024.27
945.657	3984.73
945.963	3994.22
946.269	3953.09
946.575	3973.2
946.881	3886.88
947.187	3908.57
947.493	3881.45
947.799	3849.81
948.105	3864.95
948.41	3858.85
948.716	3811.85
949.022	3835.58
949.327	3779.08
949.633	3789.25
949.938	3782.47
950.244	3755.35
950.549	3737.73
950.854	3726.43
951.16	3701.8
951.465	3666.09
951.77	3664.51
952.075	3655.47
952.38	3632.42
952.685	3630.61
952.99	3569.37
953.294	3627.22
953.599	3591.06
953.904	3514.23
954.209	3532.99
954.513	3535.7
954.818	3459.54
955.122	3488.24
955.426	3466.55
955.731	3449.82
956.035	3417.51
956.339	3448.47
956.643	3441.46
956.948	3431.52
957.252	3365.31
957.556	3385.19
957.86	3363.27
958.163	3364.18
958.467	3302.94
958.771	3330.73
959.075	3318.53
959.378	3286.21
959.682	3294.12
959.985	3274.24
960.289	3233.56
960.592	3225.2
960.896	3232.2
961.199	3211.41
961.502	3177.74
961.805	3211.19
962.108	3142.94
962.411	3127.8
962.714	3114.69
963.017	3123.05
963.32	3156.27
963.623	3082.83
963.926	3093.68
964.228	3074.47
964.531	3046.22
964.833	3041.93
965.136	3047.58
965.438	2987.01
965.741	2991.98
966.043	3007.8
966.345	2983.4
966.648	2985.2
966.95	2988.14
967.252	2964.19
967.554	2977.52
967.856	2914.7
968.158	2920.12
968.46	2886.9
968.761	2901.36
969.063	2888.26
969.365	2844.87
969.666	2819.33
969.968	2850.52
970.269	2811.42
970.571	2798.09
970.872	2802.16
971.174	2795.83
971.475	2803.74
971.776	2777.53
972.077	2725.78
972.378	2754.48
972.679	2728.04
972.98	2729.39
973.281	2677.42
973.582	2726.45
973.883	2726
974.183	2654.82
974.484	2660.92
974.785	2650.07
975.085	2641.48
975.386	2624.76
975.686	2594.03
975.986	2598.32
976.287	2620.24
976.587	2569.62
976.887	2587.93
977.187	2544.99
977.487	2516.52
977.787	2530.3
978.087	2515.84
978.387	2512.22
978.687	2497.53
978.987	2471.77
979.286	2468.83
979.586	2463.64
979.885	2459.34
980.185	2450.3
980.484	2452.56
980.784	2460.47
981.083	2393.58
981.382	2400.81
981.682	2417.31
981.981	2342.96
982.28	2354.71
982.579	2345.45
982.878	2371.89
983.177	2305
983.475	2329.4
983.774	2344.09
984.073	2329.18
984.372	2286.69
984.67	2307.93
984.969	2274.04
985.267	2300.7
985.566	2259.12
985.864	2247.6
986.162	2271.55
986.461	2237.43
986.759	2223.64
987.057	2203.98
987.355	2193.13
987.653	2206.24
987.951	2187.26
988.249	2159.69
988.547	2154.94
988.844	2154.94
989.142	2132.8
989.44	2161.72
989.737	2155.4
990.035	2130.76
990.332	2100.93
990.63	2111.33
990.927	2076.08
991.224	2106.13
991.521	2093.48
991.819	2082.18
992.116	2050.09
992.413	2041.27
992.71	2034.04
993.006	2046.92
993.303	2037.88
993.6	2029.97
993.897	1985.91
994.193	2018.22
994.49	2001.73
994.787	1968.28
995.083	1960.82
995.379	1945.91
995.676	1951.33
995.972	1902.75
996.268	1947.94
996.565	1912.46
996.861	1927.83
997.157	1912.01
997.453	1882.41
997.749	1899.81
998.044	1863.65
998.34	1851
998.636	1851.67
998.932	1877.21
999.227	1843.31
999.523	1858
999.818	1840.15
1000.114	1819.13
1000.409	1809.64
1000.704	1812.58
1001	1772.35
1001.295	1772.13
1001.59	1774.84
1001.885	1768.29
1002.18	1747.5
1002.475	1730.77
1002.77	1758.34
1003.065	1738.23
1003.359	1755.63
1003.654	1708.63
1003.949	1685.13
1004.243	1707.05
1004.538	1693.03
1004.832	1668.85
1005.127	1626.37
1005.421	1652.36
1005.715	1623.43
1006.009	1632.92
1006.304	1624.79
1006.598	1639.48
1006.892	1590.44
1007.186	1612.13
1007.48	1574.85
1007.773	1591.34
1008.067	1602.42
1008.361	1530.78
1008.655	1554.96
1008.948	1558.57
1009.242	1531.23
1009.535	1542.3
1009.829	1520.38
1010.122	1507.73
1010.415	1499.37
1010.708	1498.92
1011.001	1496.66
1011.295	1482.87
1011.588	1454.17
1011.881	1465.24
1012.173	1454.17
1012.466	1469.54
1012.759	1443.55
1013.052	1441.06
1013.344	1408.75
1013.637	1410.1
1013.93	1430.89
1014.222	1408.3
1014.514	1404.45
1014.807	1422.08
1015.099	1375.08
1015.391	1382.99
1015.683	1354.06
1015.976	1381.18
1016.268	1344.8
1016.56	1349.99
1016.851	1339.15
1017.143	1324
1017.435	1323.1
1017.727	1309.99
1018.018	1284.91
1018.31	1286.94
1018.602	1286.94
1018.893	1291.24
1019.185	1269.54
1019.476	1271.35
1019.767	1281.07
1020.058	1280.39
1020.35	1221.41
1020.641	1222.99
1020.932	1239.04
1021.223	1203.78
1021.514	1186.61
1021.804	1202.43
1022.095	1216.44
1022.386	1196.55
1022.677	1192.93
1022.967	1170.11
1023.258	1157.91
1023.548	1169.21
1023.839	1141.86
1024.129	1155.87
1024.419	1139.6
1024.709	1122.65
1025	1125.82
1025.29	1094.18
1025.58	1123.33
1025.87	1097.12
1026.16	1083.11
1026.449	1091.47
1026.739	1063.22
1027.029	1085.37
1027.319	1069.55
1027.608	1058.93
1027.898	1057.35
1028.187	1052.15
1028.477	1049.89
1028.766	1038.14
1029.055	1037.23
1029.344	1047.4
1029.634	1049.21
1029.923	1023.45
1030.212	990.91
1030.501	1016.22
1030.79	963.79
1031.078	954.75
1031.367	992.71
1031.656	981.87
1031.945	960.17
1032.233	938.93
1032.522	960.62
1032.81	941.19
1033.099	944.58
1033.387	934.64
1033.675	932.15
1033.963	941.19
1034.251	938.7
1034.54	905.48
1034.828	903.9
1035.116	903.68
1035.403	878.59
1035.691	887.86
1035.979	900.97
1036.267	891.02
1036.554	879.5
1036.842	851.93
1037.129	868.65
1037.417	840.63
1037.704	891.25
1037.992	837.92
1038.279	862.77
1038.566	848.31
1038.853	848.31
1039.14	848.31
