Data from hue_260_FLMS001491_00088.txt Node
Date: Tue Feb 07 15:59:43 GMT 2017
User: dcchb
Spectrometer: FLMS00149
Trigger mode: 0
Integration Time (sec): 2.000000E-2
Scans to average: 10
Electric dark correction enabled: true
Nonlinearity correction enabled: false
Boxcar width: 0
XAxis mode: Wavelengths
Number of Pixels in Spectrum: 2048
>>>>>Begin Spectral Data<<<<<
341.393	-25.62
341.776	-25.62
342.16	-25.62
342.543	-72.85
342.927	-65.62
343.31	-65.62
343.693	-68.33
344.077	-55.45
344.46	-71.04
344.843	-44.6
345.226	-28.11
345.61	-34.89
345.993	-17.03
346.376	-9.58
346.759	-3.7
347.142	31.78
347.525	45.34
347.908	45.34
348.291	77.2
348.674	86.24
349.057	112.45
349.44	102.74
349.823	137.31
350.206	141.83
350.588	185
350.971	211.21
351.354	192
351.737	234.49
352.119	223.19
352.502	242.39
352.884	266.57
353.267	261.83
353.65	269.96
354.032	281.04
354.414	308.16
354.797	281.94
355.179	307.7
355.562	320.81
355.944	325.56
356.326	311.09
356.709	327.82
357.091	317.87
357.473	345.89
357.855	353.13
358.238	339.34
358.62	314.03
359.002	326.23
359.384	339.57
359.766	341.6
360.148	326.01
360.53	302.51
360.912	303.86
361.294	314.94
361.676	314.26
362.057	325.78
362.439	319.91
362.821	300.25
363.203	319.68
363.584	317.2
363.966	290.08
364.348	329.62
364.729	301.15
365.111	326.01
365.493	317.65
365.874	304.09
366.256	319
366.637	308.38
367.019	321.04
367.4	306.12
367.781	301.15
368.163	305.44
368.544	315.61
368.925	311.77
369.306	304.77
369.688	294.82
370.069	297.76
370.45	319.23
370.831	324.43
371.212	298.21
371.593	297.08
371.974	319
372.355	296.63
372.736	328.49
373.117	340.02
373.498	300.7
373.879	290.3
374.26	317.42
374.641	301.15
375.021	301.15
375.402	296.18
375.783	321.94
376.163	317.2
376.544	335.5
376.925	333.01
377.305	313.81
377.686	309.74
378.066	313.13
378.447	340.25
378.827	319.45
379.208	325.56
379.588	335.27
379.968	320.81
380.349	340.7
380.729	317.87
381.109	330.08
381.489	304.77
381.87	319.45
382.25	316.07
382.63	332.56
383.01	335.27
383.39	339.79
383.77	330.75
384.15	335.27
384.53	329.17
384.91	343.41
385.29	339.57
385.67	347.25
386.049	313.13
386.429	319.91
386.809	351.77
387.189	347.25
387.568	351.77
387.948	347.02
388.328	344.76
388.707	354.93
389.087	338.66
389.466	363.97
389.846	352.67
390.225	368.04
390.605	347.02
390.984	361.26
391.363	353.35
391.743	364.88
392.122	379.11
392.501	380.47
392.881	359.91
393.26	371.43
393.639	389.28
394.018	379.11
394.397	385.89
394.776	381.15
395.155	398.1
395.534	379.34
395.913	372.11
396.292	375.72
396.671	396.51
397.05	372.79
397.429	377.08
397.808	394.71
398.186	384.09
398.565	391.32
398.944	380.24
399.323	411.66
399.701	410.53
400.08	390.64
400.458	416.4
400.837	417.53
401.215	406.68
401.594	415.72
401.972	411.43
402.351	413.69
402.729	439.68
403.107	437.87
403.486	419.79
403.864	427.25
404.242	430.19
404.62	436.29
404.999	459.56
405.377	463.86
405.755	451.43
406.133	449.17
406.511	455.95
406.889	474.25
407.267	455.04
407.645	460.47
408.023	469.73
408.401	498.89
408.779	457.53
409.156	481.03
409.534	481.03
409.912	497.76
410.29	531.2
410.667	518.55
411.045	529.62
411.422	520.81
411.8	514.93
412.178	550.18
412.555	555.38
412.933	568.26
413.31	547.92
413.687	581.37
414.065	574.14
414.442	575.72
414.819	580.46
415.197	566.91
415.574	581.59
415.951	616.4
416.328	603.74
416.705	633.12
417.082	610.75
417.46	622.27
417.837	622.5
418.214	631.76
418.591	662.95
418.967	663.85
419.344	660.91
419.721	672.44
420.098	669.73
420.475	685.77
420.852	710.63
421.228	713.12
421.605	711.31
421.982	705.66
422.358	718.54
422.735	733.23
423.111	752.89
423.488	784.98
423.864	780.46
424.241	784.3
424.617	793.34
424.994	816.16
425.37	827.24
425.746	809.84
426.123	817.75
426.499	890.51
426.875	845.54
427.251	857.97
427.627	871.08
428.003	874.47
428.379	914.69
428.756	892.1
429.132	918.99
429.507	915.6
429.883	932.09
430.259	952.21
430.635	964.86
431.011	965.99
431.387	1000.34
431.763	997.4
432.138	997.18
432.514	1039.66
432.89	1016.61
433.265	1052.09
433.641	1106.78
434.016	1090.73
434.392	1106.1
434.767	1118.98
435.143	1137.06
435.518	1160.56
435.894	1164.18
436.269	1203.95
436.644	1237.62
437.02	1223.16
437.395	1220.9
437.77	1286.21
438.145	1272.42
438.52	1265.19
438.895	1277.62
439.271	1292.08
439.646	1359.65
440.021	1368.01
440.395	1364.85
440.77	1387.9
441.145	1379.09
441.52	1429.26
441.895	1440.1
442.27	1454.79
442.645	1445.53
443.019	1482.81
443.394	1468.58
443.769	1480.78
444.143	1482.36
444.518	1522.14
444.892	1506.99
445.267	1537.28
445.641	1563.94
446.016	1547.22
446.39	1561.46
446.764	1566.88
447.139	1564.62
447.513	1595.13
447.887	1591.29
448.262	1601.23
448.636	1632.87
449.01	1639.87
449.384	1661.57
449.758	1688.23
450.132	1713.54
450.506	1701.34
450.88	1694.79
451.254	1728.01
451.628	1741.11
452.002	1718.29
452.376	1760.77
452.75	1754.22
453.123	1777.95
453.497	1849.58
453.871	1819.3
454.244	1869.24
454.618	1885.74
454.992	1898.85
455.365	1920.09
455.739	1936.81
456.112	1950.15
456.486	1957.38
456.859	1977.94
457.232	2000.09
457.606	2008.68
457.979	2014.1
458.352	2072.18
458.725	2102.01
459.099	2130.25
459.472	2134.55
459.845	2126.41
460.218	2152.63
460.591	2223.81
460.964	2186.98
461.337	2268.78
461.71	2264.04
462.083	2293.64
462.456	2320.76
462.829	2319.4
463.201	2388.1
463.574	2381.1
463.947	2403.92
464.32	2409.57
464.692	2455.67
465.065	2462.68
465.438	2511.71
465.81	2542.45
466.183	2556.68
466.555	2579.51
466.928	2639.62
467.3	2627.64
467.672	2660.18
468.045	2739.73
468.417	2737.7
468.789	2763.91
469.161	2778.15
469.534	2799.84
469.906	2864.47
470.278	2872.16
470.65	2936.79
471.022	2939.27
471.394	3005.03
471.766	3058.14
472.138	3083.68
472.51	3122.77
472.882	3147.4
473.253	3185.37
473.625	3220.17
473.997	3291.13
474.369	3279.38
474.74	3339.04
475.112	3379.71
475.484	3442.54
475.855	3454.97
476.227	3508.3
476.598	3575.19
476.97	3622.64
477.341	3643.66
477.713	3688.63
478.084	3745.58
478.455	3829.42
478.827	3864.67
479.198	3947.16
479.569	3924.33
479.94	4085.01
480.311	4063.76
480.682	4141.95
481.053	4236.87
481.424	4239.35
481.795	4298.79
482.166	4340.59
482.537	4409.74
482.908	4448.16
483.279	4555.73
483.65	4583.75
484.021	4645.44
484.391	4723.63
484.762	4701.94
485.133	4727.93
485.503	4823.07
485.874	4928.6
486.244	4907.36
486.615	4997.3
486.985	5082.49
487.356	5127.01
487.726	5190.74
488.097	5267.35
488.467	5276.16
488.837	5405.2
489.207	5472.77
489.578	5494.69
489.948	5552.31
490.318	5581.01
490.688	5590.28
491.058	5699.43
491.428	5777.39
491.798	5785.98
492.168	5880.21
492.538	5893.77
492.908	5979.19
493.278	6011.73
493.648	5997.05
494.017	6107.55
494.387	6117.27
494.757	6211.05
495.126	6215.12
495.496	6177.38
495.866	6284.04
496.235	6327.88
496.605	6343.25
496.974	6373.31
497.344	6447.43
497.713	6465.06
498.082	6540.53
498.452	6558.16
498.821	6602
499.19	6605.17
499.559	6676.12
499.928	6651.04
500.298	6691.72
500.667	6750.7
501.036	6767.87
501.405	6830.92
501.774	6815.33
502.143	6877.47
502.512	6885.38
502.88	6896.68
503.249	6929
503.618	6968.77
503.987	6947.76
504.356	6975.33
504.724	6982.78
505.093	7047.19
505.462	7078.37
505.83	7044.48
506.199	7120.18
506.567	7184.81
506.936	7178.03
507.304	7267.07
507.672	7260.29
508.041	7239.72
508.409	7285.83
508.777	7291.93
509.145	7369.89
509.514	7360.63
509.882	7401.3
510.25	7329.67
510.618	7326.95
510.986	7420.74
511.354	7413.05
511.722	7531.69
512.09	7566.72
512.458	7515.88
512.826	7554.07
513.193	7558.59
513.561	7604.24
513.929	7580.96
514.297	7631.13
514.664	7679.94
515.032	7678.58
515.4	7714.51
515.767	7737.11
516.135	7771.24
516.502	7664.12
516.869	7808.07
517.237	7839.71
517.604	7768.98
517.972	7860.5
518.339	7871.35
518.706	7806.94
519.073	7922.87
519.44	7869.31
519.808	7885.36
520.175	7951.34
520.542	7984.56
520.909	7970.55
521.276	7973.04
521.643	8007.61
522.009	7975.52
522.376	8015.75
522.743	8057.33
523.11	8085.58
523.477	8179.81
523.843	8174.84
524.21	8215.74
524.577	8248.96
524.943	8270.43
525.31	8306.82
525.676	8253.71
526.043	8339.13
526.409	8338.23
526.776	8350.88
527.142	8450.31
527.508	8408.51
527.874	8432.01
528.241	8423.2
528.607	8379.36
528.973	8486.7
529.339	8434.95
529.705	8476.53
530.071	8550.2
530.437	8586.58
530.803	8552.01
531.169	8556.3
531.535	8522.63
531.901	8449.41
532.267	8542.52
532.632	8587.26
532.998	8554.94
533.364	8531.44
533.73	8648.05
534.095	8642.4
534.461	8661.61
534.826	8642.85
535.192	8628.39
535.557	8613.25
535.923	8673.81
536.288	8646.47
536.653	8703.64
537.019	8594.94
537.384	8665.9
537.749	8659.57
538.114	8616.41
538.479	8681.95
538.845	8638.78
539.21	8578.9
539.575	8605.56
539.94	8646.02
540.305	8652.57
540.67	8583.19
541.034	8609.63
541.399	8592.91
541.764	8639.01
542.129	8636.3
542.494	8587.26
542.858	8606.47
543.223	8589.07
543.587	8589.97
543.952	8575.28
544.316	8665.9
544.681	8560.59
545.045	8653.47
545.41	8597.66
545.774	8612.8
546.138	8599.69
546.503	8618.67
546.867	8522.18
547.231	8595.85
547.595	8599.01
547.959	8599.92
548.324	8578.22
548.688	8582.51
549.052	8558.11
549.416	8623.87
549.779	8597.88
550.143	8536.64
550.507	8571.22
550.871	8564.66
551.235	8538.67
551.599	8562.85
551.962	8559.24
552.326	8562.4
552.689	8567.37
553.053	8538.45
553.417	8473.36
553.78	8636.3
554.143	8608.95
554.507	8578.9
554.87	8616.41
555.234	8698.67
555.597	8514.27
555.96	8554.72
556.323	8617.54
556.686	8622.74
557.05	8638.56
557.413	8683.98
557.776	8624.32
558.139	8649.41
558.502	8677.88
558.865	8631.33
559.228	8691.44
559.59	8700.93
559.953	8672.68
560.316	8834.26
560.679	8788.38
561.041	8747.26
561.404	8801.94
561.767	8841.04
562.129	8841.26
562.492	8881.26
562.854	8789.29
563.217	8814.37
563.579	8824.54
563.941	8885.78
564.304	8865.44
564.666	8941.15
565.028	8970.3
565.39	8946.12
565.753	9001.94
566.115	8973.24
566.477	8947.25
566.839	9001.49
567.201	9095.27
567.563	9153.57
567.925	9153.35
568.287	9187.92
568.648	9139.79
569.01	9175.27
569.372	9241.03
569.734	9212.55
570.095	9248.03
570.457	9333.68
570.819	9314.7
571.18	9296.62
571.542	9374.81
571.903	9341.36
572.265	9342.49
572.626	9373.68
572.987	9409.39
573.349	9430.85
573.71	9464.75
574.071	9501.36
574.432	9506.33
574.794	9519.66
575.155	9543.62
575.516	9543.85
575.877	9588.36
576.238	9610.06
576.599	9636.05
576.96	9635.59
577.32	9667.68
577.681	9712.65
578.042	9703.61
578.403	9792.2
578.763	9764.18
579.124	9687.57
579.485	9848.7
579.845	9816.15
580.206	9787.45
580.566	9798.3
580.927	9851.18
581.287	9903.16
581.648	9863.84
582.008	9965.08
582.368	9903.38
582.728	9962.37
583.089	9942.03
583.449	9888.02
583.809	10006.88
584.169	9980.67
584.529	10015.47
584.889	10165.3
585.249	10045.98
585.609	10063.15
585.969	10095.24
586.329	10124.62
586.688	10090.05
587.048	10081.23
587.408	10081.91
587.768	10071.97
588.127	10185.86
588.487	10151.29
588.846	10206.43
589.206	10163.26
589.565	10177.73
589.925	10264.5
590.284	10130.04
590.643	10267.22
591.003	10213.43
591.362	10267.22
591.721	10178.4
592.08	10288.68
592.44	10245.52
592.799	10325.75
593.158	10310.83
593.517	10317.61
593.876	10330.49
594.235	10342.69
594.593	10313.54
594.952	10394.22
595.311	10334.33
595.67	10367.1
596.029	10477.61
596.387	10408
596.746	10398.51
597.104	10362.13
597.463	10408.46
597.822	10441
598.18	10356.48
598.538	10345.86
598.897	10479.19
599.255	10356.03
599.613	10538.17
599.972	10386.76
600.33	10490.03
600.688	10481
601.046	10459.3
601.404	10546.3
601.762	10520.09
602.12	10547.21
602.478	10565.51
602.836	10582.69
603.194	10557.6
603.552	10570.71
603.91	10495.68
604.268	10560.99
604.625	10572.52
604.983	10573.87
605.341	10594.44
605.698	10551.95
606.056	10561.67
606.413	10603.25
606.771	10608.22
607.128	10576.36
607.485	10560.32
607.843	10602.8
608.2	10605.06
608.557	10677.83
608.914	10683.7
609.272	10634.44
609.629	10720.31
609.986	10671.05
610.343	10631.27
610.7	10690.03
611.057	10731.38
611.414	10709.01
611.771	10719.41
612.127	10798.5
612.484	10815.9
612.841	10835.34
613.198	10719.18
613.554	10783.59
613.911	10780.65
614.267	10798.5
614.624	10860.42
614.98	10833.75
615.337	10903.13
615.693	10890.48
616.05	10835.11
616.406	10896.35
616.762	10926.18
617.118	10802.34
617.475	10882.34
617.831	10932.51
618.187	10963.69
618.543	10872.85
618.899	10995.56
619.255	10967.76
619.611	10920.76
619.967	10953.98
620.323	11052.51
620.678	11001.43
621.034	10915.11
621.39	10959.85
621.746	10913.98
622.101	11047.99
622.457	11015.67
622.812	10956.69
623.168	11004.6
623.523	11027.65
623.879	10979.51
624.234	10980.87
624.589	11016.57
624.945	11036.69
625.3	11010.7
625.655	10963.69
626.01	10903.58
626.365	10974.54
626.72	10946.29
627.075	10995.33
627.43	10916.24
627.785	10908.55
628.14	10886.18
628.495	10977.48
628.85	10893.19
629.205	10907.2
629.559	10970.7
629.914	10915.79
630.269	10887.54
630.623	10809.35
630.978	10851.61
631.332	10978.84
631.687	10872.17
632.041	10846.86
632.396	10860.87
632.75	10804.38
633.104	10778.39
633.459	10807.31
633.813	10826.98
634.167	10769.35
634.521	10716.24
634.875	10831.27
635.229	10711.5
635.583	10717.6
635.937	10704.49
636.291	10627.66
636.645	10631.95
636.999	10698.17
637.352	10672.63
637.706	10601.22
638.06	10638.96
638.413	10558.28
638.767	10553.76
639.121	10608.45
639.474	10556.93
639.828	10617.26
640.181	10565.51
640.534	10608.45
640.888	10511.96
641.241	10434.67
641.594	10461.11
641.947	10533.42
642.301	10513.76
642.654	10483.93
643.007	10503.14
643.36	10490.94
643.713	10503.82
644.066	10439.19
644.419	10465.4
644.771	10408.23
645.124	10366.42
645.477	10252.75
645.83	10248.69
646.182	10198.97
646.535	10091.85
646.888	10110.61
647.24	10034
647.593	10073.1
647.945	10073.77
648.298	10068.8
648.65	10001.46
649.002	10048.69
649.355	10052.98
649.707	10117.84
650.059	10062.48
650.411	10276.48
650.763	10219.31
651.115	10343.82
651.467	10258.63
651.819	10284.16
652.171	10309.47
652.523	10304.96
652.875	10276.26
653.227	10205.07
653.578	10297.5
653.93	10298.63
654.282	10217.05
654.633	10233.54
654.985	10217.95
655.337	10303.6
655.688	10225.41
656.039	10316.48
656.391	10271.51
656.742	10211.85
657.094	10232.87
657.445	10264.28
657.796	10273.32
658.147	10229.48
658.498	10221.79
658.849	10238.97
659.2	10219.53
659.551	10201
659.902	10283.49
660.253	10243.49
660.604	10255.24
660.955	10177.73
661.306	10187.44
661.656	10205.52
662.007	10150.38
662.358	10246.65
662.708	10279.64
663.059	10208.69
663.409	10195.35
663.76	10256.82
664.11	10200.33
664.461	10293.88
664.811	10221.12
665.161	10226.99
665.511	10237.39
665.862	10300.89
666.212	10299.31
666.562	10254.11
666.912	10279.42
667.262	10218.4
667.612	10242.13
667.962	10221.12
668.312	10165.98
668.662	10259.08
669.011	10161.46
669.361	10179.08
669.711	10209.14
670.06	10156.48
670.41	10185.41
670.76	10131.63
671.109	10205.07
671.459	10206.88
671.808	10144.96
672.157	10085.07
672.507	10095.47
672.856	10085.98
673.205	10094.11
673.554	10179.76
673.904	10159.65
674.253	10117.16
674.602	10090.72
674.951	9942.25
675.3	9904.97
675.649	10152.42
675.998	10099.54
676.346	10027
676.695	10069.26
677.044	10013.66
677.393	10047.79
677.741	9964.4
678.09	9964.4
678.438	10000.33
678.787	9930.73
679.135	9991.74
679.484	9983.16
679.832	9969.14
680.181	9831.75
680.529	9947.45
680.877	9904.29
681.225	9895.93
681.573	9946.77
681.922	9861.8
682.27	9797.62
682.618	9751.98
682.966	9803.27
683.314	9818.64
683.661	9799.88
684.009	9780.45
684.357	9714.01
684.705	9686.89
685.053	9740.22
685.4	9711.3
685.748	9624.07
686.095	9622.71
686.443	9586.78
686.79	9641.92
687.138	9540.91
687.485	9588.36
687.832	9555.82
688.18	9532.77
688.527	9511.3
688.874	9426.11
689.221	9409.61
689.568	9424.75
689.915	9404.19
690.262	9406.67
690.609	9329.16
690.956	9326
691.303	9265.21
691.65	9201.71
691.997	9257.3
692.344	9110.18
692.69	9154.48
693.037	9156.28
693.383	9032.45
693.73	9115.61
694.077	9062.95
694.423	9067.93
694.769	8993.13
695.116	9006.01
695.462	8958.55
695.808	8878.78
696.155	8974.82
696.501	8839.46
696.847	8869.06
697.193	8806.24
697.539	8860.93
697.885	8728.95
698.231	8745.22
698.577	8731.89
698.923	8690.76
699.269	8648.28
699.614	8528.05
699.96	8618.45
700.306	8563.08
700.651	8502.97
700.997	8526.7
701.342	8443.08
701.688	8406.7
702.033	8323.54
702.379	8404.67
702.724	8346.36
703.069	8383.88
703.415	8301.62
703.76	8309.3
704.105	8260.71
704.45	8267.04
704.795	8189.08
705.14	8173.94
705.485	8180.49
705.83	8127.16
706.175	8119.25
706.52	8130.1
706.865	8025.69
707.209	8003.77
707.554	8061.62
707.899	8008.52
708.243	7960.61
708.588	7952.25
708.932	7914.06
709.277	7902.98
709.621	7925.36
709.966	7844.23
710.31	7888.75
710.654	7707.51
710.998	7730.79
711.342	7822.99
711.687	7770.78
712.031	7758.58
712.375	7697.79
712.719	7771.91
713.063	7691.24
713.407	7677.45
713.75	7676.55
714.094	7637.91
714.438	7654.18
714.782	7590.9
715.125	7602.2
715.469	7632.26
715.812	7545.71
716.156	7554.07
716.499	7497.12
716.843	7545.71
717.186	7519.49
717.53	7534.86
717.873	7540.73
718.216	7418.93
718.559	7485.82
718.902	7417.35
719.246	7336.67
719.589	7407.86
719.932	7365.6
720.275	7410.57
720.617	7360.63
720.96	7425.26
721.303	7312.72
721.646	7449.66
721.989	7354.52
722.331	7364.92
722.674	7363.79
723.016	7340.06
723.359	7318.14
723.701	7280.4
724.044	7265.26
724.386	7244.02
724.729	7264.58
725.071	7220.74
725.413	7277.01
725.755	7264.13
726.097	7189.56
726.439	7230.46
726.782	7156.79
727.124	7216.22
727.465	7212.15
727.807	7204.47
728.149	7167.41
728.491	7212.38
728.833	7185.94
729.175	7166.73
729.516	7143.91
729.858	7110.91
730.199	7131.93
730.541	7089.45
730.882	7131.71
731.224	7166.51
731.565	7087.86
731.906	7151.82
732.248	7159.95
732.589	7124.02
732.93	7126.51
733.271	7127.86
733.612	7131.03
733.953	7111.14
734.294	7091.93
734.635	7129.67
734.976	7124.47
735.317	7111.37
735.658	7141.42
735.999	7105.94
736.339	7132.84
736.68	7143.46
737.021	7147.07
737.361	7141.42
737.702	7154.98
738.042	7147.98
738.383	7132.84
738.723	7141.2
739.063	7112.27
739.404	7153.4
739.744	7111.82
740.084	7169.9
740.424	7159.5
740.764	7159.05
741.104	7185.04
741.444	7140.97
741.784	7204.92
742.124	7192.04
742.464	7156.56
742.804	7184.81
743.143	7216
743.483	7241.76
743.823	7179.16
744.162	7242.44
744.502	7240.85
744.841	7215.54
745.181	7329.21
745.52	7309.1
745.86	7359.27
746.199	7383.45
746.538	7420.29
746.877	7446.27
747.216	7538.25
747.556	7495.54
747.895	7532.6
748.234	7520.4
748.573	7566.95
748.911	7606.49
749.25	7740.05
749.589	7658.24
749.928	7764.91
750.267	7810.56
750.605	7866.83
750.944	7842.65
751.283	7944.79
751.621	8064.11
751.96	8066.14
752.298	8146.37
752.636	8265.01
752.975	8277.21
753.313	8293.93
753.651	8399.24
753.989	8493.25
754.327	8617.32
754.666	8603.76
755.004	8746.58
755.342	8808.27
755.679	8869.96
756.017	9008.94
756.355	9169.62
756.693	9164.42
757.031	9294.59
757.368	9469.72
757.706	9550.85
758.044	9657.74
758.381	9746.1
758.719	9831.52
759.056	10000.33
759.394	10121.01
759.731	10164.17
760.068	10290.04
760.405	10391.05
760.743	10519.64
761.08	10711.5
761.417	10788.78
761.754	10924.15
762.091	11101.32
762.428	11139.28
762.765	11255.44
763.102	11378.6
763.438	11515.32
763.775	11608.88
764.112	11696.56
764.449	11893.39
764.785	12004.12
765.122	12081.86
765.458	12198.24
765.795	12322.98
766.131	12472.81
766.467	12525.24
766.804	12607.27
767.14	12700.6
767.476	12846.13
767.812	12867.6
768.148	12997.77
768.485	13035.28
768.821	13169.74
769.157	13290.87
769.492	13357.53
769.828	13478.2
770.164	13502.39
770.5	13573.12
770.836	13658.77
771.171	13772.66
771.507	13831.19
771.842	13746.67
772.178	13862.83
772.513	13999.77
772.849	14132.2
773.184	14051.3
773.519	14178.53
773.855	14172.42
774.19	14230.05
774.525	14255.36
774.86	14406.77
775.195	14435.69
775.53	14476.14
775.865	14430.5
776.2	14510.04
776.535	14396.15
776.87	14535.13
777.205	14508.23
777.539	14465.98
777.874	14738.96
778.209	14546.65
778.543	14589.81
778.878	14488.12
779.212	14581
779.547	14557.95
779.881	14743.03
780.215	14645.41
780.55	14669.36
780.884	14676.37
781.218	14662.13
781.552	14716.14
781.886	14715.91
782.22	14651.51
782.554	14726.31
782.888	14580.55
783.222	14556.14
783.556	14570.15
783.889	14535.58
784.223	14562.02
784.557	14596.59
784.89	14618.06
785.224	14563.15
785.557	14453.77
785.891	14489.03
786.224	14475.92
786.558	14419.88
786.891	14399.76
787.224	14431.17
787.557	14370.38
787.891	14354.11
788.224	14312.53
788.557	14438.86
788.89	14394.34
789.223	14368.58
789.556	14360.89
789.888	14306.21
790.221	14274.12
790.554	14168.58
790.887	14170.16
791.219	14176.94
791.552	14206.55
791.884	14020.11
792.217	14084.29
792.549	14101.01
792.882	14018.53
793.214	13969.49
793.546	13985.54
793.879	13896.5
794.211	13871.87
794.543	13874.35
794.875	13857.4
795.207	13888.82
795.539	13903.96
795.871	13888.14
796.203	13770.4
796.535	13701.25
796.867	13650.86
797.198	13670.97
797.53	13689.05
797.862	13611.53
798.193	13560.24
798.525	13503.29
798.856	13584.64
799.188	13514.59
799.519	13410.18
799.85	13326.34
800.182	13347.59
800.513	13401.6
800.844	13315.95
801.175	13359.56
801.506	13355.04
801.837	13282.73
802.168	13234.6
802.499	13189.85
802.83	13095.39
803.161	13165.22
803.491	13123.19
803.822	13057.43
804.153	13019.23
804.483	12902.63
804.814	12982.62
805.145	12925.23
805.475	12895.85
805.805	12901.27
806.136	12859.01
806.466	12884.55
806.796	12850.2
807.126	12758.68
807.457	12646.59
807.787	12694.72
808.117	12692.01
808.447	12553.03
808.777	12621.96
809.107	12610.43
809.436	12514.61
809.766	12604.1
810.096	12478.46
810.426	12492.92
810.755	12502.86
811.085	12475.07
811.414	12425.35
811.744	12371.12
812.073	12314.39
812.403	12289.76
812.732	12249.54
813.061	12304.68
813.39	12175.64
813.719	12169.54
814.049	12258.58
814.378	12184.91
814.707	12091.57
815.036	12119.37
815.365	11990.79
815.693	11915.99
816.022	11934.52
816.351	12016.55
816.68	11941.3
817.008	11943.78
817.337	11876.67
817.665	11846.84
817.994	11879.38
818.322	11880.96
818.651	11832.6
818.979	11816.78
819.307	11793.28
819.636	11797.12
819.964	11723.45
820.292	11761.64
820.62	11758.02
820.948	11739.72
821.276	11761.87
821.604	11701.98
821.932	11683.9
822.259	11755.54
822.587	11781.98
822.915	11692.49
823.243	11823.79
823.57	11666.05
823.898	11692.72
824.225	11688.87
824.553	11668.53
824.88	11719.38
825.207	11749.44
825.535	11671.25
825.862	11730.91
826.189	11715.54
826.516	11852.26
826.843	11791.47
827.17	11773.84
827.497	11694.52
827.824	11716.44
828.151	11810.68
828.478	11801.41
828.805	11741.53
829.131	11710.57
829.458	11723.9
829.785	11675.99
830.111	11629.44
830.438	11782.2
830.764	11768.87
831.09	11719.61
831.417	11683.45
831.743	11748.98
832.069	11652.49
832.395	11699.49
832.722	11705.82
833.048	11700.17
833.374	11684.58
833.7	11608.42
834.026	11698.14
834.351	11691.36
834.677	11637.58
835.003	11702.66
835.329	11574.98
835.654	11603.9
835.98	11513.96
836.306	11581.31
836.631	11554.64
836.956	11528.2
837.282	11571.81
837.607	11514.19
837.932	11489.56
838.258	11500.86
838.583	11521.65
838.908	11392.61
839.233	11457.47
839.558	11391.93
839.883	11382.44
840.208	11321.88
840.533	11356.45
840.858	11335.44
841.182	11291.6
841.507	11311.26
841.832	11302.44
842.156	11248.43
842.481	11262.22
842.805	11244.59
843.13	11187.64
843.454	11205.04
843.778	11092.96
844.103	11126.18
844.427	11083.47
844.751	11181.32
845.075	11093.63
845.399	11035.56
845.723	10990.59
846.047	10982.45
846.371	10874.66
846.695	10891.83
847.019	10748.33
847.343	10725.51
847.666	10677.37
847.99	10705.62
848.313	10643.7
848.637	10638.28
848.96	10520.32
849.284	10555.34
849.607	10470.37
849.931	10394.22
850.254	10325.75
850.577	10327.1
850.9	10226.76
851.223	10249.59
851.546	10216.14
851.869	10195.58
852.192	10129.82
852.515	10124.85
852.838	10011.4
853.161	10070.61
853.483	10010.05
853.806	9959.2
854.129	9925.53
854.451	9889.82
854.774	9836.72
855.096	9817.28
855.419	9829.71
855.741	9833.1
856.063	9714.91
856.385	9735.03
856.708	9653.22
857.03	9656.61
857.352	9687.34
857.674	9654.35
857.996	9572.77
858.318	9528.48
858.64	9505.43
858.961	9516.05
859.283	9491.19
859.605	9481.7
859.926	9467.46
860.248	9435.15
860.57	9336.17
860.891	9390.18
861.212	9306.79
861.534	9326.22
861.855	9290.52
862.176	9314.25
862.498	9234.47
862.819	9318.99
863.14	9243.29
863.461	9297.98
863.782	9233.57
864.103	9224.08
864.424	9206.68
864.745	9250.97
865.065	9123.52
865.386	9142.05
865.707	9097.76
866.027	9150.64
866.348	9084.65
866.668	9110.86
866.989	9102.27
867.309	8952.9
867.63	9075.83
867.95	9027.02
868.27	8954.26
868.59	8951.09
868.91	9011.88
869.23	8914.26
869.55	8858.89
869.87	8934.37
870.19	8940.25
870.51	8860.02
870.83	8878.78
871.15	8818.89
871.469	8850.3
871.789	8871.32
872.109	8854.6
872.428	8790.19
872.748	8722.4
873.067	8760.81
873.386	8746.8
873.706	8733.24
874.025	8745
874.344	8700.03
874.663	8708.61
874.982	8656.18
875.301	8695.73
875.62	8673.13
875.939	8629.97
876.258	8660.25
876.577	8607.6
876.896	8611.89
877.214	8568.96
877.533	8604.21
877.852	8585.9
878.17	8640.37
878.489	8554.04
878.807	8539.58
879.125	8519.47
879.444	8474.72
879.762	8452.8
880.08	8439.24
880.398	8472.01
880.716	8452.57
881.034	8442.18
881.352	8399.02
881.67	8333.48
881.988	8408.96
882.306	8344.78
882.624	8313.59
882.941	8285.8
883.259	8196.08
883.577	8236.53
883.894	8214.39
884.212	8256.87
884.529	8164.9
884.846	8201.96
885.164	8168.74
885.481	8152.02
885.798	8159.47
886.115	8090.32
886.432	8074.51
886.75	8097.33
887.067	8079.02
887.383	8004.68
887.7	8005.81
888.017	8020.27
888.334	7980.95
888.651	7961.97
888.967	7942.98
889.284	7930.55
889.6	7887.17
889.917	7812.82
890.233	7860.05
890.55	7758.13
890.866	7772.37
891.182	7795.64
891.498	7736.89
891.815	7690.79
892.131	7689.66
892.447	7683.56
892.763	7684.23
893.079	7667.74
893.395	7622.54
893.71	7606.72
894.026	7588.42
894.342	7541.19
894.657	7441.3
894.973	7534.63
895.289	7472.04
895.604	7473.62
895.92	7344.81
896.235	7354.52
896.55	7389.33
896.865	7337.58
897.181	7366.05
897.496	7308.42
897.811	7250.12
898.126	7255.54
898.441	7259.39
898.756	7234.3
899.071	7134.87
899.386	7164.47
899.7	7152.5
900.015	7061.2
900.33	7048.32
900.644	7038.15
900.959	7050.8
901.273	7004.48
901.588	6971.94
901.902	6881.54
902.216	6909.11
902.531	6876.8
902.845	6872.05
903.159	6815.1
903.473	6776.01
903.787	6760.87
904.101	6723.13
904.415	6784.37
904.729	6684.71
905.042	6690.13
905.356	6642.68
905.67	6607.65
905.984	6602.68
906.297	6615.79
906.611	6532.62
906.924	6549.35
907.237	6536.24
907.551	6524.49
907.864	6485.17
908.177	6467.54
908.491	6440.65
908.804	6384.61
909.117	6336.02
909.43	6344.38
909.743	6316.13
910.056	6300.31
910.368	6280.88
910.681	6279.07
910.994	6249.92
911.307	6196.14
911.619	6150.04
911.932	6184.16
912.244	6133.31
912.557	6112.07
912.869	6041.11
913.181	6039.3
913.494	6028.68
913.806	5964.96
914.118	5985.75
914.43	5939.19
914.742	5965.41
915.054	5936.93
915.366	5877.05
915.678	5885.64
915.99	5797.73
916.302	5751.63
916.613	5760.44
916.925	5757.96
917.236	5740.56
917.548	5708.69
917.859	5765.41
918.171	5615.81
918.482	5588.69
918.794	5642.48
919.105	5613.33
919.416	5561.8
919.727	5491.97
920.038	5533.33
920.349	5517.28
920.66	5482.48
920.971	5434.57
921.282	5452.88
921.593	5460.11
921.903	5411.3
922.214	5398.42
922.525	5317.06
922.835	5360.68
923.146	5325.2
923.456	5276.61
923.767	5248.14
924.077	5250.17
924.387	5206.33
924.697	5250.62
925.008	5183.96
925.318	5161.14
925.628	5143.28
925.938	5138.54
926.248	5122.72
926.558	5068.26
926.867	5059.67
927.177	5055.83
927.487	5029.39
927.796	4996.17
928.106	4987.13
928.416	4943.29
928.725	4961.82
929.034	4948.71
929.344	4918.43
929.653	4853.57
929.962	4816.06
930.271	4822.61
930.581	4818.77
930.89	4790.3
931.199	4754.82
931.508	4755.27
931.817	4786.46
932.125	4706.23
932.434	4698.77
932.743	4659.91
933.051	4658.32
933.36	4671.88
933.669	4651.32
933.977	4653.35
934.286	4628.49
934.594	4587.14
934.902	4520.93
935.21	4503.53
935.519	4519.57
935.827	4477.54
936.135	4464.43
936.443	4460.14
936.751	4459.23
937.059	4393.02
937.367	4414.71
937.674	4441.38
937.982	4377.2
938.29	4343.98
938.597	4377.88
938.905	4296.07
939.213	4280.48
939.52	4294.94
939.827	4272.35
940.135	4278.9
940.442	4247.49
940.749	4248.39
941.056	4210.88
941.363	4174.72
941.67	4179.69
941.977	4141.05
942.284	4104.44
942.591	4102.41
942.898	4080.94
943.205	4099.92
943.511	4071.9
943.818	4055.4
944.125	4025.8
944.431	3987.83
944.738	3970.43
945.044	3958
945.35	3943.99
945.657	3923.2
945.963	3911.9
946.269	3884.33
946.575	3887.95
946.881	3878.46
947.187	3829.42
947.493	3777.44
947.799	3838.23
948.105	3790.55
948.41	3757.56
948.716	3804.79
949.022	3720.72
949.327	3757.56
949.633	3687.5
949.938	3691.12
950.244	3728.86
950.549	3661.51
950.854	3636.88
951.16	3642.31
951.465	3626.03
951.77	3655.86
952.075	3572.25
952.38	3571.12
952.685	3558.24
952.99	3521.63
953.294	3570.89
953.599	3519.37
953.904	3505.13
954.209	3490.22
954.513	3487.28
954.818	3449.32
955.122	3431.24
955.426	3443.89
955.731	3411.58
956.035	3393.27
956.339	3414.74
956.643	3372.71
956.948	3372.26
957.252	3372.71
957.556	3341.75
957.86	3323.44
958.163	3299.94
958.467	3306.49
958.771	3267.63
959.075	3282.77
959.378	3242.77
959.682	3254.52
959.985	3228.53
960.289	3202.54
960.592	3196.44
960.896	3188.31
961.199	3172.71
961.502	3145.37
961.805	3139.49
962.108	3130.68
962.411	3154.41
962.714	3093.62
963.017	3080.29
963.32	3099.04
963.623	3091.13
963.926	3075.99
964.228	3064.02
964.531	3040.74
964.833	2991.02
965.136	2976.56
965.438	2995.77
965.741	2991.02
966.043	2948.54
966.345	2935.43
966.648	2981.08
966.95	2943.11
967.252	2871.48
967.554	2964.81
967.856	2873.06
968.158	2878.94
968.46	2878.48
968.761	2836.9
969.063	2859.95
969.365	2827.64
969.666	2831.25
969.968	2831.25
970.269	2809.56
970.571	2807.75
970.872	2813.17
971.174	2762.1
971.475	2754.65
971.776	2723.23
972.077	2745.83
972.378	2718.04
972.679	2724.82
972.98	2705.15
973.281	2641.2
973.582	2678.71
973.883	2668.09
974.183	2647.98
974.484	2656.57
974.785	2592.62
975.085	2600.52
975.386	2608.21
975.686	2605.5
975.986	2569.57
976.287	2553.29
976.587	2547.42
976.887	2549.9
977.187	2541.77
977.487	2567.08
977.787	2531.83
978.087	2515.33
978.387	2481.66
978.687	2469.45
978.987	2497.93
979.286	2471.04
979.586	2474.43
979.885	2443.24
980.185	2434.2
980.484	2407.99
980.784	2389
981.083	2414.77
981.382	2422.45
981.682	2338.38
981.981	2351.94
982.28	2364.37
982.579	2339.06
982.878	2334.54
983.177	2317.37
983.475	2321.44
983.774	2272.62
984.073	2296.13
984.372	2271.49
984.67	2272.17
984.969	2269.23
985.267	2282.79
985.566	2272.17
985.864	2236.01
986.162	2225.85
986.461	2168.45
986.759	2226.07
987.057	2204.6
987.355	2208.67
987.653	2159.86
987.951	2172.06
988.249	2189.24
988.547	2116.92
988.844	2144.27
989.142	2135.68
989.44	2076.02
989.737	2103.81
990.035	2102.01
990.332	2112.4
990.63	2050.93
990.927	2082.35
991.224	2057.26
991.521	2051.61
991.819	2069.01
992.116	2026.98
992.413	2022.23
992.71	2014.78
993.006	2022.69
993.303	1999.86
993.6	2008
993.897	1997.15
994.193	1977.94
994.49	1969.58
994.787	1937.49
995.083	1895.01
995.379	1914.22
995.676	1933.2
995.972	1904.27
996.268	1870.37
996.565	1890.26
996.861	1883.48
997.157	1888.23
997.453	1883.93
997.749	1867.44
998.044	1852.75
998.34	1842.35
998.636	1850.71
998.932	1801.9
999.227	1831.73
999.523	1791.28
999.818	1789.02
1000.114	1793.31
1000.409	1787.66
1000.704	1792.18
1001	1744.05
1001.295	1722.81
1001.59	1772.3
1001.885	1737.5
1002.18	1727.1
1002.475	1731.17
1002.77	1716.48
1003.065	1689.36
1003.359	1714.67
1003.654	1675.58
1003.949	1645.52
1004.243	1636.71
1004.538	1660.21
1004.832	1660.44
1005.127	1624.28
1005.421	1628.57
1005.715	1612.3
1006.009	1631.28
1006.304	1622.7
1006.598	1596.26
1006.892	1579.99
1007.186	1575.92
1007.48	1582.7
1007.773	1562.13
1008.067	1544.28
1008.361	1528.69
1008.655	1536.37
1008.948	1519.88
1009.242	1535.47
1009.535	1521.01
1009.829	1508.8
1010.122	1494.79
1010.415	1474.68
1010.708	1486.2
1011.001	1476.03
1011.295	1476.49
1011.588	1441.01
1011.881	1440.33
1012.173	1419.76
1012.466	1400.78
1012.759	1454.79
1013.052	1415.25
1013.344	1394.45
1013.637	1397.17
1013.93	1389.71
1014.222	1371.86
1014.514	1368.92
1014.807	1394
1015.099	1355.36
1015.391	1337.73
1015.683	1371.18
1015.976	1322.37
1016.268	1319.88
1016.56	1287.57
1016.851	1332.08
1017.143	1310.16
1017.435	1281.92
1017.727	1287.11
1018.018	1269.94
1018.31	1276.72
1018.602	1258.41
1018.893	1245.53
1019.185	1236.94
1019.476	1238.75
1019.767	1212.09
1020.058	1238.07
1020.35	1224.06
1020.641	1213.44
1020.932	1206.89
1021.223	1201.92
1021.514	1182.93
1021.804	1181.35
1022.095	1170.73
1022.386	1182.26
1022.677	1168.02
1022.967	1161.01
1023.258	1147.23
1023.548	1155.37
1023.839	1107.91
1024.129	1116.5
1024.419	1118.53
1024.709	1107.91
1025	1086.67
1025.29	1107.23
1025.58	1083.73
1025.87	1096.61
1026.16	1076.95
1026.449	1054.58
1026.739	1052.32
1027.029	1070.62
1027.319	1038.53
1027.608	1032.66
1027.898	1048.25
1028.187	1015.71
1028.477	1024.97
1028.766	1017.06
1029.055	1022.94
1029.344	1022.49
1029.634	1022.94
1029.923	980.68
1030.212	984.52
1030.501	962.15
1030.79	952.43
1031.078	962.15
1031.367	957.18
1031.656	929.16
1031.945	965.09
1032.233	946.78
1032.522	940.46
1032.81	944.75
1033.099	935.03
1033.387	908.37
1033.675	899.55
1033.963	923.96
1034.251	935.26
1034.54	917.63
1034.828	883.51
1035.116	899.78
1035.403	881.25
1035.691	883.73
1035.979	855.49
1036.267	880.57
1036.554	870.4
1036.842	869.72
1037.129	871.53
1037.417	860.68
1037.704	851.42
1037.992	835.83
1038.279	835.83
1038.566	813.45
1038.853	813.45
1039.14	813.45
