Data from hue_00_FLMS001491_56.txt Node
Date: Mon Feb 06 15:29:55 GMT 2017
User: dcchb
Spectrometer: FLMS00149
Trigger mode: 0
Integration Time (sec): 2.000000E-2
Scans to average: 10
Electric dark correction enabled: true
Nonlinearity correction enabled: false
Boxcar width: 0
XAxis mode: Wavelengths
Number of Pixels in Spectrum: 2048
>>>>>Begin Spectral Data<<<<<
341.393	-0.47
341.776	-0.47
342.16	-0.47
342.543	-51.99
342.927	-83.18
343.31	-69.39
343.693	-64.19
344.077	-80.46
344.46	-58.32
344.843	-56.96
345.226	-28.49
345.61	-30.52
345.993	-4.08
346.376	-6.34
346.759	28.23
347.142	13.09
347.525	41.79
347.908	58.97
348.291	58.74
348.674	81.79
349.057	116.14
349.44	140.32
349.823	141.9
350.206	171.05
350.588	181.9
350.971	212.18
351.354	218.29
351.737	229.81
352.119	239.3
352.502	258.28
352.884	273.43
353.267	276.36
353.65	281.33
354.032	271.17
354.414	288.11
354.797	320.2
355.179	303.48
355.562	303.48
355.944	300.99
356.326	319.3
356.709	327.89
357.091	325.85
357.473	329.02
357.855	319.53
358.238	325.18
358.62	328.11
359.002	340.99
359.384	365.63
359.766	341.22
360.148	317.94
360.53	331.5
360.912	327.66
361.294	316.36
361.676	317.94
362.057	338.28
362.439	314.78
362.821	336.47
363.203	340.54
363.584	340.32
363.966	325.63
364.348	332.63
364.729	324.72
365.111	305.74
365.493	318.4
365.874	320.88
366.256	298.74
366.637	325.4
367.019	311.62
367.4	316.36
367.781	314.1
368.163	297.15
368.544	316.14
368.925	326.3
369.306	321.11
369.688	295.12
370.069	336.47
370.45	319.98
370.831	308.68
371.212	317.49
371.593	318.85
371.974	303.71
372.355	295.35
372.736	286.08
373.117	311.39
373.498	317.49
373.879	312.75
374.26	306.42
374.641	300.09
375.021	303.25
375.402	311.39
375.783	322.01
376.163	312.07
376.544	315.68
376.925	331.28
377.305	335.12
377.686	309.36
378.066	320.88
378.447	305.97
378.827	327.21
379.208	326.98
379.588	348.23
379.968	324.05
380.349	326.08
380.729	316.14
381.109	307.77
381.489	331.5
381.87	325.18
382.25	358.17
382.63	316.59
383.01	324.95
383.39	340.54
383.77	326.53
384.15	322.24
384.53	337.15
384.91	332.18
385.29	323.14
385.67	341.9
386.049	340.99
386.429	335.57
386.809	335.34
387.189	342.12
387.568	340.32
387.948	334.89
388.328	334.67
388.707	343.71
389.087	345.97
389.466	348.23
389.846	350.03
390.225	341.9
390.605	340.32
390.984	337.38
391.363	363.82
391.743	349.13
392.122	364.04
392.501	362.69
392.881	359.75
393.26	335.8
393.639	369.92
394.018	358.39
394.397	357.49
394.776	372.86
395.155	371.5
395.534	366.53
395.913	372.41
396.292	357.72
396.671	361.11
397.05	362.01
397.429	378.73
397.808	366.3
398.186	355
398.565	371.73
398.944	378.28
399.323	369.02
399.701	354.33
400.08	366.08
400.458	371.73
400.837	381.9
401.215	408.11
401.594	390.94
401.972	377.15
402.351	393.42
402.729	388.45
403.107	377.38
403.486	382.57
403.864	388
404.242	402.01
404.62	385.96
404.999	375.8
405.377	390.26
405.755	383.7
406.133	397.26
406.511	408.11
406.889	403.14
407.267	408.11
407.645	392.07
408.023	411.73
408.401	397.04
408.779	412.86
409.156	403.82
409.534	402.01
409.912	432.52
410.29	417.6
410.667	414.44
411.045	410.82
411.422	429.81
411.8	438.17
412.178	445.4
412.555	446.08
412.933	428
413.31	436.81
413.687	427.77
414.065	449.01
414.442	440.2
414.819	428.9
415.197	449.92
415.574	465.74
415.951	460.54
416.328	469.35
416.705	468.67
417.082	464.83
417.46	493.08
417.837	479.3
418.214	447.88
418.591	473.65
418.967	471.39
419.344	487.43
419.721	450.37
420.098	484.04
420.475	475
420.852	478.39
421.228	502.57
421.605	518.16
421.982	504.38
422.358	501.22
422.735	513.42
423.111	520.65
423.488	528.56
423.864	517.49
424.241	504.15
424.617	529.01
424.994	538.73
425.37	529.24
425.746	524.27
426.123	531.95
426.499	526.53
426.875	535.34
427.251	540.54
427.627	538.28
428.003	541.44
428.379	565.62
428.756	574.43
429.132	558.84
429.507	569.69
429.883	581.67
430.259	592.06
430.635	575.11
431.011	590.25
431.387	575.11
431.763	583.02
432.138	584.6
432.514	585.73
432.89	613.08
433.265	616.24
433.641	607.43
434.016	613.3
434.392	627.54
434.767	621.66
435.143	630.93
435.518	644.71
435.894	649.23
436.269	633.19
436.644	649.46
437.02	631.61
437.395	648.56
437.77	660.53
438.145	657.82
438.52	685.17
438.895	669.57
439.271	675
439.646	683.36
440.021	702.34
440.395	678.39
440.77	688.33
441.145	697.37
441.52	719.29
441.895	720.19
442.27	725.39
442.645	708.44
443.019	705.96
443.394	697.59
443.769	745.95
444.143	734.2
444.518	713.87
444.892	711.83
445.267	740.08
445.641	767.65
446.016	738.95
446.39	739.63
446.764	720.64
447.139	748.67
447.513	755.45
447.887	753.64
448.262	757.03
448.636	754.32
449.01	765.84
449.384	773.98
449.758	776.91
450.132	774.65
450.506	792.51
450.88	796.12
451.254	809.91
451.628	793.19
452.002	816.01
452.376	829.79
452.75	805.61
453.123	814.43
453.497	824.6
453.871	844.03
454.244	838.16
454.618	828.21
454.992	818.72
455.365	833.86
455.739	879.28
456.112	856.23
456.486	848.78
456.859	874.99
457.232	881.09
457.606	876.35
457.979	899.17
458.352	910.7
458.725	918.61
459.099	921.54
459.472	922.67
459.845	946.4
460.218	946.18
460.591	947.53
460.964	954.54
461.337	989.34
461.71	981.2
462.083	999.51
462.456	1015.1
462.829	992.28
463.201	1017.13
463.574	1026.4
463.947	1053.74
464.32	1055.55
464.692	1052.84
465.065	1065.72
465.438	1068.21
465.81	1095.78
466.183	1089.67
466.555	1097.36
466.928	1136.68
467.3	1136.68
467.672	1161.09
468.045	1145.72
468.417	1179.62
468.789	1178.49
469.161	1189.79
469.534	1189.11
469.906	1229.78
470.278	1246.51
470.65	1251.25
471.022	1265.94
471.394	1305.04
471.766	1303.23
472.138	1300.06
472.51	1318.6
472.882	1353.17
473.253	1361.31
473.625	1369.67
473.997	1399.05
474.369	1422.1
474.74	1448.54
475.112	1483.34
475.484	1484.92
475.855	1464.13
476.227	1531.92
476.598	1558.59
476.97	1563.79
477.341	1606.27
477.713	1611.92
478.084	1620.73
478.455	1689.43
478.827	1684.46
479.198	1743.89
479.569	1757.23
479.94	1778.24
480.311	1856.21
480.682	1827.96
481.053	1863.89
481.424	1922.2
481.795	1923.78
482.166	1951.57
482.537	1969.2
482.908	2035.64
483.279	2052.81
483.65	2087.84
484.021	2107.95
484.391	2191.57
484.762	2202.19
485.133	2246.25
485.503	2226.37
485.874	2278.12
486.244	2299.81
486.615	2379.81
486.985	2391.79
487.356	2428.4
487.726	2484.67
488.097	2489.86
488.467	2523.76
488.837	2580.26
489.207	2612.35
489.578	2644.66
489.948	2694.38
490.318	2742.29
490.688	2710.65
491.058	2788.61
491.428	2767.6
491.798	2841.49
492.168	2915.84
492.538	2908.16
492.908	2922.62
493.278	2967.37
493.648	2991.32
494.017	3059.11
494.387	3053.92
494.757	3108.6
495.126	3137.53
495.496	3138.89
495.866	3154.03
496.235	3193.35
496.605	3236.28
496.974	3241.48
497.344	3273.35
497.713	3297.98
498.082	3349.95
498.452	3355.83
498.821	3379.11
499.19	3384.3
499.559	3434.7
499.928	3450.74
500.298	3486.9
500.667	3516.05
501.036	3531.64
501.405	3545.43
501.774	3544.98
502.143	3593.34
502.512	3598.99
502.88	3617.97
503.249	3637.4
503.618	3664.3
503.987	3691.64
504.356	3722.37
504.724	3723.73
505.093	3719.66
505.462	3728.02
505.83	3708.81
506.199	3794.46
506.567	3800.56
506.936	3821.35
507.304	3886.66
507.672	3851.64
508.041	3925.31
508.409	3901.13
508.777	3910.62
509.145	3944.06
509.514	3910.39
509.882	3974.34
510.25	4017.51
510.618	4013.44
510.986	4033.78
511.354	4056.83
511.722	4049.6
512.09	4172.31
512.458	4092.31
512.826	4137.73
513.193	4101.35
513.561	4143.15
513.929	4126.66
514.297	4165.75
514.664	4225.41
515.032	4185.86
515.4	4227.45
515.767	4292.08
516.135	4295.24
516.502	4246.43
516.869	4309.93
517.237	4317.16
517.604	4315.35
517.972	4354.9
518.339	4389.93
518.706	4380.66
519.073	4360.1
519.44	4433.54
519.808	4430.38
520.175	4468.12
520.542	4486.65
520.909	4485.52
521.276	4480.09
521.643	4535.91
522.009	4528.68
522.376	4564.39
522.743	4554.22
523.11	4622.01
523.477	4604.16
523.843	4633.08
524.21	4694.78
524.577	4706.98
524.943	4754.21
525.31	4731.16
525.676	4764.15
526.043	4770.48
526.409	4864.72
526.776	4855.9
527.142	4840.99
527.508	4883.47
527.874	4885.51
528.241	4921.66
528.607	4938.61
528.973	4961.44
529.339	5001.44
529.705	5046.86
530.071	5043.47
530.437	5082.79
530.803	5122.11
531.169	5150.13
531.535	5106.07
531.901	5156.46
532.267	5185.16
532.632	5170.02
532.998	5235.33
533.364	5292.5
533.73	5236.46
534.095	5315.33
534.461	5296.12
534.826	5345.16
535.192	5300.86
535.557	5396.45
535.923	5430.35
536.288	5408.66
536.653	5411.59
537.019	5452.27
537.384	5447.07
537.749	5487.75
538.114	5525.72
538.479	5525.49
538.845	5523.91
539.21	5555.32
539.575	5579.05
539.94	5567.07
540.305	5635.54
540.67	5603
541.034	5664.02
541.399	5669.44
541.764	5767.29
542.129	5697.24
542.494	5764.13
542.858	5817.23
543.223	5769.1
543.587	5831.92
543.952	5840.28
544.316	5843.45
544.681	5941.07
545.045	5957.8
545.41	5967.06
545.774	5955.99
546.138	5989.88
546.503	6008.87
546.867	6033.95
547.231	6064.46
547.595	6088.87
547.959	6117.79
548.324	6085.7
548.688	6118.92
549.052	6145.36
549.416	6139.71
549.779	6188.75
550.143	6233.95
550.507	6258.8
550.871	6339.71
551.235	6320.05
551.599	6300.61
551.962	6372.47
552.326	6325.24
552.689	6389.87
553.053	6370.67
553.417	6399.37
553.78	6424
554.143	6474.17
554.507	6487.05
554.87	6482.53
555.234	6527.95
555.597	6474.62
555.96	6528.63
556.323	6604.78
556.686	6585.58
557.05	6633.26
557.413	6656.53
557.776	6630.77
558.139	6720.94
558.502	6676.42
558.865	6681.17
559.228	6730.2
559.59	6767.27
559.953	6826.47
560.316	6813.37
560.679	6831.44
561.041	6870.09
561.404	6914.83
561.767	6919.58
562.129	6910.31
562.492	6982.18
562.854	6990.54
563.217	6966.81
563.579	6991.89
563.941	6998.9
564.304	7078.44
564.666	7037.54
565.028	7108.95
565.39	7150.98
565.753	7215.84
566.115	7202.28
566.477	7161.15
566.839	7219.68
567.201	7276.18
567.563	7282.28
567.925	7357.08
568.287	7317.53
568.648	7352.33
569.01	7434.82
569.372	7485.89
569.734	7457.64
570.095	7554.82
570.457	7569.28
570.819	7616.28
571.18	7567.47
571.542	7677.07
571.903	7645.89
572.265	7744.64
572.626	7691.76
572.987	7783.28
573.349	7765.21
573.71	7865.54
574.071	7935.14
574.432	7988.02
574.794	8030.96
575.155	8040.45
575.516	8050.17
575.877	8129.26
576.238	8195.93
576.599	8291.52
576.96	8294.23
577.32	8419.65
577.681	8448.8
578.042	8573.77
578.403	8566.09
578.763	8692.86
579.124	8774.22
579.485	8857.15
579.845	8949.81
580.206	8988.45
580.566	9086.75
580.927	9194.55
581.287	9334.43
581.648	9436.12
582.008	9556.57
582.368	9619.39
582.728	9819.61
583.089	9943
583.449	10044.02
583.809	10227.06
584.169	10300.96
584.529	10480.84
584.889	10701.85
585.249	10789.98
585.609	11022.75
585.969	11240.37
586.329	11372.12
586.688	11483.3
587.048	11758.32
587.408	11837.64
587.768	12070.63
588.127	12398.98
588.487	12531.86
588.846	12865.18
589.206	12881.46
589.565	13147.44
589.925	13507.65
590.284	13633.53
590.643	13889.79
591.003	14109.67
591.362	14495.42
591.721	14551.92
592.08	14915.98
592.44	15106.48
592.799	15457.21
593.158	15695.62
593.517	15821.26
593.876	16242.27
594.235	16434.13
594.593	16766.32
594.952	17041.57
595.311	17245.86
595.67	17513.65
596.029	17937.59
596.387	18245.61
596.746	18582.32
597.104	18683.34
597.463	19022.08
597.822	19235.19
598.18	19481.28
598.538	19758.56
598.897	20232.9
599.255	20279
599.613	20856.16
599.972	20917.18
600.33	21254.34
600.688	21402.13
601.046	21833.31
601.404	22090.7
601.762	22354.43
602.12	22728.2
602.478	22961.42
602.836	23136.1
603.194	23303.1
603.552	23725.01
603.91	23833.94
604.268	24126.58
604.625	24341.04
604.983	24760.69
605.341	24725.89
605.698	25049.27
606.056	25378.75
606.413	25618.75
606.771	25826.65
607.128	26230.93
607.485	26292.18
607.843	26502.11
608.2	26856.91
608.557	27100.52
608.914	27149.33
609.272	27499.83
609.629	27787.5
609.986	28195.63
610.343	28170.54
610.7	28451.67
611.057	28696.86
611.414	28785.22
611.771	28986.57
612.127	29192.21
612.484	29423.17
612.841	29659.32
613.198	29695.25
613.554	29959.65
613.911	30187.67
614.267	30369.36
614.624	30482.57
614.98	30544.72
615.337	31017.7
615.693	31046.85
616.05	31146.06
616.406	31488.42
616.762	31513.51
617.118	31586.5
617.475	31685.71
617.831	31937.9
618.187	32036.43
618.543	32235.52
618.899	32447.72
619.255	32459.02
619.611	32589.86
619.967	32646.13
620.323	33015.61
620.678	32918.89
621.034	33010.42
621.39	33103.07
621.746	33202.95
622.101	33605.43
622.457	33417.64
622.812	33735.82
623.168	33734.24
623.523	33763.62
623.879	34166.32
624.234	33851.3
624.589	33996.38
624.945	34179.43
625.3	34310.95
625.655	34307.11
626.01	34462.81
626.365	34528.34
626.72	34551.17
627.075	34543.94
627.43	34597.27
627.785	34535.8
628.14	34810.82
628.495	34864.38
628.85	34850.37
629.205	34840.65
629.559	35064.83
629.914	34928.78
630.269	35098.5
630.623	34976.92
630.978	34907.32
631.332	35192.28
631.687	35232.96
632.041	35131.49
632.396	35154.54
632.75	35068.22
633.104	35253.07
633.459	35078.39
633.813	35011.72
634.167	35175.33
634.521	35214.65
634.875	35256.01
635.229	35395.67
635.583	35135.11
635.937	35218.49
636.291	35201.55
636.645	35261.21
636.999	35202
637.352	35289.91
637.706	35120.87
638.06	35200.42
638.413	35245.61
638.767	35195.44
639.121	35124.49
639.474	35129.01
639.828	35140.08
640.181	35258.27
640.534	35184.6
640.888	35228.21
641.241	35085.62
641.594	35219.17
641.947	35358.83
642.301	35065.73
642.654	35162
643.007	35129.46
643.36	35106.18
643.713	35083.58
644.066	35242.45
644.419	35033.41
644.771	34823.03
645.124	34479.98
645.477	34465.97
645.83	34337.61
646.182	34088.81
646.535	34163.38
646.888	34148.47
647.24	34091.52
647.593	34166.77
647.945	34126.32
648.298	33885.42
648.65	33907.12
649.002	33756.16
649.355	33971.52
649.707	33833.45
650.059	34068.02
650.411	34605.63
650.763	34455.58
651.115	34884.04
651.467	34706.42
651.819	34717.94
652.171	34665.52
652.523	34673.42
652.875	34612.18
653.227	34437.05
653.578	34782.12
653.93	34717.27
654.282	34469.14
654.633	34410.38
654.985	34613.99
655.337	34538.29
655.688	34574.67
656.039	34647.44
656.391	34433.43
656.742	34507.78
657.094	34446.09
657.445	34777.6
657.796	34445.41
658.147	34504.16
658.498	34454.67
658.849	34584.84
659.2	34359.08
659.551	34413.09
659.902	34531.51
660.253	34444.96
660.604	34422.81
660.955	34272.98
661.306	34538.74
661.656	34282.47
662.007	34316.15
662.358	34327.67
662.708	34401.79
663.059	34286.77
663.409	34132.87
663.76	34336.48
664.11	34341.91
664.461	34371.74
664.811	34338.52
665.161	34277.5
665.511	34237.05
665.862	34337.16
666.212	34297.84
666.562	34342.59
666.912	34290.84
667.262	34251.51
667.612	34090.61
667.962	34243.83
668.312	34219.65
668.662	34313.43
669.011	34165.87
669.361	34162.7
669.711	34073.21
670.06	34185.98
670.41	34112.31
670.76	33992.54
671.109	34161.12
671.459	34204.28
671.808	34153.89
672.157	34270.27
672.507	33960.67
672.856	34009.04
673.205	34000.67
673.554	34128.13
673.904	34046.77
674.253	34216.94
674.602	34001.8
674.951	33495.6
675.3	33381.71
675.649	33896.27
675.998	33883.39
676.346	33890.39
676.695	34017.62
677.044	33699.21
677.393	33820.11
677.741	33952.09
678.09	33840.45
678.438	33670.06
678.787	33687.01
679.135	33656.5
679.484	33383.29
679.832	33758.19
680.181	33431.65
680.529	33523.17
680.877	33575.15
681.225	33465.77
681.573	33651.08
681.922	33411.54
682.27	33249.28
682.618	33391.2
682.966	33211.99
683.314	33226.23
683.661	33261.26
684.009	33044.54
684.357	32974.03
684.705	32864.21
685.053	33106.91
685.4	32835.51
685.748	32758.45
686.095	32788.5
686.443	32687.94
686.79	32737.88
687.138	32691.56
687.485	32691.1
687.832	32562.29
688.18	32597.55
688.527	32429.19
688.874	32498.57
689.221	32182.87
689.568	32287.27
689.915	32156.2
690.262	32125.47
690.609	32169.08
690.956	31897.23
691.303	31889.77
691.65	31777.68
691.997	31819.04
692.344	31596.9
692.69	31700.62
693.037	31661.07
693.383	31408.65
693.73	31521.42
694.077	31227.19
694.423	31242.1
694.769	31168.88
695.116	31152.84
695.462	31175.66
695.808	30963.47
696.155	31030.13
696.501	30938.61
696.847	30827.2
697.193	30577.49
697.539	30808.22
697.885	30530.03
698.231	30459.3
698.577	30359.64
698.923	30310.6
699.269	30186.08
699.614	30105.18
699.96	29986.32
700.306	30083.26
700.651	29790.84
700.997	29803.95
701.342	29683.27
701.688	29645.08
702.033	29689.6
702.379	29594.91
702.724	29470.85
703.069	29383.85
703.415	29226.34
703.76	29197.86
704.105	29238.99
704.45	29064.98
704.795	28990.41
705.14	28798.78
705.485	28873.35
705.83	28874.71
706.175	28846.69
706.52	28700.7
706.865	28705.67
707.209	28535.96
707.554	28555.17
707.899	28660.02
708.243	28379.8
708.588	28365.34
708.932	28203.31
709.277	28169.64
709.621	28328.51
709.966	27899.37
710.31	28065.24
710.654	27693.27
710.998	27925.58
711.342	27948.86
711.687	27855.98
712.031	27679.48
712.375	27630.67
712.719	27600.39
713.063	27615.76
713.407	27661.86
713.75	27441.75
714.094	27571.92
714.438	27468.87
714.782	27341.64
715.125	27180.51
715.469	27241.08
715.812	27099.84
716.156	26998.37
716.499	27028.88
716.843	27065.26
717.186	26975.55
717.53	26907.3
717.873	26928.32
718.216	26802.44
718.559	26663.47
718.902	26587.31
719.246	26677.48
719.589	26541.21
719.932	26495.79
720.275	26467.99
720.617	26270.71
720.96	26330.82
721.303	26277.94
721.646	26429.8
721.989	26210.14
722.331	26340.54
722.674	26280.65
723.016	26235.45
723.359	26157.72
723.701	26115.68
724.044	25955.46
724.386	25865.52
724.729	25965.4
725.071	25926.76
725.413	25959.3
725.755	25862.58
726.097	25785.52
726.439	25662.59
726.782	25676.6
727.124	25640.44
727.465	25551.86
727.807	25456.49
728.149	25434.35
728.491	25426.89
728.833	25406.32
729.175	25398.41
729.516	25352.77
729.858	25243.16
730.199	25281.36
730.541	25246.1
730.882	25206.55
731.224	25327.91
731.565	25158.19
731.906	25162.26
732.248	24991.42
732.589	25107.57
732.93	24822.38
733.271	24911.42
733.612	24901.03
733.953	24915.04
734.294	24832.78
734.635	24767.02
734.976	24888.6
735.317	24727.25
735.658	24774.7
735.999	24585.55
736.339	24564.99
736.68	24745.1
737.021	24572.22
737.361	24541.04
737.702	24701.03
738.042	24516.63
738.383	24414.03
738.723	24454.26
739.063	24404.32
739.404	24454.26
739.744	24275.05
740.084	24310.53
740.424	24354.83
740.764	24162.74
741.104	24290.19
741.444	24112.12
741.784	24099.01
742.124	24142.18
742.464	24111.44
742.804	24054.04
743.143	24021.28
743.483	24049.97
743.823	23793.03
744.162	23887.72
744.502	23805.46
744.841	23770.89
745.181	23903.54
745.52	23759.59
745.86	23826.03
746.199	23685.92
746.538	23576.32
746.877	23825.57
747.216	23696.09
747.556	23610.21
747.895	23610.89
748.234	23616.09
748.573	23482.53
748.911	23415.64
749.25	23518.24
749.589	23313.72
749.928	23347.17
750.267	23351.24
750.605	23185.82
750.944	23239.37
751.283	23168.19
751.621	23185.36
751.96	23103.33
752.298	23087.51
752.636	23000.29
752.975	22968.42
753.313	22953.73
753.651	23068.76
753.989	22955.31
754.327	22805.94
754.666	22752.38
755.004	22744.92
755.342	22817.69
755.679	22726.85
756.017	22525.5
756.355	22712.38
756.693	22485.72
757.031	22497.02
757.368	22346.97
757.706	22360.53
758.044	22354.43
758.381	22308.1
758.719	22189.46
759.056	22230.59
759.394	22101.78
759.731	21977.26
760.068	21982.68
760.405	21888.68
760.743	21941.33
761.08	21910.82
761.417	21788.11
761.754	21820.66
762.091	21626.76
762.428	21604.84
762.765	21537.27
763.102	21532.53
763.438	21377.05
763.775	21324.4
764.112	21281.69
764.449	21354.68
764.785	21132.54
765.122	21116.04
765.458	21034.91
765.795	21021.13
766.131	20975.71
766.467	21013.9
766.804	20844.64
767.14	20741.59
767.476	20641.25
767.812	20516.51
768.148	20587.02
768.485	20481.48
768.821	20367.81
769.157	20330.98
769.492	20244.88
769.828	20286.46
770.164	19995.62
770.5	20048.27
770.836	20015.96
771.171	19895.28
771.507	19837.43
771.842	19771.22
772.178	19782.06
772.513	19746.36
772.849	19565.57
773.184	19527.61
773.519	19591.34
773.855	19361.74
774.19	19321.96
774.525	19233.6
774.86	19338.23
775.195	19203.32
775.53	19064.12
775.865	19028.19
776.2	18906.83
776.535	18833.84
776.87	18734.41
777.205	18682.66
777.539	18607.18
777.874	18661.87
778.209	18468.65
778.543	18473.4
778.878	18411.25
779.212	18357.47
779.547	18275.21
779.881	18206.06
780.215	18137.59
780.55	18116.35
780.884	17989.34
781.218	18013.75
781.552	18026.4
781.886	17887.43
782.22	17763.36
782.554	17754.1
782.888	17591.61
783.222	17479.98
783.556	17389.59
783.889	17465.29
784.223	17294.22
784.557	17233.21
784.89	17274.11
785.224	17174.68
785.557	17212.19
785.891	17071.4
786.224	16991.63
786.558	17041.57
786.891	16908.47
787.224	16878.86
787.557	16780.11
787.891	16701.92
788.224	16660.79
788.557	16645.2
788.89	16639.32
789.223	16615.14
789.556	16456.73
789.888	16371.98
790.221	16376.96
790.554	16195.49
790.887	16205.21
791.219	16184.87
791.552	16115.04
791.884	16019.23
792.217	16001.15
792.549	15924.99
792.882	15802.96
793.214	15709.4
793.546	15760.25
793.879	15686.35
794.211	15565.23
794.543	15646.58
794.875	15566.13
795.207	15497.21
795.539	15511.44
795.871	15562.06
796.203	15329.3
796.535	15290.66
796.867	15112.58
797.198	15245.23
797.53	15148.74
797.862	15016.77
798.193	15100.38
798.525	14987.39
798.856	15009.08
799.188	14835.75
799.519	14816.77
799.85	14789.2
800.182	14753.5
800.513	14694.74
800.844	14658.58
801.175	14732.48
801.506	14653.84
801.837	14552.82
802.168	14540.39
802.499	14488.64
802.83	14450
803.161	14303.56
803.491	14315.09
803.822	14386.95
804.153	14328.65
804.483	14225.37
804.814	14127.3
805.145	14077.13
805.475	14054.76
805.805	14079.39
806.136	14006.17
806.466	14048.88
806.796	13988.77
807.126	13789.45
807.457	13823.13
807.787	13815.89
808.117	13764.37
808.447	13674.65
808.777	13784.93
809.107	13563.25
809.436	13579.06
809.766	13561.66
810.096	13569.35
810.426	13485.51
810.755	13506.3
811.085	13421.1
811.414	13417.49
811.744	13344.27
812.073	13276.47
812.403	13276.92
812.732	13166.65
813.061	13197.15
813.39	13113.99
813.719	13096.36
814.049	13220.88
814.378	13173.88
814.707	13023.82
815.036	13068.12
815.365	12895.47
815.693	12847.56
816.022	12892.75
816.351	12836.48
816.68	12831.74
817.008	12854.56
817.337	12687.11
817.665	12723.49
817.994	12705.19
818.322	12624.06
818.651	12576.38
818.979	12559.66
819.307	12645.3
819.636	12516.04
819.964	12465.42
820.292	12576.83
820.62	12504.97
820.948	12413.67
821.276	12502.71
821.604	12370.28
821.932	12401.92
822.259	12473.1
822.587	12461.35
822.915	12378.19
823.243	12456.83
823.57	12380.68
823.898	12428.36
824.225	12391.52
824.553	12400.11
824.88	12424.97
825.207	12403.73
825.535	12412.77
825.862	12418.19
826.189	12322.6
826.516	12413.9
826.843	12489.6
827.17	12392.88
827.497	12408.25
827.824	12362.6
828.151	12397.4
828.478	12329.83
828.805	12453.67
829.131	12365.54
829.458	12303.39
829.785	12282.15
830.111	12274.47
830.438	12432.43
830.764	12330.51
831.09	12378.64
831.417	12300.68
831.743	12347.01
832.069	12372.09
832.395	12230.85
832.722	12337.97
833.048	12281.47
833.374	12258.65
833.7	12255.93
834.026	12205.09
834.351	12205.31
834.677	12195.37
835.003	12194.69
835.329	12249.83
835.654	12161.93
835.98	12067.47
836.306	12110.4
836.631	12028.6
836.956	12115.37
837.282	12139.33
837.607	11988.37
837.932	11938.43
838.258	12064.75
838.583	12018.65
838.908	11865.89
839.233	11965.32
839.558	11885.32
839.883	11925.32
840.208	11848.71
840.533	11892.55
840.858	11762.84
841.182	11823.18
841.507	11782.5
841.832	11734.59
842.156	11702.5
842.481	11730.75
842.805	11711.09
843.13	11683.75
843.454	11642.17
843.778	11524.43
844.103	11608.04
844.427	11538.44
844.751	11499.57
845.075	11446.92
845.399	11494.15
845.723	11407.37
846.047	11448.27
846.371	11370.31
846.695	11345.9
847.019	11225.45
847.343	11266.81
847.666	11180.03
847.99	11147.72
848.313	11096.19
848.637	11024.33
848.96	11020.71
849.284	11021.84
849.607	10950.66
849.931	10916.99
850.254	10792.02
850.577	10708.63
850.9	10704.11
851.223	10669.08
851.546	10696.65
851.869	10563.1
852.192	10541.18
852.515	10455.53
852.838	10471.8
853.161	10461.41
853.483	10410.33
853.806	10362.88
854.129	10352.93
854.451	10322.65
854.774	10244.91
855.096	10264.35
855.419	10193.16
855.741	10209.89
856.063	10124.24
856.385	10067.07
856.708	10087.63
857.03	10045.82
857.352	10060.29
857.674	9998.37
857.996	9947.97
858.318	9852.61
858.64	9913.4
858.961	9872.95
859.283	9782.55
859.605	9807.19
859.926	9766.28
860.248	9747.53
860.57	9753.63
860.891	9756.34
861.212	9726.51
861.534	9651.03
861.855	9670.92
862.176	9663.23
862.498	9648.09
862.819	9613.29
863.14	9578.27
863.461	9558.38
863.782	9485.39
864.103	9552.28
864.424	9564.25
864.745	9471.38
865.065	9426.18
865.386	9371.49
865.707	9535.33
866.027	9347.76
866.348	9421.43
866.668	9420.53
866.989	9344.15
867.309	9254.88
867.63	9304.15
867.95	9406.97
868.27	9191.16
868.59	9326.07
868.91	9242
869.23	9256.92
869.55	9217.82
869.87	9221.89
870.19	9209.91
870.51	9223.7
870.83	9214.43
871.15	9140.08
871.469	9224.38
871.789	9104.15
872.109	9105.96
872.428	9108.45
872.748	9048.34
873.067	9059.63
873.386	9123.36
873.706	9048.56
874.025	8999.3
874.344	9006.75
874.663	9013.53
874.982	8996.13
875.301	8932.86
875.62	8976.92
875.939	8991.61
876.258	8987.77
876.577	8807.89
876.896	8922.24
877.214	8832.07
877.533	8955.46
877.852	8825.97
878.17	8837.27
878.489	8856.7
878.807	8816.7
879.125	8772.18
879.444	8765.41
879.762	8744.16
880.08	8811.96
880.398	8766.08
880.716	8735.12
881.034	8699.42
881.352	8659.87
881.67	8703.94
881.988	8545.98
882.306	8655.13
882.624	8570.38
882.941	8554.56
883.259	8571.96
883.577	8519.31
883.894	8506.43
884.212	8445.41
884.529	8488.35
884.846	8418.97
885.164	8486.09
885.481	8433.66
885.798	8443.15
886.115	8325.87
886.432	8306.43
886.75	8314.8
887.067	8312.76
887.383	8305.76
887.7	8345.76
888.017	8281.12
888.334	8269.82
888.651	8215.14
888.967	8180.56
889.284	8185.08
889.6	8151.18
889.917	8132.43
890.233	8177.17
890.55	8084.52
890.866	8048.14
891.182	8017.18
891.498	7998.87
891.815	8025.99
892.131	7969.72
892.447	7962.04
892.763	7919.78
893.079	7909.38
893.395	7849.27
893.71	7934.47
894.026	7796.62
894.342	7786.9
894.657	7812.66
894.973	7723.4
895.289	7802.72
895.604	7719.33
895.92	7677.98
896.235	7704.64
896.55	7642.27
896.865	7622.38
897.181	7575.83
897.496	7611.54
897.811	7487.25
898.126	7524.53
898.441	7448.38
898.756	7485.66
899.071	7428.72
899.386	7390.07
899.7	7346.46
900.015	7337.19
900.33	7337.19
900.644	7269.4
900.959	7318.66
901.273	7220.81
901.588	7207.48
901.902	7165.22
902.216	7169.29
902.531	7094.49
902.845	7117.99
903.159	7107.82
903.473	7038.9
903.787	6959.58
904.101	7008.84
904.415	6977.66
904.729	6967.26
905.042	6930.43
905.356	6929.75
905.67	6890.65
905.984	6875.51
906.297	6796.87
906.611	6800.03
906.924	6802.07
907.237	6782.41
907.551	6694.05
907.864	6767.49
908.177	6657.89
908.491	6644.56
908.804	6623.99
909.117	6572.24
909.43	6596.65
909.743	6494.73
910.056	6537.89
910.368	6524.33
910.681	6449.08
910.994	6458.8
911.307	6384.9
911.619	6398.69
911.932	6358.24
912.244	6355.75
912.557	6341.97
912.869	6265.13
913.181	6226.04
913.494	6206.83
913.806	6202.76
914.118	6194.4
914.43	6178.81
914.742	6138.13
915.054	6092.93
915.366	6118.24
915.678	6101.52
915.99	6037.34
916.302	5977.46
916.613	6013.61
916.925	5990.11
917.236	5905.14
917.548	5869.89
917.859	5898.36
918.171	5822.66
918.482	5847.06
918.794	5829.89
919.105	5860.17
919.416	5756.67
919.727	5789.44
920.038	5741.08
920.349	5751.02
920.66	5702.66
920.971	5694.53
921.282	5597.8
921.593	5581.08
921.903	5592.16
922.214	5537.24
922.525	5529.11
922.835	5553.51
923.146	5494.53
923.456	5466.96
923.767	5448.88
924.077	5438.71
924.387	5445.04
924.697	5370.47
925.008	5358.94
925.318	5371.14
925.628	5358.94
925.938	5330.24
926.248	5263.35
926.558	5252.28
926.867	5214.76
927.177	5225.61
927.487	5167.99
927.796	5144.94
928.106	5119.17
928.416	5131.83
928.725	5086.41
929.034	5051.83
929.344	5073.52
929.653	5062.45
929.962	5014.54
930.271	5024.49
930.581	5005.5
930.89	4993.3
931.199	4969.8
931.508	4897.03
931.817	4916.47
932.125	4891.61
932.434	4888.44
932.743	4764.15
933.051	4839.18
933.36	4789.69
933.669	4762.35
933.977	4737.04
934.286	4713.08
934.594	4676.93
934.902	4650.71
935.21	4648.23
935.519	4659.3
935.827	4659.52
936.135	4593.99
936.443	4597.15
936.751	4528.68
937.059	4527.78
937.367	4478.74
937.674	4506.76
937.982	4511.28
938.29	4478.29
938.597	4457.04
938.905	4433.09
939.213	4383.37
939.52	4415.01
939.827	4388.8
940.135	4331.62
940.442	4309.7
940.749	4352.64
941.056	4289.14
941.363	4250.04
941.67	4224.73
941.977	4212.3
942.284	4230.16
942.591	4226.77
942.898	4224.28
943.205	4186.09
943.511	4144.06
943.818	4135.02
944.125	4109.03
944.431	4123.72
944.738	4118.3
945.044	4084.17
945.35	4035.81
945.657	4020.9
945.963	4047.11
946.269	4022.25
946.575	4012.31
946.881	3970.05
947.187	3994.68
947.493	3946.32
947.799	3932.76
948.105	3985.64
948.41	3914.69
948.716	3902.93
949.022	3890.28
949.327	3871.07
949.633	3771.64
949.938	3796.5
950.244	3825.65
950.549	3765.76
950.854	3724.18
951.16	3773.67
951.465	3720.34
951.77	3710.4
952.075	3708.81
952.38	3652.32
952.685	3677.86
952.99	3662.49
953.294	3629.04
953.599	3589.5
953.904	3567.58
954.209	3592.89
954.513	3559.67
954.818	3559.89
955.122	3595.15
955.426	3539.1
955.731	3524.19
956.035	3474.7
956.339	3481.02
956.643	3454.81
956.948	3458.88
957.252	3488.48
957.556	3426.11
957.86	3428.82
958.163	3397.41
958.467	3388.82
958.771	3396.51
959.075	3344.98
959.378	3351.54
959.682	3309.73
959.985	3307.92
960.289	3311.09
960.592	3257.53
960.896	3243.52
961.199	3210.97
961.502	3211.88
961.805	3216.4
962.108	3208.94
962.411	3183.86
962.714	3173.24
963.017	3199.9
963.32	3183.18
963.623	3139.11
963.926	3130.75
964.228	3161.03
964.531	3125.78
964.833	3105.89
965.136	3086.91
965.438	3007.36
965.741	3082.16
966.043	3048.95
966.345	3048.72
966.648	3028.83
966.95	3036.74
967.252	2989.74
967.554	2966.24
967.856	2957.65
968.158	2948.83
968.46	2923.98
968.761	2930.53
969.063	2891.89
969.365	2877.65
969.666	2869.29
969.968	2853.7
970.269	2851.89
970.571	2855.28
970.872	2859.8
971.174	2826.13
971.475	2826.8
971.776	2796.07
972.077	2810.99
972.378	2779.57
972.679	2787.48
972.98	2758.33
973.281	2734.6
973.582	2721.95
973.883	2733.02
974.183	2710.42
974.484	2691.21
974.785	2699.58
975.085	2680.14
975.386	2657.77
975.686	2657.77
975.986	2623.19
976.287	2576.64
976.587	2603.76
976.887	2594.95
977.187	2605.79
977.487	2582.97
977.787	2591.78
978.087	2550.2
978.387	2566.02
978.687	2521.5
978.987	2547.26
979.286	2505.91
979.586	2507.04
979.885	2518.79
980.185	2490.54
980.484	2468.85
980.784	2474.5
981.083	2485.57
981.382	2454.38
981.682	2429.07
981.981	2417.78
982.28	2404.44
982.579	2395.63
982.878	2398.57
983.177	2389.98
983.475	2356.99
983.774	2379.58
984.073	2352.24
984.372	2335.07
984.67	2360.38
984.969	2352.92
985.267	2290.1
985.566	2308.17
985.864	2277.67
986.162	2272.24
986.461	2278.12
986.759	2232.47
987.057	2241.73
987.355	2239.7
987.653	2235.63
987.951	2226.14
988.249	2211
988.547	2197.22
988.844	2198.8
989.142	2195.86
989.44	2190.21
989.737	2151.12
990.035	2139.14
990.332	2121.29
990.63	2108.41
990.927	2127.39
991.224	2122.87
991.521	2125.13
991.819	2085.81
992.116	2125.58
992.413	2062.3
992.71	2074.06
993.006	2072.25
993.303	2039.93
993.6	2054.17
993.897	2046.26
994.193	2023.21
994.49	2029.31
994.787	1984.57
995.083	1967.62
995.379	1944.34
995.676	1966.94
995.972	1935.75
996.268	1931.69
996.565	1939.37
996.861	1947.96
997.157	1947.51
997.453	1918.81
997.749	1920.39
998.044	1893.04
998.34	1879.94
998.636	1892.14
998.932	1871.35
999.227	1862.76
999.523	1872.7
999.818	1848.52
1000.114	1831.12
1000.409	1827.73
1000.704	1804.46
1001	1810.33
1001.295	1768.53
1001.59	1789.54
1001.885	1823.89
1002.18	1753.84
1002.475	1742.76
1002.77	1733.5
1003.065	1735.76
1003.359	1732.6
1003.654	1731.69
1003.949	1705.25
1004.243	1706.38
1004.538	1679.49
1004.832	1680.62
1005.127	1635.2
1005.421	1643.11
1005.715	1629.55
1006.009	1686.04
1006.304	1655.08
1006.598	1639.04
1006.892	1619.38
1007.186	1593.62
1007.48	1611.92
1007.773	1579.38
1008.067	1606.05
1008.361	1567.18
1008.655	1580.06
1008.948	1541.19
1009.242	1563.11
1009.535	1553.62
1009.829	1539.38
1010.122	1521.08
1010.415	1524.92
1010.708	1489.89
1011.001	1524.01
1011.295	1483.79
1011.588	1479.27
1011.881	1482.43
1012.173	1482.66
1012.466	1499.61
1012.759	1451.7
1013.052	1441.98
1013.344	1446.73
1013.637	1422.1
1013.93	1451.93
1014.222	1411.47
1014.514	1392.49
1014.807	1391.36
1015.099	1420.51
1015.391	1386.16
1015.683	1347.07
1015.976	1368.99
1016.268	1343
1016.56	1336.22
1016.851	1331.02
1017.143	1336.9
1017.435	1326.05
1017.727	1321.31
1018.018	1311.14
1018.31	1287.41
1018.602	1304.36
1018.893	1273.4
1019.185	1298.71
1019.476	1257.58
1019.767	1283.34
1020.058	1293.06
1020.35	1233.63
1020.641	1231.37
1020.932	1244.7
1021.223	1211.03
1021.514	1228.65
1021.804	1222.33
1022.095	1181.2
1022.386	1226.85
1022.677	1193.63
1022.967	1187.98
1023.258	1174.87
1023.548	1148.43
1023.839	1168.32
1024.129	1133.52
1024.419	1158.6
1024.709	1124.93
1025	1129.45
1025.29	1142.1
1025.58	1115.66
1025.87	1100.52
1026.16	1103.46
1026.449	1111.37
1026.739	1110.24
1027.029	1095.78
1027.319	1074.99
1027.608	1089.9
1027.898	1076.79
1028.187	1058.49
1028.477	1059.17
1028.766	1057.36
1029.055	1009.68
1029.344	1036.12
1029.634	1036.12
1029.923	1016.68
1030.212	1044.93
1030.501	1024.59
1030.79	1012.39
1031.078	1023.01
1031.367	1002.67
1031.656	987.53
1031.945	989.34
1032.233	964.25
1032.522	960.41
1032.81	934.2
1033.099	949.57
1033.387	938.04
1033.675	942.33
1033.963	947.53
1034.251	960.64
1034.54	938.27
1034.828	919.96
1035.116	930.81
1035.403	911.83
1035.691	921.77
1035.979	889.68
1036.267	899.85
1036.554	902.56
1036.842	907.08
1037.129	876.35
1037.417	859.17
1037.704	873.64
1037.992	860.3
1038.279	849.23
1038.566	859.4
1038.853	859.4
1039.14	859.4
