Data from hue_230_FLMS001491_00065.txt Node
Date: Tue Feb 07 16:37:35 GMT 2017
User: dcchb
Spectrometer: FLMS00149
Trigger mode: 0
Integration Time (sec): 2.000000E-2
Scans to average: 10
Electric dark correction enabled: true
Nonlinearity correction enabled: false
Boxcar width: 0
XAxis mode: Wavelengths
Number of Pixels in Spectrum: 2048
>>>>>Begin Spectral Data<<<<<
341.393	-23.39
341.776	-23.39
342.16	-23.39
342.543	-60.45
342.927	-75.14
343.31	-49.83
343.693	-73.78
344.077	-72.43
344.46	-63.61
344.843	-67.91
345.226	-29.26
345.61	-45.08
345.993	-29.72
346.376	3.28
346.759	27
347.142	29.72
347.525	52.32
347.908	50.96
348.291	65.65
348.674	97.51
349.057	105.19
349.44	136.38
349.823	132.09
350.206	162.37
350.588	164.18
350.971	203.72
351.354	199.43
351.737	219.32
352.119	236.49
352.502	261.12
352.884	267.22
353.267	267
353.65	264.06
354.032	285.08
354.414	299.31
354.797	304.96
355.179	313.78
355.562	305.64
355.944	324.17
356.326	344.74
356.709	309.26
357.091	348.8
357.473	356.49
357.855	330.95
358.238	334.12
358.62	337.73
359.002	333.66
359.384	349.48
359.766	338.41
360.148	307.22
360.53	334.12
360.912	318.3
361.294	329.82
361.676	321.01
362.057	336.38
362.439	330.95
362.821	311.97
363.203	322.82
363.584	322.82
363.966	318.52
364.348	329.14
364.729	332.31
365.111	308.13
365.493	327.79
365.874	314
366.256	302.25
366.637	316.94
367.019	316.49
367.4	290.95
367.781	288.69
368.163	315.13
368.544	319.2
368.925	307.68
369.306	316.49
369.688	293.21
370.069	307.22
370.45	309.94
370.831	305.19
371.212	303.16
371.593	294.57
371.974	293.66
372.355	307.45
372.736	303.16
373.117	330.27
373.498	317.62
373.879	284.17
374.26	315.13
374.641	308.58
375.021	299.99
375.402	299.31
375.783	309.03
376.163	305.64
376.544	309.94
376.925	308.81
377.305	347
377.686	306.32
378.066	324.17
378.447	329.37
378.827	316.04
379.208	324.62
379.588	312.65
379.968	306.32
380.349	321.46
380.729	325.98
381.109	334.34
381.489	321.23
381.87	327.34
382.25	334.79
382.63	327.34
383.01	321.69
383.39	343.83
383.77	332.08
384.15	332.99
384.53	351.29
384.91	346.77
385.29	344.96
385.67	322.36
386.049	328.01
386.429	364.17
386.809	334.79
387.189	336.38
387.568	322.59
387.948	335.25
388.328	349.93
388.707	342.93
389.087	339.09
389.466	351.06
389.846	348.13
390.225	362.36
390.605	352.42
390.984	361.23
391.363	356.26
391.743	360.56
392.122	351.29
392.501	373.21
392.881	368.92
393.26	350.39
393.639	349.03
394.018	356.49
394.397	354.91
394.776	362.59
395.155	404.17
395.534	396.94
395.913	365.98
396.292	365.53
396.671	374.57
397.05	384.96
397.429	371.18
397.808	372.98
398.186	387.9
398.565	380.22
398.944	384.51
399.323	379.54
399.701	405.53
400.08	396.71
400.458	391.74
400.837	397.84
401.215	423.15
401.594	397.16
401.972	406.43
402.351	388.35
402.729	401.23
403.107	409.82
403.486	410.05
403.864	410.27
404.242	409.14
404.62	424.51
404.999	428.58
405.377	424.73
405.755	439.42
406.133	415.92
406.511	473.32
406.889	434.68
407.267	448.01
407.645	449.82
408.023	447.78
408.401	455.92
408.779	460.44
409.156	478.07
409.534	469.71
409.912	492.98
410.29	466.32
410.667	503.38
411.045	491.17
411.422	500.44
411.8	517.84
412.178	516.03
412.555	485.98
412.933	529.14
413.31	549.7
413.687	540.21
414.065	554
414.442	553.54
414.819	579.53
415.197	549.7
415.574	566.65
415.951	563.94
416.328	570.72
416.705	589.48
417.082	585.86
417.46	591.06
417.837	611.17
418.214	598.74
418.591	619.08
418.967	636.93
419.344	634.45
419.721	656.37
420.098	649.81
420.475	648.46
420.852	643.94
421.228	662.47
421.605	672.64
421.982	690.49
422.358	685.52
422.735	711.05
423.111	695.01
423.488	739.53
423.864	751.05
424.241	749.02
424.617	747.21
424.994	763.48
425.37	759.87
425.746	755.57
426.123	793.54
426.499	807.78
426.875	809.36
427.251	807.55
427.627	835.57
428.003	832.63
428.379	832.63
428.756	851.39
429.132	870.15
429.507	858.17
429.883	864.72
430.259	896.59
430.635	893.42
431.011	897.94
431.387	911.5
431.763	936.59
432.138	931.61
432.514	933.87
432.89	945.4
433.265	973.19
433.641	986.98
434.016	1021.1
434.392	1031.95
434.767	1037.15
435.143	1089.58
435.518	1094.1
435.894	1096.13
436.269	1112.85
436.644	1133.64
437.02	1135.68
437.395	1156.92
437.77	1145.85
438.145	1196.01
438.52	1215.45
438.895	1220.65
439.271	1230.82
439.646	1243.7
440.021	1272.4
440.395	1255.22
440.77	1266.97
441.145	1297.71
441.52	1305.16
441.895	1334.32
442.27	1359.17
442.645	1363.02
443.019	1359.4
443.394	1372.73
443.769	1411.6
444.143	1397.14
444.518	1421.54
444.892	1389.91
445.267	1409.79
445.641	1449.11
446.016	1428.55
446.39	1474.42
446.764	1473.52
447.139	1484.82
447.513	1501.77
447.887	1502.45
448.262	1519.62
448.636	1532.95
449.01	1582.9
449.384	1521.2
449.758	1545.84
450.132	1578.6
450.506	1599.39
450.88	1587.19
451.254	1610.01
451.628	1636
452.002	1623.57
452.376	1660.18
452.75	1681.2
453.123	1664.93
453.497	1691.59
453.871	1698.83
454.244	1751.03
454.618	1753.51
454.992	1754.87
455.365	1769.56
455.739	1823.34
456.112	1833.96
456.486	1822.66
456.859	1832.61
457.232	1866.05
457.606	1898.37
457.979	1909.22
458.352	1922.77
458.725	1981.3
459.099	1981.53
459.472	1994.64
459.845	2043.68
460.218	2065.6
460.591	2052.71
460.964	2060.85
461.337	2091.36
461.71	2164.58
462.083	2184.69
462.456	2160.51
462.829	2142.66
463.201	2227.17
463.574	2203.22
463.947	2228.75
464.32	2283.22
464.692	2287.06
465.065	2329.09
465.438	2313.05
465.81	2373.38
466.183	2405.93
466.555	2434.4
466.928	2453.83
467.3	2432.82
467.672	2467.62
468.045	2572.47
468.417	2511.01
468.789	2554.62
469.161	2598.69
469.534	2638.91
469.906	2696.99
470.278	2671
470.65	2751.45
471.022	2743.54
471.394	2825.12
471.766	2852.92
472.138	2849.76
472.51	2911.9
472.882	2949.64
473.253	2976.53
473.625	3012.24
473.997	3056.98
474.369	3109.86
474.74	3130.43
475.112	3149.18
475.484	3202.74
475.855	3278.67
476.227	3248.84
476.598	3363.41
476.97	3407.93
477.341	3452.45
477.713	3469.17
478.084	3536.97
478.455	3576.29
478.827	3619.68
479.198	3705.1
479.569	3708.26
479.94	3794.82
480.311	3823.06
480.682	3838.88
481.053	3982.16
481.424	4000.46
481.795	4031.87
482.166	4082.27
482.537	4160.23
482.908	4207.46
483.279	4277.74
483.65	4276.61
484.021	4397.51
484.391	4430.73
484.762	4425.76
485.133	4478.87
485.503	4527.9
485.874	4569.26
486.244	4648.13
486.615	4746.88
486.985	4778.07
487.356	4839.99
487.726	4878.85
488.097	4965.86
488.467	5006.76
488.837	5033.43
489.207	5100.54
489.578	5181.45
489.948	5235
490.318	5282.23
490.688	5305.74
491.058	5358.62
491.428	5423.25
491.798	5376.24
492.168	5504.15
492.538	5549.35
492.908	5603.36
493.278	5665.27
493.648	5657.59
494.017	5737.36
494.387	5776.68
494.757	5797.47
495.126	5880.86
495.496	5858.94
495.866	5920.64
496.235	5967.87
496.605	5988.88
496.974	6007.41
497.344	6057.58
497.713	6049.22
498.082	6084.7
498.452	6123.12
498.821	6163.34
499.19	6211.02
499.559	6256.9
499.928	6254.19
500.298	6239.72
500.667	6301.19
501.036	6316.78
501.405	6384.58
501.774	6330.79
502.143	6413.96
502.512	6392.71
502.88	6478.13
503.249	6473.16
503.618	6461.19
503.987	6537.34
504.356	6552.71
504.724	6538.7
505.093	6524.91
505.462	6602.88
505.83	6601.52
506.199	6664.57
506.567	6672.25
506.936	6738.92
507.304	6764.23
507.672	6778.47
508.041	6729.2
508.409	6870.44
508.777	6857.56
509.145	6899.82
509.514	6837.9
509.882	6930.55
510.25	6903.21
510.618	6959.25
510.986	6943.89
511.354	7011.23
511.722	6970.78
512.09	7080.83
512.458	7020.72
512.826	7008.29
513.193	7103.66
513.561	7041.96
513.929	7048.74
514.297	7126.03
514.664	7189.08
515.032	7187.95
515.4	7190.43
515.767	7163.54
516.135	7182.3
516.502	7137.78
516.869	7256.19
517.237	7242.41
517.604	7224.1
517.972	7269.98
518.339	7297.1
518.706	7281.28
519.073	7241.96
519.44	7304.1
519.808	7292.12
520.175	7285.57
520.542	7337.55
520.909	7375.51
521.276	7288.51
521.643	7332.58
522.009	7410.09
522.376	7374.83
522.743	7404.21
523.11	7436.98
523.477	7563.76
523.843	7475.62
524.21	7553.36
524.577	7528.95
524.943	7524.66
525.31	7562.17
525.676	7577.54
526.043	7624.77
526.409	7536.86
526.776	7642.85
527.142	7605.56
527.508	7672.23
527.874	7678.78
528.241	7584.09
528.607	7656.63
528.973	7758.1
529.339	7712.9
529.705	7722.17
530.071	7752.23
530.437	7708.16
530.803	7749.51
531.169	7767.14
531.535	7709.06
531.901	7635.39
532.267	7717.42
532.632	7701.83
532.998	7725.11
533.364	7734.6
533.73	7701.15
534.095	7745.45
534.461	7641.72
534.826	7679.46
535.192	7664.54
535.557	7762.17
535.923	7684.88
536.288	7692.57
536.653	7760.36
537.019	7681.27
537.384	7602.85
537.749	7691.89
538.114	7680.14
538.479	7585
538.845	7632.91
539.21	7659.35
539.575	7641.27
539.94	7606.69
540.305	7590.65
540.67	7568.5
541.034	7557.43
541.399	7623.19
541.764	7607.6
542.129	7453.25
542.494	7523.08
542.858	7561.27
543.223	7500.71
543.587	7508.16
543.952	7515.62
544.316	7529.18
544.681	7445.11
545.045	7528.28
545.41	7490.09
545.774	7519.01
546.138	7439.92
546.503	7404.66
546.867	7373.03
547.231	7437.43
547.595	7408.28
547.959	7433.36
548.324	7364.67
548.688	7343.42
549.052	7360.6
549.416	7338.45
549.779	7321.05
550.143	7305.23
550.507	7361.28
550.871	7320.15
551.235	7276.08
551.599	7285.12
551.962	7317.66
552.326	7263.88
552.689	7264.1
553.053	7299.13
553.417	7221.62
553.78	7297.1
554.143	7273.59
554.507	7203.31
554.87	7267.04
555.234	7294.84
555.597	7215.97
555.96	7226.14
556.323	7250.77
556.686	7213.93
557.05	7306.81
557.413	7216.42
557.776	7261.84
558.139	7259.58
558.502	7255.06
558.865	7242.63
559.228	7281.73
559.59	7262.29
559.953	7250.54
560.316	7293.25
560.679	7268.62
561.041	7338
561.404	7264.1
561.767	7393.14
562.129	7308.85
562.492	7389.75
562.854	7410.99
563.217	7347.94
563.579	7422.52
563.941	7349.98
564.304	7348.62
564.666	7427.71
565.028	7409.18
565.39	7389.07
565.753	7487.15
566.115	7500.93
566.477	7480.59
566.839	7514.49
567.201	7484.89
567.563	7464.55
567.925	7551.1
568.287	7508.16
568.648	7606.47
569.01	7590.42
569.372	7585
569.734	7578.22
570.095	7610.76
570.457	7599.69
570.819	7655.96
571.18	7661.38
571.542	7731.89
571.903	7688.72
572.265	7710.64
572.626	7773.02
572.987	7757.88
573.349	7726.92
573.71	7820.92
574.071	7769.17
574.432	7835.84
574.794	7833.13
575.155	7832.22
575.516	7832.68
575.877	7883.52
576.238	7924.88
576.599	7947.7
576.96	7970.3
577.32	7965.33
577.681	8013.01
578.042	7949.06
578.403	8023.4
578.763	8009.17
579.124	8016.85
579.485	8035.61
579.845	8088.49
580.206	8029.51
580.566	8074.25
580.927	8144.31
581.287	8148.83
581.648	8094.59
582.008	8051.65
582.368	8123.06
582.728	8178.2
583.089	8123.74
583.449	8118.54
583.809	8169.84
584.169	8191.76
584.529	8148.15
584.889	8218.88
585.249	8235.38
585.609	8203.29
585.969	8241.93
586.329	8238.99
586.688	8294.13
587.048	8201.71
587.408	8265.43
587.768	8248.94
588.127	8201.25
588.487	8196.96
588.846	8267.01
589.206	8258.2
589.565	8294.81
589.925	8295.26
590.284	8278.54
590.643	8386.56
591.003	8402.6
591.362	8384.75
591.721	8364.19
592.08	8379.55
592.44	8439.67
592.799	8427.91
593.158	8407.12
593.517	8448.48
593.876	8404.64
594.235	8415.48
594.593	8450.29
594.952	8475.6
595.311	8438.31
595.67	8449.83
596.029	8497.29
596.387	8552.2
596.746	8498.65
597.104	8478.31
597.463	8471.3
597.822	8491.64
598.18	8529.38
598.538	8525.31
598.897	8505.2
599.255	8471.98
599.613	8601.92
599.972	8551.07
600.33	8552.2
600.688	8501.36
601.046	8524.41
601.404	8629.04
601.762	8618.64
602.12	8634.01
602.478	8626.1
602.836	8640.11
603.194	8524.63
603.552	8591.75
603.91	8579.1
604.268	8635.59
604.625	8538.87
604.983	8600.34
605.341	8582.26
605.698	8667.91
606.056	8608.93
606.413	8637.63
606.771	8641.47
607.128	8634.69
607.485	8678.3
607.843	8639.43
608.2	8711.75
608.557	8737.06
608.914	8634.24
609.272	8729.6
609.629	8728.92
609.986	8751.52
610.343	8706.32
610.7	8743.84
611.057	8747.23
611.414	8716.95
611.771	8755.81
612.127	8748.81
612.484	8788.81
612.841	8799.2
613.198	8806.44
613.554	8794.01
613.911	8798.75
614.267	8818.41
614.624	8775.48
614.98	8834.91
615.337	8860.67
615.693	8835.59
616.05	8803.05
616.406	8908.13
616.762	8896.6
617.118	8851.86
617.475	8894.57
617.831	8878.52
618.187	8925.08
618.543	8909.94
618.899	8908.35
619.255	8911.52
619.611	8908.35
619.967	8926.88
620.323	8902.25
620.678	8866.55
621.034	8955.36
621.39	8903.38
621.746	8930.73
622.101	9015.92
622.457	8903.16
622.812	8935.7
623.168	8921.46
623.523	8974.57
623.879	8967.56
624.234	8923.49
624.589	9004.4
624.945	8945.64
625.3	8970.5
625.655	8932.53
626.01	8907.22
626.365	9016.15
626.72	8947
627.075	8921.69
627.43	8930.5
627.785	8972.31
628.14	8933.66
628.495	8954.45
628.85	8976.83
629.205	8889.82
629.559	8928.01
629.914	8906.77
630.269	8880.33
630.623	8893.66
630.978	8893.21
631.332	8885.98
631.687	8977.05
632.041	8895.7
632.396	8874.23
632.75	8768.7
633.104	8924.85
633.459	8772.99
633.813	8853.44
634.167	8808.69
634.521	8776.61
634.875	8782.93
635.229	8728.02
635.583	8751.3
635.937	8744.29
636.291	8780.67
636.645	8735.02
636.999	8703.39
637.352	8702.71
637.706	8642.37
638.06	8737.74
638.413	8675.37
638.767	8617.97
639.121	8621.81
639.474	8618.64
639.828	8610.96
640.181	8580.9
640.534	8594.46
640.888	8572.54
641.241	8532.54
641.594	8613.67
641.947	8605.31
642.301	8552.43
642.654	8607.57
643.007	8585.2
643.36	8615.25
643.713	8551.3
644.066	8555.82
644.419	8509.04
644.771	8497.06
645.124	8389.95
645.477	8397.41
645.83	8386.56
646.182	8294.58
646.535	8304.75
646.888	8272.89
647.24	8211.87
647.593	8363.73
647.945	8176.62
648.298	8226.79
648.65	8195.38
649.002	8206.68
649.355	8206
649.707	8274.7
650.059	8317.41
650.411	8343.85
650.763	8327.13
651.115	8468.36
651.467	8404.86
651.819	8402.83
652.171	8451.19
652.523	8395.15
652.875	8404.19
653.227	8359.44
653.578	8432.43
653.93	8400.57
654.282	8382.49
654.633	8373.68
654.985	8410.06
655.337	8452.32
655.688	8373.9
656.039	8513.11
656.391	8374.13
656.742	8394.92
657.094	8365.32
657.445	8334.81
657.796	8379.78
658.147	8442.6
658.498	8324.19
658.849	8401.47
659.2	8335.94
659.551	8334.81
659.902	8404.19
660.253	8398.99
660.604	8404.19
660.955	8480.57
661.306	8413
661.656	8416.84
662.007	8395.6
662.358	8381.59
662.708	8411.87
663.059	8416.61
663.409	8382.27
663.76	8405.09
664.11	8459.33
664.461	8334.36
664.811	8416.84
665.161	8395.15
665.511	8393.56
665.862	8452.55
666.212	8416.61
666.562	8406.9
666.912	8402.38
667.262	8362.38
667.612	8406.45
667.962	8407.12
668.312	8399.44
668.662	8463.39
669.011	8429.04
669.361	8319.67
669.711	8414.13
670.06	8407.58
670.41	8368.48
670.76	8335.71
671.109	8391.76
671.459	8375.26
671.808	8369.61
672.157	8349.95
672.507	8308.82
672.856	8296.62
673.205	8347.24
673.554	8317.41
673.904	8295.94
674.253	8344.3
674.602	8299.33
674.951	8224.3
675.3	8126.68
675.649	8270.18
675.998	8247.81
676.346	8309.27
676.695	8282.83
677.044	8232.66
677.393	8191.31
677.741	8242.16
678.09	8236.96
678.438	8176.62
678.787	8217.52
679.135	8212.55
679.484	8108.6
679.832	8140.46
680.181	8146.57
680.529	8169.84
680.877	8071.54
681.225	8112.22
681.573	8196.96
681.922	8081.71
682.27	8015.04
682.618	8092.1
682.966	8008.94
683.314	8079.9
683.661	8023.63
684.009	8026.34
684.357	8006
684.705	7968.27
685.053	7961.26
685.4	7912
685.748	7918.55
686.095	7880.58
686.443	7843.07
686.79	7833.81
687.138	7876.06
687.485	7877.42
687.832	7819.34
688.18	7883.75
688.527	7827.25
688.874	7802.62
689.221	7757.88
689.568	7630.65
689.915	7643.98
690.262	7635.39
690.609	7653.92
690.956	7666.8
691.303	7615.28
691.65	7584.55
691.997	7552
692.344	7537.99
692.69	7597.88
693.037	7488.96
693.383	7429.3
693.73	7484.66
694.077	7433.59
694.423	7388.39
694.769	7380.03
695.116	7375.51
695.462	7342.07
695.808	7320.82
696.155	7301.84
696.501	7228.62
696.847	7264.1
697.193	7149.53
697.539	7277.89
697.885	7143.65
698.231	7152.02
698.577	7102.75
698.923	7137.1
699.269	7084.22
699.614	7107.5
699.96	7010.78
700.306	7011.45
700.651	6982.53
700.997	6945.47
701.342	6978.91
701.688	6898.91
702.033	6922.87
702.379	6880.38
702.724	6852.81
703.069	6869.08
703.415	6810.1
703.76	6746.83
704.105	6774.4
704.45	6775.98
704.795	6705.7
705.14	6651.46
705.485	6677.45
705.83	6691.91
706.175	6639.49
706.52	6621.86
706.865	6589.54
707.209	6569.43
707.554	6519.72
707.899	6620.28
708.243	6581.18
708.588	6542.77
708.932	6496.89
709.277	6519.94
709.621	6453.05
709.966	6491.92
710.31	6437.68
710.654	6411.92
710.998	6407.18
711.342	6395.43
711.687	6412.6
712.031	6315.43
712.375	6298.03
712.719	6390.68
713.063	6336.9
713.407	6381.41
713.75	6316.33
714.094	6296.22
714.438	6244.47
714.782	6287.18
715.125	6249.67
715.469	6279.5
715.812	6241.98
716.156	6222.1
716.499	6239.72
716.843	6169.44
717.186	6227.75
717.53	6157.01
717.873	6161.98
718.216	6155.21
718.559	6059.61
718.902	6074.98
719.246	6138.71
719.589	6098.26
719.932	6127.41
720.275	6085.83
720.617	6049.67
720.96	6140.97
721.303	6147.3
721.646	6056.68
721.989	6019.16
722.331	6063.23
722.674	6115.88
723.016	6078.6
723.359	6048.99
723.701	6044.47
724.044	6023.23
724.386	6020.75
724.729	5986.4
725.071	5954.98
725.413	5998.15
725.755	5990.46
726.097	5962.44
726.439	5919.51
726.782	5946.17
727.124	5999.5
727.465	5950.47
727.807	5978.03
728.149	5917.25
728.491	5920.64
728.833	5932.84
729.175	5894.65
729.516	5925.83
729.858	5888.09
730.199	5907.08
730.541	5897.81
730.882	5920.41
731.224	5923.8
731.565	5918.6
731.906	5892.39
732.248	5926.28
732.589	5911.14
732.93	5864.14
733.271	5869.11
733.612	5852.16
733.953	5856.91
734.294	5823.46
734.635	5906.62
734.976	5929.9
735.317	5891.03
735.658	5875.44
735.999	5856
736.339	5894.42
736.68	5886.29
737.021	5884.7
737.361	5907.08
737.702	5930.8
738.042	5879.05
738.383	5877.92
738.723	5943.23
739.063	5888.09
739.404	5908.43
739.744	5927.64
740.084	5878.38
740.424	5951.14
740.764	5955.66
741.104	6003.12
741.444	5947.3
741.784	5989.33
742.124	6011.71
742.464	6030.69
742.804	6011.25
743.143	5964.93
743.483	6035.21
743.823	5998.15
744.162	6001.99
744.502	6056.45
744.841	6084.7
745.181	6105.26
745.52	6155.43
745.86	6105.26
746.199	6186.17
746.538	6170.57
746.877	6200.18
747.216	6268.87
747.556	6281.08
747.895	6328.53
748.234	6335.99
748.573	6345.48
748.911	6402.2
749.25	6428.42
749.589	6491.47
749.928	6519.26
750.267	6574.4
750.605	6570.79
750.944	6700.73
751.283	6652.37
751.621	6730.56
751.96	6782.08
752.298	6915.19
752.636	6934.62
752.975	6992.7
753.313	7074.73
753.651	7152.24
753.989	7183.2
754.327	7306.36
754.666	7316.3
755.004	7413.7
755.342	7529.18
755.679	7637.88
756.017	7730.08
756.355	7812.56
756.693	7880.13
757.031	8010.07
757.368	7993.35
757.706	8183.63
758.044	8245.77
758.381	8463.17
758.719	8459.55
759.056	8608.7
759.394	8716.95
759.731	8754.23
760.068	8883.5
760.405	9038.29
760.743	9105.18
761.08	9246.88
761.417	9336.36
761.754	9476.47
762.091	9591.05
762.428	9698.16
762.765	9827.88
763.102	9934.77
763.438	9991.04
763.775	10152.84
764.112	10205.72
764.449	10431.93
764.785	10479.61
765.122	10612.72
765.458	10679.61
765.795	10780.39
766.131	10915.53
766.467	11007.51
766.804	11061.97
767.14	11152.14
767.476	11278.69
767.812	11365.01
768.148	11497.66
768.485	11523.2
768.821	11567.72
769.157	11723.19
769.492	11797.32
769.828	11835.73
770.164	11910.31
770.5	11974.94
770.836	12104.43
771.171	12134.71
771.507	12190.98
771.842	12288.6
772.178	12245.89
772.513	12425.55
772.849	12484.08
773.184	12510.97
773.519	12562.72
773.855	12567.92
774.19	12574.92
774.525	12721.59
774.86	12717.74
775.195	12806.1
775.53	12798.87
775.865	12799.1
776.2	12779.44
776.535	12708.71
776.87	12846.78
777.205	12820.79
777.539	12860.11
777.874	12865.54
778.209	12880.68
778.543	12970.17
778.878	12936.04
779.212	13034.35
779.547	12916.16
779.881	12995.7
780.215	12981.47
780.55	13031.63
780.884	12999.55
781.218	12990.51
781.552	13032.54
781.886	13014.01
782.22	13057.85
782.554	12993.22
782.888	12882.71
783.222	12925.2
783.556	12884.52
783.889	12913.22
784.223	12923.16
784.557	12887.01
784.89	12929.72
785.224	12854.46
785.557	12861.24
785.891	12861.24
786.224	12773.34
786.558	12875.48
786.891	12768.14
787.224	12731.3
787.557	12751.19
787.891	12742.38
788.224	12839.55
788.557	12771.53
788.89	12733.11
789.223	12743.51
789.556	12761.13
789.888	12666.22
790.221	12636.16
790.554	12587.8
790.887	12623.96
791.219	12624.87
791.552	12586.9
791.884	12580.12
792.217	12466.68
792.549	12536.05
792.882	12433.46
793.214	12382.16
793.546	12454.02
793.879	12361.37
794.211	12371.54
794.543	12413.12
794.875	12358.88
795.207	12376.96
795.539	12283.18
795.871	12300.58
796.203	12215.39
796.535	12155.27
796.867	12186.23
797.198	12112.56
797.53	12194.14
797.862	11955.5
798.193	12088.38
798.525	12074.6
798.856	12067.37
799.188	11901.95
799.519	11826.92
799.85	11850.65
800.182	11915.73
800.513	11782.63
800.844	11780.59
801.175	11889.97
801.506	11838.45
801.837	11753.02
802.168	11701.05
802.499	11700.82
802.83	11665.79
803.161	11635.29
803.491	11617.89
803.822	11663.76
804.153	11519.13
804.483	11532.47
804.814	11482.52
805.145	11449.76
805.475	11412.24
805.805	11437.1
806.136	11377.44
806.466	11385.58
806.796	11330.66
807.126	11321.4
807.457	11210.67
807.787	11266.94
808.117	11299.93
808.447	11242.08
808.777	11195.75
809.107	11147.16
809.436	11147.62
809.766	11130.67
810.096	11140.39
810.426	11034.4
810.755	11071.01
811.085	11105.81
811.414	11002.54
811.744	10967.73
812.073	10935.64
812.403	10956.66
812.732	10941.07
813.061	10900.17
813.39	10862.43
813.719	10836.21
814.049	10935.87
814.378	10867.85
814.707	10736.33
815.036	10768.87
815.365	10746.05
815.693	10690.91
816.022	10687.74
816.351	10675.76
816.68	10682.54
817.008	10729.55
817.337	10582.21
817.665	10605.03
817.994	10604.81
818.322	10506.5
818.651	10441.42
818.979	10494.75
819.307	10564.35
819.636	10511.93
819.964	10431.7
820.292	10456.34
820.62	10421.08
820.948	10409.1
821.276	10445.26
821.604	10336.34
821.932	10466.05
822.259	10461.76
822.587	10374.98
822.915	10409.78
823.243	10402.1
823.57	10359.16
823.898	10431.03
824.225	10337.92
824.553	10375.66
824.88	10320.29
825.207	10369.78
825.535	10402.1
825.862	10410.01
826.189	10395.77
826.516	10365.72
826.843	10447.07
827.17	10421.99
827.497	10419.95
827.824	10432.61
828.151	10372.5
828.478	10410.69
828.805	10450.46
829.131	10371.59
829.458	10427.41
829.785	10431.48
830.111	10426.05
830.438	10424.47
830.764	10402.78
831.09	10447.52
831.417	10396.45
831.743	10427.86
832.069	10391.48
832.395	10244.36
832.722	10339.73
833.048	10371.37
833.374	10387.64
833.7	10370.91
834.026	10330.91
834.351	10315.1
834.677	10332.72
835.003	10363.91
835.329	10315.32
835.654	10338.37
835.98	10197.81
836.306	10239.62
836.631	10281.2
836.956	10260.41
837.282	10323.91
837.607	10277.81
837.932	10227.19
838.258	10155.33
838.583	10206.62
838.908	10158.49
839.233	10144.25
839.558	10072.62
839.883	10164.59
840.208	10049.57
840.533	10074.2
840.858	10058.83
841.182	10045.95
841.507	10029.68
841.832	9974.99
842.156	10018.61
842.481	10007.08
842.805	9931.15
843.13	9922.56
843.454	9867.42
843.778	9853.87
844.103	9850.7
844.427	9879.18
844.751	9803.7
845.075	9773.42
845.399	9747.88
845.723	9734.09
846.047	9745.62
846.371	9696.13
846.695	9638.28
847.019	9597.6
847.343	9607.09
847.666	9518.51
847.99	9426.98
848.313	9511.05
848.637	9419.98
848.96	9412.29
849.284	9326.42
849.607	9299.53
849.931	9312.18
850.254	9196.71
850.577	9125.97
850.9	9102.92
851.223	9189.7
851.546	9026.09
851.869	9025.64
852.192	9049.59
852.515	8983.83
852.838	8964.62
853.161	8965.3
853.483	8888.47
853.806	8777.51
854.129	8818.86
854.451	8796.94
854.774	8834.91
855.096	8742.03
855.419	8654.35
855.741	8719.66
856.063	8633.11
856.385	8633.56
856.708	8612.32
857.03	8534.13
857.352	8583.62
857.674	8533.9
857.996	8537.97
858.318	8497.06
858.64	8512.66
858.961	8414.13
859.283	8424.98
859.605	8391.3
859.926	8371.64
860.248	8364.19
860.57	8329.16
860.891	8348.59
861.212	8294.36
861.534	8317.63
861.855	8305.21
862.176	8263.17
862.498	8307.24
862.819	8242.83
863.14	8209.39
863.461	8174.59
863.782	8186.56
864.103	8172.33
864.424	8090.3
864.745	8139.11
865.065	8111.09
865.386	8112.89
865.707	8083.74
866.027	8089.62
866.348	8068.6
866.668	8052.33
866.989	8035.83
867.309	8011.2
867.63	8021.6
867.95	7987.93
868.27	7975.04
868.59	8039.22
868.91	7954.48
869.23	7988.83
869.55	7909.74
869.87	7934.14
870.19	7952.67
870.51	7942.95
870.83	7905.89
871.15	7906.12
871.469	7854.37
871.789	7820.25
872.109	7890.98
872.428	7828.83
872.748	7871.54
873.067	7797.87
873.386	7841.49
873.706	7822.73
874.025	7826.12
874.344	7704.09
874.663	7674.26
874.982	7700.93
875.301	7769.17
875.62	7713.13
875.939	7644.88
876.258	7639.69
876.577	7659.57
876.896	7639.46
877.214	7608.27
877.533	7585.45
877.852	7638.33
878.17	7656.63
878.489	7555.85
878.807	7583.19
879.125	7507.26
879.444	7582.74
879.762	7549.74
880.08	7571.67
880.398	7481.27
880.716	7490.76
881.034	7397.88
881.352	7510.2
881.67	7454.38
881.988	7434.27
882.306	7386.36
882.624	7384.1
882.941	7402.63
883.259	7382.52
883.577	7302.07
883.894	7362.41
884.212	7322.86
884.529	7315.4
884.846	7281.28
885.164	7276.08
885.481	7227.49
885.798	7275.63
886.115	7218.91
886.432	7227.04
886.75	7200.6
887.067	7200.38
887.383	7161.51
887.7	7131.22
888.017	7120.38
888.334	7144.56
888.651	7086.03
888.967	7130.77
889.284	7110.66
889.6	7013.26
889.917	7012.58
890.233	6978.91
890.55	6978.46
890.866	6923.09
891.182	6935.75
891.498	6874.96
891.815	6890.78
892.131	6881.29
892.447	6866.37
892.763	6816.66
893.079	6861.4
893.395	6739.6
893.71	6817.33
894.026	6782.99
894.342	6756.77
894.657	6693.72
894.973	6657.34
895.289	6673.38
895.604	6688.98
895.92	6622.09
896.235	6615.76
896.55	6613.5
896.865	6592.93
897.181	6526.5
897.496	6540.73
897.811	6511.81
898.126	6490.34
898.441	6471.13
898.756	6390.91
899.071	6397.68
899.386	6383.45
899.7	6356.78
900.015	6246.95
900.33	6271.59
900.644	6313.62
900.959	6244.47
901.273	6236.11
901.588	6262.55
901.902	6181.42
902.216	6157.24
902.531	6179.39
902.845	6197.24
903.159	6162.21
903.473	6091.93
903.787	6018.94
904.101	6050.12
904.415	6025.49
904.729	5993.18
905.042	5921.99
905.356	5980.75
905.67	5942.1
905.984	5944.59
906.297	5927.41
906.611	5879.73
906.924	5877.02
907.237	5858.04
907.551	5846.29
907.864	5799.73
908.177	5785.27
908.491	5805.84
908.804	5688.55
909.117	5668.21
909.43	5646.29
909.743	5581.66
910.056	5618.27
910.368	5594.54
910.681	5601.32
910.994	5579.4
911.307	5522.91
911.619	5545.5
911.932	5568.33
912.244	5460.53
912.557	5461.44
912.869	5429.35
913.181	5415.34
913.494	5400.87
913.806	5345.06
914.118	5341.44
914.43	5317.26
914.742	5333.98
915.054	5270.26
915.366	5257.38
915.678	5234.55
915.99	5226.87
916.302	5150.49
916.613	5188.68
916.925	5202.24
917.236	5177.38
917.548	5158.4
917.859	5124.27
918.171	5116.36
918.482	5030.49
918.794	5081.56
919.105	5081.79
919.416	5001.79
919.727	4962.69
920.038	4976.03
920.349	4952.98
920.66	4919.31
920.971	4882.7
921.282	4931.28
921.593	4863.71
921.903	4888.57
922.214	4872.3
922.525	4862.13
922.835	4790.72
923.146	4768.8
923.456	4804.05
923.767	4758.41
924.077	4767.9
924.387	4713.44
924.697	4659.43
925.008	4635.7
925.318	4637.05
925.628	4654.91
925.938	4610.16
926.248	4565.42
926.558	4558.86
926.867	4564.74
927.177	4546.66
927.487	4533.1
927.796	4486.77
928.106	4476.15
928.416	4455.82
928.725	4440.45
929.034	4402.71
929.344	4429.83
929.653	4371.07
929.962	4379.43
930.271	4342.6
930.581	4303.28
930.89	4285.42
931.199	4272.09
931.508	4247.46
931.817	4271.19
932.125	4251.98
932.434	4234.35
932.743	4201.13
933.051	4221.02
933.36	4180.34
933.669	4154.13
933.977	4100.8
934.286	4169.72
934.594	4106.22
934.902	4062.15
935.21	4032.32
935.519	4106.67
935.827	4061.93
936.135	4039.78
936.443	4034.81
936.751	3968.82
937.059	3973.12
937.367	3967.69
937.674	3988.48
937.982	3951.42
938.29	3977.41
938.597	3942.16
938.905	3887.47
939.213	3887.24
939.52	3829.84
939.827	3857.19
940.135	3825.1
940.442	3866.9
940.749	3821.26
941.056	3829.62
941.363	3727.7
941.67	3752.33
941.977	3745.78
942.284	3729.51
942.591	3703.52
942.898	3681.82
943.205	3669.85
943.511	3665.33
943.818	3673.69
944.125	3595.05
944.431	3635.27
944.738	3612
945.044	3545.78
945.35	3567.93
945.657	3522.73
945.963	3548.04
946.269	3510.53
946.575	3543.3
946.881	3525.44
947.187	3493.58
947.493	3456.29
947.799	3477.31
948.105	3411.32
948.41	3393.92
948.716	3429.63
949.022	3410.42
949.327	3385.11
949.633	3366.8
949.938	3374.26
950.244	3376.3
950.549	3299.69
950.854	3337.43
951.16	3315.73
951.465	3290.42
951.77	3229.18
952.075	3277.99
952.38	3262.4
952.685	3200.71
952.99	3168.62
953.294	3215.85
953.599	3178.11
953.904	3157.09
954.209	3148.5
954.513	3157.54
954.818	3150.09
955.122	3142.4
955.426	3117.32
955.731	3119.35
956.035	3075.74
956.339	3072.8
956.643	3097.21
956.948	3056.76
957.252	3016.53
957.556	3007.94
957.86	2987.38
958.163	2972.69
958.467	2974.5
958.771	2954.16
959.075	2968.4
959.378	2936.76
959.682	2932.69
959.985	2905.12
960.289	2920.04
960.592	2898.12
960.896	2935.86
961.199	2885.01
961.502	2863.31
961.805	2867.83
962.108	2825.58
962.411	2806.59
962.714	2820.83
963.017	2785.58
963.32	2796.65
963.623	2765.92
963.926	2763.88
964.228	2769.76
964.531	2742.19
964.833	2763.66
965.136	2737.89
965.438	2719.14
965.741	2696.99
966.043	2688.4
966.345	2669.87
966.648	2668.29
966.95	2643.43
967.252	2651.79
967.554	2648.4
967.856	2621.51
968.158	2595.07
968.46	2601.63
968.761	2579.93
969.063	2594.85
969.365	2584.23
969.666	2571.8
969.968	2554.85
970.269	2562.31
970.571	2501.06
970.872	2508.07
971.174	2498.58
971.475	2483.66
971.776	2504.45
972.077	2442.31
972.378	2459.26
972.679	2447.05
972.98	2459.03
973.281	2464.68
973.582	2420.39
973.883	2403.89
974.183	2406.15
974.484	2426.26
974.785	2401.86
975.085	2406.38
975.386	2363.21
975.686	2340.39
975.986	2352.59
976.287	2356.44
976.587	2297
976.887	2319.6
977.187	2326.83
977.487	2304.69
977.787	2271.47
978.087	2273.95
978.387	2250.22
978.687	2283.89
978.987	2281.86
979.286	2241.18
979.586	2224.91
979.885	2236.21
980.185	2189.66
980.484	2179.26
980.784	2169.55
981.083	2182.88
981.382	2184.91
981.682	2174.97
981.981	2161.41
982.28	2145.37
982.579	2135.42
982.878	2145.82
983.177	2128.64
983.475	2133.62
983.774	2098.14
984.073	2120.96
984.372	2097.23
984.67	2054.07
984.969	2060.62
985.267	2063.79
985.566	2034.41
985.864	2031.92
986.162	2025.82
986.461	2044.13
986.759	1998.93
987.057	1989.44
987.355	2005.94
987.653	1994.41
987.951	1991.47
988.249	1956.9
988.547	1977.46
988.844	1958.48
989.142	1942.21
989.44	1956.67
989.737	1951.93
990.035	1886.39
990.332	1921.87
990.63	1919.84
990.927	1911.93
991.224	1873.51
991.521	1886.62
991.819	1866.05
992.116	1898.82
992.413	1868.09
992.71	1852.04
993.006	1870.8
993.303	1855.66
993.6	1828.77
993.897	1815.21
994.193	1802.78
994.49	1835.09
994.787	1787.18
995.083	1780.41
995.379	1764.81
995.676	1759.16
995.972	1730.01
996.268	1732.5
996.565	1705.83
996.861	1739.05
997.157	1736.34
997.453	1713.51
997.749	1712.84
998.044	1702.22
998.34	1669.22
998.636	1689.79
998.932	1682.55
999.227	1667.19
999.523	1684.81
999.818	1668.32
1000.114	1655.66
1000.409	1632.84
1000.704	1641.88
1001	1619.73
1001.295	1615.21
1001.59	1616.79
1001.885	1639.84
1002.18	1603.91
1002.475	1590.13
1002.77	1586.96
1003.065	1576.79
1003.359	1575.89
1003.654	1534.54
1003.949	1523.46
1004.243	1509
1004.538	1543.12
1004.832	1527.08
1005.127	1521.65
1005.421	1510.13
1005.715	1489.34
1006.009	1479.62
1006.304	1473.07
1006.598	1444.59
1006.892	1503.12
1007.186	1447.31
1007.48	1457.25
1007.773	1461.09
1008.067	1420.64
1008.361	1424.71
1008.655	1422.22
1008.948	1386.52
1009.242	1410.47
1009.535	1404.6
1009.829	1388.1
1010.122	1402.34
1010.415	1368.89
1010.708	1339.51
1011.001	1360.76
1011.295	1348.55
1011.588	1350.36
1011.881	1338.61
1012.173	1327.54
1012.466	1331.38
1012.759	1293.86
1013.052	1318.72
1013.344	1319.17
1013.637	1284.82
1013.93	1286.18
1014.222	1292.51
1014.514	1287.54
1014.807	1266.29
1015.099	1259.06
1015.391	1271.04
1015.683	1234.43
1015.976	1260.87
1016.268	1232.62
1016.56	1226.07
1016.851	1232.85
1017.143	1173.87
1017.435	1189.91
1017.727	1203.02
1018.018	1193.98
1018.31	1203.92
1018.602	1167.09
1018.893	1179.52
1019.185	1165.05
1019.476	1157.14
1019.767	1172.74
1020.058	1162.79
1020.35	1103.59
1020.641	1143.36
1020.932	1121.67
1021.223	1133.87
1021.514	1104.49
1021.804	1102
1022.095	1097.49
1022.386	1088.22
1022.677	1080.08
1022.967	1076.24
1023.258	1070.14
1023.548	1059.29
1023.839	1033.98
1024.129	1069.69
1024.419	1045.06
1024.709	1042.57
1025	1040.09
1025.29	1048
1025.58	1015.45
1025.87	1008.67
1026.16	1005.96
1026.449	986.98
1026.739	1005.28
1027.029	984.72
1027.319	1015.91
1027.608	997.37
1027.898	973.87
1028.187	981.33
1028.477	988.56
1028.766	957.15
1029.055	962.35
1029.344	954.44
1029.634	928.68
1029.923	946.75
1030.212	943.82
1030.501	943.14
1030.79	928.45
1031.078	915.57
1031.367	899.98
1031.656	914.89
1031.945	902.91
1032.233	883.25
1032.522	878.96
1032.81	878.96
1033.099	872.86
1033.387	882.58
1033.675	873.99
1033.963	871.05
1034.251	852.29
1034.54	839.86
1034.828	826.31
1035.116	835.57
1035.403	815.68
1035.691	849.36
1035.979	826.98
1036.267	842.58
1036.554	815.01
1036.842	808.91
1037.129	813.2
1037.417	808.68
1037.704	805.97
1037.992	805.29
1038.279	799.87
1038.566	788.57
1038.853	788.57
1039.14	788.57
