Data from hue_170_FLMS001491_00046.txt Node
Date: Tue Feb 07 16:48:45 GMT 2017
User: dcchb
Spectrometer: FLMS00149
Trigger mode: 0
Integration Time (sec): 2.000000E-2
Scans to average: 10
Electric dark correction enabled: true
Nonlinearity correction enabled: false
Boxcar width: 0
XAxis mode: Wavelengths
Number of Pixels in Spectrum: 2048
>>>>>Begin Spectral Data<<<<<
341.393	-11.65
341.776	-11.65
342.16	-11.65
342.543	-54.59
342.927	-60.24
343.31	-90.52
343.693	-71.76
344.077	-76.74
344.46	-59.33
344.843	-54.14
345.226	-40.13
345.61	-16.4
345.993	-26.12
346.376	-8.04
346.759	22.7
347.142	42.36
347.525	45.07
347.908	60.21
348.291	66.09
348.674	103.37
349.057	103.37
349.44	99.08
349.823	158.06
350.206	142.92
350.588	198.06
350.971	222.01
351.354	214.33
351.737	240.09
352.119	249.13
352.502	260.21
352.884	278.96
353.267	292.52
353.65	287.55
354.032	292.07
354.414	313.76
354.797	329.13
355.179	335.68
355.562	327.55
355.944	328.9
356.326	335.91
356.709	335.23
357.091	318.28
357.473	334.33
357.855	349.47
358.238	339.07
358.62	342.46
359.002	320.54
359.384	367.77
359.766	340.88
360.148	349.92
360.53	352.63
360.912	332.52
361.294	339.52
361.676	332.29
362.057	329.81
362.439	330.03
362.821	320.09
363.203	325.06
363.584	339.75
363.966	328.9
364.348	321.67
364.729	343.82
365.111	319.64
365.493	336.59
365.874	325.29
366.256	321.67
366.637	305.18
367.019	307.89
367.4	325.51
367.781	318.96
368.163	326.19
368.544	318.73
368.925	318.06
369.306	322.58
369.688	295.23
370.069	316.93
370.45	323.25
370.831	317.38
371.212	315.57
371.593	291.84
371.974	314.89
372.355	315.8
372.736	325.29
373.117	313.76
373.498	296.36
373.879	320.09
374.26	317.83
374.641	309.47
375.021	318.51
375.402	320.77
375.783	325.74
376.163	328.9
376.544	329.36
376.925	326.87
377.305	334.1
377.686	337.27
378.066	340.43
378.447	302.69
378.827	330.26
379.208	344.95
379.588	330.49
379.968	334.78
380.349	317.15
380.729	344.72
381.109	336.81
381.489	345.17
381.87	339.07
382.25	337.94
382.63	355.34
383.01	359.86
383.39	365.06
383.77	336.59
384.15	341.33
384.53	353.99
384.91	356.7
385.29	345.17
385.67	346.98
386.049	336.59
386.429	357.6
386.809	340.2
387.189	347.43
387.568	349.02
387.948	375.91
388.328	358.96
388.707	375.91
389.087	341.56
389.466	371.39
389.846	365.74
390.225	359.64
390.605	375
390.984	382.24
391.363	376.13
391.743	368.45
392.122	369.58
392.501	380.2
392.881	380.43
393.26	366.87
393.639	370.94
394.018	396.25
394.397	402.57
394.776	387.66
395.155	386.08
395.534	364.84
395.913	384.27
396.292	391.95
396.671	399.86
397.05	412.52
397.429	391.05
397.808	393.53
398.186	407.55
398.565	415.91
398.944	406.87
399.323	427.88
399.701	421.1
400.08	410.26
400.458	423.14
400.837	414.55
401.215	406.64
401.594	420.88
401.972	421.56
402.351	421.78
402.729	410.48
403.107	456.58
403.486	436.47
403.864	452.74
404.242	441.9
404.62	416.81
404.999	452.29
405.377	430.6
405.755	437.15
406.133	479.63
406.511	450.71
406.889	438.96
407.267	443.25
407.645	471.05
408.023	470.37
408.401	467.66
408.779	464.49
409.156	485.28
409.534	491.84
409.912	480.99
410.29	505.17
410.667	470.37
411.045	495.45
411.422	512.4
411.8	535.45
412.178	518.73
412.555	537.26
412.933	515.57
413.31	513.08
413.687	517.15
414.065	539.29
414.442	542.68
414.819	543.59
415.197	549.69
415.574	562.57
415.951	571.38
416.328	567.54
416.705	573.19
417.082	574.77
417.46	577.71
417.837	584.72
418.214	579.74
418.591	591.27
418.967	619.52
419.344	616.13
419.721	618.39
420.098	603.47
420.475	618.16
420.852	607.54
421.228	621.1
421.605	654.32
421.982	642.57
422.358	649.35
422.735	665.17
423.111	677.37
423.488	692.51
423.864	666.3
424.241	699.97
424.617	706.75
424.994	703.13
425.37	688.22
425.746	716.69
426.123	723.92
426.499	737.25
426.875	749.01
427.251	734.09
427.627	732.06
428.003	787.87
428.379	785.39
428.756	784.94
429.132	778.38
429.507	771.6
429.883	783.36
430.259	789.91
430.635	804.82
431.011	842.11
431.387	820.87
431.763	844.6
432.138	832.85
432.514	878.72
432.89	875.33
433.265	926.4
433.641	897.7
434.016	917.59
434.392	906.29
434.767	944.03
435.143	953.97
435.518	957.14
435.894	957.14
436.269	963.24
436.644	977.93
437.02	998.94
437.395	1015.21
437.77	1018.6
438.145	1002.78
438.52	1043.01
438.895	1059.73
439.271	1024.7
439.646	1075.1
440.021	1100.63
440.395	1124.36
440.77	1086.17
441.145	1111.03
441.52	1121.43
441.895	1128.2
442.27	1156.45
442.645	1172.27
443.019	1140.18
443.394	1160.07
443.769	1173.63
444.143	1184.7
444.518	1204.36
444.892	1200.97
445.267	1231.48
445.641	1227.19
446.016	1228.99
446.39	1250.01
446.764	1217.92
447.139	1266.05
447.513	1273.06
447.887	1287.75
448.262	1288.88
448.636	1292.49
449.01	1307.86
449.384	1345.15
449.758	1331.82
450.132	1351.48
450.506	1347.18
450.88	1345.37
451.254	1358.03
451.628	1398.93
452.002	1384.47
452.376	1390.12
452.75	1424.24
453.123	1433.51
453.497	1433.06
453.871	1472.38
454.244	1502.88
454.618	1499.27
454.992	1527.52
455.365	1515.54
455.739	1543.11
456.112	1595.31
456.486	1610.68
456.859	1616.78
457.232	1653.16
457.606	1663.11
457.979	1666.5
458.352	1718.7
458.725	1737.23
459.099	1727.06
459.472	1782.42
459.845	1797.79
460.218	1817.68
460.591	1796.21
460.964	1840.05
461.337	1897.22
461.71	1926.38
462.083	1934.74
462.456	1949.2
462.829	1945.58
463.201	1992.36
463.574	2021.29
463.947	2061.97
464.32	2078.69
464.692	2081.63
465.065	2122.98
465.438	2178.12
465.81	2166.37
466.183	2226.48
466.555	2277.1
466.928	2276.2
467.3	2292.92
467.672	2366.14
468.045	2447.04
468.417	2435.06
468.789	2448.62
469.161	2538.11
469.534	2543.76
469.906	2608.39
470.278	2614.04
470.65	2677.09
471.022	2747.82
471.394	2783.08
471.766	2818.78
472.138	2863.07
472.51	2925.67
472.882	2978.78
473.253	3037.76
473.625	3112.33
473.997	3181.26
474.369	3193.24
474.74	3254.7
475.112	3352.33
475.484	3429.16
475.855	3478.43
476.227	3534.02
476.598	3673.9
476.97	3668.93
477.341	3821.24
477.713	3879.54
478.084	3931.52
478.455	4037.05
478.827	4114.34
479.198	4250.61
479.569	4303.26
479.94	4379.87
480.311	4519.75
480.682	4597.27
481.053	4735.34
481.424	4884.72
481.795	4925.62
482.166	5072.06
482.537	5140.3
482.908	5270.02
483.279	5372.84
483.65	5489.67
484.021	5618.93
484.391	5709.33
484.762	5797.23
485.133	5928.76
485.503	6024.57
485.874	6231.8
486.244	6266.6
486.615	6416.88
486.985	6592.69
487.356	6685.57
487.726	6837.89
488.097	6951.1
488.467	7077.2
488.837	7220.47
489.207	7361.49
489.578	7512.9
489.948	7659.78
490.318	7714.25
490.688	7855.94
491.058	8012.54
491.428	8165.99
491.798	8244.85
492.168	8421.12
492.538	8552.87
492.908	8644.62
493.278	8777.95
493.648	8856.59
494.017	9025.17
494.387	9070.37
494.757	9245.51
495.126	9318.5
495.496	9417.25
495.866	9454.09
496.235	9617.93
496.605	9751.03
496.974	9811.59
497.344	9961.42
497.713	10003
498.082	10079.83
498.452	10246.84
498.821	10271.47
499.19	10361.18
499.559	10511.69
499.928	10595.3
500.298	10599.59
500.667	10760.04
501.036	10781.51
501.405	10884.11
501.774	10892.47
502.143	11052.92
502.512	11001.84
502.88	11181.95
503.249	11090.43
503.618	11322.06
503.987	11278.67
504.356	11385.79
504.724	11460.81
505.093	11493.13
505.462	11512.56
505.83	11594.14
506.199	11676.4
506.567	11811.99
506.936	11806.34
507.304	11965.21
507.672	11910.29
508.041	11996.39
508.409	12104.87
508.777	12185.77
509.145	12222.6
509.514	12209.72
509.882	12225.31
510.25	12264.41
510.618	12370.17
510.986	12394.58
511.354	12505.53
511.722	12511.63
512.09	12580.11
512.458	12673.89
512.826	12613.55
513.193	12665.3
513.561	12700.1
513.929	12808.35
514.297	12841.57
514.664	12912.53
515.032	12955.46
515.4	13047.89
515.767	13029.59
516.135	13055.35
516.502	12940.32
516.869	13180.09
517.237	13095.12
517.604	13074.11
517.972	13184.16
518.339	13260.99
518.706	13184.38
519.073	13290.82
519.44	13261.9
519.808	13437.03
520.175	13339.18
520.542	13461.21
520.909	13439.97
521.276	13465.73
521.643	13502.12
522.009	13477.71
522.376	13539.18
522.743	13531.95
523.11	13550.25
523.477	13698.5
523.843	13722.68
524.21	13802.22
524.577	13880.86
524.943	13874.99
525.31	13871.82
525.676	13847.87
526.043	13927.87
526.409	13960.41
526.776	14085.6
527.142	13999.28
527.508	14006.06
527.874	14026.85
528.241	14023.68
528.607	14075.21
528.973	14044.7
529.339	14010.13
529.705	14109.33
530.071	14078.6
530.437	14123.34
530.803	14160.18
531.169	14150.91
531.535	14045.15
531.901	14002.89
532.267	14100.29
532.632	14126.96
532.998	14083.8
533.364	14163.34
533.73	14015.55
534.095	14079.73
534.461	14063.91
534.826	14065.72
535.192	14042.22
535.557	14157.92
535.923	13973.52
536.288	13967.64
536.653	13985.27
537.019	13936.23
537.384	13862.79
537.749	13855.33
538.114	13866.4
538.479	13740.98
538.845	13837.25
539.21	13729.91
539.575	13696.01
539.94	13713.64
540.305	13729
540.67	13730.81
541.034	13630.47
541.399	13649.23
541.764	13503.25
542.129	13571.27
542.494	13521.55
542.858	13492.63
543.223	13415.34
543.587	13402.68
543.952	13315.45
544.316	13299.64
544.681	13304.16
545.045	13243.37
545.41	13248.56
545.774	13253.76
546.138	13129.92
546.503	13104.61
546.867	13163.14
547.231	13182.13
547.595	13100.55
547.959	13052.19
548.324	12990.94
548.688	12944.39
549.052	12911.85
549.416	12931.96
549.779	12784.62
550.143	12785.75
550.507	12790.05
550.871	12859.65
551.235	12711.63
551.599	12790.27
551.962	12731.06
552.326	12605.42
552.689	12674.57
553.053	12592.99
553.417	12532.65
553.78	12710.05
554.143	12610.84
554.507	12554.12
554.87	12464.18
555.234	12597.51
555.597	12528.13
555.96	12549.6
556.323	12482.93
556.686	12416.27
557.05	12505.76
557.413	12490.39
557.776	12400.45
558.139	12505.53
558.502	12392.99
558.865	12405.65
559.228	12401.58
559.59	12418.98
559.953	12408.13
560.316	12490.62
560.679	12402.94
561.041	12434.35
561.404	12449.04
561.767	12401.81
562.129	12457.85
562.492	12438.42
562.854	12438.64
563.217	12361.13
563.579	12294.69
563.941	12437.74
564.304	12458.75
564.666	12503.5
565.028	12435.93
565.39	12431.64
565.753	12543.5
566.115	12484.06
566.477	12548.7
566.839	12544.18
567.201	12503.27
567.563	12545.53
567.925	12518.87
568.287	12607.68
568.648	12531.97
569.01	12622.59
569.372	12703.04
569.734	12559.09
570.095	12630.28
570.457	12544.18
570.819	12545.08
571.18	12574.23
571.542	12633.89
571.903	12759.09
572.265	12704.85
572.626	12722.48
572.987	12712.98
573.349	12695.81
573.71	12689.26
574.071	12678.86
574.432	12725.64
574.794	12737.62
575.155	12682.93
575.516	12731.97
575.877	12731.06
576.238	12755.02
576.599	12830.04
576.96	12786.88
577.32	12788.01
577.681	12823.26
578.042	12827.78
578.403	12823.49
578.763	12832.76
579.124	12773.55
579.485	12853.32
579.845	12795.02
580.206	12703.95
580.566	12817.84
580.927	12751.4
581.287	12866.65
581.648	12817.61
582.008	12777.39
582.368	12751.4
582.728	12757.73
583.089	12844.96
583.449	12766.32
583.809	12757.96
584.169	12744.4
584.529	12689.03
584.889	12814.9
585.249	12709.82
585.609	12634.79
585.969	12741.68
586.329	12759.76
586.688	12668.24
587.048	12724.28
587.408	12682.25
587.768	12636.38
588.127	12671.4
588.487	12590.73
588.846	12711.86
589.206	12619.43
589.565	12609.71
589.925	12588.47
590.284	12634.79
590.643	12593.44
591.003	12599.32
591.362	12698.97
591.721	12663.95
592.08	12583.95
592.44	12659.65
592.799	12675.02
593.158	12581.24
593.517	12559.77
593.876	12645.19
594.235	12492.2
594.593	12524.06
594.952	12472.31
595.311	12532.42
595.67	12432.54
596.029	12527.23
596.387	12566.77
596.746	12599.99
597.104	12510.05
597.463	12425.53
597.822	12546.66
598.18	12500.11
598.538	12500.11
598.897	12547.57
599.255	12343.28
599.613	12537.62
599.972	12484.74
600.33	12575.14
600.688	12462.82
601.046	12522.71
601.404	12521.8
601.762	12476.61
602.12	12575.14
602.478	12507.34
602.836	12548.24
603.194	12472.99
603.552	12379.66
603.91	12465.53
604.268	12530.84
604.625	12401.35
604.983	12496.95
605.341	12414.46
605.698	12417.85
606.056	12483.84
606.413	12479.32
606.771	12490.62
607.128	12534.46
607.485	12518.64
607.843	12455.82
608.2	12507.34
608.557	12511.63
608.914	12512.31
609.272	12521.8
609.629	12600.67
609.986	12587.79
610.343	12540.79
610.7	12658.52
611.057	12590.95
611.414	12614.68
611.771	12631.63
612.127	12616.72
612.484	12605.87
612.841	12715.47
613.198	12627.34
613.554	12605.64
613.911	12619.88
614.267	12713.66
614.624	12619.88
614.98	12656.04
615.337	12761.8
615.693	12747.33
616.05	12749.59
616.406	12829.37
616.762	12767.67
617.118	12708.92
617.475	12763.15
617.831	12766.77
618.187	12746.43
618.543	12805.64
618.899	12849.03
619.255	12825.3
619.611	12772.42
619.967	12845.86
620.323	12795.47
620.678	12806.77
621.034	12748.92
621.39	12804.96
621.746	12814.45
622.101	12905.07
622.457	12820.33
622.812	12819.2
623.168	12838.86
623.523	12821
623.879	12811.97
624.234	12767.9
624.589	12818.74
624.945	12904.17
625.3	12845.64
625.655	12737.84
626.01	12867.11
626.365	12871.17
626.72	12825.07
627.075	12752.98
627.43	12790.95
627.785	12749.59
628.14	12828.24
628.495	12779.88
628.85	12759.31
629.205	12751.4
629.559	12802.47
629.914	12692.42
630.269	12691.29
630.623	12722.25
630.978	12676.6
631.332	12803.6
631.687	12755.92
632.041	12607.23
632.396	12743.72
632.75	12633.44
633.104	12661.01
633.459	12632.54
633.813	12651.52
634.167	12549.15
634.521	12576.49
634.875	12593.89
635.229	12551.86
635.583	12452.65
635.937	12465.08
636.291	12433.44
636.645	12451.07
636.999	12463.95
637.352	12417.85
637.706	12373.11
638.06	12395.71
638.413	12425.76
638.767	12407
639.121	12324.52
639.474	12293.79
639.828	12289.72
640.181	12325.42
640.534	12364.07
640.888	12275.03
641.241	12216.27
641.594	12360.9
641.947	12331.3
642.301	12314.8
642.654	12251.75
643.007	12320.68
643.36	12262.38
643.713	12239.33
644.066	12253.79
644.419	12188.03
644.771	12130.18
645.124	12041.59
645.477	12002.72
645.83	11918.43
646.182	11969.73
646.535	11891.31
646.888	11811.09
647.24	11753.01
647.593	11915.04
647.945	11832.56
648.298	11827.81
648.65	11832.33
649.002	11749.17
649.355	11781.48
649.707	11719.34
650.059	11917.07
650.411	12004.98
650.763	12057.86
651.115	12162.04
651.467	12070.97
651.819	12115.94
652.171	12057.41
652.523	12082.72
652.875	12068.26
653.227	12041.36
653.578	12083.17
653.93	12027.35
654.282	11965.66
654.633	11987.81
654.985	11976.51
655.337	12049.27
655.688	12083.17
656.039	12061.48
656.391	11984.42
656.742	12062.83
657.094	11982.83
657.445	12096.96
657.796	12114.81
658.147	12071.87
658.498	12046.79
658.849	12091.98
659.2	12000.24
659.551	12009.95
659.902	12012.21
660.253	12005.21
660.604	12081.36
660.955	12042.95
661.306	12097.41
661.656	12087.69
662.007	12083.62
662.358	12121.36
662.708	12094.47
663.059	12082.95
663.409	12053.57
663.76	12128.14
664.11	12067.35
664.461	12134.47
664.811	12063.06
665.161	12107.8
665.511	12008.37
665.862	12096.96
666.212	12133.57
666.562	12078.65
666.912	12084.07
667.262	12155.94
667.612	12110.29
667.962	12175.15
668.312	12045.43
668.662	12141.7
669.011	12115.03
669.361	12132.66
669.711	12090.63
670.06	12063.96
670.41	12048.14
670.76	12097.63
671.109	12132.66
671.459	12037.97
671.808	12038.88
672.157	12051.31
672.507	11917.98
672.856	11996.39
673.205	12028.71
673.554	12087.92
673.904	12035.04
674.253	12046.11
674.602	12081.36
674.951	11868.49
675.3	11775.16
675.649	11984.19
675.998	11957.98
676.346	11997.3
676.695	11947.36
677.044	11936.51
677.393	11891.76
677.741	11883.18
678.09	11904.87
678.438	11867.13
678.787	11844.76
679.135	11802.5
679.484	11814.93
679.832	11771.09
680.181	11793.46
680.529	11649.06
680.877	11712.33
681.225	11768.83
681.573	11705.33
681.922	11685.89
682.27	11617.19
682.618	11595.5
682.966	11653.35
683.314	11692.45
683.661	11566.35
684.009	11526.35
684.357	11505.11
684.705	11494.26
685.053	11478.44
685.4	11433.92
685.748	11410.87
686.095	11391.21
686.443	11278.9
686.79	11324.77
687.138	11362.29
687.485	11270.31
687.832	11275.73
688.18	11216.08
688.527	11159.58
688.874	11230.31
689.221	11194.61
689.568	11179.24
689.915	11063.99
690.262	11086.81
690.609	11050.2
690.956	11012.01
691.303	10955.52
691.65	10933.14
691.997	10895.86
692.344	10844.79
692.69	10780.38
693.037	10733.15
693.383	10672.59
693.73	10777.67
694.077	10652.47
694.423	10644.56
694.769	10600.95
695.116	10536.32
695.462	10532.48
695.808	10504.46
696.155	10541.74
696.501	10461.07
696.847	10444.8
697.193	10357.11
697.539	10355.98
697.885	10339.49
698.231	10295.65
698.577	10274.18
698.923	10278.47
699.269	10188.31
699.614	10148.53
699.96	10074.86
700.306	10091.58
700.651	10012.94
700.997	9962.32
701.342	9952.83
701.688	9961.19
702.033	9870.57
702.379	9966.84
702.724	9826.73
703.069	9833.51
703.415	9787.19
703.76	9698.83
704.105	9757.13
704.45	9727.75
704.795	9582.45
705.14	9540.41
705.485	9543.35
705.83	9472.84
706.175	9466.52
706.52	9446.18
706.865	9444.6
707.209	9492.73
707.554	9374.09
707.899	9365.73
708.243	9375.22
708.588	9357.14
708.932	9264.04
709.277	9273.75
709.621	9251.83
709.966	9183.13
710.31	9247.54
710.654	9085.51
710.998	9216.81
711.342	9147.88
711.687	9034.44
712.031	9081.67
712.375	9017.94
712.719	9032.4
713.063	9008.22
713.407	9064.95
713.75	8983.59
714.094	8994.21
714.438	8937.04
714.782	8940.88
715.125	8905.85
715.469	8979.07
715.812	8953.99
716.156	8873.76
716.499	8882.13
716.843	8818.62
717.186	8807.55
717.53	8804.84
717.873	8802.13
718.216	8811.17
718.559	8786.99
718.902	8737.27
719.246	8702.24
719.589	8737.04
719.932	8631.51
720.275	8669.93
720.617	8668.12
720.96	8644.84
721.303	8633.54
721.646	8664.28
721.989	8655.24
722.331	8590.38
722.674	8627.89
723.016	8620.89
723.359	8623.6
723.701	8576.6
724.044	8569.14
724.386	8507.22
724.729	8567.78
725.071	8513.77
725.413	8589.93
725.755	8482.59
726.097	8531.63
726.439	8497.28
726.782	8511.06
727.124	8544.28
727.465	8499.31
727.807	8516.71
728.149	8458.86
728.491	8503.15
728.833	8473.77
729.175	8485.53
729.516	8455.02
729.858	8462.93
730.199	8429.48
730.541	8435.13
730.882	8462.48
731.224	8453.89
731.565	8438.52
731.906	8406.43
732.248	8432.65
732.589	8411.4
732.93	8427.45
733.271	8441.68
733.612	8452.53
733.953	8449.59
734.294	8386.32
734.635	8498.86
734.976	8476.49
735.317	8399.2
735.658	8375.92
735.999	8433.55
736.339	8419.76
736.68	8488.92
737.021	8418.18
737.361	8417.96
737.702	8460.89
738.042	8425.64
738.383	8474
738.723	8484.85
739.063	8467.45
739.404	8478.07
739.744	8490.72
740.084	8515.58
740.424	8474.23
740.764	8471.29
741.104	8534.56
741.444	8535.92
741.784	8461.12
742.124	8588.12
742.464	8596.26
742.804	8596.26
743.143	8569.37
743.483	8597.84
743.823	8577.73
744.162	8709.02
744.502	8731.62
744.841	8712.64
745.181	8771.85
745.52	8803.71
745.86	8855.01
746.199	8881.67
746.538	8885.06
746.877	8911.05
747.216	8980.2
747.556	9073.98
747.895	9120.09
748.234	9094.1
748.573	9178.61
748.911	9230.82
749.25	9258.84
749.589	9248.9
749.928	9381.77
750.267	9476.46
750.605	9538.61
750.944	9614.99
751.283	9616.57
751.621	9739.96
751.96	9793.74
752.298	9910.12
752.636	10058.59
752.975	10128.42
753.313	10052.72
753.651	10267.85
753.989	10337.91
754.327	10481.63
754.666	10619.93
755.004	10627.16
755.342	10860.6
755.679	10970.21
756.017	11072.58
756.355	11224.21
756.693	11278.67
757.031	11497.88
757.368	11535.16
757.706	11726.12
758.044	11840.69
758.381	12042.72
758.719	12121.36
759.056	12387.8
759.394	12474.12
759.731	12573.1
760.068	12720.67
760.405	12863.72
760.743	13059.87
761.08	13268
761.417	13377.15
761.754	13525.17
762.091	13669.8
762.428	13906.63
762.765	13974.19
763.102	14150.24
763.438	14291.47
763.775	14491.7
764.112	14671.13
764.449	14845.36
764.785	14929.42
765.122	15101.17
765.458	15233.82
765.795	15286.02
766.131	15498.67
766.467	15621.61
766.804	15829.51
767.14	15884.65
767.476	16094.82
767.812	16184.53
768.148	16336.84
768.485	16356.73
768.821	16470.63
769.157	16656.61
769.492	16834.01
769.828	16984.74
770.164	16921.91
770.5	17070.84
770.836	17283.49
771.171	17245.75
771.507	17453.43
771.842	17505.4
772.178	17597.15
772.513	17658.62
772.849	17805.96
773.184	17698.16
773.519	17905.39
773.855	17938.61
774.19	18036.01
774.525	18045.73
774.86	18180.86
775.195	18192.84
775.53	18379.95
775.865	18209.11
776.2	18267.19
776.535	18266.51
776.87	18297.47
777.205	18307.19
777.539	18412.27
777.874	18438.94
778.209	18449.78
778.543	18494.75
778.878	18464.47
779.212	18631.93
779.547	18574.3
779.881	18628.31
780.215	18694.3
780.55	18686.84
780.884	18653.62
781.218	18566.62
781.552	18763.22
781.886	18694.52
782.22	18632.38
782.554	18634.64
782.888	18617.69
783.222	18580.18
783.556	18483.45
783.889	18566.84
784.223	18488.43
784.557	18598.71
784.89	18559.84
785.224	18486.39
785.557	18461.76
785.891	18488.43
786.224	18489.33
786.558	18525.71
786.891	18321.88
787.224	18300.86
787.557	18330.46
787.891	18305.61
788.224	18320.07
788.557	18354.19
788.89	18353.97
789.223	18303.57
789.556	18238.49
789.888	18224.48
790.221	18250.92
790.554	18026.52
790.887	18136.8
791.219	18075.33
791.552	18098.61
791.884	17923.24
792.217	18020.19
792.549	17956.91
792.882	17850.93
793.214	17833.75
793.546	17957.82
793.879	17795.56
794.211	17741.33
794.543	17814.77
794.875	17751.04
795.207	17786.75
795.539	17682.57
795.871	17681.22
796.203	17517.38
796.535	17506.76
796.867	17516.02
797.198	17457.49
797.53	17517.15
797.862	17291.85
798.193	17452.3
798.525	17333.2
798.856	17330.49
799.188	17077.39
799.519	17113.32
799.85	17027.22
800.182	17094.79
800.513	17087.33
800.844	16877.4
801.175	17040.33
801.506	16982.03
801.837	16903.84
802.168	16828.81
802.499	16891.18
802.83	16725.31
803.161	16739.32
803.491	16742.71
803.822	16683.5
804.153	16563.51
804.483	16547.69
804.814	16511.3
805.145	16427.69
805.475	16516.05
805.805	16346.79
806.136	16380.91
806.466	16371.42
806.796	16363.74
807.126	16258.65
807.457	16213.23
807.787	16226.79
808.117	16140.92
808.447	16034.71
808.777	16113.57
809.107	16091.65
809.436	16076.06
809.766	15983.41
810.096	15989.73
810.426	15872.68
810.755	16008.94
811.085	15848.04
811.414	15922.84
811.744	15757.2
812.073	15782.28
812.403	15678.1
812.732	15681.04
813.061	15708.61
813.39	15587.26
813.719	15554.49
814.049	15711.55
814.378	15614.83
814.707	15515.17
815.036	15499.35
815.365	15471.56
815.693	15370.54
816.022	15247.83
816.351	15270.66
816.68	15167.38
817.008	15283.76
817.337	15145.24
817.665	15151.79
817.994	15135.75
818.322	15177.33
818.651	15106.14
818.979	15003.55
819.307	15106.82
819.636	15073.83
819.964	14992.92
820.292	14973.26
820.62	15051.45
820.948	14999.48
821.276	15063.43
821.604	14969.65
821.932	14971.91
822.259	14954.51
822.587	14942.98
822.915	14905.47
823.243	14981.63
823.57	14966.26
823.898	14926.49
824.225	14794.51
824.553	14866.37
824.88	14937.79
825.207	14960.84
825.535	14934.4
825.862	14951.57
826.189	14909.31
826.516	14970.55
826.843	15003.32
827.17	14959.03
827.497	15019.14
827.824	15001.06
828.151	15034.05
828.478	14968.07
828.805	15077.22
829.131	14904.11
829.458	14975.52
829.785	14922.19
830.111	14916.32
830.438	15054.62
830.764	15041.29
831.09	14999.25
831.417	14907.28
831.743	14962.42
832.069	15004
832.395	14905.47
832.722	14923.77
833.048	14797.68
833.374	14851.69
833.7	14800.61
834.026	14881.29
834.351	14882.87
834.677	14875.87
835.003	14846.71
835.329	14884.23
835.654	14833.16
835.98	14836.54
836.306	14806.26
836.631	14742.54
836.956	14770.33
837.282	14710.67
837.607	14748.64
837.932	14692.37
838.258	14748.86
838.583	14641.97
838.908	14653.5
839.233	14588.87
839.558	14564.24
839.883	14476.33
840.208	14526.95
840.533	14395.2
840.858	14429.78
841.182	14481.98
841.507	14467.97
841.832	14402.66
842.156	14395.88
842.481	14260.51
842.805	14235.43
843.13	14231.36
843.454	14257.58
843.778	14113.85
844.103	14120.63
844.427	14089.45
844.751	14121.08
845.075	14070.92
845.399	14067.3
845.723	14003.8
846.047	13991.14
846.371	13857.81
846.695	13847.42
847.019	13830.7
847.343	13739.4
847.666	13701.89
847.99	13569.91
848.313	13568.33
848.637	13489.91
848.96	13395
849.284	13348.22
849.607	13248.56
849.931	13257.6
850.254	13211.95
850.577	13134.44
850.9	13120.21
851.223	13035.69
851.546	13000.89
851.869	12901.45
852.192	12895.58
852.515	12787.11
852.838	12748.92
853.161	12752.98
853.483	12732.65
853.806	12679.09
854.129	12631.63
854.451	12611.74
854.774	12532.2
855.096	12568.36
855.419	12438.87
855.741	12463.5
856.063	12469.38
856.385	12396.61
856.708	12307.12
857.03	12265.99
857.352	12289.72
857.674	12291.53
857.996	12160.68
858.318	12159.78
858.64	12173.11
858.961	12103.74
859.283	12047.24
859.605	12021.48
859.926	12032.55
860.248	11988.71
860.57	11888.83
860.891	11908.26
861.212	11811.09
861.534	11809.28
861.855	11818.55
862.176	11790.07
862.498	11756.4
862.819	11781.48
863.14	11661.26
863.461	11715.72
863.782	11640.92
864.103	11742.61
864.424	11613.58
864.745	11624.88
865.065	11558.21
865.386	11517.76
865.707	11506.69
866.027	11531.55
866.348	11457.42
866.668	11467.59
866.989	11477.99
867.309	11462.62
867.63	11427.82
867.95	11353.92
868.27	11284.77
868.59	11400.48
868.91	11374.04
869.23	11327.03
869.55	11243.65
869.87	11313.7
870.19	11260.37
870.51	11346.69
870.83	11248.16
871.15	11222.4
871.469	11174.49
871.789	11240.26
872.109	11155.96
872.428	11131.11
872.748	11091.56
873.067	11188.05
873.386	11105.57
873.706	11100.15
874.025	11011.56
874.344	11018.79
874.663	11066.93
874.982	11013.82
875.301	11026.93
875.62	11032.8
875.939	10959.13
876.258	10949.64
876.577	10967.95
876.896	10972.24
877.214	10836.65
877.533	10891.56
877.852	10912.35
878.17	10837.78
878.489	10888.4
878.807	10809.53
879.125	10769.08
879.444	10716.2
879.762	10742.87
880.08	10797.56
880.398	10698.8
880.716	10751.91
881.034	10674.85
881.352	10688.18
881.67	10638.24
881.988	10606.37
882.306	10574.28
882.624	10534.74
882.941	10551.23
883.259	10515.08
883.577	10443.44
883.894	10426.94
884.212	10452.25
884.529	10496.55
884.846	10340.84
885.164	10341.3
885.481	10280.96
885.798	10326.83
886.115	10198.7
886.432	10242.99
886.75	10214.75
887.067	10229.43
887.383	10139.27
887.7	10158.02
888.017	10131.13
888.334	10125.26
888.651	10080.96
888.967	10104.01
889.284	9998.93
889.6	9934.3
889.917	9972.27
890.233	9913.06
890.55	9879.61
890.866	9906.73
891.182	9767.98
891.498	9823.8
891.815	9764.59
892.131	9743.35
892.447	9754.87
892.763	9742.22
893.079	9657.02
893.395	9631.48
893.71	9622.44
894.026	9591.26
894.342	9632.16
894.657	9525.05
894.973	9494.31
895.289	9450.7
895.604	9427.87
895.92	9397.82
896.235	9296.35
896.55	9314.88
896.865	9215
897.181	9317.82
897.496	9226.97
897.811	9220.65
898.126	9151.95
898.441	9121.89
898.756	9157.6
899.071	9078.5
899.386	9118.73
899.7	9075.79
900.015	8939.07
900.33	8922.35
900.644	8866.76
900.959	8931.16
901.273	8871.5
901.588	8830.83
901.902	8790.6
902.216	8751.28
902.531	8760.55
902.845	8723.26
903.159	8617.5
903.473	8618.18
903.787	8561
904.101	8544.28
904.415	8603.04
904.729	8518.97
905.042	8418.86
905.356	8376.6
905.67	8355.36
905.984	8392.42
906.297	8421.57
906.611	8362.82
906.924	8279.43
907.237	8238.3
907.551	8232.88
907.864	8187.68
908.177	8187.68
908.491	8100
908.804	8079.89
909.117	8084.86
909.43	7941.36
909.743	7985.88
910.056	7934.81
910.368	7937.52
910.681	7897.74
910.994	7908.14
911.307	7861.36
911.619	7750.86
911.932	7761.93
912.244	7730.52
912.557	7733.68
912.869	7584.76
913.181	7662.95
913.494	7559
913.806	7561.48
914.118	7483.07
914.43	7541.37
914.742	7500.01
915.054	7430.41
915.366	7413.69
915.678	7410.75
915.99	7368.27
916.302	7290.3
916.613	7321.04
916.925	7270.42
917.236	7227.25
917.548	7168.27
917.859	7226.12
918.171	7119.69
918.482	7111.32
918.794	7064.09
919.105	7091.21
919.416	6994.72
919.727	6996.98
920.038	7001.72
920.349	6907.26
920.66	6907.71
920.971	6898
921.282	6886.7
921.593	6829.75
921.903	6793.82
922.214	6793.37
922.525	6759.02
922.835	6773.93
923.146	6673.82
923.456	6667.72
923.767	6651
924.077	6586.37
924.387	6583.43
924.697	6559.02
925.008	6530.55
925.318	6523.32
925.628	6496.43
925.938	6486.26
926.248	6425.69
926.558	6444.45
926.867	6377.78
927.177	6269.54
927.487	6334.62
927.796	6226.6
928.106	6232.93
928.416	6218.01
928.725	6237.45
929.034	6160.61
929.344	6160.16
929.653	6102.99
929.962	6086.49
930.271	6102.99
930.581	6045.14
930.89	6023.67
931.199	5969.43
931.508	5958.13
931.817	5938.25
932.125	5962.43
932.434	5959.04
932.743	5865.71
933.051	5886.95
933.36	5799.27
933.669	5783.45
933.977	5786.39
934.286	5768.99
934.594	5720.85
934.902	5689.89
935.21	5676.33
935.519	5661.42
935.827	5618.48
936.135	5576.45
936.443	5556.79
936.751	5630.69
937.059	5569.44
937.367	5573.74
937.674	5522.67
937.982	5492.16
938.29	5463.68
938.597	5452.16
938.905	5417.58
939.213	5373.06
939.52	5331.26
939.827	5367.19
940.135	5358.38
940.442	5324.7
940.749	5280.64
941.056	5289.9
941.363	5230.47
941.67	5230.92
941.977	5165.16
942.284	5126.07
942.591	5121.32
942.898	5103.69
943.205	5121.09
943.511	5101.89
943.818	5090.81
944.125	5019.4
944.431	4998.84
944.738	4967.2
945.044	4957.48
945.35	4936.92
945.657	4890.37
945.963	4918.61
946.269	4882.46
946.575	4829.58
946.881	4866.64
947.187	4846.75
947.493	4820.54
947.799	4798.84
948.105	4754.55
948.41	4740.77
948.716	4755.23
949.022	4714.1
949.327	4665.06
949.633	4617.38
949.938	4629.58
950.244	4663.03
950.549	4620.32
950.854	4594.33
951.16	4573.09
951.465	4485.18
951.77	4533.76
952.075	4493.54
952.38	4469.59
952.685	4464.61
952.99	4424.16
953.294	4420.1
953.599	4399.53
953.904	4381.45
954.209	4303.26
954.513	4347.56
954.818	4319.99
955.122	4284.96
955.426	4278.18
955.731	4268.24
956.035	4285.86
956.339	4213.32
956.643	4231.85
956.948	4220.33
957.252	4193.66
957.556	4189.37
957.86	4105.3
958.163	4160.44
958.467	4088.13
958.771	4083.16
959.075	4091.52
959.378	4023.04
959.682	4056.72
959.985	4045.87
960.289	4014.91
960.592	3991.18
960.896	3983.95
961.199	3966.55
961.502	3939.88
961.805	3940.11
962.108	3893.56
962.411	3886.32
962.714	3925.87
963.017	3855.14
963.32	3827.12
963.623	3828.7
963.926	3819.89
964.228	3788.02
964.531	3777.85
964.833	3756.61
965.136	3740.57
965.438	3735.14
965.741	3715.48
966.043	3668.25
966.345	3688.36
966.648	3698.08
966.95	3684.52
967.252	3604.07
967.554	3623.96
967.856	3595.94
968.158	3605.2
968.46	3561.14
968.761	3564.52
969.063	3592.55
969.365	3507.58
969.666	3556.16
969.968	3451.31
970.269	3435.49
970.571	3482.49
970.872	3441.14
971.174	3442.95
971.475	3421.93
971.776	3403.85
972.077	3389.61
972.378	3374.02
972.679	3370.41
972.98	3322.27
973.281	3332.21
973.582	3324.76
973.883	3316.85
974.183	3295.83
974.484	3327.02
974.785	3271.2
975.085	3265.55
975.386	3262.16
975.686	3236.62
975.986	3208.83
976.287	3168.15
976.587	3187.13
976.887	3165.44
977.187	3191.43
977.487	3147.81
977.787	3097.64
978.087	3068.49
978.387	3103.52
978.687	3094.25
978.987	3094.25
979.286	3049.51
979.586	3045.89
979.885	3027.14
980.185	2985.78
980.484	2982.17
980.784	2999.12
981.083	2941.94
981.382	2963.18
981.682	2936.52
981.981	2963.86
982.28	2948.5
982.579	2877.99
982.878	2905.79
983.177	2881.61
983.475	2902.17
983.774	2883.41
984.073	2850.65
984.372	2782.85
984.67	2816.3
984.969	2817.65
985.267	2817.88
985.566	2784.21
985.864	2787.14
986.162	2757.09
986.461	2744.66
986.759	2744.43
987.057	2692.91
987.355	2661.27
987.653	2663.53
987.951	2646.81
988.249	2662.4
988.547	2674.6
988.844	2635.28
989.142	2614.95
989.44	2601.39
989.737	2596.19
990.035	2569.75
990.332	2555.29
990.63	2600.03
990.927	2560.48
991.224	2528.17
991.521	2526.59
991.819	2525.46
992.116	2504.44
992.413	2496.98
992.71	2506.47
993.006	2456.31
993.303	2454.5
993.6	2453.37
993.897	2400.71
994.193	2433.48
994.49	2410.43
994.787	2409.75
995.083	2370.88
995.379	2348.29
995.676	2330.89
995.972	2370.66
996.268	2296.31
996.565	2339.02
996.861	2334.95
997.157	2339.25
997.453	2303.54
997.749	2284.78
998.044	2286.37
998.34	2218.57
998.636	2242.53
998.932	2259.7
999.227	2231.45
999.523	2222.19
999.818	2196.2
1000.114	2199.59
1000.409	2183.09
1000.704	2185.58
1001	2172.25
1001.295	2178.12
1001.59	2162.08
1001.885	2101.96
1002.18	2114.17
1002.475	2091.57
1002.77	2058.8
1003.065	2057.45
1003.359	2074.17
1003.654	2039.82
1003.949	2026.49
1004.243	2038.01
1004.538	2027.62
1004.832	1991.46
1005.127	1980.84
1005.421	1977.9
1005.715	1975.41
1006.009	1968.86
1006.304	1946.94
1006.598	1975.87
1006.892	1926.15
1007.186	1926.6
1007.48	1892.7
1007.773	1886.6
1008.067	1899.26
1008.361	1865.59
1008.655	1854.29
1008.948	1846.83
1009.242	1838.02
1009.535	1826.72
1009.829	1819.94
1010.122	1833.27
1010.415	1811.8
1010.708	1831.01
1011.001	1774.97
1011.295	1773.39
1011.588	1804.57
1011.881	1741.07
1012.173	1751.24
1012.466	1714.63
1012.759	1714.18
1013.052	1705.36
1013.344	1674.86
1013.637	1699.49
1013.93	1685.93
1014.222	1682.54
1014.514	1672.6
1014.807	1674.63
1015.099	1629.21
1015.391	1627.17
1015.683	1620.4
1015.976	1610.45
1016.268	1603.45
1016.56	1574.52
1016.851	1599.15
1017.143	1559.61
1017.435	1586.05
1017.727	1554.41
1018.018	1537.46
1018.31	1522.32
1018.602	1524.13
1018.893	1499.27
1019.185	1476.44
1019.476	1507.18
1019.767	1497.46
1020.058	1456.56
1020.35	1501.98
1020.641	1445.03
1020.932	1444.81
1021.223	1445.94
1021.514	1423.79
1021.804	1419.5
1022.095	1399.84
1022.386	1405.49
1022.677	1403.23
1022.967	1373.4
1023.258	1374.07
1023.548	1391.7
1023.839	1344.02
1024.129	1344.24
1024.419	1331.14
1024.709	1328.43
1025	1315.32
1025.29	1300.18
1025.58	1297.47
1025.87	1289.33
1026.16	1291.36
1026.449	1273.29
1026.739	1277.13
1027.029	1241.2
1027.319	1224.93
1027.608	1242.55
1027.898	1245.26
1028.187	1212.72
1028.477	1205.04
1028.766	1210.69
1029.055	1203.23
1029.344	1186.73
1029.634	1171.37
1029.923	1183.57
1030.212	1149.45
1030.501	1181.08
1030.79	1169.79
1031.078	1163.68
1031.367	1149
1031.656	1155.1
1031.945	1100.41
1032.233	1107.19
1032.522	1101.31
1032.81	1099.96
1033.099	1098.38
1033.387	1078.49
1033.675	1086.62
1033.963	1072.84
1034.251	1079.84
1034.54	1088.88
1034.828	1061.77
1035.116	1072.84
1035.403	1064.03
1035.691	1054.76
1035.979	1040.52
1036.267	1031.26
1036.554	1012.73
1036.842	1030.35
1037.129	1010.02
1037.417	1003.24
1037.704	990.81
1037.992	971.15
1038.279	979.06
1038.566	949.45
1038.853	949.45
1039.14	949.45
