Data from hue_330_FLMS001491_59.txt Node
Date: Mon Feb 06 15:45:36 GMT 2017
User: dcchb
Spectrometer: FLMS00149
Trigger mode: 0
Integration Time (sec): 2.000000E-2
Scans to average: 10
Electric dark correction enabled: true
Nonlinearity correction enabled: false
Boxcar width: 0
XAxis mode: Wavelengths
Number of Pixels in Spectrum: 2048
>>>>>Begin Spectral Data<<<<<
341.393	-17.01
341.776	-17.01
342.16	-17.01
342.543	-63.78
342.927	-75.76
343.31	-55.65
343.693	-74.63
344.077	-81.18
344.46	-61.75
344.843	-58.81
345.226	-40.06
345.61	-35.31
345.993	-8.87
346.376	-14.07
346.759	15.31
347.142	16.67
347.525	42.2
347.908	65.7
348.291	54.18
348.674	123.33
349.057	112.93
349.44	120.62
349.823	148.41
350.206	169.88
350.588	195.19
350.971	221.18
351.354	224.12
351.737	229.09
352.119	258.02
352.502	262.54
352.884	257.34
353.267	281.07
353.65	292.37
354.032	320.16
354.414	289.88
354.797	307.51
355.179	323.1
355.562	312.93
355.944	312.48
356.326	330.56
356.709	347.05
357.091	342.31
357.473	319.26
357.855	328.07
358.238	350.44
358.62	332.59
359.002	344.79
359.384	329.43
359.766	321.29
360.148	332.59
360.53	333.27
360.912	344.79
361.294	337.34
361.676	348.86
362.057	329.43
362.439	343.44
362.821	326.49
363.203	325.58
363.584	338.24
363.966	343.44
364.348	317.68
364.729	321.97
365.111	334.17
365.493	329.43
365.874	280.61
366.256	311.8
366.637	326.26
367.019	307.05
367.4	322.65
367.781	312.48
368.163	326.26
368.544	299.6
368.925	313.83
369.306	323.1
369.688	298.01
370.069	291.69
370.45	292.82
370.831	319.26
371.212	298.47
371.593	325.58
371.974	315.19
372.355	295.75
372.736	324.23
373.117	321.29
373.498	314.29
373.879	312.7
374.26	313.83
374.641	319.71
375.021	303.21
375.402	316.55
375.783	290.11
376.163	326.49
376.544	325.58
376.925	322.19
377.305	299.14
377.686	309.99
378.066	320.61
378.447	315.42
378.827	328.52
379.208	312.25
379.588	327.17
379.968	313.38
380.349	338.47
380.729	357.9
381.109	354.74
381.489	340.5
381.87	339.37
382.25	347.28
382.63	332.36
383.01	342.08
383.39	330.33
383.77	329.88
384.15	336.88
384.53	335.98
384.91	339.82
385.29	347.5
385.67	350.44
386.049	370.33
386.429	364
386.809	358.35
387.189	345.7
387.568	360.39
387.948	349.31
388.328	363.1
388.707	358.35
389.087	368.75
389.466	381.18
389.846	347.28
390.225	364.23
390.605	365.81
390.984	345.7
391.363	366.04
391.743	371.23
392.122	385.24
392.501	380.27
392.881	396.09
393.26	366.04
393.639	375.75
394.018	379.14
394.397	368.97
394.776	365.36
395.155	379.37
395.534	375.3
395.913	387.28
396.292	361.52
396.671	396.09
397.05	400.16
397.429	393.61
397.808	399.03
398.186	382.98
398.565	404
398.944	373.27
399.323	380.27
399.701	392.7
400.08	404.9
400.458	394.74
400.837	405.58
401.215	415.75
401.594	394.74
401.972	395.87
402.351	423.21
402.729	405.13
403.107	412.14
403.486	414.62
403.864	421.63
404.242	403.32
404.62	398.8
404.999	424.34
405.377	411.91
405.755	431.12
406.133	429.08
406.511	447.39
406.889	442.87
407.267	457.33
407.645	435.19
408.023	455.52
408.401	436.99
408.779	462.3
409.156	472.47
409.534	456.43
409.912	474.51
410.29	474.28
410.667	500.04
411.045	485.81
411.422	485.81
411.8	504.34
412.178	491
412.555	508.18
412.933	503.43
413.31	518.35
413.687	531.91
414.065	535.3
414.442	522.19
414.819	540.72
415.197	547.73
415.574	539.36
415.951	566.26
416.328	581.62
416.705	553.15
417.082	561.28
417.46	576.88
417.837	558.12
418.214	606.03
418.591	603.32
418.967	600.83
419.344	570.78
419.721	596.31
420.098	608.52
420.475	627.95
420.852	635.18
421.228	637.67
421.605	644.22
421.982	650.1
422.358	655.52
422.735	660.04
423.111	633.83
423.488	674.95
423.864	659.36
424.241	672.69
424.617	699.13
424.994	697.55
425.37	706.37
425.746	721.51
426.123	691.9
426.499	712.24
426.875	708.85
427.251	742.3
427.627	749.75
428.003	712.47
428.379	753.37
428.756	728.74
429.132	779.13
429.507	776.19
429.883	780.94
430.259	799.47
430.635	816.42
431.011	792.24
431.387	809.87
431.763	821.16
432.138	837.66
432.514	840.6
432.89	837.66
433.265	859.81
433.641	865.68
434.016	887.38
434.392	880.6
434.767	911.56
435.143	903.42
435.518	917.21
435.894	915.17
436.269	919.24
436.644	955.17
437.02	960.6
437.395	956.53
437.77	946.13
438.145	955.17
438.52	984.32
438.895	970.31
439.271	974.83
439.646	1008.73
440.021	1003.98
440.395	1001.27
440.77	1010.54
441.145	992.69
441.52	1035.4
441.895	1032.91
442.27	1034.94
442.645	1046.7
443.019	1060.93
443.394	1039.24
443.769	1069.29
444.143	1054.83
444.518	1072.46
444.892	1086.02
445.267	1086.69
445.641	1072.68
446.016	1078.79
446.39	1093.25
446.764	1095.28
447.139	1100.25
447.513	1120.14
447.887	1095.51
448.262	1124.21
448.636	1136.41
449.01	1141.16
449.384	1133.47
449.758	1161.27
450.132	1148.16
450.506	1136.86
450.88	1177.31
451.254	1117.65
451.628	1178.9
452.002	1165.56
452.376	1158.11
452.75	1209.18
453.123	1181.38
453.497	1184.77
453.871	1212.79
454.244	1237.43
454.618	1221.38
454.992	1289.85
455.365	1244.43
455.739	1276.52
456.112	1298.21
456.486	1289.85
456.859	1312.45
457.232	1312
457.606	1320.81
457.979	1308.84
458.352	1359.68
458.725	1350.64
459.099	1348.38
459.472	1375.05
459.845	1365.78
460.218	1395.16
460.591	1408.04
460.964	1423.63
461.337	1440.36
461.71	1435.39
462.083	1461.6
462.456	1470.64
462.829	1461.6
463.201	1500.24
463.574	1512.45
463.947	1519.45
464.32	1521.49
464.692	1550.41
465.065	1593.8
465.438	1582.5
465.81	1599.68
466.183	1612.1
466.555	1608.26
466.928	1645.55
467.3	1636.28
467.672	1624.76
468.045	1677.87
468.417	1670.63
468.789	1688.49
469.161	1710.63
469.534	1719.22
469.906	1751.08
470.278	1810.97
470.65	1777.52
471.022	1852.55
471.394	1831.99
471.766	1833.79
472.138	1858.43
472.51	1894.13
472.882	1923.96
473.253	1935.49
473.625	1950.63
473.997	1982.72
474.369	2007.35
474.74	2007.57
475.112	2037.18
475.484	2040.34
475.855	2096.39
476.227	2096.84
476.598	2161.69
476.97	2154.92
477.341	2241.01
477.713	2246.44
478.084	2273.56
478.455	2319.88
478.827	2317.62
479.198	2389.71
479.569	2393.33
479.94	2424.51
480.311	2440.56
480.682	2509.48
481.053	2554.68
481.424	2617.05
481.795	2587.45
482.166	2627.67
482.537	2667.44
482.908	2716.26
483.279	2706.99
483.65	2773.66
484.021	2811.85
484.391	2802.58
484.762	2841.68
485.133	2865.63
485.503	2907.44
485.874	2969.58
486.244	2955.57
486.615	3043.25
486.985	3050.48
487.356	3091.39
487.726	3186.07
488.097	3178.39
488.467	3177.94
488.837	3234.66
489.207	3285.73
489.578	3298.61
489.948	3335.22
490.318	3356.92
490.688	3401.21
491.058	3425.84
491.428	3490.7
491.798	3504.03
492.168	3582.45
492.538	3618.61
492.908	3623.58
493.278	3666.74
493.648	3644.59
494.017	3701.99
494.387	3712.84
494.757	3714.87
495.126	3758.94
495.496	3773.18
495.866	3806.85
496.235	3817.24
496.605	3852.72
496.974	3934.08
497.344	3859.5
497.713	3934.3
498.082	3885.27
498.452	3996.9
498.821	4035.54
499.19	3985.6
499.559	4049.55
499.928	4071.02
500.298	4084.58
500.667	4148.53
501.036	4118.03
501.405	4163.68
501.774	4155.54
502.143	4193.96
502.512	4215.88
502.88	4228.76
503.249	4251.13
503.618	4242.77
503.987	4286.16
504.356	4302.66
504.724	4292.71
505.093	4312.37
505.462	4292.94
505.83	4342.65
506.199	4373.61
506.567	4412.03
506.936	4412.48
507.304	4428.3
507.672	4439.37
508.041	4484.12
508.409	4461.75
508.777	4527.73
509.145	4515.53
509.514	4526.83
509.882	4593.95
510.25	4597.79
510.618	4569.09
510.986	4604.57
511.354	4631.01
511.722	4682.98
512.09	4705.81
512.458	4657.45
512.826	4706.03
513.193	4707.16
513.561	4704.23
513.929	4744.45
514.297	4775.64
514.664	4812.7
515.032	4792.36
515.4	4833.26
515.767	4825.81
516.135	4855.18
516.502	4803.88
516.869	4891.34
517.237	4925.24
517.604	4873.94
517.972	4952.36
518.339	4958.46
518.706	4948.29
519.073	4965.46
519.44	4963.65
519.808	5063.31
520.175	5016.76
520.542	5074.39
520.909	5072.35
521.276	5084.1
521.643	5111.45
522.009	5149.19
522.376	5204.1
522.743	5121.16
523.11	5240.03
523.477	5233.48
523.843	5249.97
524.21	5310.09
524.577	5301.95
524.943	5314.61
525.31	5331.78
525.676	5394.15
526.043	5485.45
526.409	5437.77
526.776	5514.15
527.142	5464.21
527.508	5533.58
527.874	5529.52
528.241	5595.95
528.607	5577.65
528.973	5614.26
529.339	5649.96
529.705	5732.67
530.071	5717.76
530.437	5726.57
530.803	5790.3
531.169	5779.68
531.535	5784.65
531.901	5832.11
532.267	5867.36
532.632	5934.02
532.998	5925.21
533.364	5933.35
533.73	5948.26
534.095	5998.43
534.461	5981.48
534.826	6066.9
535.192	6062.16
535.557	6120.46
535.923	6094.25
536.288	6126.56
536.653	6142.83
537.019	6193.45
537.384	6211.98
537.749	6234.36
538.114	6186.45
538.479	6250.85
538.845	6296.5
539.21	6283.17
539.575	6407.23
539.94	6353.9
540.305	6344.64
540.67	6411.75
541.034	6408.81
541.399	6469.38
541.764	6470.96
542.129	6541.69
542.494	6498.53
542.858	6599.77
543.223	6631.63
543.587	6663.95
543.952	6635.93
544.316	6654.91
544.681	6637.28
545.045	6764.74
545.41	6766.32
545.774	6754.79
546.138	6752.53
546.503	6825.53
546.867	6776.04
547.231	6861.23
547.595	6835.47
547.959	6917.73
548.324	6911.4
548.688	6923.15
549.052	6935.58
549.416	6961.57
549.779	6977.84
550.143	7037.5
550.507	7153.88
550.871	7102.13
551.235	7051.51
551.599	7184.39
551.962	7149.13
552.326	7200.43
552.689	7247.21
553.053	7211.51
553.417	7274.1
553.78	7377.38
554.143	7314.1
554.507	7322.69
554.87	7371.95
555.234	7400.2
555.597	7364.27
555.96	7387.09
556.323	7400.43
556.686	7418.51
557.05	7543.02
557.413	7458.28
557.776	7424.38
558.139	7521.78
558.502	7558.39
558.865	7538.28
559.228	7599.74
559.59	7622.57
559.953	7668.44
560.316	7724.26
560.679	7754.32
561.041	7766.97
561.404	7744.82
561.767	7837.03
562.129	7842
562.492	7895.1
562.854	7935.55
563.217	7850.81
563.579	7931.03
563.941	8030.69
564.304	8026.63
564.666	8012.39
565.028	8047.64
565.39	8062.1
565.753	8096.45
566.115	8094.19
566.477	8169.9
566.839	8199.5
567.201	8272.95
567.563	8180.52
567.925	8274.53
568.287	8294.64
568.648	8327.18
569.01	8350.46
569.372	8396.33
569.734	8382.55
570.095	8495.54
570.457	8511.58
570.819	8539.83
571.18	8581.64
571.542	8663.9
571.903	8638.13
572.265	8666.38
572.626	8749.54
572.987	8735.76
573.349	8803.1
573.71	8887.85
574.071	8919.03
574.432	8990.67
574.794	9025.24
575.155	9054.39
575.516	9093.72
575.877	9169.42
576.238	9294.61
576.599	9408.28
576.96	9418.9
577.32	9487.6
577.681	9521.28
578.042	9663.42
578.403	9693.7
578.763	9740.7
579.124	9847.14
579.485	10026.35
579.845	10112.45
580.206	10157.19
580.566	10302.72
580.927	10431.31
581.287	10503.85
581.648	10634.69
582.008	10829.26
582.368	10953.33
582.728	11089.82
583.089	11257.73
583.449	11378.18
583.809	11565.29
584.169	11743.14
584.529	11835.56
584.889	12191.26
585.249	12247.31
585.609	12391.03
585.969	12654.53
586.329	12786.5
586.688	13035.76
587.048	13281.18
587.408	13377.22
587.768	13711.45
588.127	13927.26
588.487	14093.36
588.846	14418.32
589.206	14641.82
589.565	14940.34
589.925	15202.03
590.284	15425.3
590.643	15675.92
591.003	15968.34
591.362	16263.92
591.721	16541.43
592.08	16822.55
592.44	17110.91
592.799	17441.29
593.158	17666.15
593.517	17889.19
593.876	18257.09
594.235	18494.37
594.593	18820.92
594.952	19159.44
595.311	19364.41
595.67	19634.23
596.029	20110.38
596.387	20354.44
596.746	20711.72
597.104	20900.64
597.463	21179.95
597.822	21509.89
598.18	21798.47
598.538	22069.19
598.897	22423.08
599.255	22544.66
599.613	23117.53
599.972	23269.84
600.33	23567.69
600.688	23823.95
601.046	24166.31
601.404	24543.48
601.762	24771.72
602.12	25180.52
602.478	25338.71
602.836	25637.46
603.194	25745.71
603.552	26077.68
603.91	26303.88
604.268	26682.86
604.625	26849.86
604.983	27169.17
605.341	27316.06
605.698	27781.81
606.056	27992.65
606.413	28142.25
606.771	28545.41
607.128	28845.74
607.485	28803.48
607.843	29064.72
608.2	29458.38
608.557	29784.92
608.914	29781.99
609.272	30163.22
609.629	30460.16
609.986	30615.64
610.343	30738.34
610.7	31123.87
611.057	31325.9
611.414	31509.62
611.771	31743.52
612.127	31991.64
612.484	32071.19
612.841	32445.42
613.198	32483.61
613.554	32632.31
613.911	33061.67
614.267	33194.1
614.624	33309.58
614.98	33515.22
615.337	33864.82
615.693	33816.46
616.05	33929.67
616.406	34141.64
616.762	34150.01
617.118	34331.02
617.475	34545.02
617.831	34800.61
618.187	35030.66
618.543	35065.01
618.899	35418.9
619.255	35535.51
619.611	35513.13
619.967	35702.96
620.323	35827.48
620.678	35819.11
621.034	35988.38
621.39	35979.79
621.746	36123.51
622.101	36590.17
622.457	36281.7
622.812	36547.46
623.168	36756.49
623.523	36848.92
623.879	37003.72
624.234	36770.28
624.589	36997.39
624.945	37263.14
625.3	37402.12
625.655	37404.84
626.01	37437.6
626.365	37527.77
626.72	37395.12
627.075	37575.9
627.43	37702.68
627.785	37691.38
628.14	37735
628.495	37939.28
628.85	37907.42
629.205	37874.2
629.559	38191.26
629.914	37945.84
630.269	38090.24
630.623	38168.88
630.978	38080.75
631.332	38419.72
631.687	38391.48
632.041	38242.78
632.396	38296.56
632.75	38205.04
633.104	38389.44
633.459	38270.35
633.813	38367.3
634.167	38376.79
634.521	38300.18
634.875	38348.77
635.229	38457.69
635.583	38220.63
635.937	38236.68
636.291	38307.41
636.645	38421.98
636.999	38323.91
637.352	38508.54
637.706	38237.58
638.06	38468.99
638.413	38389.22
638.767	38245.94
639.121	38545.37
639.474	38122.1
639.828	38262.67
640.181	38281.65
640.534	38195.78
640.888	38239.62
641.241	38141.77
641.594	38240.75
641.947	38332.04
642.301	38170.69
642.654	38133.18
643.007	38136.79
643.36	38282.33
643.713	38349.67
644.066	38448.88
644.419	38164.59
644.771	37913.52
645.124	37528
645.477	37613.42
645.83	37323.71
646.182	37210.26
646.535	37237.61
646.888	37289.36
647.24	37052.98
647.593	37366.19
647.945	37146.76
648.298	37044.85
648.65	37025.86
649.002	36928.46
649.355	37003.49
649.707	37031.51
650.059	37112.64
650.411	37677.14
650.763	37673.98
651.115	37901.77
651.467	37959.17
651.819	38028.1
652.171	37765.5
652.523	37688.44
652.875	37664.26
653.227	37730.25
653.578	37823.13
653.93	37734.09
654.282	37605.51
654.633	37668.11
654.985	37600.31
655.337	37770.48
655.688	37658.84
656.039	37727.77
656.391	37509.01
656.742	37546.07
657.094	37496.58
657.445	37717.14
657.796	37633.98
658.147	37581.55
658.498	37544.49
658.849	37601.21
659.2	37563.7
659.551	37445.96
659.902	37582.46
660.253	37471.95
660.604	37471.95
660.955	37352.18
661.306	37513.08
661.656	37407.1
662.007	37441.67
662.358	37459.3
662.708	37493.19
663.059	37466.98
663.409	37350.15
663.76	37520.76
664.11	37602.34
664.461	37493.87
664.811	37531.84
665.161	37520.54
665.511	37290.04
665.862	37433.99
666.212	37634.66
666.562	37605.96
666.912	37359.19
667.262	37369.36
667.612	37421.56
667.962	37509.01
668.312	37330.71
668.662	37608.22
669.011	37373.88
669.361	37345.63
669.711	37258.62
670.06	37307.89
670.41	37113.32
670.76	37224.28
671.109	37441.44
671.459	37261.79
671.808	37226.31
672.157	37314.22
672.507	36996.26
672.856	37145.63
673.205	37168.68
673.554	37239.42
673.904	37250.72
674.253	37369.36
674.602	37209.13
674.951	36521.02
675.3	36402.15
675.649	37041
675.998	37098.86
676.346	37127.55
676.695	37011.85
677.044	36845.08
677.393	37083.49
677.741	37010.5
678.09	36838.3
678.438	36794
678.787	36979.54
679.135	36909.03
679.484	36694.35
679.832	36894.11
680.181	36680.79
680.529	36781.12
680.877	36586.55
681.225	36501.13
681.573	36770.73
681.922	36507.46
682.27	36418.42
682.618	36429.95
682.966	36341.13
683.314	36380
683.661	36269.95
684.009	36215.94
684.357	36055.72
684.705	35963.52
685.053	36069.28
685.4	35916.74
685.748	35870.64
686.095	35975.27
686.443	35947.7
686.79	35617.31
687.138	35819.34
687.485	35734.15
687.832	35633.81
688.18	35679.01
688.527	35440.59
688.874	35450.54
689.221	35443.08
689.568	35332.35
689.915	35225.23
690.262	35101.85
690.609	35161.05
690.956	35011.45
691.303	34959.02
691.65	34823.89
691.997	34829.54
692.344	34711.8
692.69	34606.27
693.037	34603.55
693.383	34403.33
693.73	34546.83
694.077	34393.39
694.423	34280.4
694.769	34197.91
695.116	34118.14
695.462	34145.26
695.808	33908.43
696.155	33926.06
696.501	33742.11
696.847	33762.67
697.193	33446.52
697.539	33606.97
697.885	33500.08
698.231	33308.9
698.577	33285.85
698.923	33102.35
699.269	33118.17
699.614	32882.02
699.96	32871.4
700.306	32835.46
700.651	32782.36
700.997	32791.17
701.342	32564.29
701.688	32528.81
702.033	32495.36
702.379	32336.72
702.724	32406.78
703.069	32382.37
703.415	32063.06
703.76	32144.64
704.105	32025.32
704.45	32077.07
704.795	31905.55
705.14	31737.41
705.485	31696.74
705.83	31552.33
706.175	31668.49
706.52	31465.78
706.865	31406.12
707.209	31382.4
707.554	31219.91
707.899	31382.4
708.243	31082.74
708.588	31117.09
708.932	31025.57
709.277	30879.58
709.621	30964.33
709.966	30661.06
710.31	30883.2
710.654	30643.21
710.998	30652.02
711.342	30614.28
711.687	30576.31
712.031	30400.05
712.375	30329.54
712.719	30218.36
713.063	30218.58
713.407	30138.59
713.75	30123.22
714.094	30147.85
714.438	30033.28
714.782	30097.68
715.125	29929.55
715.469	29986.73
715.812	29717.58
716.156	29615.21
716.499	29621.54
716.843	29566.4
717.186	29473.52
717.53	29673.06
717.873	29587.87
718.216	29400.53
718.559	29498.38
718.902	29280.53
719.246	29325.73
719.589	29189.01
719.932	29156.69
720.275	29032.4
720.617	28949.46
720.96	28932.74
721.303	28973.87
721.646	28908.34
721.989	28839.86
722.331	28888
722.674	28863.37
723.016	28726.87
723.359	28776.59
723.701	28668.34
724.044	28542.02
724.386	28323.04
724.729	28631.28
725.071	28536.14
725.413	28357.84
725.755	28492.53
726.097	28210.5
726.439	28189.48
726.782	28061.35
727.124	28256.6
727.465	28015.03
727.807	28082.82
728.149	28042.6
728.491	28022.03
728.833	28090.73
729.175	27875.82
729.516	27923.96
729.858	27859.1
730.199	27725.54
730.541	27704.98
730.882	27787.91
731.224	27840.34
731.565	27587.47
731.906	27621.59
732.248	27609.61
732.589	27511.99
732.93	27344.76
733.271	27347.47
733.612	27512.21
733.953	27469.73
734.294	27251.2
734.635	27187.03
734.976	27258.89
735.317	27121.72
735.658	27122.17
735.999	27127.14
736.339	27041.72
736.68	26987.71
737.021	26915.39
737.361	26849.63
737.702	27008.72
738.042	26922.4
738.383	26784.1
738.723	26919.01
739.063	26728.73
739.404	26862.51
739.744	26735.74
740.084	26567.83
740.424	26615.06
740.764	26602.18
741.104	26579.81
741.444	26420.27
741.784	26474.28
742.124	26432.92
742.464	26354.73
742.804	26367.39
743.143	26381.85
743.483	26413.49
743.823	26140.73
744.162	26182.08
744.502	26238.12
744.841	26104.12
745.181	26158.13
745.52	26037.45
745.86	26046.26
746.199	26003.55
746.538	25875.65
746.877	26069.09
747.216	25888.75
747.556	25921.07
747.895	25914.06
748.234	25762.66
748.573	25690.34
748.911	25889.43
749.25	25759.72
749.589	25554.53
749.928	25510.69
750.267	25622.55
750.605	25512.04
750.944	25416.22
751.283	25287.64
751.621	25537.8
751.96	25310.92
752.298	25281.09
752.636	25206.51
752.975	24993.64
753.313	25044.71
753.651	25047.42
753.989	24976.01
754.327	25025.05
754.666	24862.11
755.004	24853.75
755.342	24926.29
755.679	24870.7
756.017	24616.02
756.355	24739.86
756.693	24592.07
757.031	24626.41
757.368	24472.97
757.706	24445.63
758.044	24347.78
758.381	24312.98
758.719	24166.99
759.056	24288.57
759.394	24193.21
759.731	24103.04
760.068	24069.82
760.405	23954.12
760.743	23904.85
761.08	23874.12
761.417	23772.88
761.754	23713.44
762.091	23587.57
762.428	23492.89
762.765	23439.1
763.102	23489.5
763.438	23317.75
763.775	23265.55
764.112	23139
764.449	23251.76
764.785	23172.89
765.122	22962.5
765.458	22982.16
765.795	22869.4
766.131	22847.48
766.467	22722.96
766.804	22651.1
767.14	22562.74
767.476	22583.76
767.812	22487.49
768.148	22509.41
768.485	22309.87
768.821	22229.87
769.157	22249.53
769.492	22102.41
769.828	22079.59
770.164	21921.63
770.5	21800.95
770.836	21816.09
771.171	21724.57
771.507	21691.8
771.842	21546.95
772.178	21502.65
772.513	21497.91
772.849	21361.87
773.184	21280.51
773.519	21296.78
773.855	21089.78
774.19	21095.43
774.525	21045.27
774.86	20966.17
775.195	20890.69
775.53	20822.45
775.865	20695.9
776.2	20600.98
776.535	20358.28
776.87	20393.08
777.205	20312.86
777.539	20264.5
777.874	20307.21
778.209	20093.88
778.543	20065.4
778.878	19894.34
779.212	20028.57
779.547	19822.25
779.881	19817.73
780.215	19694.57
780.55	19762.36
780.884	19576.83
781.218	19535.25
781.552	19512.88
781.886	19437.4
782.22	19381.35
782.554	19302.49
782.888	19119.44
783.222	19025.88
783.556	18970.74
783.889	18879
784.223	18798.09
784.557	18755.83
784.89	18830.41
785.224	18685.1
785.557	18702.5
785.891	18622.96
786.224	18476.07
786.558	18448.05
786.891	18348.39
787.224	18287.6
787.557	18232.68
787.891	18165.12
788.224	18220.48
788.557	18120.82
788.89	18010.77
789.223	18007.83
789.556	17883.54
789.888	17794.96
790.221	17899.36
790.554	17620.95
790.887	17656.43
791.219	17679.48
791.552	17526.71
791.884	17408.53
792.217	17468.64
792.549	17390.67
792.882	17165.59
793.214	17129.44
793.546	17201.98
793.879	17030
794.211	16973.73
794.543	17095.54
794.875	16937.13
795.207	16963.79
795.539	16885.6
795.871	16758.15
796.203	16651.94
796.535	16606.29
796.867	16548.66
797.198	16554.31
797.53	16523.8
797.862	16379.17
798.193	16515.89
798.525	16223.92
798.856	16292.17
799.188	16180.99
799.519	16190.48
799.85	16105.28
800.182	16056.24
800.513	16042.23
800.844	15864.61
801.175	15986.42
801.506	15873.2
801.837	15748
802.168	15731.28
802.499	15718.85
802.83	15631.85
803.161	15555.24
803.491	15621.23
803.822	15514.56
804.153	15477.73
804.483	15330.16
804.814	15310.05
805.145	15315.7
805.475	15331.07
805.805	15207
806.136	15217.85
806.466	15190.05
806.796	15131.75
807.126	15033.45
807.457	14953.67
807.787	15063.05
808.117	14904.18
808.447	14860.34
808.777	14851.53
809.107	14868.71
809.436	14817.41
809.766	14771.76
810.096	14786.9
810.426	14668.71
810.755	14646.79
811.085	14642.04
811.414	14569.28
811.744	14486.34
812.073	14447.7
812.403	14460.81
812.732	14378.77
813.061	14367.93
813.39	14246.57
813.719	14272.56
814.049	14275.95
814.378	14232.34
814.707	14152.34
815.036	14143.75
815.365	14055.17
815.693	13941.95
816.022	13953.02
816.351	13956.41
816.68	13870.31
817.008	13867.83
817.337	13820.6
817.665	13759.13
817.994	13848.84
818.322	13748.51
818.651	13682.3
818.979	13704.44
819.307	13700.37
819.636	13610.89
819.964	13538.12
820.292	13598.91
820.62	13512.81
820.948	13658.34
821.276	13597.55
821.604	13557.33
821.932	13624.44
822.259	13529.76
822.587	13524.56
822.915	13426.26
823.243	13604.11
823.57	13506.71
823.898	13461.06
824.225	13426.26
824.553	13446.6
824.88	13460.38
825.207	13536.31
825.535	13425.35
825.862	13456.31
826.189	13433.94
826.516	13468.74
826.843	13458.12
827.17	13463.09
827.497	13495.41
827.824	13458.57
828.151	13521.4
828.478	13451.79
828.805	13532.47
829.131	13410.21
829.458	13421.96
829.785	13351.68
830.111	13434.39
830.438	13379.7
830.764	13366.15
831.09	13450.89
831.417	13318.69
831.743	13552.13
832.069	13475.07
832.395	13306.94
832.722	13391.23
833.048	13331.57
833.374	13279.82
833.7	13296.32
834.026	13371.8
834.351	13315.07
834.677	13317.56
835.003	13335.64
835.329	13306.71
835.654	13218.8
835.98	13162.76
836.306	13158.92
836.631	13148.98
836.956	13149.88
837.282	13193.49
837.607	13146.49
837.932	13030.56
838.258	13112.59
838.583	13021.52
838.908	13014.06
839.233	13000.51
839.558	13032.82
839.883	12943.78
840.208	12863.56
840.533	12955.99
840.858	12875.99
841.182	12899.49
841.507	12910.79
841.832	12774.3
842.156	12738.14
842.481	12809.32
842.805	12704.02
843.13	12711.7
843.454	12655.43
843.778	12657.92
844.103	12585.15
844.427	12577.47
844.751	12586.96
845.075	12450.24
845.399	12527.07
845.723	12468.09
846.047	12500.18
846.371	12335.89
846.695	12258.6
847.019	12217.25
847.343	12189
847.666	12093.18
847.99	12086.41
848.313	12040.08
848.637	11997.37
848.96	12002.34
849.284	11923.25
849.607	11819.97
849.931	11866.07
850.254	11703.82
850.577	11682.57
850.9	11574.33
851.223	11570.26
851.546	11520.77
851.869	11459.53
852.192	11504.95
852.515	11402.81
852.838	11315.35
853.161	11364.39
853.483	11286.43
853.806	11187.67
854.129	11204.62
854.451	11197.39
854.774	11158.07
855.096	11132.53
855.419	11043.95
855.741	10996.26
856.063	10964.17
856.385	10949.03
856.708	10977.96
857.03	10908.36
857.352	10958.98
857.674	10908.13
857.996	10793.11
858.318	10783.61
858.64	10766.21
858.961	10735.93
859.283	10681.02
859.605	10652.77
859.926	10688.02
860.248	10606.22
860.57	10539.55
860.891	10620.91
861.212	10456.39
861.534	10500.46
861.855	10484.87
862.176	10473.11
862.498	10469.5
862.819	10461.14
863.14	10373.23
863.461	10391.53
863.782	10322.16
864.103	10269.73
864.424	10358.09
864.745	10298.66
865.065	10302.5
865.386	10207.58
865.707	10274.48
866.027	10246.23
866.348	10224.31
866.668	10158.32
866.989	10158.32
867.309	10091.2
867.63	10109.73
867.95	10154.93
868.27	10059.11
868.59	10107.47
868.91	10034.03
869.23	10040.81
869.55	10005.33
869.87	10025.67
870.19	9981.15
870.51	9996.74
870.83	9978.66
871.15	9933.69
871.469	9981.15
871.789	9947.7
872.109	9961.94
872.428	9907.93
872.748	9886.01
873.067	9926.69
873.386	9824.77
873.706	9863.19
874.025	9786.13
874.344	9776.18
874.663	9737.31
874.982	9752.68
875.301	9705
875.62	9681.5
875.939	9681.72
876.258	9716.98
876.577	9632.68
876.896	9650.09
877.214	9577.54
877.533	9626.36
877.852	9677.88
878.17	9628.16
878.489	9572.35
878.807	9607.15
879.125	9574.16
879.444	9542.29
879.762	9489.64
880.08	9475.4
880.398	9460.03
880.716	9524.89
881.034	9430.66
881.352	9450.32
881.67	9368.06
881.988	9387.72
882.306	9335.07
882.624	9358.12
882.941	9311.34
883.259	9245.58
883.577	9226.82
883.894	9233.6
884.212	9229.31
884.529	9197.89
884.846	9179.59
885.164	9136.88
885.481	9173.26
885.798	9164.22
886.115	9072.02
886.432	9077.9
886.75	9062.76
887.067	9073.38
887.383	9032.47
887.7	8970.56
888.017	8896.43
888.334	8956.77
888.651	8926.71
888.967	8905.92
889.284	8851.69
889.6	8893.27
889.917	8752.26
890.233	8768.53
890.55	8762.42
890.866	8730.56
891.182	8771.69
891.498	8666.38
891.815	8689.66
892.131	8604.69
892.447	8607.4
892.763	8669.55
893.079	8620.06
893.395	8558.81
893.71	8566.27
894.026	8517.69
894.342	8451.02
894.657	8466.16
894.973	8465.48
895.289	8390.46
895.604	8420.06
895.92	8354.53
896.235	8272.04
896.55	8262.33
896.865	8276.34
897.181	8266.39
897.496	8221.87
897.811	8143.46
898.126	8142.55
898.441	8166.28
898.756	8065.49
899.071	8064.14
899.386	8082.22
899.7	8020.3
900.015	8026.85
900.33	7946.63
900.644	7872.96
900.959	7999.96
901.273	7913.18
901.588	7862.11
901.902	7833.64
902.216	7835.22
902.531	7797.7
902.845	7676.35
903.159	7682.45
903.473	7622.34
903.787	7655.79
904.101	7602.23
904.415	7574.66
904.729	7540.54
905.042	7529.24
905.356	7512.51
905.67	7431.84
905.984	7453.53
906.297	7454.21
906.611	7401.78
906.924	7350.94
907.237	7319.07
907.551	7284.27
907.864	7266.87
908.177	7333.54
908.491	7242.24
908.804	7223.71
909.117	7111.39
909.43	7115.01
909.743	7089.93
910.056	7051.51
910.368	7035.69
910.681	6990.72
910.994	6944.17
911.307	6943.26
911.619	6866.66
911.932	6901.23
912.244	6841.12
912.557	6899.88
912.869	6833.89
913.181	6805.64
913.494	6798.63
913.806	6769.93
914.118	6713.44
914.43	6659.2
914.742	6649.71
915.054	6639.32
915.366	6555.7
915.678	6576.72
915.99	6480.9
916.302	6520.22
916.613	6468.47
916.925	6438.42
917.236	6485.42
917.548	6385.54
917.859	6412.2
918.171	6352.54
918.482	6322.72
918.794	6293.56
919.105	6308.93
919.416	6240.91
919.727	6261.93
920.038	6209.72
920.349	6169.72
920.66	6165.88
920.971	6121.82
921.282	6159.1
921.593	6033.68
921.903	6056.28
922.214	6073.91
922.525	6019.9
922.835	5984.64
923.146	5966.57
923.456	5949.84
923.767	5918.43
924.077	5923.86
924.387	5862.16
924.697	5857.42
925.008	5840.69
925.318	5749.4
925.628	5795.27
925.938	5754.14
926.248	5724.09
926.558	5688.83
926.867	5644.77
927.177	5666.46
927.487	5629.4
927.796	5574.26
928.106	5560.25
928.416	5610.42
928.725	5546.46
929.034	5530.87
929.344	5480.25
929.653	5457.65
929.962	5425.56
930.271	5344.44
930.581	5350.99
930.89	5366.81
931.199	5301.5
931.508	5301.5
931.817	5304.66
932.125	5241.61
932.434	5261.95
932.743	5205
933.051	5202.07
933.36	5171.56
933.669	5107.15
933.977	5125.91
934.286	5117.78
934.594	5084.56
934.902	5055.63
935.21	5038.91
935.519	5079.36
935.827	5020.83
936.135	4975.18
936.443	4955.97
936.751	4904.67
937.059	4911.23
937.367	4860.83
937.674	4878.01
937.982	4823.32
938.29	4849.31
938.597	4825.81
938.905	4745.36
939.213	4799.14
939.52	4762.08
939.827	4761.17
940.135	4747.39
940.442	4701.51
940.749	4665.81
941.056	4682.31
941.363	4638.47
941.67	4637.34
941.977	4606.6
942.284	4577.22
942.591	4562.54
942.898	4554.85
943.205	4522.76
943.511	4504.68
943.818	4498.13
944.125	4453.39
944.431	4407.06
944.738	4403.67
945.044	4389.66
945.35	4365.25
945.657	4370.68
945.963	4369.09
946.269	4331.58
946.575	4332.48
946.881	4323.67
947.187	4248.42
947.493	4264.24
947.799	4258.81
948.105	4194.86
948.41	4183.79
948.716	4174.52
949.022	4202.09
949.327	4144.69
949.633	4121.64
949.938	4103.56
950.244	4108.31
950.549	4064.7
950.854	4010.46
951.16	4040.52
951.465	4058.14
951.77	4009.33
952.075	3975.21
952.38	3984.47
952.685	3986.05
952.99	3928.2
953.294	3890.69
953.599	3934.08
953.904	3867.86
954.209	3848.43
954.513	3862.21
954.818	3827.41
955.122	3824.02
955.426	3819.28
955.731	3766.62
956.035	3786.74
956.339	3769.34
956.643	3741.31
956.948	3711.26
957.252	3694.76
957.556	3711.48
957.86	3699.28
958.163	3624.93
958.467	3634.42
958.771	3675.1
959.075	3609.79
959.378	3600.07
959.682	3594.43
959.985	3565.27
960.289	3581.32
960.592	3543.58
960.896	3505.61
961.199	3517.14
961.502	3500.64
961.805	3488.21
962.108	3464.26
962.411	3435.56
962.714	3386.3
963.017	3406.63
963.32	3382.45
963.623	3390.14
963.926	3381.55
964.228	3351.72
964.531	3322.12
964.833	3386.75
965.136	3302.23
965.438	3324.38
965.741	3214.1
966.043	3289.35
966.345	3250.71
966.648	3238.5
966.95	3246.64
967.252	3206.41
967.554	3204.38
967.856	3198.96
968.158	3190.37
968.46	3120.09
968.761	3193.08
969.063	3128.9
969.365	3130.93
969.666	3090.26
969.968	3105.17
970.269	3088
970.571	3091.16
970.872	3060.65
971.174	3031.5
971.475	3045.51
971.776	3002.58
972.077	2966.19
972.378	2954.89
972.679	2967.78
972.98	2951.28
973.281	2948.11
973.582	2937.04
973.883	2913.77
974.183	2912.64
974.484	2863.82
974.785	2902.24
975.085	2892.3
975.386	2854.56
975.686	2847.78
975.986	2850.49
976.287	2814.11
976.587	2783.83
976.887	2766.88
977.187	2750.15
977.487	2810.94
977.787	2782.24
978.087	2709.93
978.387	2735.46
978.687	2714.22
978.987	2696.6
979.286	2651.17
979.586	2685.97
979.885	2660.66
980.185	2702.7
980.484	2675.13
980.784	2642.81
981.083	2636.71
981.382	2674
981.682	2615.92
981.981	2589.93
982.28	2598.52
982.579	2581.8
982.878	2562.36
983.177	2550.16
983.475	2554
983.774	2464.74
984.073	2522.82
984.372	2476.26
984.67	2492.53
984.969	2520.1
985.267	2510.39
985.566	2447.11
985.864	2446.66
986.162	2469.26
986.461	2417.73
986.759	2466.77
987.057	2427.45
987.355	2389.71
987.653	2385.87
987.951	2393.78
988.249	2364.4
988.547	2357.62
988.844	2371.86
989.142	2291.63
989.44	2327.57
989.737	2304.97
990.035	2319.2
990.332	2298.19
990.63	2273.56
990.927	2299.09
991.224	2269.94
991.521	2235.82
991.819	2279.88
992.116	2258.19
992.413	2228.81
992.71	2220
993.006	2192.43
993.303	2211.64
993.6	2193.11
993.897	2192.88
994.193	2186.55
994.49	2147.91
994.787	2129.15
995.083	2113.56
995.379	2093.22
995.676	2130.51
995.972	2122.6
996.268	2107.46
996.565	2085.31
996.861	2066.33
997.157	2063.84
997.453	2070.62
997.749	2010.51
998.044	2048.93
998.34	2028.59
998.636	2014.81
998.932	1993.79
999.227	1990.17
999.523	1981.13
999.818	1971.42
1000.114	1939.55
1000.409	1951.08
1000.704	1940.01
1001	1962.38
1001.295	1954.24
1001.59	1938.65
1001.885	1907.69
1002.18	1881.93
1002.475	1892.32
1002.77	1885.32
1003.065	1887.35
1003.359	1876.28
1003.654	1819.33
1003.949	1824.3
1004.243	1814.36
1004.538	1810.07
1004.832	1810.52
1005.127	1768.71
1005.421	1785.66
1005.715	1780.24
1006.009	1752.44
1006.304	1743.85
1006.598	1713.34
1006.892	1718.54
1007.186	1733.91
1007.48	1751.08
1007.773	1703.85
1008.067	1693.01
1008.361	1697.07
1008.655	1638.77
1008.948	1644.42
1009.242	1656.17
1009.535	1664.08
1009.829	1629.96
1010.122	1619.79
1010.415	1626.34
1010.708	1628.83
1011.001	1589.73
1011.295	1611.43
1011.588	1596.29
1011.881	1568.26
1012.173	1574.59
1012.466	1583.63
1012.759	1568.04
1013.052	1575.95
1013.344	1526.23
1013.637	1510.86
1013.93	1513.8
1014.222	1505.67
1014.514	1500.24
1014.807	1517.87
1015.099	1469.74
1015.391	1487.14
1015.683	1454.59
1015.976	1473.8
1016.268	1464.76
1016.56	1434.26
1016.851	1434.71
1017.143	1469.96
1017.435	1454.14
1017.727	1424.54
1018.018	1374.82
1018.31	1410.75
1018.602	1395.84
1018.893	1381.15
1019.185	1383.64
1019.476	1354.48
1019.767	1349.06
1020.058	1357.87
1020.35	1306.8
1020.641	1328.5
1020.932	1332.56
1021.223	1305.22
1021.514	1327.59
1021.804	1299.34
1022.095	1283.98
1022.386	1297.99
1022.677	1281.04
1022.967	1246.01
1023.258	1258.89
1023.548	1231.32
1023.839	1210.31
1024.129	1203.75
1024.419	1254.83
1024.709	1217.54
1025	1204.21
1025.29	1188.61
1025.58	1195.84
1025.87	1183.42
1026.16	1180.93
1026.449	1183.19
1026.739	1156.75
1027.029	1152.68
1027.319	1141.16
1027.608	1119.24
1027.898	1144.77
1028.187	1128.73
1028.477	1116.75
1028.766	1114.72
1029.055	1106.58
1029.344	1085.11
1029.634	1088.95
1029.923	1086.92
1030.212	1058.9
1030.501	1089.18
1030.79	1048.5
1031.078	1051.22
1031.367	1041.27
1031.656	1046.02
1031.945	1039.46
1032.233	1043.98
1032.522	1024.1
1032.81	1031.78
1033.099	1025.91
1033.387	1008.96
1033.675	1006.02
1033.963	986.58
1034.251	984.55
1034.54	975.96
1034.828	981.39
1035.116	971.44
1035.403	967.15
1035.691	943.2
1035.979	934.61
1036.267	944.33
1036.554	954.49
1036.842	949.3
1037.129	934.16
1037.417	898.45
1037.704	921.05
1037.992	919.47
1038.279	904.78
1038.566	918.79
1038.853	918.79
1039.14	918.79
