Data from hue_200_FLMS001491_00068.txt Node
Date: Tue Feb 07 16:43:47 GMT 2017
User: dcchb
Spectrometer: FLMS00149
Trigger mode: 0
Integration Time (sec): 2.000000E-2
Scans to average: 10
Electric dark correction enabled: true
Nonlinearity correction enabled: false
Boxcar width: 0
XAxis mode: Wavelengths
Number of Pixels in Spectrum: 2048
>>>>>Begin Spectral Data<<<<<
341.393	-0.72
341.776	-0.72
342.16	-0.72
342.543	-58.8
342.927	-62.64
343.31	-91.11
343.693	-70.77
344.077	-45.92
344.46	-49.53
344.843	-60.38
345.226	-57.44
345.61	-46.82
345.993	-18.8
346.376	-6.6
346.759	8.77
347.142	27.3
347.525	40.41
347.908	45.61
348.291	102.1
348.674	116.34
349.057	106.85
349.44	118.15
349.823	120.86
350.206	147.98
350.588	192.72
350.971	207.86
351.354	245.83
351.737	238.82
352.119	262.1
352.502	271.36
352.884	277.24
353.267	292.15
353.65	312.72
354.032	301.19
354.414	311.59
354.797	303.68
355.179	341.42
355.562	329.67
355.944	334.19
356.326	338.48
356.709	335.77
357.091	347.75
357.473	342.55
357.855	335.77
358.238	335.54
358.62	353.62
359.002	336.45
359.384	362.89
359.766	356.56
360.148	324.69
360.53	342.32
360.912	351.59
361.294	323.34
361.676	340.74
362.057	336.22
362.439	342.32
362.821	329.67
363.203	319.72
363.584	293.96
363.966	326.95
364.348	321.31
364.729	338.48
365.111	326.73
365.493	329.21
365.874	340.51
366.256	320.63
366.637	324.24
367.019	318.14
367.4	330.8
367.781	326.73
368.163	317.69
368.544	313.4
368.925	335.77
369.306	331.02
369.688	318.37
370.069	327.63
370.45	312.94
370.831	326.95
371.212	310.91
371.593	322.21
371.974	301.19
372.355	318.82
372.736	328.54
373.117	313.17
373.498	314.98
373.879	309.55
374.26	324.47
374.641	313.17
375.021	320.63
375.402	291.93
375.783	319.5
376.163	325.82
376.544	343.23
376.925	323.56
377.305	338.71
377.686	339.84
378.066	334.19
378.447	310.23
378.827	357.69
379.208	356.78
379.588	349.55
379.968	321.31
380.349	331.02
380.729	339.38
381.109	332.83
381.489	347.07
381.87	356.56
382.25	336.9
382.63	353.17
383.01	355.43
383.39	372.38
383.77	323.79
384.15	345.49
384.53	361.98
384.91	351.59
385.29	382.09
385.67	360.63
386.049	365.6
386.429	364.69
386.809	361.76
387.189	362.43
387.568	375.77
387.948	370.8
388.328	379.16
388.707	387.52
389.087	375.09
389.466	387.74
389.846	380.51
390.225	368.54
390.605	371.25
390.984	393.17
391.363	381.87
391.743	382.32
392.122	372.15
392.501	394.75
392.881	396.56
393.26	398.59
393.639	409.21
394.018	383.9
394.397	387.07
394.776	409.89
395.155	427.07
395.534	429.1
395.913	416.67
396.292	405.6
396.671	432.26
397.05	423.22
397.429	413.51
397.808	416.44
398.186	418.93
398.565	428.87
398.944	425.71
399.323	421.87
399.701	440.17
400.08	422.55
400.458	434.75
400.837	433.84
401.215	457.35
401.594	454.18
401.972	453.05
402.351	452.6
402.729	469.55
403.107	436.1
403.486	458.25
403.864	459.83
404.242	480.17
404.62	475.88
404.999	504.13
405.377	474.07
405.755	484.46
406.133	476.56
406.511	503
406.889	524.92
407.267	524.69
407.645	544.12
408.023	532.15
408.401	531.7
408.779	549.1
409.156	535.76
409.534	546.61
409.912	560.17
410.29	584.8
410.667	604.69
411.045	567.4
411.422	608.3
411.8	625.03
412.178	634.07
412.555	646.27
412.933	627.51
413.31	650.11
413.687	648.08
414.065	656.89
414.442	689.88
414.819	699.83
415.197	694.18
415.574	709.09
415.951	726.49
416.328	707.96
416.705	757.45
417.082	749.09
417.46	754.51
417.837	770.33
418.214	802.2
418.591	777.79
418.967	798.58
419.344	797.9
419.721	810.56
420.098	831.8
420.475	841.52
420.852	855.75
421.228	875.41
421.605	915.64
421.982	900.95
422.358	942.08
422.735	943.89
423.111	947.28
423.488	970.78
423.864	975.3
424.241	1000.38
424.617	1017.33
424.994	1044.22
425.37	1068.18
425.746	1077.67
426.123	1081.51
426.499	1102.3
426.875	1119.48
427.251	1127.61
427.627	1121.28
428.003	1175.97
428.379	1183.66
428.756	1195.41
429.132	1216.87
429.507	1194.05
429.883	1254.39
430.259	1247.16
430.635	1277.66
431.011	1267.27
431.387	1304.33
431.763	1326.48
432.138	1351.79
432.514	1363.54
432.89	1373.71
433.265	1415.97
433.641	1425.23
434.016	1428.17
434.392	1450.77
434.767	1514.95
435.143	1538.9
435.518	1563.08
435.894	1578.45
436.269	1609.63
436.644	1648.5
437.02	1670.65
437.395	1682.17
437.77	1718.1
438.145	1769.4
438.52	1775.5
438.895	1815.73
439.271	1852.11
439.646	1876.97
440.021	1895.28
440.395	1909.74
440.77	1909.74
441.145	1971.88
441.52	2004.65
441.895	2053.24
442.27	2074.48
442.645	2060.69
443.019	2097.08
443.394	2110.86
443.769	2171.2
444.143	2126.91
444.518	2170.75
444.892	2179.11
445.267	2211.2
445.641	2256.17
446.016	2260.92
446.39	2286.9
446.764	2285.55
447.139	2300.24
447.513	2324.19
447.887	2370.97
448.262	2349.05
448.636	2369.61
449.01	2431.53
449.384	2441.02
449.758	2440.8
450.132	2483.51
450.506	2494.58
450.88	2527.57
451.254	2546.11
451.628	2576.61
452.002	2616.84
452.376	2578.65
452.75	2646.22
453.123	2661.58
453.497	2716.27
453.871	2736.38
454.244	2777.51
454.618	2801.69
454.992	2822.26
455.365	2840.33
455.739	2892.54
456.112	2942.93
456.486	2936.15
456.859	2997.84
457.232	3042.36
457.606	3066.09
457.979	3099.09
458.352	3178.41
458.725	3163.72
459.099	3184.28
459.472	3283.04
459.845	3267.67
460.218	3329.59
460.591	3340.21
460.964	3378.17
461.337	3445.97
461.71	3503.59
462.083	3539.75
462.456	3583.59
462.829	3592.86
463.201	3644.83
463.574	3615.46
463.947	3695.91
464.32	3778.62
464.692	3802.12
465.065	3809.35
465.438	3920.53
465.81	3964.15
466.183	3990.59
466.555	4082.34
466.928	4095.9
467.3	4108.78
467.672	4171.15
468.045	4269.9
468.417	4250.69
468.789	4318.04
469.161	4352.84
469.534	4455.43
469.906	4538.14
470.278	4595.09
470.65	4605.03
471.022	4695.43
471.394	4731.13
471.766	4799.83
472.138	4897.23
472.51	4969.54
472.882	4995.76
473.253	5078.92
473.625	5131.8
473.997	5238.24
474.369	5303.55
474.74	5334.73
475.112	5424
475.484	5480.04
475.855	5639.13
476.227	5624.44
476.598	5778.11
476.97	5854.49
477.341	5939.24
477.713	6031.21
478.084	6086.8
478.455	6237.76
478.827	6245.9
479.198	6425.78
479.569	6420.35
479.94	6591.65
480.311	6640.24
480.682	6821.93
481.053	6953
481.424	7013.33
481.795	7064.86
482.166	7184.85
482.537	7388.92
482.908	7424.17
483.279	7496.03
483.65	7590.27
484.021	7728.12
484.391	7879.98
484.762	7905.74
485.133	7908.45
485.503	8066.19
485.874	8230.93
486.244	8317.71
486.615	8473.41
486.985	8468.21
487.356	8651.26
487.726	8699.16
488.097	8826.17
488.467	8882.44
488.837	9015.31
489.207	9187.51
489.578	9218.25
489.948	9308.64
490.318	9444.46
490.688	9445.81
491.058	9580.95
491.428	9706.82
491.798	9716.31
492.168	9994.27
492.538	9938.68
492.908	10126.92
493.278	10166.24
493.648	10215.51
494.017	10277.2
494.387	10363.07
494.757	10472.22
495.126	10522.39
495.496	10628.6
495.866	10612.56
496.235	10739.79
496.605	10872.44
496.974	10819.56
497.344	10936.62
497.713	10898.43
498.082	11026.33
498.452	11129.16
498.821	11104.75
499.19	11102.49
499.559	11276.95
499.928	11302.71
500.298	11355.14
500.667	11396.49
501.036	11422.48
501.405	11448.7
501.774	11451.41
502.143	11599.65
502.512	11560.33
502.88	11575.02
503.249	11661.12
503.618	11755.58
503.987	11719.88
504.356	11790.16
504.724	11800.78
505.093	11894.56
505.462	11841
505.83	11906.99
506.199	12032.18
506.567	12090.26
506.936	12099.07
507.304	12130.26
507.672	12241.67
508.041	12265.62
508.409	12320.31
508.777	12351.72
509.145	12450.03
509.514	12397.6
509.882	12428.11
510.25	12450.48
510.618	12465.84
510.986	12477.82
511.354	12598.27
511.722	12626.74
512.09	12656.35
512.458	12626.52
512.826	12699.51
513.193	12719.62
513.561	12750.36
513.929	12760.07
514.297	12915.32
514.664	12791.94
515.032	12911.03
515.4	12868.09
515.767	12886.17
516.135	12941.09
516.502	12843.91
516.869	13045.04
517.237	13004.14
517.604	12894.31
517.972	13103.12
518.339	13129.33
518.706	13061.08
519.073	13075.09
519.44	13148.31
519.808	13211.14
520.175	13144.7
520.542	13252.94
520.909	13267.18
521.276	13222.89
521.643	13353.96
522.009	13360.28
522.376	13332.71
522.743	13286.61
523.11	13440.73
523.477	13480.73
523.843	13440.96
524.21	13538.58
524.577	13566.15
524.943	13527.29
525.31	13622.65
525.676	13586.49
526.043	13636.21
526.409	13668.52
526.776	13627.4
527.142	13720.05
527.508	13729.09
527.874	13794.62
528.241	13677.11
528.607	13691.35
528.973	13762.53
529.339	13737.22
529.705	13814.28
530.071	13792.36
530.437	13797.33
530.803	13812.25
531.169	13754.4
531.535	13644.8
531.901	13675.08
532.267	13635.31
532.632	13685.25
532.998	13668.07
533.364	13649.54
533.73	13704.68
534.095	13690.67
534.461	13725.7
534.826	13647.51
535.192	13697.68
535.557	13669.43
535.923	13664.46
536.288	13560.51
536.653	13572.03
537.019	13503.56
537.384	13415.88
537.749	13425.37
538.114	13383.33
538.479	13274.86
538.845	13354.18
539.21	13212.04
539.575	13216.79
539.94	13196.9
540.305	13156.67
540.67	13164.81
541.034	13231.25
541.399	13102.89
541.764	13043
542.129	13026.73
542.494	13017.92
542.858	12977.7
543.223	12900.86
543.587	12957.36
543.952	12806.85
544.316	12814.08
544.681	12753.97
545.045	12711.71
545.41	12693.64
545.774	12707.42
546.138	12701.32
546.503	12632.62
546.867	12569.57
547.231	12478.05
547.595	12485.51
547.959	12466.75
548.324	12407.32
548.688	12321.22
549.052	12316.24
549.416	12355.11
549.779	12203.03
550.143	12224.27
550.507	12261.1
550.871	12227.43
551.235	12151.95
551.599	12126.42
551.962	12078.96
552.326	12014.78
552.689	11982.24
553.053	11984.73
553.417	11945.86
553.78	12011.62
554.143	11919.87
554.507	11920.77
554.87	11948.8
555.234	11915.35
555.597	11828.35
555.96	11785.86
556.323	11826.54
556.686	11804.39
557.05	11821.34
557.413	11802.59
557.776	11699.99
558.139	11798.97
558.502	11735.02
558.865	11656.83
559.228	11721.46
559.59	11721.91
559.953	11662.02
560.316	11752.87
560.679	11651.4
561.041	11742.02
561.404	11674.68
561.767	11706.99
562.129	11700.44
562.492	11746.09
562.854	11680.33
563.217	11648.69
563.579	11653.44
563.941	11727.56
564.304	11715.36
564.666	11726.43
565.028	11812.98
565.39	11663.15
565.753	11718.75
566.115	11707.22
566.477	11784.96
566.839	11762.36
567.201	11801.68
567.563	11801
567.925	11826.99
568.287	11796.26
568.648	11778.86
569.01	11856.6
569.372	11786.54
569.734	11784.28
570.095	11879.65
570.457	11863.37
570.819	11777.5
571.18	11806.65
571.542	11858.85
571.903	11850.04
572.265	11914.22
572.626	11939.98
572.987	11872.41
573.349	11920.1
573.71	11944.73
574.071	11892.3
574.432	11990.6
574.794	12018.17
575.155	11993.09
575.516	11901.57
575.877	11926.65
576.238	12010.72
576.599	12048.68
576.96	12002.35
577.32	11930.04
577.681	12000.32
578.042	12048.68
578.403	11992.18
578.763	12009.81
579.124	11965.74
579.485	12121.45
579.845	12081.45
580.206	12059.08
580.566	12093.2
580.927	12054.33
581.287	12065.4
581.648	12018.62
582.008	12054.56
582.368	12063.14
582.728	12135.68
583.089	12017.95
583.449	12088.91
583.809	11960.77
584.169	11992.64
584.529	12013.65
584.889	12050.26
585.249	12027.21
585.609	11940.66
585.969	12012.3
586.329	11936.82
586.688	11969.59
587.048	11928.23
587.408	11898.18
587.768	11992.86
588.127	11963.48
588.487	11901.57
588.846	11963.71
589.206	11848.91
589.565	11916.71
589.925	11958.97
590.284	11902.24
590.643	11910.83
591.003	11928.01
591.362	11960.1
591.721	11882.36
592.08	11906.76
592.44	11876.26
592.799	11951.51
593.158	11884.84
593.517	11919.64
593.876	11878.74
594.235	11826.31
594.593	11854.79
594.952	11865.63
595.311	11839.65
595.67	11829.25
596.029	11895.46
596.387	11869.02
596.746	11934.56
597.104	11779.99
597.463	11806.2
597.822	11843.26
598.18	11792.42
598.538	11851.62
598.897	11855.92
599.255	11740.89
599.613	12028.79
599.972	11855.24
600.33	11775.92
600.688	11779.76
601.046	11858.63
601.404	11863.37
601.762	11839.87
602.12	11835.13
602.478	11862.24
602.836	11852.08
603.194	11886.65
603.552	11832.41
603.91	11744.06
604.268	11819.99
604.625	11804.17
604.983	11766.88
605.341	11724.62
605.698	11800.55
606.056	11791.74
606.413	11798.52
606.771	11833.54
607.128	11825.86
607.485	11790.16
607.843	11804.84
608.2	11927.33
608.557	11909.47
608.914	11839.65
609.272	11870.38
609.629	11841.68
609.986	11895.92
610.343	11877.16
610.7	11944.73
611.057	11960.1
611.414	11892.75
611.771	11999.87
612.127	11991.96
612.484	12000.55
612.841	11957.16
613.198	11959.64
613.554	11970.04
613.911	12021.11
614.267	12018.62
614.624	11993.54
614.98	11993.77
615.337	12064.73
615.693	12077.38
616.05	11974.33
616.406	12076.25
616.762	12026.53
617.118	11949.7
617.475	12017.04
617.831	12070.15
618.187	12077.15
618.543	12051.39
618.899	12134.55
619.255	12054.78
619.611	12075.8
619.967	12090.04
620.323	12167.32
620.678	12038.06
621.034	12073.31
621.39	12052.07
621.746	12072.41
622.101	12208
622.457	12093.88
622.812	12156.47
623.168	12083.93
623.523	12113.99
623.879	12184.27
624.234	12068.34
624.589	12122.12
624.945	12177.72
625.3	12066.76
625.655	12120.77
626.01	12107.44
626.365	12078.51
626.72	12076.48
627.075	12052.97
627.43	12037.83
627.785	12031.73
628.14	12130.03
628.495	12036.25
628.85	12099.75
629.205	12001.22
629.559	11990.38
629.914	11943.37
630.269	12004.16
630.623	12011.62
630.978	11972.52
631.332	11993.77
631.687	11970.72
632.041	11910.6
632.396	11923.03
632.75	11878.52
633.104	11937.72
633.459	11797.84
633.813	11823.38
634.167	11784.28
634.521	11788.8
634.875	11792.64
635.229	11761.68
635.583	11716.49
635.937	11730.27
636.291	11679.2
636.645	11747.9
636.999	11719.65
637.352	11718.97
637.706	11622.93
638.06	11668.8
638.413	11661.8
638.767	11600.1
639.121	11591.74
639.474	11560.33
639.828	11615.25
640.181	11569.37
640.534	11591.74
640.888	11520.78
641.241	11522.14
641.594	11560.11
641.947	11536.38
642.301	11527.56
642.654	11497.73
643.007	11580.9
643.36	11492.76
643.713	11459.77
644.066	11546.77
644.419	11439.66
644.771	11325.76
645.124	11323.73
645.477	11287.8
645.83	11209.15
646.182	11143.17
646.535	11151.75
646.888	11118.31
647.24	11042.38
647.593	11130.51
647.945	11043.28
648.298	11083.96
648.65	11039.89
649.002	10994.92
649.355	11075.15
649.707	11078.08
650.059	11107.69
650.411	11250.51
650.763	11210.06
651.115	11355.82
651.467	11332.32
651.819	11333.9
652.171	11271.07
652.523	11327.57
652.875	11262.94
653.227	11297.06
653.578	11319.21
653.93	11342.48
654.282	11219.78
654.633	11330.06
654.985	11291.19
655.337	11290.28
655.688	11305.2
656.039	11316.95
656.391	11232.2
656.742	11312.88
657.094	11295.48
657.445	11339.77
657.796	11232.2
658.147	11252.32
658.498	11309.26
658.849	11347.23
659.2	11282.6
659.551	11320.11
659.902	11328.02
660.253	11380.9
660.604	11302.94
660.955	11273.33
661.306	11309.94
661.656	11319.66
662.007	11348.13
662.358	11334.12
662.708	11315.37
663.059	11338.64
663.409	11273.11
663.76	11348.59
664.11	11366.44
664.461	11378.87
664.811	11311.75
665.161	11390.17
665.511	11312.2
665.862	11309.49
666.212	11375.48
666.562	11392.65
666.912	11354.01
667.262	11309.72
667.612	11306.33
667.962	11277.4
668.312	11305.65
668.662	11335.03
669.011	11306.1
669.361	11302.94
669.711	11285.08
670.06	11246.22
670.41	11310.85
670.76	11178.19
671.109	11305.2
671.459	11226.33
671.808	11225.43
672.157	11251.87
672.507	11187.01
672.856	11205.99
673.205	11168.03
673.554	11137.07
673.904	11174.81
674.253	11196.27
674.602	11193.34
674.951	11099.33
675.3	11039.44
675.649	11173.9
675.998	11137.52
676.346	11214.13
676.695	11171.19
677.044	11113.56
677.393	11172.55
677.741	11120.57
678.09	11138.2
678.438	11037.86
678.787	11108.37
679.135	11024.07
679.484	10935.26
679.832	11040.8
680.181	10991.53
680.529	10982.04
680.877	10940.69
681.225	10898.2
681.573	10938.2
681.922	10938.43
682.27	10886.9
682.618	10902.04
682.966	10837.41
683.314	10869.5
683.661	10837.19
684.009	10784.31
684.357	10731.65
684.705	10776.4
685.053	10709.51
685.4	10657.53
685.748	10658.66
686.095	10600.13
686.443	10579.34
686.79	10630.19
687.138	10624.99
687.485	10540.7
687.832	10485.33
688.18	10536.18
688.527	10422.73
688.874	10402.85
689.221	10474.03
689.568	10405.33
689.915	10334.83
690.262	10361.95
690.609	10311.1
690.956	10228.84
691.303	10218.9
691.65	10170.54
691.997	10118.79
692.344	10074.27
692.69	10105
693.037	10033.82
693.383	10047.6
693.73	10057.77
694.077	10034.27
694.423	10008.96
694.769	9894.61
695.116	9922.41
695.462	9883.99
695.808	9806.71
696.155	9817.78
696.501	9725.8
696.847	9690.1
697.193	9657.56
697.539	9634.51
697.885	9570.55
698.231	9652.59
698.577	9520.61
698.923	9471.35
699.269	9483.78
699.614	9381.86
699.96	9443.55
700.306	9371.24
700.651	9309.77
700.997	9284.01
701.342	9258.02
701.688	9221.18
702.033	9226.38
702.379	9209.43
702.724	9215.53
703.069	9190.22
703.415	9015.77
703.76	9049.21
704.105	9032.26
704.45	9037.69
704.795	8943
705.14	8930.12
705.485	8902.77
705.83	8843.34
706.175	8868.2
706.52	8775.77
706.865	8837.24
707.209	8788.2
707.554	8738.71
707.899	8734.87
708.243	8724.7
708.588	8675.21
708.932	8652.84
709.277	8625.04
709.621	8593.18
709.966	8594.99
710.31	8529.9
710.654	8521.09
710.998	8514.08
711.342	8526.51
711.687	8431.37
712.031	8433.63
712.375	8418.49
712.719	8423.46
713.063	8399.28
713.407	8446.29
713.75	8402.22
714.094	8360.64
714.438	8326.07
714.782	8286.07
715.125	8282
715.469	8318.38
715.812	8284.03
716.156	8160.2
716.499	8198.16
716.843	8247.42
717.186	8181.89
717.53	8221.89
717.873	8193.19
718.216	8170.59
718.559	8129.69
718.902	8079.75
719.246	8135.34
719.589	8077.71
719.932	8093.08
720.275	8095.11
720.617	8034.32
720.96	8049.92
721.303	8031.61
721.646	8020.09
721.989	7988.67
722.331	8040.65
722.674	7972.4
723.016	7990.48
723.359	7945.51
723.701	7998.84
724.044	7948.9
724.386	7946.64
724.729	7955.68
725.071	7934.21
725.413	7933.08
725.755	7985.06
726.097	7877.94
726.439	7881.56
726.782	7918.17
727.124	7883.37
727.465	7932.4
727.807	7846.76
728.149	7856.7
728.491	7846.98
728.833	7890.82
729.175	7834.78
729.516	7849.69
729.858	7836.81
730.199	7865.51
730.541	7812.86
730.882	7835.23
731.224	7891.73
731.565	7832.75
731.906	7814.89
732.248	7895.8
732.589	7774.67
732.93	7788
733.271	7800.2
733.612	7834.78
733.953	7805.63
734.294	7821.9
734.635	7767.66
734.976	7867.77
735.317	7738.74
735.658	7781.22
735.999	7860.77
736.339	7851.95
736.68	7853.76
737.021	7823.25
737.361	7797.27
737.702	7849.47
738.042	7817.61
738.383	7808.11
738.723	7856.25
739.063	7827.77
739.404	7885.63
739.744	7891.95
740.084	7837.49
740.424	7906.64
740.764	7879.98
741.104	7968.79
741.444	7893.31
741.784	7934.89
742.124	7892.18
742.464	7968.56
742.804	7895.12
743.143	7979.18
743.483	7975.79
743.823	8040.42
744.162	8046.75
744.502	8044.72
744.841	8042.01
745.181	8117.26
745.52	8147.09
745.86	8225.96
746.199	8264.83
746.538	8183.25
746.877	8351.83
747.216	8345.27
747.556	8384.37
747.895	8484.25
748.234	8455.33
748.573	8538.94
748.911	8540.3
749.25	8641.54
749.589	8686.28
749.928	8733.74
750.267	8867.3
750.605	8896.9
750.944	8938.25
751.283	8995.88
751.621	9148.19
751.96	9209.66
752.298	9245.36
752.636	9472.02
752.975	9410.78
753.313	9560.16
753.651	9595.64
753.989	9760.38
754.327	9881.73
754.666	9928.96
755.004	10120.6
755.342	10353.81
755.679	10410.53
756.017	10479.46
756.355	10670.64
756.693	10798.54
757.031	10967.58
757.368	11038.99
757.706	11198.31
758.044	11347.23
758.381	11510.62
758.719	11690.95
759.056	11937.04
759.394	12008.23
759.731	12192.86
760.068	12279.41
760.405	12461.32
760.743	12650.47
761.08	12849.34
761.417	12971.37
761.754	13215.43
762.091	13375.88
762.428	13592.59
762.765	13637.11
763.102	13957.1
763.438	14129.08
763.775	14218.11
764.112	14421.27
764.449	14696.29
764.785	14829.17
765.122	14932.9
765.458	15179.9
765.795	15215.38
766.131	15496.73
766.467	15671.64
766.804	15811.75
767.14	15918.64
767.476	16147.78
767.812	16241.79
768.148	16419.41
768.485	16503.25
768.821	16540.09
769.157	16787.09
769.492	16966.52
769.828	17113.63
770.164	17151.37
770.5	17196.57
770.836	17427.97
771.171	17493.73
771.507	17569.89
771.842	17728.98
772.178	17792.71
772.513	17949.09
772.849	18042.2
773.184	18057.79
773.519	18158.58
773.855	18324.22
774.19	18371.9
774.525	18469.53
774.86	18590.66
775.195	18698.68
775.53	18703.87
775.865	18713.14
776.2	18675.4
776.535	18729.41
776.87	18837.65
777.205	18864.32
777.539	18945.22
777.874	19102.51
778.209	18999.68
778.543	19011.44
778.878	19002.17
779.212	19083.52
779.547	19078.33
779.881	19232.67
780.215	19134.14
780.55	19335.95
780.884	19244.65
781.218	19306.34
781.552	19334.36
781.886	19330.75
782.22	19326.91
782.554	19344.31
782.888	19191.32
783.222	19227.7
783.556	19260.47
783.889	19285.78
784.223	19061.15
784.557	19067.7
784.89	19262.73
785.224	19240.81
785.557	19191.32
785.891	19185.44
786.224	19179.79
786.558	19207.14
786.891	19050.53
787.224	19096.63
787.557	19032
787.891	19101.15
788.224	19129.85
788.557	19109.29
788.89	19022.73
789.223	19078.78
789.556	19026.8
789.888	19027.03
790.221	18972.11
790.554	18889.4
790.887	18873.59
791.219	18816.86
791.552	18874.94
791.884	18805.79
792.217	18767.15
792.549	18742.52
792.882	18631.78
793.214	18624.33
793.546	18616.64
793.879	18510.43
794.211	18471.79
794.543	18639.24
794.875	18578
795.207	18568.73
795.539	18513.82
795.871	18493.71
796.203	18330.78
796.535	18273.15
796.867	18242.64
797.198	18246.26
797.53	18238.35
797.862	18095.98
798.193	18102.53
798.525	18109.76
798.856	18093.27
799.188	17929.2
799.519	17892.14
799.85	17757.91
800.182	17925.14
800.513	17860.05
800.844	17730.56
801.175	17793.39
801.506	17825.03
801.837	17678.81
802.168	17717.46
802.499	17664.13
802.83	17494.64
803.161	17454.41
803.491	17551.13
803.822	17460.74
804.153	17469.33
804.483	17367.86
804.814	17230.47
805.145	17289.45
805.475	17264.81
805.805	17133.07
806.136	17259.84
806.466	17187.75
806.796	17160.64
807.126	17187.53
807.457	17102.11
807.787	17082.67
808.117	16971.71
808.447	16950.47
808.777	16946.86
809.107	16904.37
809.436	16723.81
809.766	16824.6
810.096	16706.86
810.426	16667.77
810.755	16652.85
811.085	16689.46
811.414	16651.05
811.744	16538.73
812.073	16508.9
812.403	16513.2
812.732	16483.82
813.061	16446.53
813.39	16444.27
813.719	16262.13
814.049	16347.78
814.378	16397.04
814.707	16267.55
815.036	16259.87
815.365	16218.29
815.693	16097.61
816.022	16189.36
816.351	16037.73
816.68	15956.15
817.008	16068.69
817.337	15951.85
817.665	15823.04
817.994	15952.76
818.322	15929.93
818.651	15819.88
818.979	15724.74
819.307	15835.93
819.636	15771.97
819.964	15804.29
820.292	15750.73
820.62	15763.16
820.948	15582.82
821.276	15725.65
821.604	15763.61
821.932	15731.75
822.259	15715.7
822.587	15678.64
822.915	15652.2
823.243	15750.28
823.57	15638.87
823.898	15764.29
824.225	15702.82
824.553	15656.27
824.88	15777.17
825.207	15739.2
825.535	15721.13
825.862	15816.26
826.189	15814.23
826.516	15734.46
826.843	15687.91
827.17	15721.8
827.497	15774.91
827.824	15816.94
828.151	15780.56
828.478	15736.94
828.805	15828.02
829.131	15769.03
829.458	15769.71
829.785	15661.24
830.111	15710.96
830.438	15801.58
830.764	15787.34
831.09	15840.22
831.417	15735.36
831.743	15763.61
832.069	15683.61
832.395	15672.31
832.722	15758.19
833.048	15659.21
833.374	15727.23
833.7	15582.37
834.026	15621.47
834.351	15641.13
834.677	15682.26
835.003	15597.74
835.329	15594.35
835.654	15558.64
835.98	15611.75
836.306	15581.02
836.631	15524.97
836.956	15568.14
837.282	15548.02
837.607	15453.56
837.932	15498.99
838.258	15480.91
838.583	15410.63
838.908	15374.92
839.233	15402.49
839.558	15281.36
839.883	15257.18
840.208	15213.34
840.533	15245.21
840.858	15238.65
841.182	15213.57
841.507	15203.63
841.832	15200.24
842.156	15120.01
842.481	15142.61
842.805	15162.5
843.13	15010.86
843.454	15077.08
843.778	14974.48
844.103	14965.44
844.427	14795.73
844.751	14916.4
845.075	14832.79
845.399	14774.26
845.723	14694.94
846.047	14782.39
846.371	14608.39
846.695	14665.11
847.019	14513.02
847.343	14379.69
847.666	14370.43
847.99	14304.44
848.313	14344.44
848.637	14227.61
848.96	14183.31
849.284	14137.21
849.607	14080.27
849.931	14036.65
850.254	13949.42
850.577	13823.1
850.9	13798.24
851.223	13803.44
851.546	13719.37
851.869	13646.6
852.192	13689.99
852.515	13510.56
852.838	13507.63
853.161	13491.13
853.483	13436.21
853.806	13307.86
854.129	13328.19
854.451	13341.75
854.774	13199.84
855.096	13262.89
855.419	13174.98
855.741	13067.86
856.063	13037.58
856.385	13031.03
856.708	12996
857.03	12908.54
857.352	12906.74
857.674	12899.73
857.996	12799.17
858.318	12824.25
858.64	12798.27
858.961	12715.56
859.283	12685.5
859.605	12721.66
859.926	12706.06
860.248	12605.5
860.57	12575.45
860.891	12575.67
861.212	12463.36
861.534	12448.22
861.855	12469.46
862.176	12450.25
862.498	12408.9
862.819	12491.15
863.14	12330.48
863.461	12295.23
863.782	12261.1
864.103	12262.69
864.424	12317.15
864.745	12255.68
865.065	12172.97
865.386	12098.62
865.707	12107.21
866.027	12139.07
866.348	12134.55
866.668	12135.23
866.989	12121.45
867.309	11985.86
867.63	12071.96
867.95	12014.56
868.27	11943.6
868.59	11987.44
868.91	11962.35
869.23	11872.87
869.55	11857.95
869.87	11960.55
870.19	11818.18
870.51	11810.72
870.83	11904.96
871.15	11762.59
871.469	11763.72
871.789	11811.85
872.109	11784.96
872.428	11727.11
872.748	11752.87
873.067	11601.23
873.386	11728.91
873.706	11615.7
874.025	11581.35
874.344	11574.12
874.663	11655.92
874.982	11605.98
875.301	11592.42
875.62	11589.48
875.939	11645.3
876.258	11515.14
876.577	11481.69
876.896	11465.19
877.214	11420.9
877.533	11485.31
877.852	11527.11
878.17	11395.59
878.489	11368.92
878.807	11398.75
879.125	11372.77
879.444	11338.64
879.762	11304.07
880.08	11356.95
880.398	11255.93
880.716	11319.43
881.034	11232.43
881.352	11249.38
881.67	11163.73
881.988	11117.41
882.306	11103.39
882.624	11138.42
882.941	11112.66
883.259	11040.8
883.577	11053.68
883.894	11006.22
884.212	10980.91
884.529	10948.6
884.846	10943.17
885.164	10901.14
885.481	10832.22
885.798	10877.64
886.115	10794.25
886.432	10807.13
886.75	10805.55
887.067	10796.74
887.383	10784.53
887.7	10770.52
888.017	10702.95
888.334	10652.78
888.651	10598.1
888.967	10603.97
889.284	10600.13
889.6	10510.64
889.917	10450.76
890.233	10565.56
890.55	10439.46
890.866	10445.78
891.182	10347.71
891.498	10319.23
891.815	10236.98
892.131	10267.71
892.447	10302.51
892.763	10227.71
893.079	10116.75
893.395	10218.45
893.71	10171.44
894.026	10166.92
894.342	10000.82
894.657	9982.52
894.973	9985.23
895.289	9993.37
895.604	9948.62
895.92	9876.53
896.235	9825.69
896.55	9801.28
896.865	9821.39
897.181	9751.11
897.496	9776.88
897.811	9749.08
898.126	9665.92
898.441	9686.26
898.756	9610.78
899.071	9524.45
899.386	9559.25
899.7	9484.91
900.015	9491.46
900.33	9348.64
900.644	9360.16
900.959	9377.11
901.273	9309.54
901.588	9277.68
901.902	9228.87
902.216	9262.99
902.531	9169.21
902.845	9139.15
903.159	9138.93
903.473	8994.3
903.787	9048.53
904.101	8978.93
904.415	9006.05
904.729	8964.47
905.042	8879.27
905.356	8855.32
905.67	8829.78
905.984	8827.97
906.297	8798.6
906.611	8733.29
906.924	8735.32
907.237	8752.5
907.551	8616.91
907.864	8648.09
908.177	8585.04
908.491	8601.31
908.804	8491.26
909.117	8475.44
909.43	8404.93
909.743	8366.29
910.056	8365.39
910.368	8314.09
910.681	8312.51
910.994	8255.33
911.307	8241.77
911.619	8157.71
911.932	8205.84
912.244	8141.66
912.557	8149.12
912.869	8053.08
913.181	8047.66
913.494	7994.32
913.806	7952.06
914.118	7914.1
914.43	7895.8
914.742	7824.61
915.054	7851.95
915.366	7832.97
915.678	7829.13
915.99	7733.99
916.302	7675.69
916.613	7594.33
916.925	7616.48
917.236	7610.83
917.548	7574.22
917.859	7536.93
918.171	7495.13
918.482	7466.43
918.794	7428.91
919.105	7427.11
919.416	7372.19
919.727	7387.56
920.038	7284.06
920.349	7304.17
920.66	7217.39
920.971	7239.54
921.282	7246.55
921.593	7146.21
921.903	7145.53
922.214	7130.84
922.525	7110.05
922.835	7026.89
923.146	7032.32
923.456	7018.53
923.767	6927.91
924.077	6946.67
924.387	6937.18
924.697	6907.57
925.008	6888.14
925.318	6831.87
925.628	6781.47
925.938	6764.07
926.248	6684.53
926.558	6716.17
926.867	6691.31
927.177	6621.25
927.487	6628.94
927.796	6573.34
928.106	6562.5
928.416	6532.22
928.725	6495.83
929.034	6509.39
929.344	6462.39
929.653	6496.06
929.962	6374.25
930.271	6383.97
930.581	6362.05
930.89	6345.55
931.199	6320.47
931.508	6233.69
931.817	6276.4
932.125	6301.94
932.434	6190.3
932.743	6116.41
933.051	6172.22
933.36	6138.1
933.669	6122.96
933.977	6081.38
934.286	6079.57
934.594	6085.45
934.902	5960.25
935.21	5976.07
935.519	5951.89
935.827	5956.86
936.135	5899.46
936.443	5852.91
936.751	5896.98
937.059	5868.73
937.367	5851.1
937.674	5815.4
937.982	5760.71
938.29	5764.55
938.597	5714.38
938.905	5675.06
939.213	5671.9
939.52	5601.84
939.827	5615.86
940.135	5585.8
940.442	5569.08
940.749	5511.45
941.056	5554.16
941.363	5440.49
941.67	5488.4
941.977	5442.3
942.284	5439.36
942.591	5325.47
942.898	5356.2
943.205	5409.31
943.511	5352.59
943.818	5303.55
944.125	5244.79
944.431	5254.06
944.738	5228.52
945.044	5197.11
945.35	5191.69
945.657	5142.87
945.963	5141.29
946.269	5087.06
946.575	5122.76
946.881	5121.18
947.187	5121.63
947.493	5022.42
947.799	5054.51
948.105	5001.86
948.41	4982.2
948.716	4954.86
949.022	4892.03
949.327	4941.75
949.633	4891.13
949.938	4836.44
950.244	4880.96
950.549	4817.91
950.854	4833.5
951.16	4767.97
951.465	4724.58
951.77	4727.52
952.075	4751.25
952.38	4689.1
952.685	4681.42
952.99	4650.68
953.294	4667.86
953.599	4672.83
953.904	4628.99
954.209	4530.69
954.513	4569.33
954.818	4524.81
955.122	4502.66
955.426	4488.88
955.731	4497.69
956.035	4463.57
956.339	4426.28
956.643	4426.73
956.948	4395.32
957.252	4389.22
957.556	4374.98
957.86	4354.87
958.163	4332.5
958.467	4352.39
958.771	4269.9
959.075	4327.53
959.378	4212.05
959.682	4264.7
959.985	4218.38
960.289	4220.64
960.592	4217.47
960.896	4168.89
961.199	4221.99
961.502	4163.01
961.805	4153.75
962.108	4094.09
962.411	4089.12
962.714	4027.87
963.017	4037.37
963.32	4041.21
963.623	4006.41
963.926	3985.16
964.228	3925.73
964.531	3948.33
964.833	3952.85
965.136	3919.63
965.438	3905.62
965.741	3875.79
966.043	3879.18
966.345	3809.57
966.648	3823.59
966.95	3833.3
967.252	3827.65
967.554	3817.71
967.856	3773.19
968.158	3756.7
968.46	3697.94
968.761	3689.58
969.063	3678.5
969.365	3691.16
969.666	3711.05
969.968	3670.14
970.269	3636.47
970.571	3655.91
970.872	3621.56
971.174	3578.62
971.475	3593.99
971.776	3592.18
972.077	3546.53
972.378	3523.93
972.679	3551.05
972.98	3533.42
973.281	3470.6
973.582	3483.26
973.883	3466.76
974.183	3442.35
974.484	3431.05
974.785	3379.98
975.085	3381.79
975.386	3411.62
975.686	3341.11
975.986	3364.61
976.287	3321.9
976.587	3319.19
976.887	3320.32
977.187	3284.62
977.487	3288.46
977.787	3279.19
978.087	3266.54
978.387	3268.8
978.687	3232.64
978.987	3220.44
979.286	3151.74
979.586	3188.8
979.885	3123.27
980.185	3146.32
980.484	3147.45
980.784	3101.35
981.083	3103.6
981.382	3121.91
981.682	3078.52
981.981	3119.65
982.28	3088.46
982.579	3021.57
982.878	3005.08
983.177	2983.83
983.475	3006.21
983.774	2979.77
984.073	2970.95
984.372	2968.24
984.67	2923.5
984.969	2915.14
985.267	2927.11
985.566	2916.72
985.864	2899.54
986.162	2863.84
986.461	2839.43
986.759	2822.26
987.057	2844.18
987.355	2810.28
987.653	2810.28
987.951	2805.31
988.249	2774.12
988.547	2788.58
988.844	2751.75
989.142	2790.62
989.44	2716.72
989.737	2736.16
990.035	2691.19
990.332	2678.08
990.63	2690.06
990.927	2670.4
991.224	2648.93
991.521	2683.73
991.819	2662.26
992.116	2626.56
992.413	2595.6
992.71	2601.7
993.006	2576.39
993.303	2582.26
993.6	2544.07
993.897	2540.46
994.193	2523.28
994.49	2512.66
994.787	2533.45
995.083	2507.69
995.379	2480.8
995.676	2485.32
995.972	2456.62
996.268	2409.84
996.565	2408.71
996.861	2391.31
997.157	2412.78
997.453	2431.76
997.749	2417.52
998.044	2372.55
998.34	2350.4
998.636	2367.35
998.932	2340.46
999.227	2342.27
999.523	2302.5
999.818	2308.15
1000.114	2286
1000.409	2289.61
1000.704	2281.93
1001	2247.13
1001.295	2236.28
1001.59	2246.68
1001.885	2189.73
1002.18	2201.93
1002.475	2196.28
1002.77	2211.2
1003.065	2167.13
1003.359	2109.73
1003.654	2155.38
1003.949	2123.97
1004.243	2154.7
1004.538	2087.36
1004.832	2118.09
1005.127	2054.82
1005.421	2050.75
1005.715	2066.12
1006.009	2034.25
1006.304	2050.07
1006.598	2020.7
1006.892	2037.87
1007.186	2037.19
1007.48	1986.12
1007.773	1960.81
1008.067	1981.6
1008.361	1949.06
1008.655	1946.35
1008.948	1929.4
1009.242	1927.14
1009.535	1911.55
1009.829	1923.52
1010.122	1854.82
1010.415	1853.92
1010.708	1862.06
1011.001	1860.7
1011.295	1837.42
1011.588	1845.11
1011.881	1802.17
1012.173	1815.28
1012.466	1830.42
1012.759	1798.33
1013.052	1771.21
1013.344	1786.8
1013.637	1787.93
1013.93	1748.61
1014.222	1758.1
1014.514	1732.57
1014.807	1754.71
1015.099	1746.13
1015.391	1700.7
1015.683	1688.05
1015.976	1682.4
1016.268	1670.65
1016.56	1673.81
1016.851	1652.8
1017.143	1650.31
1017.435	1625.45
1017.727	1621.61
1018.018	1605.79
1018.31	1600.37
1018.602	1582.97
1018.893	1568.28
1019.185	1557.88
1019.476	1579.13
1019.767	1535.74
1020.058	1535.06
1020.35	1527.38
1020.641	1515.4
1020.932	1483.76
1021.223	1484.21
1021.514	1495.51
1021.804	1448.06
1022.095	1476.98
1022.386	1456.87
1022.677	1436.3
1022.967	1436.3
1023.258	1409.19
1023.548	1418.45
1023.839	1399.02
1024.129	1411.22
1024.419	1397.89
1024.709	1379.81
1025	1357.21
1025.29	1380.94
1025.58	1351.56
1025.87	1349.53
1026.16	1327.15
1026.449	1313.82
1026.739	1296.19
1027.029	1314.5
1027.319	1307.04
1027.608	1301.17
1027.898	1305.46
1028.187	1262.52
1028.477	1246.7
1028.766	1271.34
1029.055	1243.99
1029.344	1270.21
1029.634	1228.85
1029.923	1240.15
1030.212	1220.26
1030.501	1233.82
1030.79	1189.53
1031.078	1194.95
1031.367	1186.37
1031.656	1175.97
1031.945	1176.88
1032.233	1174.39
1032.522	1163.99
1032.81	1152.47
1033.099	1140.94
1033.387	1158.12
1033.675	1119.7
1033.963	1120.15
1034.251	1129.65
1034.54	1117.22
1034.828	1124.45
1035.116	1100.04
1035.403	1084.9
1035.691	1078.57
1035.979	1060.95
1036.267	1046.71
1036.554	1055.3
1036.842	1077.22
1037.129	1027.5
1037.417	1041.51
1037.704	1050.1
1037.992	1015.75
1038.279	1004
1038.566	1007.84
1038.853	1007.84
1039.14	1007.84
