Data from hue_120_FLMS001491_00060.txt Node
Date: Tue Feb 07 16:59:41 GMT 2017
User: dcchb
Spectrometer: FLMS00149
Trigger mode: 0
Integration Time (sec): 2.000000E-2
Scans to average: 10
Electric dark correction enabled: true
Nonlinearity correction enabled: false
Boxcar width: 0
XAxis mode: Wavelengths
Number of Pixels in Spectrum: 2048
>>>>>Begin Spectral Data<<<<<
341.393	17.49
341.776	17.49
342.16	17.49
342.543	-59.57
342.927	-52.57
343.31	-77.88
343.693	-76.52
344.077	-84.21
344.46	-50.99
344.843	-43.08
345.226	-48.73
345.61	-27.94
345.993	-17.09
346.376	-3.98
346.759	14.55
347.142	36.92
347.525	55.9
347.908	64.04
348.291	66.3
348.674	74.89
349.057	117.82
349.44	136.13
349.823	132.96
350.206	172.06
350.588	190.59
350.971	227.2
351.354	217.71
351.737	238.27
352.119	241.66
352.502	250.47
352.884	266.07
353.267	280.3
353.65	283.24
354.032	310.59
354.414	323.47
354.797	310.13
355.179	325.05
355.562	327.53
355.944	348.32
356.326	330.7
356.709	340.41
357.091	338.15
357.473	319.17
357.855	326.18
358.238	342.9
358.62	339.06
359.002	338.83
359.384	343.8
359.766	339.51
360.148	333.41
360.53	347.65
360.912	342.45
361.294	342
361.676	325.73
362.057	311.26
362.439	334.31
362.821	322.11
363.203	330.7
363.584	307.42
363.966	341.32
364.348	332.05
364.729	334.77
365.111	315.33
365.493	307.65
365.874	322.56
366.256	311.71
366.637	310.81
367.019	320.53
367.4	302.9
367.781	331.38
368.163	320.98
368.544	319.17
368.925	311.71
369.306	327.53
369.688	311.94
370.069	306.74
370.45	323.69
370.831	312.39
371.212	303.81
371.593	325.5
371.974	306.29
372.355	326.63
372.736	312.84
373.117	323.47
373.498	320.3
373.879	330.02
374.26	325.95
374.641	327.31
375.021	325.5
375.402	322.11
375.783	316.23
376.163	336.12
376.544	329.12
376.925	334.99
377.305	322.11
377.686	327.08
378.066	326.4
378.447	338.61
378.827	341.09
379.208	333.64
379.588	349.23
379.968	314.2
380.349	339.28
380.729	353.3
381.109	341.77
381.489	335.44
381.87	333.64
382.25	348.55
382.63	354.2
383.01	354.65
383.39	347.65
383.77	336.57
384.15	343.35
384.53	342.9
384.91	353.3
385.29	323.92
385.67	346.74
386.049	329.79
386.429	339.96
386.809	351.94
387.189	364.82
387.568	343.58
387.948	363.24
388.328	363.24
388.707	359.62
389.087	367.98
389.466	372.96
389.846	374.54
390.225	372.28
390.605	362.56
390.984	370.47
391.363	370.92
391.743	370.7
392.122	375.67
392.501	386.06
392.881	361.43
393.26	382.9
393.639	363.01
394.018	389.45
394.397	372.96
394.776	390.36
395.155	403.92
395.534	400.75
395.913	391.03
396.292	386.52
396.671	393.52
397.05	402.56
397.429	384.48
397.808	376.35
398.186	395.55
398.565	394.42
398.944	405.95
399.323	394.2
399.701	406.4
400.08	405.05
400.458	405.27
400.837	381.32
401.215	387.19
401.594	424.93
401.972	407.76
402.351	398.72
402.729	403.69
403.107	419.28
403.486	424.48
403.864	428.77
404.242	424.25
404.62	412.5
404.999	450.69
405.377	432.84
405.755	405.72
406.133	424.93
406.511	423.35
406.889	450.24
407.267	426.97
407.645	446.63
408.023	433.75
408.401	456.57
408.779	436.46
409.156	465.84
409.534	445.04
409.912	459.96
410.29	452.28
410.667	428.32
411.045	440.3
411.422	454.54
411.8	480.52
412.178	478.04
412.555	453.86
412.933	477.13
413.31	460.41
413.687	469.68
414.065	477.36
414.442	493.18
414.819	500.41
415.197	505.16
415.574	523.23
415.951	493.86
416.328	498.38
416.705	504.7
417.082	487.53
417.46	510.35
417.837	506.96
418.214	512.16
418.591	504.48
418.967	528.88
419.344	516.91
419.721	531.6
420.098	506.96
420.475	544.03
420.852	520.52
421.228	520.98
421.605	563.23
421.982	546.06
422.358	551.71
422.735	559.84
423.111	563.69
423.488	577.02
423.864	576.57
424.241	570.24
424.617	574.53
424.994	585.38
425.37	569.11
425.746	583.35
426.123	579.5
426.499	589.67
426.875	573.18
427.251	601.42
427.627	586.06
428.003	612.95
428.379	599.62
428.756	597.13
429.132	613.63
429.507	621.99
429.883	622.67
430.259	634.87
430.635	630.58
431.011	644.36
431.387	643.23
431.763	667.19
432.138	650.01
432.514	655.66
432.89	656.56
433.265	688.65
433.641	692.27
434.016	667.86
434.392	688.88
434.767	708.54
435.143	701.31
435.518	698.15
435.894	709.67
436.269	709.22
436.644	724.13
437.02	719.39
437.395	724.81
437.77	742.44
438.145	736.56
438.52	729.56
438.895	754.42
439.271	764.81
439.646	763.68
440.021	775.21
440.395	762.78
440.77	765.49
441.145	769.1
441.52	770.46
441.895	797.35
442.27	812.27
442.645	817.92
443.019	832.15
443.394	810.91
443.769	809.78
444.143	842.77
444.518	826.96
444.892	817.92
445.267	820.63
445.641	826.96
446.016	854.53
446.39	845.71
446.764	850.01
447.139	844.13
447.513	852.27
447.887	869.89
448.262	853.4
448.636	859.05
449.01	848.42
449.384	883
449.758	904.47
450.132	911.02
450.506	905.15
450.88	901.76
451.254	883.68
451.628	910.34
452.002	963.68
452.376	921.87
452.75	950.79
453.123	955.09
453.497	949.66
453.871	985.37
454.244	1000.74
454.618	996.89
454.992	991.7
455.365	1007.06
455.739	1009.1
456.112	1013.84
456.486	1025.37
456.859	1059.94
457.232	1056.55
457.606	1075.08
457.979	1049.77
458.352	1080.06
458.725	1102.43
459.099	1097.46
459.472	1128.87
459.845	1155.08
460.218	1159.83
460.591	1173.16
460.964	1190.79
461.337	1202.31
461.71	1192.6
462.083	1239.15
462.456	1213.61
462.829	1232.37
463.201	1266.49
463.574	1280.96
463.947	1298.13
464.32	1296.32
464.692	1313.27
465.065	1342.2
465.438	1377.9
465.81	1372.25
466.183	1387.84
466.555	1431.91
466.928	1444.79
467.3	1450.22
467.672	1445.47
468.045	1504
468.417	1544.9
468.789	1519.14
469.161	1568.41
469.534	1563.43
469.906	1617.22
470.278	1640.27
470.65	1642.53
471.022	1694.96
471.394	1739.93
471.766	1751.45
472.138	1786.93
472.51	1813.82
472.882	1842.07
473.253	1879.13
473.625	1919.36
473.997	1979.47
474.369	2017.66
474.74	2038.68
475.112	2098.79
475.484	2096.3
475.855	2187.6
476.227	2207.03
476.598	2314.83
476.97	2330.87
477.341	2374.49
477.713	2448.83
478.084	2488.61
478.455	2593.91
478.827	2647.25
479.198	2748.49
479.569	2778.54
479.94	2865.55
480.311	2901.48
480.682	3028.48
481.053	3142.83
481.424	3166.1
481.795	3227.34
482.166	3334.23
482.537	3428.47
482.908	3543.04
483.279	3611.29
483.65	3703.49
484.021	3817.61
484.391	3891.73
484.762	3995.69
485.133	4041.11
485.503	4148.9
485.874	4331.04
486.244	4378.73
486.615	4518.61
486.985	4649
487.356	4753.41
487.726	4923.57
488.097	4977.13
488.467	5072.27
488.837	5244.24
489.207	5405.37
489.578	5460.51
489.948	5633.38
490.318	5761.97
490.688	5837.9
491.058	6013.71
491.428	6100.26
491.798	6255.06
492.168	6430.88
492.538	6474.72
492.908	6619.8
493.278	6753.58
493.648	6848.72
494.017	7022.72
494.387	7122.61
494.757	7227.92
495.126	7391.3
495.496	7458.87
495.866	7588.13
496.235	7720.11
496.605	7894.34
496.974	7967.56
497.344	8122.13
497.713	8257.95
498.082	8291.84
498.452	8464.49
498.821	8547.2
499.19	8604.83
499.559	8773.41
499.928	8794.43
500.298	8950.81
500.667	9055.89
501.036	9123.46
501.405	9266.73
501.774	9259.28
502.143	9429.67
502.512	9459.95
502.88	9643.67
503.249	9668.31
503.618	9787.4
503.987	9822.2
504.356	9861.29
504.724	9980.61
505.093	10169.99
505.462	10120.72
505.83	10248.63
506.199	10301.06
506.567	10426.7
506.936	10495.18
507.304	10543.76
507.672	10646.36
508.041	10736.98
508.409	10774.72
508.777	10892.91
509.145	10895.62
509.514	10961.6
509.882	10971.1
510.25	11110.98
510.618	11133.58
510.986	11147.14
511.354	11294.7
511.722	11385.77
512.09	11448.37
512.458	11390.52
512.826	11564.75
513.193	11539.89
513.561	11531.53
513.929	11661.7
514.297	11713.68
514.664	11764.3
515.032	11863.95
515.4	11860.56
515.767	11867.34
516.135	11952.76
516.502	11887.68
516.869	12014.46
517.237	12030.95
517.604	12041.12
517.972	12129.48
518.339	12176.71
518.706	12178.97
519.073	12242.25
519.44	12200.22
519.808	12319.31
520.175	12300.1
520.542	12462.13
520.909	12384.39
521.276	12386.88
521.643	12436.37
522.009	12541
522.376	12613.76
522.743	12551.17
523.11	12649.47
523.477	12733.76
523.843	12747.77
524.21	12867.32
524.577	12836.81
524.943	12849.69
525.31	12899.18
525.676	12892.63
526.043	12983.92
526.409	12980.31
526.776	13117.03
527.142	13011.95
527.508	13035.67
527.874	13049.46
528.241	13022.12
528.607	13161.09
528.973	13173.52
529.339	13040.19
529.705	13187.53
530.071	13171.94
530.437	13245.39
530.803	13170.36
531.169	13136.46
531.535	13157.48
531.901	13159.51
532.267	13145.5
532.632	13163.13
532.998	13223.47
533.364	13136.24
533.73	13154.32
534.095	13232.28
534.461	13139.85
534.826	13120.87
535.192	13155.45
535.557	13248.78
535.923	13124.49
536.288	13096.01
536.653	13095.11
537.019	13040.42
537.384	12967.88
537.749	13004.26
538.114	13002
538.479	12974.21
538.845	12951.16
539.21	12854.21
539.575	12826.19
539.94	12808.79
540.305	12889.24
540.67	12823.93
541.034	12748
541.399	12781.44
541.764	12752.52
542.129	12713.2
542.494	12708.45
542.858	12684.05
543.223	12655.57
543.587	12670.49
543.952	12586.42
544.316	12537.83
544.681	12523.6
545.045	12537.16
545.41	12506.2
545.774	12496.48
546.138	12452.19
546.503	12403.37
546.867	12333.55
547.231	12371.28
547.595	12301.91
547.959	12339.2
548.324	12334
548.688	12234.79
549.052	12143.27
549.416	12262.59
549.779	12144.85
550.143	12115.92
550.507	12151.86
550.871	12159.99
551.235	12079.09
551.599	12070.28
551.962	12073.89
552.326	12018.98
552.689	11969.49
553.053	11947.34
553.417	11918.42
553.78	11902.6
554.143	11897.63
554.507	11937.17
554.87	11948.47
555.234	12003.84
555.597	11845.42
555.96	11892.88
556.323	11901.47
556.686	11825.08
557.05	11817.4
557.413	11891.3
557.776	11787.35
558.139	11888.36
558.502	11796.38
558.865	11826.89
559.228	11771.75
559.59	11826.44
559.953	11799.77
560.316	11921.58
560.679	11828.02
561.041	11840.23
561.404	11842.71
561.767	11870.06
562.129	11785.54
562.492	11844.52
562.854	11808.81
563.217	11820.79
563.579	11835.71
563.941	11849.72
564.304	11824.63
564.666	11943.27
565.028	11898.53
565.39	11880.22
565.753	11970.62
566.115	11931.07
566.477	11932.43
566.839	11948.92
567.201	12007
567.563	11948.02
567.925	12087
568.287	12023.05
568.648	11971.52
569.01	12075.02
569.372	12089.03
569.734	11975.82
570.095	12112.31
570.457	12033.67
570.819	12131.52
571.18	12091.07
571.542	12078.19
571.903	12172.19
572.265	12117.51
572.626	12139.43
572.987	12198.18
573.349	12297.61
573.71	12218.29
574.071	12181.01
574.432	12246.32
574.794	12262.36
575.155	12279.54
575.516	12189.37
575.877	12287.9
576.238	12239.99
576.599	12224.85
576.96	12231.85
577.32	12298.97
577.681	12247.67
578.042	12262.59
578.403	12391.4
578.763	12227.79
579.124	12372.64
579.485	12232.76
579.845	12342.36
580.206	12368.35
580.566	12286.09
580.927	12247.22
581.287	12342.59
581.648	12243.15
582.008	12274.11
582.368	12216.03
582.728	12327.22
583.089	12345.97
583.449	12304.39
583.809	12247.67
584.169	12305.07
584.529	12249.93
584.889	12389.36
585.249	12248.12
585.609	12236.37
585.969	12248.35
586.329	12244.51
586.688	12283.15
587.048	12192.98
587.408	12306.65
587.768	12273.89
588.127	12169.03
588.487	12175.13
588.846	12337.61
589.206	12181.01
589.565	12089.26
589.925	12211.97
590.284	12129.48
590.643	12226.66
591.003	12150.27
591.362	12226.43
591.721	12097.85
592.08	12159.54
592.44	12109.37
592.799	12132.42
593.158	12111.4
593.517	12067.56
593.876	12126.77
594.235	12077.06
594.593	12055.14
594.952	12090.84
595.311	12097.17
595.67	12103.95
596.029	12181.91
596.387	12084.74
596.746	12167
597.104	12045.19
597.463	12018.75
597.822	12054.01
598.18	12033.67
598.538	12033.21
598.897	12090.39
599.255	11951.18
599.613	12156.6
599.972	11988.24
600.33	11990.28
600.688	12030.28
601.046	12008.58
601.404	12084.51
601.762	12026.66
602.12	12135.81
602.478	12078.64
602.836	12088.58
603.194	11965.65
603.552	12044.51
603.91	11947.57
604.268	12011.29
604.625	12037.51
604.983	11967
605.341	11960.9
605.698	12021.01
606.056	12047.9
606.413	12043.16
606.771	12110.73
607.128	12098.98
607.485	12054.91
607.843	12053.55
608.2	12008.58
608.557	12152.31
608.914	12132.2
609.272	12165.41
609.629	12130.84
609.986	12175.36
610.343	12135.36
610.7	12138.52
611.057	12169.48
611.414	12173.1
611.771	12154.34
612.127	12206.32
612.484	12208.35
612.841	12228.92
613.198	12173.55
613.554	12254.9
613.911	12243.38
614.267	12258.29
614.624	12305.98
614.98	12301.23
615.337	12307.11
615.693	12303.72
616.05	12326.99
616.406	12351.62
616.762	12327.44
617.118	12357.73
617.475	12352.98
617.831	12344.39
618.187	12299.65
618.543	12339.65
618.899	12389.36
619.255	12374.67
619.611	12366.77
619.967	12468.68
620.323	12411.96
620.678	12390.72
621.034	12333.09
621.39	12375.35
621.746	12392.08
622.101	12512.98
622.457	12369.03
622.812	12431.4
623.168	12341
623.523	12460.77
623.879	12475.69
624.234	12372.87
624.589	12474.11
624.945	12467.55
625.3	12454.45
625.655	12488.12
626.01	12493.09
626.365	12421.23
626.72	12356.6
627.075	12461.68
627.43	12382.58
627.785	12355.69
628.14	12411.28
628.495	12438.18
628.85	12339.2
629.205	12342.36
629.559	12479.3
629.914	12336.48
630.269	12341
630.623	12340.55
630.978	12333.09
631.332	12372.19
631.687	12269.59
632.041	12243.6
632.396	12292.87
632.75	12255.58
633.104	12254
633.459	12206.77
633.813	12142.36
634.167	12123.38
634.521	12185.53
634.875	12197.5
635.229	12235.92
635.583	12104.17
635.937	12134.23
636.291	12123.61
636.645	12148.24
636.999	11968.36
637.352	12119.54
637.706	12062.14
638.06	12087.45
638.413	12034.57
638.767	12055.14
639.121	12051.29
639.474	11948.25
639.828	12015.14
640.181	11936.27
640.534	11902.14
640.888	11877.29
641.241	11834.58
641.594	11891.07
641.947	11942.82
642.301	11916.61
642.654	11881.35
643.007	11853.33
643.36	11900.79
643.713	11847.91
644.066	11850.39
644.419	11854.91
644.771	11783.28
645.124	11614.69
645.477	11644.75
645.83	11468.94
646.182	11493.12
646.535	11465.32
646.888	11506.67
647.24	11492.21
647.593	11476.62
647.945	11513.23
648.298	11385.55
648.65	11417.19
649.002	11454.7
649.355	11435.04
649.707	11424.42
650.059	11515.49
650.411	11642.49
650.763	11689.27
651.115	11769.27
651.467	11738.99
651.819	11766.78
652.171	11698.08
652.523	11734.01
652.875	11605.88
653.227	11684.75
653.578	11678.65
653.93	11668.03
654.282	11616.05
654.633	11556.62
654.985	11640.46
655.337	11673.45
655.688	11728.82
656.039	11712.77
656.391	11609.95
656.742	11702.15
657.094	11708.93
657.445	11766.56
657.796	11699.89
658.147	11683.39
658.498	11654.47
658.849	11694.92
659.2	11643.39
659.551	11653.79
659.902	11678.65
660.253	11698.76
660.604	11800.9
660.955	11741.47
661.306	11773.11
661.656	11811.98
662.007	11762.49
662.358	11777.85
662.708	11843.84
663.059	11705.09
663.409	11667.57
663.76	11747.12
664.11	11824.18
664.461	11714.58
664.811	11765.43
665.161	11750.51
665.511	11760.68
665.862	11790.28
666.212	11780.11
666.562	11851.98
666.912	11727.46
667.262	11751.87
667.612	11781.92
667.962	11701.7
668.312	11808.81
668.662	11804.52
669.011	11768.59
669.361	11786.22
669.711	11684.07
670.06	11730.17
670.41	11708.03
670.76	11644.07
671.109	11744.41
671.459	11677.97
671.808	11635.26
672.157	11733.56
672.507	11665.99
672.856	11630.06
673.205	11613.79
673.554	11628.71
673.904	11670.06
674.253	11726.78
674.602	11660.8
674.951	11464.87
675.3	11474.13
675.649	11683.85
675.998	11566.33
676.346	11529.73
676.695	11607.01
677.044	11499.44
677.393	11625.77
677.741	11574.92
678.09	11530.63
678.438	11445.89
678.787	11516.39
679.135	11537.18
679.484	11373.12
679.832	11467.81
680.181	11350.52
680.529	11432.33
680.877	11422.16
681.225	11284.99
681.573	11418.77
681.922	11284.76
682.27	11297.41
682.618	11326.79
682.966	11204.76
683.314	11206.12
683.661	11218.09
684.009	11119.79
684.357	11142.84
684.705	11102.17
685.053	11162.5
685.4	11074.6
685.748	11032.11
686.095	11036.63
686.443	10990.76
686.79	10978.1
687.138	11047.03
687.485	11002.51
687.832	10951.21
688.18	11006.35
688.527	10887.03
688.874	10848.61
689.221	10887.48
689.568	10826.47
689.915	10734.04
690.262	10772
690.609	10702.63
690.956	10690.43
691.303	10719.12
691.65	10605
691.997	10517.77
692.344	10575.85
692.69	10523.88
693.037	10549.86
693.383	10412.47
693.73	10496.76
694.077	10441.17
694.423	10386.48
694.769	10329.3
695.116	10341.51
695.462	10307.38
695.808	10209.08
696.155	10288.4
696.501	10186.03
696.847	10206.82
697.193	10132.25
697.539	10086.37
697.885	10031.69
698.231	10027.84
698.577	9999.14
698.923	10017.45
699.269	9983.1
699.614	9892.25
699.96	9786.95
700.306	9874.85
700.651	9793.27
700.997	9758.25
701.342	9689.77
701.688	9715.31
702.033	9650.23
702.379	9652.49
702.724	9630.34
703.069	9666.72
703.415	9428.99
703.76	9469.44
704.105	9490.68
704.45	9449.33
704.795	9342.89
705.14	9351.03
705.485	9347.86
705.83	9356.22
706.175	9286.17
706.52	9325.72
706.865	9231.93
707.209	9283.23
707.554	9146.06
707.899	9136.34
708.243	9181.31
708.588	9116.46
708.932	9076.68
709.277	9061.32
709.621	9128.88
709.966	9020.19
710.31	9041.65
710.654	8865.16
710.998	8916.23
711.342	8941.77
711.687	8948.32
712.031	8853.64
712.375	8852.73
712.719	8878.95
713.063	8833.98
713.407	8800.53
713.75	8773.41
714.094	8766.41
714.438	8798.5
714.782	8744.49
715.125	8697.48
715.469	8691.61
715.812	8736.8
716.156	8627.88
716.499	8640.76
716.843	8649.12
717.186	8597.15
717.53	8610.48
717.873	8653.64
718.216	8603.47
718.559	8538.62
718.902	8530.48
719.246	8548.56
719.589	8554.21
719.932	8457.26
720.275	8486.42
720.617	8486.87
720.96	8462.01
721.303	8485.96
721.646	8465.17
721.989	8494.55
722.331	8477.15
722.674	8422.24
723.016	8419.52
723.359	8441.9
723.701	8416.13
724.044	8327.32
724.386	8319.41
724.729	8437.83
725.071	8326.19
725.413	8376.36
725.755	8324.84
726.097	8309.02
726.439	8300.66
726.782	8270.83
727.124	8343.14
727.465	8250.26
727.807	8233.31
728.149	8263.37
728.491	8318.28
728.833	8266.99
729.175	8261.56
729.516	8263.37
729.858	8267.21
730.199	8248.91
730.541	8315.35
730.882	8223.6
731.224	8248.68
731.565	8184.28
731.906	8251.62
732.248	8233.99
732.589	8173.66
732.93	8229.92
733.271	8222.69
733.612	8224.95
733.953	8219.3
734.294	8203.48
734.635	8256.36
734.976	8241
735.317	8193.77
735.658	8175.91
735.999	8248.68
736.339	8229.7
736.68	8257.95
737.021	8177.27
737.361	8204.39
737.702	8250.26
738.042	8168.01
738.383	8260.88
738.723	8231.96
739.063	8261.56
739.404	8327.1
739.744	8307.44
740.084	8270.38
740.424	8309.02
740.764	8373.65
741.104	8350.83
741.444	8313.31
741.784	8306.08
742.124	8405.06
742.464	8355.57
742.804	8407.32
743.143	8328.45
743.483	8408.9
743.823	8429.47
744.162	8411.39
744.502	8535
744.841	8464.49
745.181	8593.31
745.52	8505.4
745.86	8614.55
746.199	8650.03
746.538	8572.06
746.877	8729.12
747.216	8720.76
747.556	8736.8
747.895	8768.22
748.234	8790.59
748.573	8884.37
748.911	8911.26
749.25	9018.38
749.589	9030.81
749.928	9106.06
750.267	9176.79
750.605	9214.53
750.944	9313.29
751.283	9308.31
751.621	9430.12
751.96	9462.89
752.298	9632.6
752.636	9737.91
752.975	9783.1
753.313	9813.61
753.651	10054.28
753.989	10040.27
754.327	10148.29
754.666	10310.1
755.004	10399.59
755.342	10557.32
755.679	10595.29
756.017	10735.85
756.355	10840.25
756.693	10975.62
757.031	11220.58
757.368	11258.09
757.706	11408.82
758.044	11529.5
758.381	11683.17
758.719	11823.05
759.056	12044.51
759.394	12121.8
759.731	12162.7
760.068	12397.5
760.405	12458.74
760.743	12577.61
761.08	12821.89
761.417	12929.01
761.754	13048.56
762.091	13292.84
762.428	13311.83
762.765	13533.74
763.102	13752.94
763.438	13850.57
763.775	13992.94
764.112	14206.49
764.449	14407.16
764.785	14565.35
765.122	14615.07
765.458	14674.28
765.795	14865
766.131	15020.03
766.467	15152.45
766.804	15223.87
767.14	15370.75
767.476	15533.24
767.812	15542.05
768.148	15762.38
768.485	15785.88
768.821	15986.78
769.157	16125.31
769.492	16073.79
769.828	16288.47
770.164	16285.98
770.5	16376.6
770.836	16573.21
771.171	16480.1
771.507	16618.18
771.842	16720.78
772.178	16831.96
772.513	16928.45
772.849	17036.47
773.184	17007.55
773.519	17166.64
773.855	17203.25
774.19	17229.01
774.525	17328.44
774.86	17363.92
775.195	17434.2
775.53	17545.16
775.865	17543.13
776.2	17522.34
776.535	17496.12
776.87	17534.99
777.205	17638.72
777.539	17631.03
777.874	17756.91
778.209	17703.12
778.543	17697.47
778.878	17680.75
779.212	17711.94
779.547	17682.11
779.881	17817.24
780.215	17799.16
780.55	17852.04
780.884	17834.64
781.218	17775.44
781.552	17888.88
781.886	17922.78
782.22	17850.24
782.554	17824.7
782.888	17697.02
783.222	17719.62
783.556	17786.28
783.889	17750.8
784.223	17660.19
784.557	17669.9
784.89	17728.66
785.224	17622.22
785.557	17557.36
785.891	17619.06
786.224	17526.63
786.558	17796.9
786.891	17510.58
787.224	17528.21
787.557	17452.28
787.891	17554.43
788.224	17436.24
788.557	17367.99
788.89	17458.38
789.223	17427.88
789.556	17400.98
789.888	17319.86
790.221	17244.6
790.554	17200.54
790.887	17254.77
791.219	17167.54
791.552	17102.23
791.884	17059.75
792.217	17163.48
792.549	17090.26
792.882	16904.95
793.214	16964.38
793.546	16965.29
793.879	16813.2
794.211	16848.46
794.543	16962.58
794.875	16826.53
795.207	16924.39
795.539	16768.23
795.871	16894.78
796.203	16706.76
796.535	16627.22
796.867	16633.77
797.198	16475.36
797.53	16459.54
797.862	16431.07
798.193	16525.3
798.525	16356.04
798.856	16403.95
799.188	16226.32
799.519	16198.98
799.85	16213.22
800.182	16191.98
800.513	16157.17
800.844	16154.91
801.175	16194.91
801.506	16136.84
801.837	16098.64
802.168	16077.18
802.499	15985.2
802.83	15893.45
803.161	15914.69
803.491	15966.44
803.822	15859.55
804.153	15775.72
804.483	15660.24
804.814	15676.96
805.145	15648.26
805.475	15667.24
805.805	15545.44
806.136	15550.41
806.466	15508.15
806.796	15523.52
807.126	15408.04
807.457	15424.31
807.787	15412.33
808.117	15349.74
808.447	15307.93
808.777	15219.12
809.107	15190.42
809.436	15143.87
809.766	15167.82
810.096	15154.94
810.426	15058.45
810.755	15169.18
811.085	15115.62
811.414	14979.35
811.744	14900.26
812.073	14914.95
812.403	14927.6
812.732	14877.66
813.061	14849.86
813.39	14751.11
813.719	14797.44
814.049	14747.95
814.378	14784.78
814.707	14676.99
815.036	14724.22
815.365	14610.77
815.693	14534.62
816.022	14623.2
816.351	14564
816.68	14432.25
817.008	14452.36
817.337	14366.49
817.665	14342.31
817.994	14380.27
818.322	14388.86
818.651	14336.88
818.979	14264.12
819.307	14331.46
819.636	14290.56
819.964	14211.24
820.292	14254.17
820.62	14230.9
820.948	14213.72
821.276	14170.33
821.604	14231.35
821.932	14232.7
822.259	14179.37
822.587	14142.54
822.915	14105.02
823.243	14081.3
823.57	14140.96
823.898	14148.19
824.225	14148.41
824.553	14133.5
824.88	14147.51
825.207	14233.61
825.535	14150.45
825.862	14264.57
826.189	14178.24
826.516	14265.92
826.843	14197.45
827.17	14221.18
827.497	14212.59
827.824	14227.51
828.151	14233.16
828.478	14165.81
828.805	14315.19
829.131	14098.7
829.458	14101.86
829.785	14076.32
830.111	14166.72
830.438	14202.2
830.764	14203.78
831.09	14241.74
831.417	14084.46
831.743	14237.22
832.069	14155.87
832.395	14095.76
832.722	14223.67
833.048	14104.57
833.374	14107.06
833.7	14075.42
834.026	14068.64
834.351	14121.75
834.677	14079.26
835.003	14046.5
835.329	14035.2
835.654	14043.33
835.98	13992.49
836.306	13973.28
836.631	13869.32
836.956	13989.1
837.282	13957.46
837.607	13963.56
837.932	13858.7
838.258	13874.52
838.583	13954.29
838.908	13865.93
839.233	13840.62
839.558	13779.16
839.883	13679.27
840.208	13801.53
840.533	13608.77
840.858	13610.12
841.182	13689.89
841.507	13641.99
841.832	13540.75
842.156	13543.23
842.481	13643.34
842.805	13537.13
843.13	13519.96
843.454	13487.19
843.778	13427.08
844.103	13368.09
844.427	13344.37
844.751	13323.8
845.075	13340.98
845.399	13307.08
845.723	13214.43
846.047	13196.57
846.371	13172.17
846.695	13101.44
847.019	13063.24
847.343	12974.43
847.666	12923.13
847.99	12869.8
848.313	12884.72
848.637	12760.2
848.96	12657.15
849.284	12740.31
849.607	12634.78
849.931	12646.98
850.254	12515.69
850.577	12429.36
850.9	12440.21
851.223	12283.6
851.546	12275.92
851.869	12266.2
852.192	12352.3
852.515	12172.65
852.838	12167
853.161	12178.07
853.483	12071.41
853.806	11975.82
854.129	12049.49
854.451	11950.73
854.774	11945.76
855.096	11851.98
855.419	11819.66
855.741	11746.89
856.063	11773.11
856.385	11720.68
856.708	11640.23
857.03	11658.31
857.352	11664.41
857.674	11603.62
857.996	11523.17
858.318	11521.82
858.64	11454.47
858.961	11364.76
859.283	11402.72
859.605	11296.74
859.926	11371.76
860.248	11303.06
860.57	11325.44
860.891	11216.06
861.212	11204.08
861.534	11203.86
861.855	11208.6
862.176	11160.47
862.498	11185.78
862.819	11167.7
863.14	11119.11
863.461	11133.8
863.782	11003.64
864.103	11062.39
864.424	11052.22
864.745	11017.65
865.065	10960.25
865.386	10923.87
865.707	10925.9
866.027	10926.13
866.348	10828.05
866.668	10933.58
866.989	10863.3
867.309	10800.93
867.63	10787.37
867.95	10762.51
868.27	10756.86
868.59	10826.01
868.91	10703.31
869.23	10753.02
869.55	10723.87
869.87	10745.34
870.19	10654.04
870.51	10667.37
870.83	10696.3
871.15	10615.17
871.469	10627.38
871.789	10615.4
872.109	10573.37
872.428	10590.54
872.748	10534.95
873.067	10522.07
873.386	10549.41
873.706	10527.72
874.025	10510.54
874.344	10472.58
874.663	10470.54
874.982	10390.77
875.301	10408.62
875.62	10367.5
875.939	10369.53
876.258	10319.14
876.577	10315.75
876.896	10354.16
877.214	10298.12
877.533	10299.93
877.852	10229.65
878.17	10310.32
878.489	10255.86
878.807	10268.74
879.125	10225.13
879.444	10244.56
879.762	10136.32
880.08	10153.72
880.398	10123.66
880.716	10101.51
881.034	10086.83
881.352	10162.53
881.67	10065.58
881.988	10022.42
882.306	10026.71
882.624	9976.77
882.941	9866.94
883.259	9927.96
883.577	9868.07
883.894	9925.25
884.212	9854.06
884.529	9939.26
884.846	9853.16
885.164	9810
885.481	9779.94
885.798	9722.99
886.115	9721.19
886.432	9708.3
886.75	9704.24
887.067	9710.56
887.383	9638.02
887.7	9634.63
888.017	9604.8
888.334	9527.07
888.651	9599.15
888.967	9532.72
889.284	9477.12
889.6	9472.15
889.917	9437.12
890.233	9414.75
890.55	9379.5
890.866	9374.3
891.182	9341.08
891.498	9264.7
891.815	9229.9
892.131	9224.02
892.447	9182.89
892.763	9123.01
893.079	9183.35
893.395	9094.76
893.71	9070.35
894.026	9040.07
894.342	9039.17
894.657	9006.85
894.973	9013.18
895.289	8983.58
895.604	9008.44
895.92	8899.96
896.235	8829.91
896.55	8855.9
896.865	8813.64
897.181	8809.8
897.496	8829.68
897.811	8773.19
898.126	8615.45
898.441	8625.85
898.756	8668.11
899.071	8622.68
899.386	8671.04
899.7	8467.43
900.015	8468.56
900.33	8367.77
900.644	8420.43
900.959	8390.82
901.273	8361.9
901.588	8426.76
901.902	8365.29
902.216	8280.09
902.531	8249.13
902.845	8222.47
903.159	8206.42
903.473	8195.8
903.787	8156.71
904.101	8053.43
904.415	8117.84
904.729	8032.19
905.042	7970.5
905.356	8016.15
905.67	7949.03
905.984	8014.79
906.297	7918.52
906.611	7895.47
906.924	7850.73
907.237	7833.1
907.551	7768.92
907.864	7778.86
908.177	7694.35
908.491	7742.71
908.804	7634.91
909.117	7609.83
909.43	7528.47
909.743	7496.84
910.056	7504.97
910.368	7529.38
910.681	7436.95
910.994	7427.46
911.307	7380.46
911.619	7333
911.932	7353.34
912.244	7348.59
912.557	7272.21
912.869	7232.44
913.181	7185.88
913.494	7222.72
913.806	7139.33
914.118	7126.68
914.43	7072.44
914.742	7070.63
915.054	7061.14
915.366	7039.45
915.678	7013.01
915.99	6980.24
916.302	6874.03
916.613	6897.3
916.925	6925.55
917.236	6901.6
917.548	6794.26
917.859	6814.59
918.171	6772.56
918.482	6774.6
918.794	6645.33
919.105	6721.04
919.416	6639.23
919.727	6603.98
920.038	6629.97
920.349	6588.61
920.66	6506.58
920.971	6521.95
921.282	6499.12
921.593	6488.95
921.903	6420.25
922.214	6404.44
922.525	6396.53
922.835	6318.11
923.146	6349.3
923.456	6251.67
923.767	6229.07
924.077	6316.75
924.387	6262.07
924.697	6217.1
925.008	6155.63
925.318	6146.59
925.628	6152.01
925.938	6088.51
926.248	6096.87
926.558	6068.85
926.867	5994.73
927.177	6009.87
927.487	5977.1
927.796	5941.17
928.106	5938.46
928.416	5908.18
928.725	5930.78
929.034	5863.66
929.344	5865.92
929.653	5852.59
929.962	5744.57
930.271	5727.62
930.581	5787.05
930.89	5710.22
931.199	5648.3
931.508	5658.92
931.817	5654.85
932.125	5652.59
932.434	5648.3
932.743	5528.3
933.051	5524.91
933.36	5536.66
933.669	5477.23
933.977	5440.17
934.286	5444.91
934.594	5444.69
934.902	5404.69
935.21	5380.96
935.519	5381.64
935.827	5374.18
936.135	5370.11
936.443	5272.71
936.751	5281.53
937.059	5256.44
937.367	5227.52
937.674	5232.49
937.982	5196.56
938.29	5152.72
938.597	5179.38
938.905	5140.51
939.213	5068.2
939.52	5116.33
939.827	5056.45
940.135	5018.26
940.442	5022.33
940.749	5041.08
941.056	5012.83
941.363	4943.23
941.67	4942.55
941.977	4878.37
942.284	4883.35
942.591	4849.9
942.898	4911.14
943.205	4865.95
943.511	4769.68
943.818	4815.55
944.125	4759.73
944.431	4747.3
944.738	4728.77
945.044	4740.53
945.35	4769.45
945.657	4671.15
945.963	4674.76
946.269	4635.67
946.575	4631.83
946.881	4637.93
947.187	4563.58
947.493	4586.63
947.799	4527.42
948.105	4549.12
948.41	4486.75
948.716	4524.94
949.022	4454.43
949.327	4419.86
949.633	4424.15
949.938	4420.53
950.244	4374.43
950.549	4369.01
950.854	4324.49
951.16	4314.77
951.465	4320.88
951.77	4282.68
952.075	4285.62
952.38	4306.19
952.685	4221.22
952.99	4202.01
953.294	4175.34
953.599	4129.92
953.904	4179.64
954.209	4121.56
954.513	4112.29
954.818	4085.4
955.122	4099.86
955.426	4085.18
955.731	4062.58
956.035	4014.89
956.339	4011.73
956.643	4013.09
956.948	3982.58
957.252	3971.96
957.556	3939.64
957.86	3960.66
958.163	3868.68
958.467	3895.35
958.771	3874.56
959.075	3851.06
959.378	3885.18
959.682	3859.87
959.985	3832.07
960.289	3795.24
960.592	3797.27
960.896	3805.18
961.199	3780.78
961.502	3761.12
961.805	3708.91
962.108	3690.38
962.411	3676.15
962.714	3657.39
963.017	3661.68
963.32	3635.47
963.623	3621.91
963.926	3585.98
964.228	3595.7
964.531	3590.27
964.833	3575.81
965.136	3571.52
965.438	3549.6
965.741	3504.63
966.043	3493.1
966.345	3525.64
966.648	3454.01
966.95	3467.56
967.252	3424.85
967.554	3422.59
967.856	3394.8
968.158	3387.57
968.46	3372.2
968.761	3351.41
969.063	3377.17
969.365	3361.35
969.666	3334.91
969.968	3332.88
970.269	3298.3
970.571	3292.43
970.872	3234.35
971.174	3271.41
971.475	3259.89
971.776	3206.1
972.077	3263.73
972.378	3166.78
972.679	3175.37
972.98	3158.42
973.281	3180.57
973.582	3131.98
973.883	3140.79
974.183	3109.38
974.484	3112.32
974.785	3098.99
975.085	3079.55
975.386	3084.3
975.686	3081.59
975.986	3036.84
976.287	3037.97
976.587	2990.29
976.887	2995.94
977.187	3035.49
977.487	2970.85
977.787	2938.54
978.087	2945.54
978.387	2915.49
978.687	2939.22
978.987	2924.75
979.286	2879.11
979.586	2900.35
979.885	2875.72
980.185	2849.73
980.484	2834.81
980.784	2805.21
981.083	2840.46
981.382	2799.79
981.682	2796.4
981.981	2764.31
982.28	2793.01
982.579	2753.68
982.878	2771.31
983.177	2772.44
983.475	2757.75
983.774	2718.43
984.073	2670.3
984.372	2696.96
984.67	2704.19
984.969	2654.7
985.267	2643.41
985.566	2620.58
985.864	2647.02
986.162	2633.69
986.461	2610.86
986.759	2552.79
987.057	2567.7
987.355	2566.34
987.653	2551.66
987.951	2554.82
988.249	2555.27
988.547	2532.22
988.844	2509.85
989.142	2518.66
989.44	2480.7
989.737	2457.65
990.035	2444.77
990.332	2441.15
990.63	2435.73
990.927	2446.8
991.224	2435.95
991.521	2391.66
991.819	2404.77
992.116	2365.22
992.413	2389.63
992.71	2389.4
993.006	2348.27
993.303	2361.83
993.6	2333.58
993.897	2310.76
994.193	2335.62
994.49	2311.66
994.787	2278.22
995.083	2290.19
995.379	2273.7
995.676	2275.28
995.972	2259.01
996.268	2241.61
996.565	2242.06
996.861	2238.9
997.157	2183.76
997.453	2147.6
997.749	2180.14
998.044	2149.86
998.34	2170.42
998.636	2139.92
998.932	2117.32
999.227	2093.59
999.523	2151.67
999.818	2141.27
1000.114	2075.28
1000.409	2078.67
1000.704	2075.06
1001	2089.75
1001.295	1999.58
1001.59	2041.84
1001.885	2055.17
1002.18	2019.24
1002.475	1986.93
1002.77	1987.83
1003.065	1987.6
1003.359	1961.84
1003.654	1982.86
1003.949	1962.52
1004.243	1939.92
1004.538	1942.63
1004.832	1906.7
1005.127	1923.2
1005.421	1902.41
1005.715	1858.11
1006.009	1876.19
1006.304	1894.27
1006.598	1842.52
1006.892	1865.12
1007.186	1829.87
1007.48	1801.17
1007.773	1847.72
1008.067	1813.6
1008.361	1783.31
1008.655	1791.9
1008.948	1794.16
1009.242	1730.66
1009.535	1755.52
1009.829	1745.8
1010.122	1732.02
1010.415	1723.66
1010.708	1687.5
1011.001	1720.27
1011.295	1682.98
1011.588	1679.59
1011.881	1667.39
1012.173	1673.49
1012.466	1646.14
1012.759	1661.96
1013.052	1612.02
1013.344	1620.61
1013.637	1615.18
1013.93	1593.04
1014.222	1588.07
1014.514	1603.21
1014.807	1593.04
1015.099	1549.65
1015.391	1544.45
1015.683	1555.52
1015.976	1572.25
1016.268	1539.03
1016.56	1572.47
1016.851	1534.73
1017.143	1493.83
1017.435	1507.39
1017.727	1481.63
1018.018	1483.66
1018.31	1450.89
1018.602	1477.11
1018.893	1431.91
1019.185	1468.52
1019.476	1422.87
1019.767	1435.75
1020.058	1400.5
1020.35	1406.6
1020.641	1409.31
1020.932	1405.92
1021.223	1367.73
1021.514	1363.21
1021.804	1363.21
1022.095	1371.8
1022.386	1337
1022.677	1347.85
1022.967	1347.62
1023.258	1310.33
1023.548	1308.98
1023.839	1298.58
1024.129	1291.12
1024.419	1275.31
1024.709	1277.79
1025	1262.42
1025.29	1231.01
1025.58	1257.9
1025.87	1248.41
1026.16	1231.46
1026.449	1231.46
1026.739	1204.12
1027.029	1217
1027.319	1205.93
1027.608	1195.99
1027.898	1195.99
1028.187	1188.08
1028.477	1166.61
1028.766	1161.18
1029.055	1173.39
1029.344	1167.29
1029.634	1166.61
1029.923	1138.13
1030.212	1133.39
1030.501	1103.11
1030.79	1108.98
1031.078	1106.04
1031.367	1108.53
1031.656	1112.82
1031.945	1073.05
1032.233	1060.4
1032.522	1072.15
1032.81	1051.13
1033.099	1053.62
1033.387	1057.68
1033.675	1029.89
1033.963	1051.81
1034.251	1053.39
1034.54	1037.57
1034.828	1017.01
1035.116	1015.65
1035.403	1028.98
1035.691	1013.62
1035.979	1006.16
1036.267	1007.06
1036.554	977.23
1036.842	993.73
1037.129	976.1
1037.417	968.87
1037.704	962.32
1037.992	955.31
1038.279	955.99
1038.566	920.06
1038.853	920.06
1039.14	920.06
