Data from hue_270_FLMS001491_00022.txt Node
Date: Tue Feb 07 15:56:57 GMT 2017
User: dcchb
Spectrometer: FLMS00149
Trigger mode: 0
Integration Time (sec): 2.000000E-2
Scans to average: 10
Electric dark correction enabled: true
Nonlinearity correction enabled: false
Boxcar width: 0
XAxis mode: Wavelengths
Number of Pixels in Spectrum: 2048
>>>>>Begin Spectral Data<<<<<
341.393	-18.39
341.776	-18.39
342.16	-18.39
342.543	-62
342.927	-71.72
343.31	-61.33
343.693	-68.56
344.077	-85.28
344.46	-62
344.843	-51.38
345.226	-41.21
345.61	-9.12
345.993	-20.42
346.376	-1.89
346.759	13.02
347.142	33.81
347.525	30.2
347.908	83.08
348.291	66.35
348.674	67.48
349.057	107.26
349.44	96.86
349.823	130.76
350.206	155.17
350.588	174.15
350.971	199.46
351.354	223.64
351.737	233.36
352.119	222.51
352.502	255.28
352.884	259.57
353.267	276.07
353.65	286.69
354.032	275.61
354.414	301.15
354.797	309.96
355.179	310.42
355.562	301.38
355.944	296.4
356.326	310.87
356.709	317.2
357.091	343.18
357.473	300.7
357.855	321.04
358.238	324.88
358.62	327.59
359.002	340.25
359.384	316.29
359.766	316.07
360.148	331.66
360.53	347.93
360.912	346.12
361.294	340.25
361.676	317.87
362.057	323.75
362.439	315.16
362.821	336.4
363.203	311.09
363.584	289.63
363.966	309.29
364.348	310.42
364.729	323.52
365.111	323.07
365.493	308.38
365.874	315.16
366.256	317.87
366.637	304.77
367.019	300.7
367.4	312
367.781	307.25
368.163	318.32
368.544	314.03
368.925	319
369.306	317.42
369.688	314.48
370.069	300.7
370.45	313.35
370.831	293.92
371.212	302.73
371.593	310.42
371.974	317.42
372.355	292.79
372.736	302.51
373.117	319.45
373.498	310.19
373.879	318.78
374.26	321.94
374.641	312.9
375.021	321.71
375.402	339.34
375.783	318.1
376.163	318.32
376.544	309.51
376.925	338.66
377.305	302.28
377.686	311.77
378.066	315.39
378.447	321.04
378.827	323.07
379.208	319.68
379.588	327.82
379.968	327.36
380.349	325.78
380.729	323.52
381.109	320.58
381.489	329.17
381.87	318.78
382.25	340.7
382.63	332.79
383.01	341.15
383.39	339.12
383.77	335.5
384.15	345.44
384.53	356.74
384.91	339.34
385.29	352.22
385.67	348.15
386.049	356.97
386.429	340.47
386.809	346.8
387.189	367.36
387.568	351.32
387.948	362.84
388.328	366.23
388.707	358.55
389.087	368.04
389.466	356.52
389.846	346.8
390.225	349.51
390.605	360.36
390.984	370.53
391.363	353.13
391.743	356.74
392.122	374.14
392.501	385.67
392.881	380.92
393.26	399.23
393.639	379.57
394.018	378.66
394.397	391.32
394.776	383.63
395.155	398.1
395.534	402.16
395.913	402.16
396.292	410.07
396.671	394.26
397.05	393.13
397.429	400.13
397.808	392.45
398.186	407.14
398.565	389.96
398.944	402.39
399.323	401.03
399.701	413.01
400.08	409.85
400.458	414.82
400.837	436.06
401.215	424.54
401.594	434.03
401.972	422.73
402.351	435.16
402.729	430.86
403.107	418.44
403.486	423.41
403.864	457.76
404.242	436.97
404.62	437.64
404.999	436.29
405.377	466.34
405.755	461.37
406.133	473.58
406.511	458.21
406.889	471.54
407.267	476.29
407.645	494.14
408.023	481.26
408.401	484.2
408.779	492.33
409.156	494.37
409.534	506.34
409.912	492.78
410.29	494.14
410.667	514.48
411.045	544.08
411.422	547.92
411.8	536.4
412.178	569.17
412.555	566.23
412.933	582.72
413.31	593.12
413.687	574.82
414.065	583.63
414.442	586.79
414.819	600.13
415.197	598.09
415.574	612.33
415.951	600.35
416.328	617.98
416.705	633.8
417.082	625.44
417.46	632.22
417.837	647.58
418.214	652.55
418.591	649.16
418.967	674.7
419.344	684.42
419.721	690.52
420.098	675.38
420.475	700.69
420.852	693.46
421.228	698.43
421.605	724.87
421.982	743.4
422.358	751.99
422.735	747.92
423.111	753.34
423.488	771.42
423.864	801.93
424.241	796.5
424.617	822.94
424.994	796.5
425.37	840.8
425.746	832.21
426.123	846.22
426.499	845.09
426.875	872.89
427.251	860.91
427.627	882.83
428.003	901.36
428.379	918.54
428.756	926.44
429.132	948.36
429.507	963.96
429.883	961.92
430.259	984.07
430.635	947.91
431.011	986.56
431.387	1011.41
431.763	1004.18
432.138	1013.45
432.514	1022.49
432.89	1056.61
433.265	1073.33
433.641	1083.28
434.016	1094.35
434.392	1109.94
434.767	1148.13
435.143	1139.77
435.518	1149.04
435.894	1182.48
436.269	1205.31
436.644	1220.9
437.02	1243.05
437.395	1243.27
437.77	1257.51
438.145	1294.12
438.52	1308.36
438.895	1325.76
439.271	1328.47
439.646	1337.51
440.021	1362.37
440.395	1365.98
440.77	1350.61
441.145	1394.68
441.52	1420.67
441.895	1411.18
442.27	1429.26
442.645	1455.7
443.019	1448.24
443.394	1484.4
443.769	1474
444.143	1488.24
444.518	1505.41
444.892	1487.33
445.267	1501.8
445.641	1542.02
446.016	1542.47
446.39	1539.31
446.764	1572.3
447.139	1567.33
447.513	1588.57
447.887	1586.54
448.262	1592.19
448.636	1593.09
449.01	1605.75
449.384	1641.23
449.758	1612.53
450.132	1646.43
450.506	1667.44
450.88	1680.55
451.254	1687.55
451.628	1702.92
452.002	1716.71
452.376	1727.55
452.75	1716.71
453.123	1747.89
453.497	1781.11
453.871	1784.28
454.244	1804.16
454.618	1840.77
454.992	1808.68
455.365	1832.18
455.739	1875.12
456.112	1901.56
456.486	1923.48
456.859	1942.01
457.232	1953.99
457.606	1970.26
457.979	1985.85
458.352	2019.3
458.725	2036.92
459.099	2040.31
459.472	2074.89
459.845	2079.63
460.218	2123.7
460.591	2123.93
460.964	2138.84
461.337	2169.35
461.71	2201.21
462.083	2251.38
462.456	2250.93
462.829	2223.59
463.201	2240.31
463.574	2263.81
463.947	2294.54
464.32	2379.29
464.692	2353.3
465.065	2363.69
465.438	2372.28
465.81	2406.41
466.183	2479.4
466.555	2504.93
466.928	2485.95
467.3	2472.84
467.672	2531.37
468.045	2603.46
468.417	2596.23
468.789	2617.93
469.161	2632.16
469.534	2679.17
469.906	2712.61
470.278	2729.79
470.65	2753.06
471.022	2834.42
471.394	2843.46
471.766	2874.19
472.138	2904.7
472.51	2936.11
472.882	2995.99
473.253	2992.83
473.625	3031.02
473.997	3087.97
474.369	3096.78
474.74	3148.98
475.112	3178.59
475.484	3241.64
475.855	3236.67
476.227	3270.79
476.598	3347.62
476.97	3402.99
477.341	3402.54
477.713	3441.86
478.084	3530.9
478.455	3566.83
478.827	3571.12
479.198	3672.81
479.569	3720.72
479.94	3745.81
480.311	3794.39
480.682	3870.55
481.053	3948.96
481.424	3946.48
481.795	3988.96
482.166	4039.36
482.537	4054.5
482.908	4132.24
483.279	4161.84
483.65	4216.98
484.021	4293.14
484.391	4381.27
484.762	4398.22
485.133	4443.19
485.503	4439.35
485.874	4542.85
486.244	4525.9
486.615	4610.64
486.985	4692.67
487.356	4763.63
487.726	4729.51
488.097	4866
488.467	4889.73
488.837	4976.28
489.207	4957.3
489.578	5037.3
489.948	5078.65
490.318	5190.29
490.688	5151.87
491.058	5193
491.428	5268.48
491.798	5314.35
492.168	5432.54
492.538	5423.73
492.908	5432.54
493.278	5517.96
493.648	5507.79
494.017	5573.1
494.387	5655.81
494.757	5633.21
495.126	5697.62
495.496	5727.22
495.866	5706.43
496.235	5802.93
496.605	5803.6
496.974	5825.75
497.344	5884.96
497.713	5946.2
498.082	5928.57
498.452	5976.93
498.821	6024.39
499.19	6033.65
499.559	6063.48
499.928	6061
500.298	6148.45
500.667	6131.96
501.036	6182.13
501.405	6178.74
501.774	6226.19
502.143	6179.64
502.512	6283.59
502.88	6286.98
503.249	6333.99
503.618	6349.13
503.987	6350.93
504.356	6430.93
504.724	6435.9
505.093	6438.62
505.462	6426.19
505.83	6442.46
506.199	6456.92
506.567	6532.85
506.936	6557.48
507.304	6634.54
507.672	6590.7
508.041	6652.85
508.409	6646.97
508.777	6712.73
509.145	6750.02
509.514	6680.87
509.882	6751.15
510.25	6756.57
510.618	6819.62
510.986	6823.46
511.354	6852.84
511.722	6873.86
512.09	6919.28
512.458	6887.19
512.826	6958.83
513.193	6945.27
513.561	6955.44
513.929	7009.67
514.297	7058.03
514.664	7030.24
515.032	7041.31
515.4	7115.66
515.767	7103.91
516.135	7092.16
516.502	7085.15
516.869	7098.94
517.237	7173.96
517.604	7155.43
517.972	7211.03
518.339	7239.72
518.706	7223.68
519.073	7274.3
519.44	7290.12
519.808	7330.34
520.175	7288.31
520.542	7389.55
520.909	7399.95
521.276	7388.87
521.643	7379.61
522.009	7448.08
522.376	7477.01
522.743	7463
523.11	7531.02
523.477	7591.81
523.843	7620.05
524.21	7618.92
524.577	7716.55
524.943	7726.27
525.31	7702.31
525.676	7747.73
526.043	7803.55
526.409	7816.43
526.776	7843.32
527.142	7902.08
527.508	7828.18
527.874	7932.81
528.241	7954.96
528.607	7953.6
528.973	7996.99
529.339	7973.26
529.705	8070.66
530.071	8069.08
530.437	8082.41
530.803	8085.8
531.169	8123.77
531.535	8122.64
531.901	8145.92
532.267	8076.31
532.632	8242.41
532.998	8221.17
533.364	8219.59
533.73	8236.99
534.095	8275.4
534.461	8295.52
534.826	8301.84
535.192	8251.9
535.557	8366.25
535.923	8308.85
536.288	8321.96
536.653	8363.31
537.019	8347.72
537.384	8390.88
537.749	8425
538.114	8421.61
538.479	8395.85
538.845	8424.33
539.21	8416.87
539.575	8410.54
539.94	8478.34
540.305	8449.86
540.67	8546.58
541.034	8478.56
541.399	8554.72
541.764	8464.33
542.129	8522.63
542.494	8559.24
542.858	8566.7
543.223	8516.3
543.587	8598.79
543.952	8598.79
544.316	8624.32
544.681	8619.12
545.045	8579.12
545.41	8707.26
545.774	8645.79
546.138	8658.44
546.503	8642.85
546.867	8680.59
547.231	8718.56
547.595	8684.21
547.959	8712.68
548.324	8679.46
548.688	8738.22
549.052	8717.2
549.416	8718.33
549.779	8769.85
550.143	8767.82
550.507	8829.97
550.871	8794.94
551.235	8725.56
551.599	8871.32
551.962	8844.88
552.326	8861.15
552.689	8946.12
553.053	8874.03
553.417	8907.03
553.78	8952
554.143	8945.89
554.507	8993.8
554.87	9004.42
555.234	9015.27
555.597	9000.13
555.96	9063.63
556.323	9026.8
556.686	9069.28
557.05	9084.42
557.413	9118.32
557.776	9114.25
558.139	9173.91
558.502	9164.42
558.865	9184.08
559.228	9268.6
559.59	9284.42
559.953	9314.25
560.316	9326.68
560.679	9358.54
561.041	9382.95
561.404	9391.53
561.767	9522.83
562.129	9437.41
562.492	9494.81
562.854	9478.08
563.217	9522.6
563.579	9552.66
563.941	9601.92
564.304	9584.52
564.666	9731.64
565.028	9675.59
565.39	9689.38
565.753	9729.15
566.115	9730.73
566.477	9836.94
566.839	9856.15
567.201	9861.58
567.563	9900.9
567.925	9979.31
568.287	9938.41
568.648	9989.26
569.01	10063.38
569.372	10094.34
569.734	10086.2
570.095	10122.81
570.457	10114.23
570.819	10178.18
571.18	10168.46
571.542	10214.34
571.903	10322.36
572.265	10335.91
572.626	10334.56
572.987	10318.29
573.349	10438.51
573.71	10492.07
574.071	10452.97
574.432	10485.74
574.794	10634.66
575.155	10581.56
575.516	10676.02
575.877	10635.34
576.238	10677.6
576.599	10696.36
576.96	10692.52
577.32	10747.66
577.681	10826.52
578.042	10820.2
578.403	10819.52
578.763	10892.96
579.124	10926.18
579.485	10999.63
579.845	10973.64
580.206	10918.72
580.566	10960.98
580.927	11026.07
581.287	11110.13
581.648	11058.83
582.008	11105.16
582.368	11163.69
582.728	11189.9
583.089	11176.34
583.449	11220.41
583.809	11297.02
584.169	11301.09
584.529	11281.88
584.889	11345.38
585.249	11340.63
585.609	11309
585.969	11426.28
586.329	11377.24
586.688	11450.46
587.048	11418.6
587.408	11487.3
587.768	11468.77
588.127	11470.57
588.487	11541.98
588.846	11571.14
589.206	11518.03
589.565	11551.93
589.925	11693.62
590.284	11677.57
590.643	11653.85
591.003	11857.91
591.362	11752.15
591.721	11822.43
592.08	11769.55
592.44	11864.01
592.799	11869.89
593.158	11912.6
593.517	11811.58
593.876	11916.44
594.235	11959.37
594.593	11927.74
594.952	12025.36
595.311	11998.92
595.67	12005.25
596.029	12071.01
596.387	12083.67
596.746	12107.39
597.104	12084.57
597.463	12061.52
597.822	12100.39
598.18	12155.08
598.538	12108.75
598.897	12178.35
599.255	12015.87
599.613	12276.2
599.972	12152.14
600.33	12303.55
600.688	12194.85
601.046	12301.74
601.404	12282.53
601.762	12249.08
602.12	12341.06
602.478	12334.51
602.836	12346.71
603.194	12349.2
603.552	12427.39
603.91	12251.34
604.268	12346.03
604.625	12228.75
604.983	12402.3
605.341	12273.94
605.698	12393.49
606.056	12425.35
606.413	12360.49
606.771	12389.42
607.128	12414.5
607.485	12337.44
607.843	12459.25
608.2	12463.54
608.557	12501.73
608.914	12443.43
609.272	12506.48
609.629	12538.34
609.986	12656.31
610.343	12551
610.7	12622.41
611.057	12582.18
611.414	12682.29
611.771	12634.16
612.127	12740.37
612.484	12662.41
612.841	12731.78
613.198	12689.53
613.554	12720.26
613.911	12800.03
614.267	12780.37
614.624	12717.77
614.98	12746.7
615.337	12855.17
615.693	12826.47
616.05	12811.56
616.406	12926.36
616.762	12805.45
617.118	12773.36
617.475	12770.2
617.831	12873.7
618.187	12863.53
618.543	12892.68
618.899	12947.37
619.255	12993.7
619.611	12949.63
619.967	12969.07
620.323	12926.58
620.678	12962.74
621.034	12877.99
621.39	12889.52
621.746	12923.42
622.101	12950.99
622.457	12902.85
622.812	12946.47
623.168	12979.69
623.523	12917.77
623.879	12995.51
624.234	12876.64
624.589	12914.6
624.945	13014.49
625.3	12904.66
625.655	12935.17
626.01	12957.54
626.365	12963.19
626.72	12938.33
627.075	12926.13
627.43	12965.45
627.785	12965.9
628.14	13000.48
628.495	12903.98
628.85	13043.87
629.205	12884.1
629.559	12920.25
629.914	12938.11
630.269	12897.88
630.623	12920.25
630.978	12849.07
631.332	12919.8
631.687	12886.58
632.041	12885.45
632.396	12925.23
632.75	12803.19
633.104	12859.24
633.459	12732.91
633.813	12732.69
634.167	12676.42
634.521	12792.35
634.875	12764.1
635.229	12758.9
635.583	12617.89
635.937	12684.55
636.291	12671.67
636.645	12665.57
636.999	12619.47
637.352	12729.52
637.706	12467.84
638.06	12593.71
638.413	12484.11
638.767	12618.34
639.121	12559.36
639.474	12482.98
639.828	12554.84
640.181	12558.68
640.534	12592.8
640.888	12524.78
641.241	12391.23
641.594	12425.8
641.947	12446.37
642.301	12456.31
642.654	12405.69
643.007	12484.78
643.36	12416.76
643.713	12391.45
644.066	12456.99
644.419	12378.57
644.771	12345.81
645.124	12198.92
645.477	12252.93
645.83	12104.46
646.182	11941.3
646.535	12073.72
646.888	12056.55
647.24	11986.72
647.593	12001.18
647.945	12008.41
648.298	11911.47
648.65	11973.61
649.002	11728.65
649.355	11953.27
649.707	11925.25
650.059	12044.8
650.411	12138.13
650.763	12143.78
651.115	12272.81
651.467	12248.86
651.819	12242.98
652.171	12167.05
652.523	12211.57
652.875	12136.55
653.227	12125.25
653.578	12221.06
653.93	12231.91
654.282	12168.41
654.633	12130.67
654.985	12186.04
655.337	12135.87
655.688	12162.99
656.039	12225.81
656.391	12115.75
656.742	12148.3
657.094	12117.79
657.445	12149.2
657.796	12204.57
658.147	12301.96
658.498	12200.95
658.849	12222.64
659.2	12185.81
659.551	12133.61
659.902	12211.57
660.253	12145.36
660.604	12145.36
660.955	12148.97
661.306	12226.03
661.656	12134.74
662.007	12161.63
662.358	12209.76
662.708	12147.62
663.059	12195.3
663.409	12066.26
663.76	12189.88
664.11	12213.61
664.461	12239.82
664.811	12191.69
665.161	12223.32
665.511	12251.57
665.862	12154.4
666.212	12219.93
666.562	12207.96
666.912	12136.09
667.262	12147.39
667.612	12203.21
667.962	12174.74
668.312	12113.04
668.662	12177
669.011	12148.07
669.361	12153.04
669.711	12119.82
670.06	12117.56
670.41	12107.39
670.76	12123.66
671.109	12187.39
671.459	12131.8
671.808	12181.97
672.157	12116.66
672.507	12036.21
672.856	12035.53
673.205	12079.6
673.554	12101.07
673.904	12081.18
674.253	12038.69
674.602	12048.64
674.951	11880.96
675.3	11835.31
675.649	12044.12
675.998	11964.35
676.346	11898.81
676.695	11992.37
677.044	11930.22
677.393	11845.25
677.741	11990.79
678.09	11975.19
678.438	11802.77
678.787	11935.19
679.135	11863.56
679.484	11759.15
679.832	11862.43
680.181	11788.76
680.529	11769.1
680.877	11779.49
681.225	11766.16
681.573	11831.92
681.922	11722.77
682.27	11699.95
682.618	11695.43
682.966	11573.4
683.314	11653.39
683.661	11637.35
684.009	11574.53
684.357	11484.59
684.705	11581.31
685.053	11614.3
685.4	11573.17
685.748	11466.96
686.095	11457.69
686.443	11450.01
686.79	11365.94
687.138	11445.26
687.485	11377.7
687.832	11333.18
688.18	11365.94
688.527	11330.46
688.874	11273.29
689.221	11189.68
689.568	11220.19
689.915	11151.94
690.262	11142.67
690.609	11064.26
690.956	11116.01
691.303	11075.1
691.65	11052.51
691.997	11056.57
692.344	11011.6
692.69	10911.27
693.037	11007.08
693.383	10825.85
693.73	10879.4
694.077	10760.99
694.423	10764.6
694.769	10778.16
695.116	10690.26
695.462	10683.7
695.808	10657.49
696.155	10674.21
696.501	10571.61
696.847	10520.77
697.193	10507.66
697.539	10489.81
697.885	10419.08
698.231	10390.15
698.577	10396.25
698.923	10380.43
699.269	10301.11
699.614	10303.6
699.96	10237.16
700.306	10167.11
700.651	10150.83
700.997	10147.45
701.342	10072.19
701.688	10118.29
702.033	10020.22
702.379	10007.79
702.724	9965.98
703.069	9996.94
703.415	9902.03
703.76	9897.28
704.105	9803.95
704.45	9739.09
704.795	9832.65
705.14	9743.84
705.485	9718.98
705.83	9713.56
706.175	9634.92
706.52	9652.32
706.865	9598.76
707.209	9643.96
707.554	9618.65
707.899	9614.8
708.243	9491.19
708.588	9488.25
708.932	9494.81
709.277	9437.86
709.621	9421.81
709.966	9401.02
710.31	9385.43
710.654	9260.01
710.998	9293.23
711.342	9244.42
711.687	9307.69
712.031	9183.18
712.375	9205.55
712.719	9160.8
713.063	9199
713.407	9210.29
713.75	9153.57
714.094	9180.46
714.438	9103.86
714.782	9126.91
715.125	9043.97
715.469	9085.1
715.812	9037.87
716.156	9028.6
716.499	9004.2
716.843	9095.27
717.186	8968.72
717.53	9021.37
717.873	9018.44
718.216	8946.57
718.559	8876.74
718.902	8896.86
719.246	8919.23
719.589	8912
719.932	8871.09
720.275	8835.84
720.617	8884.65
720.96	8801.72
721.303	8845.78
721.646	8848.5
721.989	8777.31
722.331	8877.87
722.674	8763.98
723.016	8784.09
723.359	8751.32
723.701	8745.45
724.044	8732.34
724.386	8758.56
724.729	8723.98
725.071	8689.86
725.413	8685.79
725.755	8654.6
726.097	8636.07
726.439	8646.47
726.782	8685.56
727.124	8666.81
727.465	8560.59
727.807	8610.99
728.149	8609.63
728.491	8657.99
728.833	8596.75
729.175	8579.58
729.516	8560.14
729.858	8625.23
730.199	8561.95
730.541	8557.43
730.882	8492.35
731.224	8618.9
731.565	8531.44
731.906	8518.11
732.248	8567.6
732.589	8527.6
732.93	8465.23
733.271	8483.53
733.612	8445.79
733.953	8539.35
734.294	8508.84
734.635	8528.5
734.976	8513.14
735.317	8447.6
735.658	8472.69
735.999	8498.45
736.339	8472.23
736.68	8599.24
737.021	8509.3
737.361	8474.72
737.702	8461.16
738.042	8496.42
738.383	8558.33
738.723	8476.98
739.063	8521.05
739.404	8523.98
739.744	8535.96
740.084	8508.84
740.424	8554.72
740.764	8480.14
741.104	8563.76
741.444	8566.47
741.784	8560.59
742.124	8580.93
742.464	8587.26
742.804	8577.99
743.143	8554.94
743.483	8573.93
743.823	8545.91
744.162	8612.57
744.502	8627.94
744.841	8662.06
745.181	8667.48
745.52	8656.18
745.86	8768.95
746.199	8777.09
746.538	8735.28
746.877	8863.41
747.216	8832.45
747.556	8852.11
747.895	8872.9
748.234	8935.5
748.573	8951.32
748.911	8995.84
749.25	9106.57
749.589	9097.08
749.928	9215.04
750.267	9285.77
750.605	9326
750.944	9329.16
751.283	9400.35
751.621	9482.83
751.96	9515.82
752.298	9654.8
752.636	9734.57
752.975	9777.51
753.313	9815.48
753.651	9969.6
753.989	9928.69
754.327	10099.54
754.666	10159.87
755.004	10291.85
755.342	10480.54
755.679	10513.99
756.017	10583.37
756.355	10678.96
756.693	10767.32
757.031	10992.39
757.368	11016.12
757.706	11178.6
758.044	11346.74
758.381	11428.99
758.719	11588.54
759.056	11720.74
759.394	11852.26
759.731	11874.41
760.068	12079.15
760.405	12293.83
760.743	12425.58
761.08	12654.05
761.417	12678.23
761.754	12875.28
762.091	12976.3
762.428	13105.79
762.765	13196.4
763.102	13429.39
763.438	13552.55
763.775	13713
764.112	13847.91
764.449	14061.47
764.785	14179.88
765.122	14192.99
765.458	14316.83
765.795	14566.54
766.131	14705.07
766.467	14810.6
766.804	14919.52
767.14	15044.27
767.476	15188.67
767.812	15292.17
768.148	15417.59
768.485	15481.54
768.821	15628.66
769.157	15859.84
769.492	15828.65
769.828	15961.98
770.164	16072.94
770.5	16114.52
770.836	16289.88
771.171	16292.37
771.507	16441.06
771.842	16432.03
772.178	16677.44
772.513	16732.81
772.849	16841.51
773.184	16906.36
773.519	16940.03
773.855	16966.47
774.19	17065.68
774.525	17163.53
774.86	17245.79
775.195	17412.56
775.53	17323.75
775.865	17345.9
776.2	17374.6
776.535	17326.69
776.87	17481.04
777.205	17436.97
777.539	17438.33
777.874	17694.59
778.209	17566.23
778.543	17669.28
778.878	17556.29
779.212	17646.68
779.547	17629.73
779.881	17869.05
780.215	17763.97
780.55	17829.28
780.884	17760.13
781.218	17720.35
781.552	17777.3
781.886	17873.12
782.22	17839.9
782.554	17701.82
782.888	17644.42
783.222	17622.73
783.556	17658.21
783.889	17667.02
784.223	17692.11
784.557	17660.02
784.89	17691.65
785.224	17664.31
785.557	17636.51
785.891	17688.94
786.224	17601.71
786.558	17632.9
786.891	17566.68
787.224	17515.84
787.557	17578.89
787.891	17613.24
788.224	17623.86
788.557	17497.08
788.89	17477.87
789.223	17513.58
789.556	17390.87
789.888	17350.87
790.221	17336.86
790.554	17275.62
790.887	17304.09
791.219	17273.59
791.552	17271.55
791.884	17279.46
792.217	17271.1
792.549	17170.76
792.882	17153.36
793.214	16986.59
793.546	17072.69
793.879	17020.48
794.211	16916.31
794.543	17024.1
794.875	17032.46
795.207	17012.35
795.539	16880.83
795.871	16960.83
796.203	16832.69
796.535	16836.08
796.867	16681.51
797.198	16702.75
797.53	16701.4
797.862	16630.44
798.193	16674.96
798.525	16465.92
798.856	16576.65
799.188	16523.55
799.519	16383.89
799.85	16269.32
800.182	16354.74
800.513	16373.5
800.844	16196.1
801.175	16372.82
801.506	16284.46
801.837	16289.88
802.168	16208.53
802.499	16163.33
802.83	16030.68
803.161	15978.93
803.491	15969.44
803.822	16103.9
804.153	15968.76
804.483	15886.28
804.814	15808.31
805.145	15748.2
805.475	15755.66
805.805	15737.35
806.136	15710.24
806.466	15714.3
806.796	15746.17
807.126	15626.62
807.457	15591.6
807.787	15568.77
808.117	15481.09
808.447	15443.13
808.777	15467.98
809.107	15433.86
809.436	15455.55
809.766	15447.64
810.096	15328.55
810.426	15299.4
810.755	15270.02
811.085	15272.73
811.414	15162.68
811.744	15185.96
812.073	15072.06
812.403	15065.28
812.732	15060.76
813.061	15058.95
813.39	15037.71
813.719	15011.72
814.049	15045.17
814.378	14940.99
814.707	14967.88
815.036	14875.23
815.365	14815.8
815.693	14743.71
816.022	14765.18
816.351	14786.65
816.68	14615.8
817.008	14676.14
817.337	14582.13
817.665	14623.49
817.994	14536.03
818.322	14525.86
818.651	14512.3
818.979	14438.86
819.307	14568.57
819.636	14569.25
819.964	14388.69
820.292	14495.81
820.62	14387.79
820.948	14377.62
821.276	14462.59
821.604	14357.05
821.932	14385.53
822.259	14352.53
822.587	14337.62
822.915	14321.8
823.243	14404.28
823.57	14341.91
823.898	14375.13
824.225	14367.9
824.553	14396.15
824.88	14426.2
825.207	14421.23
825.535	14422.36
825.862	14436.6
826.189	14355.24
826.516	14484.28
826.843	14533.32
827.17	14428.46
827.497	14588.01
827.824	14501.45
828.151	14365.87
828.478	14473.43
828.805	14456.03
829.131	14449.03
829.458	14492.87
829.785	14349.82
830.111	14382.81
830.438	14518.18
830.764	14388.46
831.09	14502.13
831.417	14317.96
831.743	14409.48
832.069	14343.94
832.395	14390.5
832.722	14374.23
833.048	14357.05
833.374	14320.89
833.7	14261.24
834.026	14365.64
834.351	14376.49
834.677	14262.37
835.003	14348.24
835.329	14213.55
835.654	14200.9
835.98	14190.05
836.306	14195.7
836.631	14159.54
836.956	14213.33
837.282	14221.24
837.607	14123.39
837.932	14174.68
838.258	14109.83
838.583	14106.21
838.908	14036.83
839.233	14081.35
839.558	14005.65
839.883	13976.5
840.208	13881.13
840.533	13872.09
840.858	13922.26
841.182	13918.65
841.507	13909.15
841.832	13903.05
842.156	13818.08
842.481	13815.82
842.805	13816.95
843.13	13731.53
843.454	13658.54
843.778	13706.45
844.103	13664.87
844.427	13588.94
844.751	13697.63
845.075	13537.41
845.399	13517.98
845.723	13444.53
846.047	13422.39
846.371	13327.93
846.695	13354.82
847.019	13233.24
847.343	13183.3
847.666	13128.84
847.99	13066.24
848.313	13092
848.637	12993.02
848.96	12985.11
849.284	12884.32
849.607	12816.08
849.931	12830.09
850.254	12695.85
850.577	12632.35
850.9	12572.47
851.223	12567.49
851.546	12556.42
851.869	12441.4
852.192	12487.72
852.515	12354.39
852.838	12418.12
853.161	12322.53
853.483	12231.23
853.806	12209.99
854.129	12208.63
854.451	12198.01
854.774	12070.11
855.096	12103.33
855.419	12091.35
855.741	12045.02
856.063	12040.05
856.385	11869.21
856.708	11904.91
857.03	11873.5
857.352	11803.9
857.674	11894.97
857.996	11804.35
858.318	11647.97
858.64	11710.34
858.961	11671.92
859.283	11574.53
859.605	11578.37
859.926	11643.22
860.248	11505.83
860.57	11489.1
860.891	11513.06
861.212	11436.9
861.534	11370.24
861.855	11380.18
862.176	11416.11
862.498	11368.2
862.819	11320.07
863.14	11307.19
863.461	11255.89
863.782	11185.61
864.103	11259.51
864.424	11196.68
864.745	11145.38
865.065	11167.53
865.386	11114.65
865.707	11060.19
866.027	11102
866.348	11057.48
866.668	11106.52
866.989	11122.11
867.309	11003.47
867.63	10985.62
867.95	11001.66
868.27	10916.92
868.59	10959.63
868.91	10959.63
869.23	10900.87
869.55	10924.15
869.87	10940.64
870.19	10908.1
870.51	10877.6
870.83	10895.22
871.15	10817.94
871.469	10773.42
871.789	10830.36
872.109	10720.76
872.428	10742.01
872.748	10784.04
873.067	10738.16
873.386	10726.19
873.706	10685.51
874.025	10626.3
874.344	10600.99
874.663	10639.86
874.982	10617.26
875.301	10596.02
875.62	10579.3
875.939	10532.07
876.258	10492.07
876.577	10533.65
876.896	10530.71
877.214	10478.74
877.533	10518.96
877.852	10491.62
878.17	10515.57
878.489	10531.84
878.807	10455.01
879.125	10375.69
879.444	10453.65
879.762	10305.41
880.08	10427.89
880.398	10229.25
880.716	10297.95
881.034	10279.64
881.352	10270.38
881.67	10278.06
881.988	10249.14
882.306	10191.29
882.624	10164.17
882.941	10139.54
883.259	10090.05
883.577	10108.58
883.894	10073.32
884.212	10072.19
884.529	10024.74
884.846	10112.42
885.164	9991.29
885.481	10002.14
885.798	9883.95
886.115	9899.99
886.432	9928.69
886.75	9878.53
887.067	9870.16
887.383	9861.58
887.7	9852.99
888.017	9707.68
888.334	9811.63
888.651	9747.91
888.967	9703.39
889.284	9660.68
889.6	9719.89
889.917	9558.31
890.233	9516.5
890.55	9510.17
890.866	9560.57
891.182	9471.53
891.498	9380.23
891.815	9417.75
892.131	9365.09
892.447	9362.83
892.763	9294.81
893.079	9304.08
893.395	9349.5
893.71	9281.48
894.026	9272.89
894.342	9151.54
894.657	9151.99
894.973	9150.18
895.289	9084.65
895.604	9154.25
895.92	9028.6
896.235	9064.54
896.55	8993.58
896.865	9051.88
897.181	8919
897.496	8904.99
897.811	8860.7
898.126	8857.31
898.441	8796.29
898.756	8837.2
899.071	8692.79
899.386	8692.79
899.7	8695.28
900.015	8639.24
900.33	8602.4
900.644	8555.85
900.959	8627.94
901.273	8490.54
901.588	8509.3
901.902	8450.09
902.216	8476.98
902.531	8389.75
902.845	8385.23
903.159	8321.73
903.473	8394.04
903.787	8335.74
904.101	8253.26
904.415	8206.71
904.729	8193.6
905.042	8131
905.356	8137.33
905.67	8166.93
905.984	8119.02
906.297	8074.28
906.611	7990.21
906.924	7959.25
907.237	8009.2
907.551	7867.05
907.864	7893.49
908.177	7795.19
908.491	7840.16
908.804	7780.73
909.117	7691.01
909.43	7695.76
909.743	7685.81
910.056	7730.56
910.368	7641.97
910.681	7578.7
910.994	7610.34
911.307	7552.03
911.619	7489.66
911.932	7479.72
912.244	7391.13
912.557	7487.63
912.869	7326.05
913.181	7280.4
913.494	7291.02
913.806	7301.19
914.118	7318.14
914.43	7199.05
914.742	7127.64
915.054	7184.13
915.366	7091.03
915.678	7141.2
915.99	7067.53
916.302	7075.21
916.613	6998.15
916.925	6981.2
917.236	7015.78
917.548	6912.73
917.859	6874.76
918.171	6909.56
918.482	6863.92
918.794	6813.3
919.105	6837.25
919.416	6767.42
919.727	6769
920.038	6649.23
920.349	6643.81
920.66	6691.72
920.971	6647.2
921.282	6628.22
921.593	6542.12
921.903	6542.34
922.214	6508.67
922.525	6508.22
922.835	6474.77
923.146	6369.47
923.456	6398.17
923.767	6376.7
924.077	6336.7
924.387	6352.29
924.697	6285.63
925.008	6262.8
925.318	6223.03
925.628	6170.15
925.938	6260.54
926.248	6181.22
926.558	6142.13
926.867	6116.36
927.177	6126.08
927.487	6054.45
927.796	6060.55
928.106	5995.46
928.416	5995.69
928.725	6004.28
929.034	5962.02
929.344	5934.22
929.653	5948.46
929.962	5916.6
930.271	5821.91
930.581	5781.91
930.89	5832.76
931.199	5741.46
931.508	5745.07
931.817	5731.06
932.125	5735.36
932.434	5737.39
932.743	5667.11
933.051	5595.47
933.36	5600.67
933.669	5586.66
933.977	5562.25
934.286	5576.27
934.594	5458.98
934.902	5475.03
935.21	5498.53
935.519	5474.8
935.827	5412.65
936.135	5433.9
936.443	5369.04
936.751	5296.27
937.059	5370.85
937.367	5283.62
937.674	5332.43
937.982	5290.62
938.29	5221.25
938.597	5285.65
938.905	5163.85
939.213	5187.58
939.52	5164.75
939.827	5194.58
940.135	5115.49
940.442	5109.84
940.749	5076.62
941.056	5131.98
941.363	5063.51
941.67	5022.16
941.977	5008.15
942.284	4945.77
942.591	4964.3
942.898	4957.07
943.205	4929.5
943.511	4862.39
943.818	4825.78
944.125	4825.1
944.431	4861.26
944.738	4801.37
945.044	4809.28
945.35	4745.33
945.657	4765.67
945.963	4744.88
946.269	4652.22
946.575	4710.75
946.881	4640.92
947.187	4612
947.493	4624.43
947.799	4608.83
948.105	4588.95
948.41	4555.5
948.716	4572
949.022	4502.62
949.327	4483.41
949.633	4461.72
949.938	4463.98
950.244	4488.16
950.549	4443.87
950.854	4393.47
951.16	4415.39
951.465	4394.83
951.77	4323.42
952.075	4309.18
952.38	4322.97
952.685	4287.49
952.99	4283.64
953.294	4264.89
953.599	4247.04
953.904	4226.24
954.209	4224.89
954.513	4192.8
954.818	4176.08
955.122	4126.13
955.426	4160.48
955.731	4134.04
956.035	4106.7
956.339	4097.43
956.643	4099.92
956.948	4053.37
957.252	4000.04
957.556	3995.29
957.86	3988.51
958.163	3984.22
958.467	3945.12
958.771	3908.51
959.075	3956.42
959.378	3920.49
959.682	3900.6
959.985	3896.99
960.289	3877.1
960.592	3869.64
960.896	3841.4
961.199	3818.12
961.502	3783.32
961.805	3760.95
962.108	3752.36
962.411	3769.31
962.714	3753.04
963.017	3732.02
963.32	3708.97
963.623	3676.65
963.926	3641.18
964.228	3637.11
964.531	3599.14
964.833	3629.2
965.136	3608.41
965.438	3624.23
965.741	3553.95
966.043	3546.71
966.345	3547.17
966.648	3530.9
966.95	3521.63
967.252	3498.35
967.554	3502.65
967.856	3470.78
968.158	3442.54
968.46	3446.15
968.761	3397.11
969.063	3373.39
969.365	3378.58
969.666	3374.74
969.968	3334.74
970.269	3339.94
970.571	3327.29
970.872	3330.45
971.174	3341.97
971.475	3301.3
971.776	3269.66
972.077	3260.17
972.378	3267.4
972.679	3244.35
972.98	3233.95
973.281	3202.09
973.582	3206.84
973.883	3187.18
974.183	3148.08
974.484	3144.01
974.785	3116.44
975.085	3150.57
975.386	3132.49
975.686	3105.82
975.986	3111.02
976.287	3033.28
976.587	3047.29
976.887	3061.3
977.187	3022.21
977.487	3039.61
977.787	2972.27
978.087	3006.16
978.387	2964.13
978.687	2962.1
978.987	2982.89
979.286	2959.39
979.586	2938.14
979.885	2904.92
980.185	2879.84
980.484	2891.36
980.784	2921.65
981.083	2878.48
981.382	2859.28
981.682	2832.61
981.981	2826.73
982.28	2796.45
982.579	2809.11
982.878	2805.04
983.177	2781.99
983.475	2747.41
983.774	2744.93
984.073	2728.43
984.372	2693.63
984.67	2697.92
984.969	2670.58
985.267	2688.43
985.566	2687.53
985.864	2656.34
986.162	2670.58
986.461	2615.21
986.759	2654.31
987.057	2638.26
987.355	2589.23
987.653	2583.35
987.951	2574.31
988.249	2613.18
988.547	2548.77
988.844	2524.14
989.142	2517.36
989.44	2472.62
989.737	2472.17
990.035	2499.06
990.332	2467.65
990.63	2478.27
990.927	2440.53
991.224	2424.26
991.521	2422.45
991.819	2444.37
992.116	2404.82
992.413	2375.22
992.71	2372.51
993.006	2359.18
993.303	2356.69
993.6	2337.71
993.897	2361.66
994.193	2337.93
994.49	2314.66
994.787	2311.27
995.083	2264.04
995.379	2292.74
995.676	2252.06
995.972	2264.49
996.268	2225.39
996.565	2225.17
996.861	2224.04
997.157	2227.43
997.453	2236.01
997.749	2190.14
998.044	2178.62
998.34	2179.52
998.636	2156.69
998.932	2169.12
999.227	2142.23
999.523	2112.85
999.818	2097.04
1000.114	2099.3
1000.409	2083.7
1000.704	2076.47
1001	2042.35
1001.295	2075.57
1001.59	2050.71
1001.885	2075.57
1002.18	2041.9
1002.475	2022.91
1002.77	2015.68
1003.065	1992.41
1003.359	1982.46
1003.654	1951.73
1003.949	1948.79
1004.243	1949.69
1004.538	1903.14
1004.832	1929.81
1005.127	1924.38
1005.421	1911.73
1005.715	1885.74
1006.009	1890.49
1006.304	1902.01
1006.598	1884.61
1006.892	1846.87
1007.186	1845.52
1007.48	1855.23
1007.773	1827.21
1008.067	1802.35
1008.361	1818.4
1008.655	1744.73
1008.948	1791.28
1009.242	1770.49
1009.535	1760.55
1009.829	1748.34
1010.122	1703.6
1010.415	1709.47
1010.708	1719.42
1011.001	1695.46
1011.295	1702.92
1011.588	1709.7
1011.881	1676.26
1012.173	1666.09
1012.466	1680.32
1012.759	1663.37
1013.052	1654.34
1013.344	1652.53
1013.637	1628.35
1013.93	1609.82
1014.222	1579.76
1014.514	1608.23
1014.807	1580.66
1015.099	1579.31
1015.391	1576.14
1015.683	1539.31
1015.976	1535.24
1016.268	1563.72
1016.56	1555.58
1016.851	1511.29
1017.143	1473.32
1017.435	1511.74
1017.727	1492.53
1018.018	1467.67
1018.31	1476.26
1018.602	1468.13
1018.893	1424.51
1019.185	1459.99
1019.476	1423.61
1019.767	1425.19
1020.058	1407.56
1020.35	1384.51
1020.641	1372.08
1020.932	1389.94
1021.223	1378.18
1021.514	1391.97
1021.804	1382.48
1022.095	1332.99
1022.386	1352.42
1022.677	1323.04
1022.967	1312.42
1023.258	1289.37
1023.548	1304.29
1023.839	1324.63
1024.129	1314.46
1024.419	1278.3
1024.709	1270.62
1025	1282.14
1025.29	1246.21
1025.58	1251.86
1025.87	1268.36
1026.16	1227.68
1026.449	1230.17
1026.739	1199.66
1027.029	1226.32
1027.319	1216.61
1027.608	1191.3
1027.898	1177.29
1028.187	1176.61
1028.477	1179.09
1028.766	1147.23
1029.055	1162.14
1029.344	1163.5
1029.634	1145.87
1029.923	1124.18
1030.212	1159.21
1030.501	1135.48
1030.79	1089.38
1031.078	1092.09
1031.367	1100.23
1031.656	1113.11
1031.945	1067.68
1032.233	1091.19
1032.522	1074.24
1032.81	1055.71
1033.099	1056.61
1033.387	1046.67
1033.675	1025.43
1033.963	1018.87
1034.251	1048.7
1034.54	1009.83
1034.828	1023.62
1035.116	1020.23
1035.403	1011.87
1035.691	993.11
1035.979	1001.02
1036.267	981.13
1036.554	974.13
1036.842	980.23
1037.129	983.39
1037.417	964.64
1037.704	962.6
1037.992	960.12
1038.279	950.85
1038.566	930.96
1038.853	930.96
1039.14	930.96
