Data from hue_310_FLMS001491_39.txt Node
Date: Mon Feb 06 15:49:37 GMT 2017
User: dcchb
Spectrometer: FLMS00149
Trigger mode: 0
Integration Time (sec): 2.000000E-2
Scans to average: 10
Electric dark correction enabled: true
Nonlinearity correction enabled: false
Boxcar width: 0
XAxis mode: Wavelengths
Number of Pixels in Spectrum: 2048
>>>>>Begin Spectral Data<<<<<
341.393	-11.91
341.776	-11.91
342.16	-11.91
342.543	-69.98
342.927	-76.09
343.31	-55.3
343.693	-68.63
344.077	-77.22
344.46	-33.6
344.843	-76.54
345.226	-45.13
345.61	-42.19
345.993	-13.94
346.376	-2.64
346.759	10.92
347.142	27.41
347.525	21.76
347.908	63.12
348.291	80.97
348.674	93.63
349.057	117.36
349.44	132.72
349.823	137.92
350.206	149.22
350.588	213.85
350.971	203.91
351.354	216.34
351.737	232.15
352.119	242.55
352.502	250.46
352.884	285.49
353.267	293.85
353.65	282.78
354.032	308.99
354.414	309.67
354.797	309.44
355.179	315.54
355.562	314.19
355.944	326.62
356.326	348.99
356.709	334.53
357.091	351.47
357.473	345.6
357.855	340.85
358.238	333.85
358.62	347.63
359.002	327.29
359.384	325.71
359.766	345.82
360.148	340.4
360.53	334.53
360.912	319.61
361.294	349.21
361.676	315.99
362.057	320.51
362.439	332.04
362.821	304.02
363.203	341.98
363.584	334.53
363.966	327.52
364.348	334.3
364.729	317.12
365.111	331.14
365.493	325.26
365.874	329.1
366.256	323.9
366.637	313.51
367.019	308.76
367.4	301.31
367.781	331.14
368.163	309.89
368.544	308.99
368.925	311.02
369.306	304.02
369.688	347.63
370.069	295.88
370.45	291.36
370.831	301.31
371.212	318.71
371.593	304.24
371.974	307.86
372.355	332.94
372.736	328.42
373.117	326.39
373.498	329.78
373.879	316.22
374.26	308.76
374.641	318.03
375.021	337.01
375.402	324.81
375.783	323
376.163	318.03
376.544	321.42
376.925	316.67
377.305	335.43
377.686	317.12
378.066	320.97
378.447	344.02
378.827	332.49
379.208	315.99
379.588	328.65
379.968	318.25
380.349	344.47
380.729	317.8
381.109	325.49
381.489	334.3
381.87	334.3
382.25	326.16
382.63	360.51
383.01	334.75
383.39	325.26
383.77	344.47
384.15	324.36
384.53	341.98
384.91	339.5
385.29	334.3
385.67	342.66
386.049	349.44
386.429	355.32
386.809	349.21
387.189	360.51
387.568	337.46
387.948	334.75
388.328	357.12
388.707	360.06
389.087	349.67
389.466	356.9
389.846	368.42
390.225	361.19
390.605	366.61
390.984	358.71
391.363	360.06
391.743	343.79
392.122	355.77
392.501	365.03
392.881	374.52
393.26	368.65
393.639	382.66
394.018	379.72
394.397	384.02
394.776	383.79
395.155	382.43
395.534	394.18
395.913	380.63
396.292	370.46
396.671	377.46
397.05	389.44
397.429	379.5
397.808	387.86
398.186	401.87
398.565	379.27
398.944	386.05
399.323	398.7
399.701	386.05
400.08	400.96
400.458	395.54
400.837	413.85
401.215	393.05
401.594	392.83
401.972	387.18
402.351	395.99
402.729	407.97
403.107	410.91
403.486	393.96
403.864	405.48
404.242	426.5
404.62	427.18
404.999	424.69
405.377	428.53
405.755	436.9
406.133	429.21
406.511	443
406.889	435.77
407.267	437.35
407.645	470.34
408.023	437.35
408.401	440.06
408.779	450.91
409.156	457.91
409.534	460.62
409.912	484.8
410.29	483.45
410.667	495.88
411.045	504.46
411.422	485.93
411.8	492.71
412.178	505.82
412.555	518.02
412.933	512.15
413.31	532.03
413.687	521.19
414.065	537.01
414.442	543.56
414.819	536.78
415.197	560.06
415.574	568.87
415.951	584.46
416.328	575.42
416.705	569.32
417.082	574.29
417.46	625.14
417.837	622.88
418.214	632.6
418.591	625.59
418.967	624.01
419.344	636.44
419.721	659.49
420.098	627.17
420.475	651.58
420.852	660.62
421.228	660.17
421.605	667.85
421.982	664.69
422.358	703.55
422.735	709.66
423.111	693.39
423.488	709.43
423.864	719.37
424.241	739.94
424.617	735.19
424.994	740.16
425.37	751.69
425.746	763.67
426.123	768.86
426.499	777.68
426.875	787.62
427.251	788.75
427.627	799.6
428.003	794.85
428.379	834.17
428.756	818.13
429.132	800.95
429.507	805.25
429.883	852.25
430.259	831.01
430.635	854.96
431.011	860.16
431.387	861.97
431.763	905.13
432.138	908.52
432.514	897.9
432.89	899.71
433.265	907.84
433.641	953.04
434.016	964.79
434.392	947.84
434.767	984
435.143	996.43
435.518	978.35
435.894	979.93
436.269	998.69
436.644	1045.01
437.02	1044.34
437.395	1028.29
437.77	1070.1
438.145	1091.57
438.52	1075.75
438.895	1068.29
439.271	1058.12
439.646	1073.04
440.021	1082.3
440.395	1098.12
440.77	1086.6
441.145	1130.66
441.52	1116.43
441.895	1129.31
442.27	1157.78
442.645	1172.47
443.019	1152.13
443.394	1146.48
443.769	1148.06
444.143	1164.11
444.518	1166.82
444.892	1173.83
445.267	1168.85
445.641	1191.45
446.016	1185.12
446.39	1192.36
446.764	1211.11
447.139	1182.19
447.513	1206.59
447.887	1202.07
448.262	1198.46
448.636	1220.38
449.01	1231
449.384	1216.08
449.758	1238.91
450.132	1240.26
450.506	1259.47
450.88	1240.04
451.254	1219.47
451.628	1260.38
452.002	1264.44
452.376	1245.24
452.75	1269.87
453.123	1252.24
453.497	1295.86
453.871	1301.73
454.244	1319.13
454.618	1318.23
454.992	1331.11
455.365	1323.43
455.739	1375.4
456.112	1374.72
456.486	1372.01
456.859	1371.79
457.232	1387.83
457.606	1392.35
457.979	1381.96
458.352	1397.55
458.725	1422.18
459.099	1427.83
459.472	1433.93
459.845	1456.98
460.218	1464.21
460.591	1444.78
460.964	1428.06
461.337	1499.92
461.71	1496.75
462.083	1543.53
462.456	1510.31
462.829	1493.36
463.201	1518.45
463.574	1542.18
463.947	1536.3
464.32	1520.93
464.692	1598.67
465.065	1562.74
465.438	1619.24
465.81	1613.81
466.183	1642.06
466.555	1656.07
466.928	1648.61
467.3	1625.34
467.672	1670.08
468.045	1696.98
468.417	1686.81
468.789	1716.86
469.161	1744.88
469.534	1765.67
469.906	1757.09
470.278	1759.12
470.65	1762.51
471.022	1793.47
471.394	1825.56
471.766	1815.62
472.138	1833.02
472.51	1865.33
472.882	1901.72
473.253	1871.21
473.625	1882.06
473.997	1948.04
474.369	1939
474.74	1931.32
475.112	1975.84
475.484	1997.08
475.855	2016.51
476.227	2014.71
476.598	2087.93
476.97	2071.43
477.341	2135.83
477.713	2111.65
478.084	2148.04
478.455	2161.37
478.827	2184.65
479.198	2219.67
479.569	2214.48
479.94	2254.47
480.311	2314.59
480.682	2305.77
481.053	2389.16
481.424	2364.75
481.795	2386.22
482.166	2367.47
482.537	2422.83
482.908	2427.35
483.279	2481.36
483.65	2508.03
484.021	2512.55
484.391	2505.99
484.762	2572.88
485.133	2579.44
485.503	2601.81
485.874	2649.49
486.244	2636.84
486.615	2672.09
486.985	2696.04
487.356	2708.25
487.726	2766.1
488.097	2816.27
488.467	2790.28
488.837	2831.41
489.207	2877.06
489.578	2890.62
489.948	2883.38
490.318	2907.79
490.688	2898.07
491.058	2995.02
491.428	2991.86
491.798	2997.51
492.168	3039.99
492.538	3062.14
492.908	3058.52
493.278	3099.42
493.648	3136.94
494.017	3149.82
494.387	3187.11
494.757	3172.42
495.126	3201.57
495.496	3179.42
495.866	3223.71
496.235	3211.96
496.605	3269.14
496.974	3241.12
497.344	3276.37
497.713	3284.28
498.082	3338.97
498.452	3313.66
498.821	3336.93
499.19	3363.82
499.559	3373.77
499.928	3373.32
500.298	3434.56
500.667	3395.24
501.036	3381
501.405	3448.12
501.774	3437.27
502.143	3461
502.512	3438.4
502.88	3497.83
503.249	3502.8
503.618	3562.24
503.987	3514.1
504.356	3541.45
504.724	3562.91
505.093	3546.64
505.462	3576.47
505.83	3557.04
506.199	3615.79
506.567	3616.25
506.936	3597.72
507.304	3615.57
507.672	3663.03
508.041	3646.08
508.409	3667.77
508.777	3664.61
509.145	3700.09
509.514	3720.42
509.882	3750.25
510.25	3710.48
510.618	3711.61
510.986	3734.44
511.354	3767.66
511.722	3783.25
512.09	3755.68
512.458	3806.98
512.826	3819.18
513.193	3793.64
513.561	3830.48
513.929	3893.53
514.297	3841.55
514.664	3919.74
515.032	3872.29
515.4	3902.79
515.767	3880.65
516.135	3951.38
516.502	3918.61
516.869	3923.58
517.237	3902.34
517.604	3881.55
517.972	3907.31
518.339	3951.83
518.706	3934.88
519.073	3976.24
519.44	3916.8
519.808	4004.94
520.175	3993.41
520.542	4081.55
520.909	4031.15
521.276	3992.51
521.643	4035.9
522.009	4071.83
522.376	4105.5
522.743	4066.4
523.11	4097.82
523.477	4143.69
523.843	4134.65
524.21	4170.58
524.577	4170.58
524.943	4198.6
525.31	4193.86
525.676	4260.52
526.043	4237.93
526.409	4249
526.776	4314.76
527.142	4282.9
527.508	4311.82
527.874	4387.07
528.241	4326.51
528.607	4378.71
528.973	4377.58
529.339	4382.55
529.705	4435.43
530.071	4486.96
530.437	4490.57
530.803	4473.17
531.169	4494.87
531.535	4498.48
531.901	4557.46
532.267	4552.95
532.632	4556.79
532.998	4609.21
533.364	4609.67
533.73	4648.31
534.095	4674.52
534.461	4706.16
534.826	4658.71
535.192	4705.48
535.557	4759.49
535.923	4735.09
536.288	4759.72
536.653	4768.98
537.019	4768.08
537.384	4756.78
537.749	4797.68
538.114	4862.54
538.479	4838.14
538.845	4876.33
539.21	4850.56
539.575	4898.02
539.94	4958.13
540.305	4945.48
540.67	4945.7
541.034	4993.84
541.399	5030.45
541.764	5029.09
542.129	5063.44
542.494	5085.13
542.858	5071.35
543.223	5151.12
543.587	5104.34
543.952	5169.43
544.316	5148.64
544.681	5215.07
545.045	5220.95
545.41	5234.74
545.774	5233.83
546.138	5231.8
546.503	5253.94
546.867	5316.77
547.231	5396.54
547.595	5371.23
547.959	5356.54
548.324	5324.45
548.688	5358.12
549.052	5374.17
549.416	5405.35
549.779	5462.07
550.143	5441.06
550.507	5482.19
550.871	5449.87
551.235	5504.33
551.599	5540.26
551.962	5575.74
552.326	5584.56
552.689	5607.38
553.053	5603.31
553.417	5584.1
553.78	5674.05
554.143	5648.51
554.507	5629.3
554.87	5704.78
555.234	5708.85
555.597	5709.3
555.96	5699.58
556.323	5713.82
556.686	5715.85
557.05	5769.18
557.413	5777.32
557.776	5820.26
558.139	5865
558.502	5904.77
558.865	5855.96
559.228	5873.14
559.59	5872.91
559.953	5925.79
560.316	5928.95
560.679	5923.98
561.041	5973.92
561.404	6015.51
561.767	6017.99
562.129	6022.74
562.492	6083.3
562.854	6019.57
563.217	6053.24
563.579	6060.25
563.941	6126.92
564.304	6156.97
564.666	6191.09
565.028	6167.82
565.39	6223.18
565.753	6227.93
566.115	6200.81
566.477	6230.19
566.839	6289.85
567.201	6327.36
567.563	6338.44
567.925	6359.68
568.287	6382.73
568.648	6373.01
569.01	6442.84
569.372	6434.7
569.734	6456.62
570.095	6476.06
570.457	6530.29
570.819	6533.23
571.18	6507.02
571.542	6603.96
571.903	6629.05
572.265	6680.57
572.626	6657.07
572.987	6723.96
573.349	6767.35
573.71	6803.51
574.071	6874.24
574.432	6903.84
574.794	6939.32
575.155	7065.87
575.516	7012.77
575.877	7137.96
576.238	7163.72
576.599	7245.98
576.96	7320.33
577.32	7290.95
577.681	7423.83
578.042	7523.94
578.403	7560.55
578.763	7603.03
579.124	7714.67
579.485	7805.29
579.845	7935
580.206	8051.16
580.566	8080.31
580.927	8234.2
581.287	8352.17
581.648	8444.82
582.008	8551.71
582.368	8711.03
582.728	8821.99
583.089	9017.01
583.449	9028.31
583.809	9293.84
584.169	9467.84
584.529	9655.18
584.889	9813.6
585.249	9974.5
585.609	10166.13
585.969	10412.9
586.329	10618.55
586.688	10762.27
587.048	10944.64
587.408	11188.03
587.768	11427.57
588.127	11618.3
588.487	11843.83
588.846	12123.82
589.206	12326.3
589.565	12628.44
589.925	12813.29
590.284	13142.55
590.643	13375.09
591.003	13688.3
591.362	13928.97
591.721	14164.44
592.08	14416.41
592.44	14737.99
592.799	15030.41
593.158	15268.6
593.517	15536.84
593.876	15944.28
594.235	16201.9
594.593	16436.93
594.952	16810.02
595.311	16983.35
595.67	17331.37
596.029	17667.4
596.387	17914.4
596.746	18388.74
597.104	18499.47
597.463	18893.36
597.822	19184.65
598.18	19452.44
598.538	19693.79
598.897	20090.16
599.255	20222.14
599.613	20733.99
599.972	20903.7
600.33	21350.7
600.688	21418.04
601.046	21811.47
601.404	22194.29
601.762	22425.47
602.12	22735.52
602.478	23016.41
602.836	23385.67
603.194	23503.86
603.552	23796.28
603.91	23954.02
604.268	24305.65
604.625	24556.26
604.983	24849.36
605.341	24965.97
605.698	25326.18
606.056	25664.48
606.413	25700.41
606.771	26148.99
607.128	26403.67
607.485	26449.09
607.843	26703.78
608.2	27060.83
608.557	27330.88
608.914	27470.53
609.272	27692.9
609.629	27923.18
609.986	28318.87
610.343	28474.58
610.7	28648.36
611.057	28887.22
611.414	29176.25
611.771	29221.45
612.127	29540.31
612.484	29660.76
612.841	29949.79
613.198	29958.83
613.554	30127.19
613.911	30462.09
614.267	30644.01
614.624	30711.58
614.98	30940.73
615.337	31192.92
615.693	31237.67
616.05	31333.71
616.406	31625.68
616.762	31699.12
617.118	31917.42
617.475	32116.29
617.831	32159.45
618.187	32466.56
618.543	32504.98
618.899	32847.12
619.255	32881.47
619.611	33010.5
619.967	33104.96
620.323	33357.61
620.678	33322.58
621.034	33350.38
621.39	33547.89
621.746	33594.67
622.101	33993.98
622.457	33835.79
622.812	34029.23
623.168	34211.6
623.523	34291.37
623.879	34368.43
624.234	34306.06
624.589	34532.72
624.945	34565.49
625.3	34785.6
625.655	34827.63
626.01	34939.49
626.365	34930
626.72	34933.84
627.075	35089.54
627.43	35099.26
627.785	35168.86
628.14	35175.64
628.495	35171.12
628.85	35384.68
629.205	35282.08
629.559	35487.73
629.914	35394.62
630.269	35558.23
630.623	35522.75
630.978	35491.11
631.332	35498.57
631.687	35675.97
632.041	35568.17
632.396	35749.87
632.75	35565.01
633.104	35728.17
633.459	35635.29
633.813	35715.29
634.167	35804.33
634.521	35701.5
634.875	35770.66
635.229	35824.21
635.583	35662.18
635.937	35731.11
636.291	35770.2
636.645	35826.47
636.999	35725.23
637.352	35900.6
637.706	35806.81
638.06	35768.4
638.413	35669.64
638.767	35737.44
639.121	35799.58
639.474	35643.2
639.828	35638.46
640.181	35680.71
640.534	35711.22
640.888	35676.65
641.241	35628.51
641.594	35512.81
641.947	35628.51
642.301	35716.65
642.654	35635.74
643.007	35672.58
643.36	35743.54
643.713	35462.64
644.066	35720.71
644.419	35458.12
644.771	35409.99
645.124	35028.75
645.477	35043.22
645.83	34802.32
646.182	34756.44
646.535	34641.87
646.888	34628.99
647.24	34471.93
647.593	34668.31
647.945	34663.34
648.298	34558.71
648.65	34435.78
649.002	34417.24
649.355	34579.73
649.707	34457.92
650.059	34659.72
650.411	35043.89
650.763	35100.16
651.115	35416.09
651.467	35428.97
651.819	35384.45
652.171	35251.57
652.523	35282.31
652.875	35132.93
653.227	35106.72
653.578	35300.84
653.93	35159.37
654.282	35128.86
654.633	35099.71
654.985	35167.06
655.337	35147.17
655.688	35104.46
656.039	35259.03
656.391	34999.38
656.742	35082.09
657.094	35022.43
657.445	35044.35
657.796	35033.73
658.147	35125.25
658.498	34996.89
658.849	35017.45
659.2	35009.55
659.551	34911.92
659.902	35099.49
660.253	34955.54
660.604	35021.07
660.955	34824.92
661.306	35137.9
661.656	35026.49
662.007	34928.64
662.358	35037.12
662.708	34984.24
663.059	35002.54
663.409	34733.62
663.76	35043.22
664.11	34915.54
664.461	34921.19
664.811	34843.45
665.161	34885.03
665.511	34910.57
665.862	34953.73
666.212	34927.29
666.562	34987.4
666.912	34999.6
667.262	34959.38
667.612	34768.42
667.962	34991.24
668.312	34810.45
668.662	35024.69
669.011	34803.68
669.361	34683.23
669.711	34824.92
670.06	34713.51
670.41	34691.59
670.76	34612.49
671.109	34865.14
671.459	34714.64
671.808	34659.95
672.157	34794.86
672.507	34617.69
672.856	34645.94
673.205	34600.74
673.554	34648.88
673.904	34644.58
674.253	34742.89
674.602	34629.67
674.951	34266.97
675.3	34075.11
675.649	34625.15
675.998	34508.99
676.346	34505.15
676.695	34638.93
677.044	34339.96
677.393	34387.64
677.741	34481.42
678.09	34451.14
678.438	34286.4
678.787	34391.48
679.135	34483.46
679.484	34202.34
679.832	34341.31
680.181	34061.55
680.529	34295.89
680.877	34011.38
681.225	34086.18
681.573	34310.35
681.922	34007.31
682.27	33795.34
682.618	34051.15
682.966	33805.74
683.314	33977.26
683.661	33757.38
684.009	33697.26
684.357	33685.96
684.705	33526.65
685.053	33632.41
685.4	33604.16
685.748	33489.13
686.095	33401.9
686.443	33245.98
686.79	33274.22
687.138	33273.09
687.485	33274.9
687.832	33218.18
688.18	33202.59
688.527	33109.48
688.874	33012.54
689.221	32975.7
689.568	32930.5
689.915	32901.8
690.262	32896.38
690.609	32755.59
690.956	32689.83
691.303	32544.53
691.65	32462.72
691.997	32466.56
692.344	32301.59
692.69	32274.48
693.037	32129.62
693.383	31979.12
693.73	32116.51
694.077	31888.5
694.423	31870.42
694.769	31741.83
695.116	31731.89
695.462	31722.4
695.808	31616.64
696.155	31690.31
696.501	31345.46
696.847	31344.11
697.193	31179.59
697.539	31267.72
697.885	31137.78
698.231	31027.73
698.577	30990.67
698.923	30900.5
699.269	30671.58
699.614	30660.28
699.96	30601.3
700.306	30648.3
700.651	30436.78
700.997	30367.18
701.342	30452.6
701.688	30463.9
702.033	30157.02
702.379	30272.95
702.724	30226.62
703.069	30003.35
703.415	29783.92
703.76	29833.18
704.105	29808.33
704.45	29790.7
704.795	29607.65
705.14	29598.61
705.485	29527.88
705.83	29416.47
706.175	29518.62
706.52	29345.51
706.865	29317.49
707.209	29268.68
707.554	29133.09
707.899	29295.57
708.243	29091.74
708.588	29093.32
708.932	28807.22
709.277	28809.93
709.621	28741.24
709.966	28599.09
710.31	28719.99
710.654	28477.29
710.998	28481.81
711.342	28709.37
711.687	28491.98
712.031	28400
712.375	28190.29
712.719	28351.64
713.063	28117.75
713.407	28256.28
713.75	28014.48
714.094	28040.01
714.438	27904.65
714.782	27946.23
715.125	27681.38
715.469	27857.87
715.812	27678.89
716.156	27637.08
716.499	27597.54
716.843	27654.48
717.186	27510.53
717.53	27620.59
717.873	27563.87
718.216	27449.52
718.559	27322.74
718.902	27229.64
719.246	27349.86
719.589	27186.47
719.932	27143.76
720.275	27061.96
720.617	26973.37
720.96	26974.05
721.303	27074.39
721.646	27033.26
721.989	26886.37
722.331	26895.41
722.674	26766.37
723.016	26904.22
723.359	26689.54
723.701	26913.49
724.044	26570.9
724.386	26339.94
724.729	26697.9
725.071	26563.21
725.413	26347.85
725.755	26431.24
726.097	26378.81
726.439	26186.05
726.782	26168.42
727.124	26324.35
727.465	26263.11
727.807	26226.05
728.149	26059.95
728.491	26102.89
728.833	26154.86
729.175	25937.47
729.516	25975.66
729.858	25949.44
730.199	25995.32
730.541	25885.04
730.882	25896.79
731.224	25943.8
731.565	25685.27
731.906	25712.39
732.248	25662.45
732.589	25599.17
732.93	25524.82
733.271	25554.43
733.612	25596.91
733.953	25529.57
734.294	25426.75
734.635	25208.9
734.976	25433.07
735.317	25298.39
735.658	25311.27
735.999	25288.9
736.339	25199.41
736.68	25256.58
737.021	25206.64
737.361	25076.02
737.702	25209.58
738.042	25035.8
738.383	24956.7
738.723	25110.14
739.063	24866.99
739.404	24974.56
739.744	24864.95
740.084	24765.97
740.424	24831.73
740.764	24767.55
741.104	24774.33
741.444	24647.11
741.784	24569.37
742.124	24680.1
742.464	24508.35
742.804	24518.52
743.143	24542.25
743.483	24491.86
743.823	24364.4
744.162	24407.79
744.502	24481.01
744.841	24287.57
745.181	24354.01
745.52	24341.35
745.86	24245.53
746.199	24364.4
746.538	24237.63
746.877	24255.25
747.216	24284.63
747.556	24195.14
747.895	24175.03
748.234	24049.61
748.573	23975.94
748.911	24017.97
749.25	23882.38
749.589	23730.97
749.928	23788.6
750.267	23905.88
750.605	23807.58
750.944	23727.36
751.283	23691.88
751.621	23771.65
751.96	23560.36
752.298	23490.75
752.636	23552.67
752.975	23439.68
753.313	23359.68
753.651	23386.8
753.989	23322.4
754.327	23314.71
754.666	23151.1
755.004	23171.66
755.342	23170.53
755.679	23016.64
756.017	23011.22
756.355	23036.75
756.693	22921.28
757.031	22954.72
757.368	22846.48
757.706	22787.95
758.044	22719.93
758.381	22683.32
758.719	22641.74
759.056	22611.91
759.394	22558.57
759.731	22346.38
760.068	22397.67
760.405	22209.88
760.743	22269.09
761.08	22406.94
761.417	22160.39
761.754	22100.28
762.091	22000.4
762.428	21932.15
762.765	21936.44
763.102	21957.46
763.438	21836.11
763.775	21703.23
764.112	21710.01
764.449	21586.17
764.785	21528.32
765.122	21314.99
765.458	21341.43
765.795	21363.8
766.131	21298.95
766.467	21193.41
766.804	21112.96
767.14	21035.9
767.476	21024.38
767.812	20901.22
768.148	20904.15
768.485	20869.13
768.821	20746.19
769.157	20577.16
769.492	20627.78
769.828	20537.16
770.164	20405.41
770.5	20360.44
770.836	20345.75
771.171	20223.04
771.507	20176.72
771.842	19959.55
772.178	20078.41
772.513	20000.22
772.849	19921.35
773.184	19889.94
773.519	19874.35
773.855	19775.82
774.19	19675.26
774.525	19617.41
774.86	19637.29
775.195	19574.7
775.53	19404.31
775.865	19365.44
776.2	19134.26
776.535	19002.96
776.87	19180.81
777.205	19033.69
777.539	18960.7
777.874	19103.3
778.209	18798.22
778.543	18735.4
778.878	18675.74
779.212	18739.92
779.547	18531.79
779.881	18529.3
780.215	18371.11
780.55	18445.01
780.884	18273.04
781.218	18197.78
781.552	18224.9
781.886	18197.56
782.22	18013.16
782.554	17969.32
782.888	17886.15
783.222	17768.64
783.556	17687.29
783.889	17635.54
784.223	17614.07
784.557	17528.2
784.89	17552.15
785.224	17477.13
785.557	17348.99
785.891	17294.53
786.224	17300.18
786.558	17204.36
786.891	17102.9
787.224	17005.05
787.557	17052.96
787.891	16920.53
788.224	16888.44
788.557	16892.73
788.89	16920.98
789.223	16873.98
789.556	16721.44
789.888	16586.75
790.221	16451.39
790.554	16358.74
790.887	16431.95
791.219	16313.31
791.552	16372.75
791.884	16226.76
792.217	16213.88
792.549	16159.42
792.882	16046.65
793.214	16023.38
793.546	16048.91
793.879	15870.61
794.211	15835.36
794.543	15860.67
794.875	15829.48
795.207	15860.9
795.539	15736.83
795.871	15657.06
796.203	15556.05
796.535	15420.91
796.867	15421.36
797.198	15509.72
797.53	15398.76
797.862	15210.07
798.193	15390.85
798.525	15256.17
798.856	15195.38
799.188	15084.65
799.519	14988.38
799.85	14918.32
800.182	14927.14
800.513	14938.43
800.844	14815.05
801.175	14863.86
801.506	14809.85
801.837	14719.68
802.168	14702.73
802.499	14628.84
802.83	14646.24
803.161	14594.04
803.491	14503.64
803.822	14570.76
804.153	14437.66
804.483	14351.33
804.814	14328.51
805.145	14316.08
805.475	14229.53
805.805	14240.6
806.136	14168.74
806.466	14252.8
806.796	14164.67
807.126	14005.8
807.457	13933.26
807.787	14003.77
808.117	13921.06
808.447	13887.39
808.777	13896.2
809.107	13883.32
809.436	13846.94
809.766	13817.56
810.096	13662.54
810.426	13719.48
810.755	13717.45
811.085	13570.11
811.414	13547.96
811.744	13491.92
812.073	13546.61
812.403	13430
812.732	13385.93
813.061	13358.36
813.39	13310.23
813.719	13352.94
814.049	13362.66
814.378	13317.23
814.707	13163.34
815.036	13135.32
815.365	13094.87
815.693	13057.81
816.022	12991.14
816.351	13022.55
816.68	12978.71
817.008	12995.21
817.337	12863.01
817.665	12784.14
817.994	12910.01
818.322	12829.11
818.651	12809.68
818.979	12763.8
819.307	12760.19
819.636	12763.35
819.964	12650.59
820.292	12726.97
820.62	12655.78
820.948	12650.81
821.276	12627.99
821.604	12640.19
821.932	12738.27
822.259	12657.14
822.587	12599.29
822.915	12613.52
823.243	12564.03
823.57	12480.87
823.898	12605.61
824.225	12567.2
824.553	12511.15
824.88	12550.7
825.207	12552.96
825.535	12494.43
825.862	12599.06
826.189	12494.21
826.516	12644.26
826.843	12643.81
827.17	12569.68
827.497	12584.6
827.824	12531.04
828.151	12632.96
828.478	12471.83
828.805	12620.3
829.131	12550.7
829.458	12518.16
829.785	12454.43
830.111	12514.32
830.438	12547.76
830.764	12637.7
831.09	12533.07
831.417	12488.1
831.743	12570.36
832.069	12482
832.395	12467.54
832.722	12516.58
833.048	12434.32
833.374	12414.43
833.7	12392.06
834.026	12411.72
834.351	12411.27
834.677	12377.37
835.003	12442.68
835.329	12446.07
835.654	12370.82
835.98	12340.09
836.306	12352.97
836.631	12306.19
836.956	12330.37
837.282	12376.69
837.607	12188.22
837.932	12200.88
838.258	12140.77
838.583	12248.11
838.908	12152.29
839.233	12097.61
839.558	12067.1
839.883	12123.37
840.208	12041.79
840.533	12039.08
840.858	12096.93
841.182	12075.01
841.507	12020.77
841.832	11983.03
842.156	11894.9
842.481	11886.09
842.805	11875.01
843.13	11817.84
843.454	11901.45
843.778	11787.56
844.103	11781.91
844.427	11715.92
844.751	11690.38
845.075	11697.84
845.399	11668.69
845.723	11579.88
846.047	11575.81
846.371	11565.87
846.695	11576.72
847.019	11435.02
847.343	11366.55
847.666	11295.37
847.99	11260.34
848.313	11256.72
848.637	11240
848.96	11124.98
849.284	11223.73
849.607	11038.65
849.931	10963.17
850.254	10984.19
850.577	10962.72
850.9	10786.68
851.223	10876.17
851.546	10781.26
851.869	10740.35
852.192	10767.02
852.515	10623.07
852.838	10558.44
853.161	10562.73
853.483	10550.75
853.806	10489.51
854.129	10471.66
854.451	10462.85
854.774	10387.59
855.096	10356.86
855.419	10287.48
855.741	10290.87
856.063	10213.59
856.385	10236.86
856.708	10187.83
857.03	10190.31
857.352	10197.09
857.674	10168.16
857.996	10078.9
858.318	10001.84
858.64	10044.1
858.961	10057.66
859.283	9964.1
859.605	9914.61
859.926	9943.31
860.248	9923.65
860.57	9891.11
860.891	9869.64
861.212	9795.52
861.534	9783.77
861.855	9778.34
862.176	9760.04
862.498	9739.25
862.819	9718.46
863.14	9757.78
863.461	9680.04
863.782	9601.4
864.103	9645.92
864.424	9611.34
864.745	9645.01
865.065	9579.48
865.386	9551.23
865.707	9417.68
866.027	9503.78
866.348	9559.14
866.668	9484.12
866.989	9506.49
867.309	9447.96
867.63	9421.52
867.95	9465.81
868.27	9407.28
868.59	9381.97
868.91	9411.12
869.23	9379.26
869.55	9296.1
869.87	9351.69
870.19	9278.7
870.51	9287.74
870.83	9327.06
871.15	9216.55
871.469	9245.25
871.789	9280.73
872.109	9211.35
872.428	9171.58
872.748	9249.77
873.067	9238.7
873.386	9184.46
873.706	9134.97
874.025	9091.13
874.344	9099.27
874.663	9122.09
874.982	9137.68
875.301	9045.03
875.62	9056.56
875.939	9054.52
876.258	9003.9
876.577	8988.08
876.896	8929.55
877.214	8987.4
877.533	8983.79
877.852	8889.33
878.17	8940.85
878.489	8962.32
878.807	8922.77
879.125	8936.78
879.444	8911.7
879.762	8834.19
880.08	8869.89
880.398	8836.45
880.716	8837.58
881.034	8742.89
881.352	8855.43
881.67	8718.49
881.988	8711.03
882.306	8751.7
882.624	8744.93
882.941	8735.89
883.259	8616.57
883.577	8629.9
883.894	8606.85
884.212	8679.16
884.529	8578.38
884.846	8585.83
885.164	8541.09
885.481	8529.56
885.798	8469.23
886.115	8446.63
886.432	8490.02
886.75	8378.83
887.067	8453.41
887.383	8391.71
887.7	8444.14
888.017	8367.53
888.334	8421.77
888.651	8392.62
888.967	8352.39
889.284	8267.42
889.6	8271.94
889.917	8209.35
890.233	8228.78
890.55	8185.17
890.866	8162.57
891.182	8140.87
891.498	8048.45
891.815	8083.93
892.131	8052.74
892.447	8060.65
892.763	8062.46
893.079	7999.63
893.395	7973.65
893.71	7901.11
894.026	7863.14
894.342	7887.77
894.657	7846.19
894.973	7860.43
895.289	7862.46
895.604	7807.1
895.92	7811.84
896.235	7818.17
896.55	7714.44
896.865	7653.2
897.181	7639.19
897.496	7695.01
897.811	7645.07
898.126	7547.44
898.441	7489.14
898.756	7536.82
899.071	7522.36
899.386	7541.34
899.7	7399.2
900.015	7397.84
900.33	7328.69
900.644	7301.35
900.959	7361.01
901.273	7279.65
901.588	7275.36
901.902	7307.68
902.216	7175.25
902.531	7196.27
902.845	7169.6
903.159	7169.37
903.473	7144.97
903.787	7073.56
904.101	7054.12
904.415	7125.08
904.729	7053.67
905.042	7012.09
905.356	6988.81
905.67	6983.39
905.984	6951.75
906.297	6888.48
906.611	6856.84
906.924	6902.94
907.237	6847.35
907.551	6836.05
907.864	6807.12
908.177	6753.34
908.491	6738.88
908.804	6743.62
909.117	6703.4
909.43	6656.84
909.743	6634.47
910.056	6617.07
910.368	6599.67
910.681	6530.97
910.994	6532.1
911.307	6537.53
911.619	6468.38
911.932	6429.96
912.244	6409.39
912.557	6408.04
912.869	6354.25
913.181	6340.02
913.494	6392.44
913.806	6263.63
914.118	6235.16
914.43	6205.78
914.742	6229.74
915.054	6191.77
915.366	6156.97
915.678	6182.05
915.99	6118.78
916.302	6070.87
916.613	6051.89
916.925	6041.72
917.236	6034.71
917.548	5962.63
917.859	6002.85
918.171	5934.83
918.482	5881.05
918.794	5902.97
919.105	5883.76
919.416	5833.14
919.727	5814.61
920.038	5834.04
920.349	5766.7
920.66	5747.26
920.971	5730.32
921.282	5739.35
921.593	5658.9
921.903	5634.05
922.214	5586.14
922.525	5624.78
922.835	5554.73
923.146	5574.16
923.456	5581.62
923.767	5544.33
924.077	5511.56
924.387	5481.96
924.697	5509.76
925.008	5419.82
925.318	5407.84
925.628	5407.61
925.938	5353.38
926.248	5331.68
926.558	5328.74
926.867	5281.97
927.177	5286.03
927.487	5242.64
927.796	5236.54
928.106	5237.45
928.416	5173.72
928.725	5150.9
929.034	5147.28
929.344	5164.68
929.653	5089.65
929.962	5055.3
930.271	5040.39
930.581	5024.35
930.89	5007.4
931.199	4997.91
931.508	4973.95
931.817	4918.13
932.125	4953.84
932.434	4888.3
932.743	4858.02
933.051	4824.8
933.36	4858.7
933.669	4787.52
933.977	4775.31
934.286	4787.74
934.594	4754.75
934.902	4726.73
935.21	4714.07
935.519	4724.01
935.827	4709.1
936.135	4669.55
936.443	4632.72
936.751	4580.29
937.059	4614.41
937.367	4551.82
937.674	4575.54
937.982	4577.8
938.29	4518.82
938.597	4521.99
938.905	4450.12
939.213	4460.97
939.52	4440.86
939.827	4433.85
940.135	4418.94
940.442	4398.83
940.749	4361.54
941.056	4365.38
941.363	4350.69
941.67	4325.83
941.977	4284.93
942.284	4267.3
942.591	4279.51
942.898	4208.77
943.205	4229.34
943.511	4190.92
943.818	4219.85
944.125	4141.2
944.431	4184.82
944.738	4225.72
945.044	4121.77
945.35	4184.82
945.657	4085.84
945.963	4060.75
946.269	4006.29
946.575	3998.38
946.881	4030.02
947.187	4011.94
947.493	4002.9
947.799	3998.16
948.105	3944.37
948.41	3896.69
948.716	3921.55
949.022	3894.66
949.327	3871.16
949.633	3855.79
949.938	3866.86
950.244	3836.13
950.549	3812.4
950.854	3741.67
951.16	3783.02
951.465	3785.06
951.77	3728.56
952.075	3734.89
952.38	3704.83
952.685	3705.51
952.99	3730.82
953.294	3668.22
953.599	3683.36
953.904	3645.62
954.209	3614.66
954.513	3666.87
954.818	3579.64
955.122	3533.31
955.426	3554.78
955.731	3547.32
956.035	3572.86
956.339	3545.29
956.643	3478.85
956.948	3497.83
957.252	3478.62
957.556	3481.34
957.86	3443.14
958.163	3429.13
958.467	3427.55
958.771	3399.76
959.075	3411.51
959.378	3376.48
959.682	3388.23
959.985	3319.53
960.289	3301
960.592	3321.11
960.896	3335.58
961.199	3307.55
961.502	3272.07
961.805	3241.34
962.108	3235.01
962.411	3242.02
962.714	3174.22
963.017	3244.96
963.32	3247.89
963.623	3173.09
963.926	3156.15
964.228	3155.24
964.531	3143.26
964.833	3109.14
965.136	3076.83
965.438	3098.07
965.741	3091.74
966.043	3062.81
966.345	3039.09
966.648	3060.78
966.95	3039.31
967.252	3037.28
967.554	3000.67
967.856	3018.75
968.158	2972.2
968.46	2947.34
968.761	2956.38
969.063	2923.38
969.365	2917.96
969.666	2923.16
969.968	2910.5
970.269	2936.04
970.571	2890.39
970.872	2873.89
971.174	2855.36
971.475	2853.55
971.776	2823.95
972.077	2815.59
972.378	2842.48
972.679	2842.26
972.98	2783.27
973.281	2759.32
973.582	2764.52
973.883	2744.63
974.183	2749.6
974.484	2723.61
974.785	2712.99
975.085	2714.35
975.386	2706.67
975.686	2668.7
975.986	2647.46
976.287	2662.6
976.587	2674.35
976.887	2622.15
977.187	2631.87
977.487	2618.53
977.787	2575.82
978.087	2575.37
978.387	2553.22
978.687	2564.3
978.987	2544.64
979.286	2549.61
979.586	2574.47
979.885	2502.38
980.185	2524.98
980.484	2505.32
980.784	2499.44
981.083	2473.68
981.382	2479.78
981.682	2437.29
981.981	2421.7
982.28	2406.56
982.579	2382.61
982.878	2406.79
983.177	2395.49
983.475	2408.37
983.774	2374.92
984.073	2363.85
984.372	2372.89
984.67	2363.17
984.969	2352.55
985.267	2301.48
985.566	2365.88
985.864	2313.46
986.162	2334.47
986.461	2288.82
986.759	2298.77
987.057	2278.65
987.355	2262.61
987.653	2245.44
987.951	2258.54
988.249	2268.49
988.547	2242.95
988.844	2214.02
989.142	2193.23
989.44	2178.77
989.737	2174.93
990.035	2204.53
990.332	2166.79
990.63	2155.27
990.927	2131.99
991.224	2162.95
991.521	2145.78
991.819	2139.45
992.116	2120.01
992.413	2091.77
992.71	2067.13
993.006	2083.18
993.303	2096.29
993.6	2091.77
993.897	2068.94
994.193	2053.58
994.49	2032.56
994.787	2014.71
995.083	2045.21
995.379	1958.89
995.676	2005.44
995.972	1977.65
996.268	2001.37
996.565	1981.71
996.861	1954.37
997.157	1932.68
997.453	1925.9
997.749	1902.39
998.044	1889.96
998.34	1921.83
998.636	1910.75
998.932	1903.3
999.227	1888.16
999.523	1874.82
999.818	1875.05
1000.114	1850.42
1000.409	1856.74
1000.704	1841.38
1001	1807.25
1001.295	1813.13
1001.59	1808.38
1001.885	1801.38
1002.18	1788.05
1002.475	1785.79
1002.77	1781.94
1003.065	1747.37
1003.359	1745.11
1003.654	1734.04
1003.949	1741.95
1004.243	1718.22
1004.538	1699.91
1004.832	1682.51
1005.127	1690.87
1005.421	1687.26
1005.715	1690.42
1006.009	1652.91
1006.304	1644.77
1006.598	1645.23
1006.892	1648.16
1007.186	1670.08
1007.48	1641.16
1007.773	1619.92
1008.067	1609.29
1008.361	1610.65
1008.655	1604.1
1008.948	1564.55
1009.242	1580.37
1009.535	1574.49
1009.829	1551.89
1010.122	1546.02
1010.415	1528.84
1010.708	1529.07
1011.001	1506.92
1011.295	1523.19
1011.588	1494.27
1011.881	1488.17
1012.173	1499.24
1012.466	1476.42
1012.759	1456.08
1013.052	1472.35
1013.344	1449.98
1013.637	1462.41
1013.93	1434.38
1014.222	1435.06
1014.514	1423.31
1014.807	1413.37
1015.099	1410.88
1015.391	1403.65
1015.683	1395.06
1015.976	1412.91
1016.268	1356.19
1016.56	1353.93
1016.851	1345.8
1017.143	1353.26
1017.435	1346.02
1017.727	1328.4
1018.018	1313.71
1018.31	1276.42
1018.602	1301.96
1018.893	1318.91
1019.185	1296.53
1019.476	1305.8
1019.767	1277.78
1020.058	1287.04
1020.35	1268.51
1020.641	1249.08
1020.932	1249.3
1021.223	1242.07
1021.514	1233.94
1021.804	1221.73
1022.095	1248.85
1022.386	1218.12
1022.677	1207.04
1022.967	1192.58
1023.258	1183.32
1023.548	1182.41
1023.839	1166.14
1024.129	1171.57
1024.419	1199.59
1024.709	1161.85
1025	1124.11
1025.29	1139.02
1025.58	1134.5
1025.87	1123.2
1026.16	1107.61
1026.449	1116.65
1026.739	1101.51
1027.029	1064.45
1027.319	1088.4
1027.608	1099.25
1027.898	1081.17
1028.187	1075.07
1028.477	1095.41
1028.766	1065.58
1029.055	1031.46
1029.344	1034.62
1029.634	1049.31
1029.923	1068.52
1030.212	1012.47
1030.501	1036.2
1030.79	1022.19
1031.078	994.85
1031.367	994.62
1031.656	973.38
1031.945	980.84
1032.233	982.42
1032.522	975.41
1032.81	979.48
1033.099	971.12
1033.387	947.84
1033.675	970.44
1033.963	958.92
1034.251	946.71
1034.54	945.13
1034.828	942.87
1035.116	916.66
1035.403	935.19
1035.691	923.44
1035.979	906.04
1036.267	925.92
1036.554	877.56
1036.842	872.59
1037.129	871.46
1037.417	895.64
1037.704	882.53
1037.992	878.01
1038.279	873.49
1038.566	864
1038.853	864
1039.14	864
