Data from hue_300_FLMS001491_00096.txt Node
Date: Tue Feb 07 15:51:28 GMT 2017
User: dcchb
Spectrometer: FLMS00149
Trigger mode: 0
Integration Time (sec): 2.000000E-2
Scans to average: 10
Electric dark correction enabled: true
Nonlinearity correction enabled: false
Boxcar width: 0
XAxis mode: Wavelengths
Number of Pixels in Spectrum: 2048
>>>>>Begin Spectral Data<<<<<
341.393	-16.37
341.776	-16.37
342.16	-16.37
342.543	-72.19
342.927	-52.3
343.31	-55.24
343.693	-78.29
344.077	-69.02
344.46	-58.85
344.843	-61.11
345.226	-48.23
345.61	-27.89
345.993	-5.3
346.376	6.91
346.759	12.78
347.142	14.59
347.525	50.75
347.908	39.22
348.291	71.31
348.674	84.19
349.057	124.19
349.44	118.77
349.823	131.42
350.206	161.7
350.588	190.18
350.971	180.46
351.354	203.96
351.737	230.4
352.119	244.19
352.502	243.06
352.884	254.81
353.267	273.79
353.65	298.2
354.032	284.41
354.414	307.46
354.797	297.75
355.179	303.62
355.562	307.24
355.944	327.12
356.326	306.56
356.709	319.21
357.091	333.9
357.473	317.18
357.855	352.43
358.238	307.01
358.62	327.58
359.002	334.81
359.384	325.54
359.766	331.87
360.148	339.33
360.53	334.81
360.912	321.47
361.294	342.94
361.676	317.41
362.057	333.45
362.439	317.86
362.821	309.27
363.203	301.81
363.584	306.56
363.966	325.54
364.348	302.72
364.729	329.61
365.111	315.6
365.493	308.59
365.874	308.37
366.256	288.93
366.637	304.3
367.019	318.08
367.4	314.02
367.781	315.83
368.163	308.37
368.544	306.33
368.925	306.11
369.306	308.59
369.688	304.98
370.069	300.68
370.45	302.49
370.831	292.55
371.212	306.33
371.593	326.67
371.974	309.95
372.355	310.85
372.736	291.42
373.117	309.5
373.498	312.21
373.879	322.6
374.26	292.32
374.641	303.62
375.021	305.66
375.402	311.98
375.783	318.76
376.163	326.45
376.544	317.86
376.925	327.58
377.305	323.28
377.686	334.58
378.066	332.55
378.447	319.89
378.827	344.07
379.208	351.76
379.588	322.83
379.968	317.86
380.349	329.61
380.729	315.83
381.109	309.95
381.489	322.15
381.87	306.79
382.25	325.32
382.63	324.86
383.01	323.96
383.39	348.14
383.77	317.41
384.15	337.75
384.53	329.38
384.91	313.11
385.29	325.09
385.67	335.71
386.049	345.2
386.429	342.49
386.809	338.2
387.189	324.86
387.568	356.28
387.948	343.62
388.328	380.91
388.707	364.19
389.087	350.85
389.466	332.32
389.846	343.17
390.225	353.79
390.605	367.8
390.984	338.88
391.363	347.01
391.743	335.94
392.122	355.37
392.501	365.77
392.881	381.13
393.26	371.64
393.639	365.09
394.018	387.69
394.397	377.29
394.776	405.09
395.155	358.54
395.534	374.13
395.913	387.91
396.292	382.72
396.671	378.2
397.05	374.35
397.429	398.53
397.808	392.89
398.186	384.75
398.565	382.94
398.944	373.9
399.323	397.4
399.701	384.07
400.08	384.3
400.458	399.66
400.837	394.24
401.215	409.38
401.594	414.35
401.972	405.99
402.351	404.64
402.729	406.44
403.107	420.46
403.486	396.5
403.864	420.68
404.242	422.04
404.62	402.38
404.999	418.42
405.377	424.3
405.755	437.4
406.133	444.41
406.511	435.6
406.889	465.65
407.267	440.57
407.645	464.07
408.023	472.43
408.401	460.45
408.779	466.78
409.156	487.8
409.534	502.26
409.912	489.61
410.29	497.97
410.667	501.81
411.045	499.55
411.422	514.69
411.8	516.05
412.178	528.02
412.555	542.03
412.933	532.77
413.31	551.75
413.687	554.46
414.065	581.35
414.442	564.63
414.819	584.74
415.197	594.01
415.574	598.98
415.951	618.64
416.328	615.03
416.705	635.82
417.082	630.39
417.46	644.4
417.837	637.4
418.214	655.48
418.591	660.9
418.967	644.86
419.344	662.93
419.721	679.66
420.098	694.8
420.475	683.72
420.852	699.32
421.228	734.35
421.605	742.25
421.982	734.12
422.358	757.62
422.735	732.76
423.111	754.23
423.488	752.88
423.864	778.64
424.241	793.1
424.617	812.31
424.994	808.69
425.37	790.84
425.746	798.07
426.123	804.63
426.499	814.12
426.875	833.1
427.251	862.03
427.627	832.2
428.003	883.27
428.379	876.94
428.756	897.96
429.132	899.09
429.507	905.87
429.883	902.7
430.259	933.66
430.635	933.89
431.011	950.38
431.387	948.8
431.763	978.63
432.138	980.44
432.514	1011.85
432.89	995.81
433.265	999.42
433.641	1056.14
434.016	1034.22
434.392	1048.46
434.767	1064.05
435.143	1065.86
435.518	1089.59
435.894	1089.14
436.269	1071.51
436.644	1112.19
437.02	1115.13
437.395	1130.72
437.77	1130.27
438.145	1144.05
438.52	1157.61
438.895	1194.45
439.271	1166.2
439.646	1205.52
440.021	1210.72
440.395	1230.83
440.77	1201
441.145	1226.54
441.52	1245.52
441.895	1230.15
442.27	1238.74
442.645	1239.87
443.019	1263.37
443.394	1250.49
443.769	1262.69
444.143	1260.66
444.518	1251.17
444.892	1276.7
445.267	1258.4
445.641	1281.68
446.016	1305.18
446.39	1280.32
446.764	1293.2
447.139	1282.58
447.513	1296.14
447.887	1299.75
448.262	1299.3
448.636	1323.71
449.01	1321
449.384	1329.58
449.758	1346.53
450.132	1342.92
450.506	1357.61
450.88	1349.7
451.254	1372.75
451.628	1351.28
452.002	1374.1
452.376	1359.41
452.75	1404.38
453.123	1407.77
453.497	1416.36
453.871	1407.1
454.244	1433.54
454.618	1431.5
454.992	1461.78
455.365	1446.64
455.739	1474.66
456.112	1493.87
456.486	1490.94
456.859	1509.47
457.232	1533.42
457.606	1486.42
457.979	1525.51
458.352	1549.92
458.725	1556.47
459.099	1561.89
459.472	1569.13
459.845	1559.18
460.218	1621.55
460.591	1564.38
460.964	1580.2
461.337	1608.22
461.71	1658.61
462.083	1662.23
462.456	1642.34
462.829	1662
463.201	1672.63
463.574	1688.44
463.947	1676.02
464.32	1724.6
464.692	1719.18
465.065	1730.48
465.438	1732.06
465.81	1767.54
466.183	1765.5
466.555	1811.6
466.928	1817.71
467.3	1814.32
467.672	1823.81
468.045	1852.96
468.417	1865.16
468.789	1843.24
469.161	1894.77
469.534	1931.83
469.906	1939.06
470.278	1909.68
470.65	1941.77
471.022	1956.69
471.394	2007.98
471.766	1984.93
472.138	2027.42
472.51	2043.24
472.882	2068.1
473.253	2071.94
473.625	2073.74
473.997	2160.3
474.369	2116.23
474.74	2130.47
475.112	2166.62
475.484	2170.24
475.855	2186.51
476.227	2185.15
476.598	2279.39
476.97	2290.91
477.341	2303.34
477.713	2308.77
478.084	2301.76
478.455	2398.48
478.827	2362.32
479.198	2447.75
479.569	2419.05
479.94	2491.81
480.311	2488.2
480.682	2508.31
481.053	2563
481.424	2567.29
481.795	2610.68
482.166	2615.43
482.537	2643.45
482.908	2673.5
483.279	2705.82
483.65	2730
484.021	2782.65
484.391	2798.02
484.762	2777.91
485.133	2796.21
485.503	2762.99
485.874	2848.64
486.244	2872.59
486.615	2901.29
486.985	2954.17
487.356	2983.33
487.726	2991.23
488.097	3042.76
488.467	3045.47
488.837	3082.53
489.207	3103.32
489.578	3137.9
489.948	3156.65
490.318	3189.87
490.688	3167.95
491.058	3171.8
491.428	3249.53
491.798	3266.93
492.168	3326.14
492.538	3318.68
492.908	3339.93
493.278	3357.55
493.648	3343.77
494.017	3399.36
494.387	3388.74
494.757	3455.63
495.126	3453.14
495.496	3452.92
495.866	3450.21
496.235	3502.63
496.605	3481.17
496.974	3479.58
497.344	3577.66
497.713	3549.41
498.082	3578.11
498.452	3602.74
498.821	3604.55
499.19	3606.81
499.559	3628.28
499.928	3649.07
500.298	3667.38
500.667	3680.26
501.036	3662.4
501.405	3690.88
501.774	3703.53
502.143	3718.45
502.512	3768.84
502.88	3763.64
503.249	3754.38
503.618	3784.21
503.987	3757.54
504.356	3788.95
504.724	3820.14
505.093	3823.08
505.462	3846.58
505.83	3896.75
506.199	3858.78
506.567	3883.41
506.936	3892.68
507.304	3914.15
507.672	3920.02
508.041	3911.44
508.409	3950.98
508.777	3955.05
509.145	4013.13
509.514	3997.99
509.882	3985.56
510.25	3975.39
510.618	3983.75
510.986	3980.36
511.354	4009.51
511.722	4003.41
512.09	4085.9
512.458	4043.41
512.826	4062.39
513.193	4120.47
513.561	4089.51
513.929	4097.19
514.297	4121.37
514.664	4151.88
515.032	4157.98
515.4	4170.41
515.767	4186.46
516.135	4156.4
516.502	4132.9
516.869	4188.94
517.237	4225.33
517.604	4187.81
517.972	4198.43
518.339	4208.38
518.706	4217.87
519.073	4212.9
519.44	4267.13
519.808	4225.1
520.175	4244.54
520.542	4283.18
520.909	4291.54
521.276	4302.84
521.643	4305.32
522.009	4336.96
522.376	4346.91
522.743	4369.96
523.11	4357.53
523.477	4439.78
523.843	4452.44
524.21	4457.86
524.577	4462.16
524.943	4514.36
525.31	4508.94
525.676	4548.71
526.043	4541.7
526.409	4547.8
526.776	4635.03
527.142	4645.65
527.508	4578.31
527.874	4653.34
528.241	4674.13
528.607	4685.2
528.973	4701.7
529.339	4708.48
529.705	4732.43
530.071	4752.09
530.437	4815.82
530.803	4788.93
531.169	4810.85
531.535	4821.24
531.901	4797.74
532.267	4815.14
532.632	4900.79
532.998	4892.88
533.364	4896.95
533.73	4951.41
534.095	4998.87
534.461	4955.25
534.826	5005.87
535.192	5041.58
535.557	5097.85
535.923	5073.89
536.288	5063.27
536.653	5089.26
537.019	5120.22
537.384	5154.12
537.749	5143.95
538.114	5148.92
538.479	5214
538.845	5182.59
539.21	5221.91
539.575	5216.49
539.94	5266.88
540.305	5266.88
540.67	5245.41
541.034	5310.27
541.399	5377.39
541.764	5319.54
542.129	5407.44
542.494	5459.19
542.858	5452.19
543.223	5477.5
543.587	5488.8
543.952	5474.79
544.316	5482.69
544.681	5506.2
545.045	5569.7
545.41	5576.25
545.774	5572.18
546.138	5590.94
546.503	5615.35
546.867	5632.07
547.231	5650.6
547.595	5692.63
547.959	5707.1
548.324	5689.47
548.688	5816.7
549.052	5800.43
549.416	5765.85
549.779	5813.53
550.143	5758.85
550.507	5871.84
550.871	5834.55
551.235	5860.09
551.599	5910.03
551.962	5904.38
552.326	5901.44
552.689	5954.77
553.053	5907.54
553.417	5922.91
553.78	6003.81
554.143	6016.47
554.507	5971.04
554.87	6070.48
555.234	6101.44
555.597	6058.95
555.96	6091.04
556.323	6101.89
556.686	6134.66
557.05	6122.9
557.413	6162.9
557.776	6194.09
558.139	6180.53
558.502	6206.52
558.865	6208.78
559.228	6249.68
559.59	6302.33
559.953	6289.68
560.316	6332.62
560.679	6320.19
561.041	6323.35
561.404	6364.71
561.767	6408.55
562.129	6358.15
562.492	6426.62
562.854	6407.64
563.217	6439.51
563.579	6424.36
563.941	6459.62
564.304	6521.76
564.666	6510.24
565.028	6563.57
565.39	6554.31
565.753	6603.8
566.115	6594.3
566.477	6612.38
566.839	6704.58
567.201	6646.96
567.563	6671.82
567.925	6729.22
568.287	6726.73
568.648	6792.72
569.01	6818.93
569.372	6854.41
569.734	6811.7
570.095	6865.26
570.457	6928.53
570.819	6875.65
571.18	6907.29
571.542	7020.73
571.903	7039.26
572.265	7057.79
572.626	7157.23
572.987	7138.7
573.349	7151.35
573.71	7217.79
574.071	7326.71
574.432	7352.25
574.794	7418.92
575.155	7476.09
575.516	7497.78
575.877	7553.83
576.238	7539.82
576.599	7692.58
576.96	7743.65
577.32	7814.16
577.681	7900.71
578.042	7968.73
578.403	8060.71
578.763	8099.8
579.124	8264.09
579.485	8340.92
579.845	8475.61
580.206	8563.29
580.566	8678.09
580.927	8794.25
581.287	8992.21
581.648	8982.72
582.008	9247.12
582.368	9321.92
582.728	9422.48
583.089	9597.61
583.449	9799.42
583.809	9951.96
584.169	10194.44
584.529	10322.79
584.889	10549.68
585.249	10709.22
585.609	10840.97
585.969	11170.23
586.329	11337.23
586.688	11513.5
587.048	11645.92
587.408	11964.78
587.768	12233.93
588.127	12397.77
588.487	12603.86
588.846	12980.8
589.206	13177.41
589.565	13366.78
589.925	13640.67
590.284	13885.41
590.643	14119.76
591.003	14555.22
591.362	14819.17
591.721	14999.51
592.08	15372.83
592.44	15586.38
592.799	15899.82
593.158	16233.6
593.517	16474.72
593.876	16855.5
594.235	17040.13
594.593	17344.53
594.952	17821.13
595.311	17925.53
595.67	18355.12
596.029	18693.42
596.387	18961.66
596.746	19296.79
597.104	19597.13
597.463	19782.43
597.822	20181.07
598.18	20422.64
598.538	20644.78
598.897	21040.93
599.255	21151.44
599.613	21815.6
599.972	21822.15
600.33	22205.19
600.688	22330.16
601.046	22848.34
601.404	23105.06
601.762	23313.41
602.12	23755.89
602.478	23895.09
602.836	24158.14
603.194	24315.19
603.552	24795.18
603.91	24944.78
604.268	25087.83
604.625	25367.6
604.983	25761.26
605.341	25827.47
605.698	26205.09
606.056	26507.45
606.413	26648.24
606.771	26956.71
607.128	27287.09
607.485	27307.88
607.843	27612.96
608.2	27956.91
608.557	28198.71
608.914	28295.88
609.272	28791.01
609.629	28719.37
609.986	29062.64
610.343	29118.23
610.7	29530.88
611.057	29750.31
611.414	29871.88
611.771	30110.07
612.127	30303.06
612.484	30477.07
612.841	30699.88
613.198	30789.83
613.554	30928.81
613.911	31178.29
614.267	31422.35
614.624	31480.66
614.98	31783.47
615.337	31978.95
615.693	32007.65
616.05	32229.11
616.406	32532.38
616.762	32528.31
617.118	32686.73
617.475	32784.58
617.831	33074.06
618.187	33191.34
618.543	33149.54
618.899	33549.08
619.255	33634.05
619.611	33545.01
619.967	33821.84
620.323	33943.42
620.678	33983.64
621.034	34079.91
621.39	34087.82
621.746	34307.93
622.101	34590.4
622.457	34543.17
622.812	34634.47
623.168	34874.24
623.523	34975.25
623.879	35120.33
624.234	34920.79
624.589	35131.63
624.945	35334.34
625.3	35415.02
625.655	35309.03
626.01	35373.66
626.365	35658.85
626.72	35486.43
627.075	35550.83
627.43	35546.99
627.785	35621.79
628.14	35645.74
628.495	35779.07
628.85	35991.72
629.205	35826.53
629.559	36052.96
629.914	35903.82
630.269	35976.58
630.623	35999.18
630.978	35842.12
631.332	36033.76
631.687	36198.27
632.041	36170.25
632.396	36202.79
632.75	36129.35
633.104	36184.49
633.459	36134.77
633.813	36214.54
634.167	36116.69
634.521	36051.16
634.875	36280.98
635.229	36201.21
635.583	36106.75
635.937	36280.98
636.291	36354.43
636.645	36247.31
636.999	36198.72
637.352	36167.54
637.706	36089.12
638.06	36321.66
638.413	36261.55
638.767	36028.56
639.121	36250.02
639.474	36077.37
639.828	36083.02
640.181	36327.53
640.534	36192.17
640.888	36083.25
641.241	36095
641.594	36094.55
641.947	36324.37
642.301	36018.84
642.654	36169.35
643.007	36088.9
643.36	36112.85
643.713	36083.47
644.066	36271.94
644.419	35955.57
644.771	35880.54
645.124	35546.31
645.477	35424.96
645.83	35244.17
646.182	35189.94
646.535	35151.07
646.888	35184.74
647.24	35012.54
647.593	35285.98
647.945	35149.03
648.298	35119.43
648.65	34917.63
649.002	34865.65
649.355	35006.89
649.707	34956.5
650.059	35121.92
650.411	35497.5
650.763	35574.56
651.115	35963.25
651.467	35826.3
651.819	35757.15
652.171	35759.41
652.523	35652.75
652.875	35781.79
653.227	35613.88
653.578	35779.3
653.93	35770.03
654.282	35577.72
654.633	35419.76
654.985	35614.56
655.337	35583.82
655.688	35603.03
656.039	35847.77
656.391	35393.77
656.742	35407.33
657.094	35508.57
657.445	35642.81
657.796	35526.2
658.147	35474.45
658.498	35492.53
658.849	35707.66
659.2	35406.65
659.551	35480.1
659.902	35575.91
660.253	35523.03
660.604	35468.57
660.955	35476.03
661.306	35646.42
661.656	35424.96
662.007	35426.77
662.358	35470.38
662.708	35734.55
663.059	35586.54
663.409	35281.46
663.76	35524.39
664.11	35395.81
664.461	35518.06
664.811	35598.74
665.161	35502.7
665.511	35293.89
665.862	35468.57
666.212	35562.58
666.562	35342.47
666.912	35424.05
667.262	35329.37
667.612	35403.04
667.962	35530.49
668.312	35409.37
668.662	35554.67
669.011	35516.26
669.361	35365.98
669.711	35407.78
670.06	35330.72
670.41	35198.07
670.76	35181.12
671.109	35356.26
671.459	35219.31
671.808	35209.82
672.157	35222.7
672.507	35165.76
672.856	35101.13
673.205	35173.67
673.554	35241.46
673.904	35158.52
674.253	35222.7
674.602	35252.53
674.951	34637.63
675.3	34477.64
675.649	35036.95
675.998	35025.42
676.346	35046.44
676.695	35106.1
677.044	34848.7
677.393	35034.91
677.741	35017.51
678.09	34999.88
678.438	34804.18
678.787	34964.18
679.135	34772.77
679.484	34771.19
679.832	34794.69
680.181	34565.55
680.529	34646.45
680.877	34594.92
681.225	34608.48
681.573	34801.7
681.922	34538.88
682.27	34309.28
682.618	34464.76
682.966	34269.51
683.314	34487.13
683.661	34411.65
684.009	34253.24
684.357	34104.32
684.705	34068.61
685.053	34320.58
685.4	34044.2
685.748	33824.32
686.095	33863.64
686.443	33850.31
686.79	33686.92
687.138	33800.59
687.485	33905.9
687.832	33575.74
688.18	33722.4
688.527	33407.38
688.874	33423.2
689.221	33447.84
689.568	33325.13
689.915	33237.9
690.262	33288.74
690.609	33157.9
690.956	33090.33
691.303	32920.84
691.65	32868.19
691.997	32857.79
692.344	32625.94
692.69	32623.68
693.037	32621.87
693.383	32421.42
693.73	32401.76
694.077	32341.65
694.423	32322.67
694.769	32184.59
695.116	32117.93
695.462	32124.25
695.808	31953.41
696.155	32218.26
696.501	31807.2
696.847	31822.12
697.193	31598.62
697.539	31730.59
697.885	31381.67
698.231	31448.11
698.577	31596.58
698.923	31411.96
699.269	31213.09
699.614	31015.36
699.96	30984.17
700.306	31007
700.651	30878.19
700.997	30751.41
701.342	30799.09
701.688	30786.44
702.033	30615.82
702.379	30713.9
702.724	30445.2
703.069	30515.71
703.415	30154.81
703.76	30271.65
704.105	30271.42
704.45	30148.49
704.795	29886.57
705.14	29856.52
705.485	29856.07
705.83	29833.24
706.175	29795.5
706.52	29733.81
706.865	29642.51
707.209	29569.75
707.554	29513.93
707.899	29513.25
708.243	29323.2
708.588	29290.43
708.932	28991.23
709.277	29157.55
709.621	29172.02
709.966	28917.78
710.31	28968.63
710.654	28779.48
710.998	28771.57
711.342	28861.52
711.687	28666.94
712.031	28586.27
712.375	28349.44
712.719	28513.05
713.063	28522.09
713.407	28531.13
713.75	28338.59
714.094	28294.98
714.438	28238.71
714.782	28209.55
715.125	28190.12
715.469	28213.85
715.812	27993.06
716.156	27785.16
716.499	27897.02
716.843	27974.08
717.186	27884.82
717.53	27775.22
717.873	27788.55
718.216	27804.59
718.559	27719.62
718.902	27445.51
719.246	27614.99
719.589	27491.61
719.932	27434.66
720.275	27312.86
720.617	27384.94
720.96	27276.92
721.303	27288.68
721.646	27298.84
721.989	27070.38
722.331	27127.55
722.674	27086.19
723.016	27032.41
723.359	26943.83
723.701	27020.66
724.044	26931.17
724.386	26716.49
724.729	26880.78
725.071	26759.65
725.413	26740.21
725.755	26634.46
726.097	26628.81
726.439	26488.7
726.782	26512.88
727.124	26614.12
727.465	26593.1
727.807	26439.66
728.149	26432.65
728.491	26326.44
728.833	26462.71
729.175	26378.19
729.516	26231.98
729.858	26236.73
730.199	26341.58
730.541	26227.46
730.882	26197.86
731.224	26245.54
731.565	26056.62
731.906	26087.8
732.248	26096.62
732.589	26138.2
732.93	25818.21
733.271	25864.08
733.612	25920.35
733.953	25896.4
734.294	25785.44
734.635	25740.02
734.976	25847.81
735.317	25703.18
735.658	25688.04
735.999	25608.72
736.339	25635.39
736.68	25681.71
737.021	25630.41
737.361	25472.23
737.702	25459.12
738.042	25536.4
738.383	25445.56
738.723	25498.67
739.063	25395.84
739.404	25335.96
739.744	25273.59
740.084	25136.64
740.424	25185.91
740.764	25232.46
741.104	25297.77
741.444	24997.66
741.784	25185.23
742.124	25215.06
742.464	25015.06
742.804	25044.67
743.143	24943.43
743.483	24980.94
743.823	24903.2
744.162	24836.76
744.502	24840.38
744.841	24825.92
745.181	24844.67
745.52	24774.39
745.86	24905.01
746.199	24799.93
746.538	24738.69
746.877	24746.6
747.216	24672.25
747.556	24680.16
747.895	24712.02
748.234	24583.21
748.573	24557.22
748.911	24455.08
749.25	24514.28
749.589	24380.73
749.928	24456.89
750.267	24516.32
750.605	24365.36
750.944	24317.68
751.283	24314.29
751.621	24365.81
751.96	24301.18
752.298	24217.57
752.636	24218.25
752.975	24052.15
753.313	24086.95
753.651	24149.77
753.989	24146.61
754.327	23978.71
754.666	23950.68
755.004	23922.21
755.342	23990.46
755.679	23884.47
756.017	23789.11
756.355	23825.04
756.693	23722.89
757.031	23739.16
757.368	23618.72
757.706	23637.47
758.044	23571.26
758.381	23525.61
758.719	23413.52
759.056	23591.15
759.394	23416.01
759.731	23285.16
760.068	23260.53
760.405	23072.29
760.743	23167.65
761.08	23185.51
761.417	23102.57
761.754	23038.62
762.091	23025.06
762.428	22903.48
762.765	22868.45
763.102	22917.49
763.438	22794.56
763.775	22656.03
764.112	22702.81
764.449	22650.38
764.785	22605.63
765.122	22404.28
765.458	22383.27
765.795	22349.6
766.131	22314.12
766.467	22261.91
766.804	22125.65
767.14	21999.32
767.476	22095.37
767.812	21926.33
768.148	21941.92
768.485	21835.26
768.821	21730.4
769.157	21802.49
769.492	21676.17
769.828	21573.35
770.164	21479.79
770.5	21444.31
770.836	21388.27
771.171	21250.42
771.507	21322.73
771.842	21122.51
772.178	21010.2
772.513	21044.55
772.849	20936.3
773.184	20856.53
773.519	20819.92
773.855	20773.82
774.19	20679.36
774.525	20572.69
774.86	20608.4
775.195	20542.19
775.53	20479.81
775.865	20376.54
776.2	20207.96
776.535	20102.65
776.87	20154.85
777.205	20069.2
777.539	19965.03
777.874	19969.09
778.209	19735.65
778.543	19774.97
778.878	19681.19
779.212	19637.35
779.547	19544.02
779.881	19538.14
780.215	19481.87
780.55	19480.07
780.884	19316.91
781.218	19325.27
781.552	19207.98
781.886	19195.33
782.22	18937.26
782.554	18942.91
782.888	18775.23
783.222	18723.93
783.556	18663.14
783.889	18680.31
784.223	18528
784.557	18461.34
784.89	18381.11
785.224	18428.34
785.557	18298.18
785.891	18274
786.224	18194.68
786.558	18180.89
786.891	17968.24
787.224	17954.91
787.557	17914.91
787.891	17936.38
788.224	17823.39
788.557	17853.67
788.89	17773.9
789.223	17733.67
789.556	17643.96
789.888	17568.93
790.221	17435.6
790.554	17468.82
790.887	17349.05
791.219	17285.77
791.552	17252.1
791.884	17177.08
792.217	17084.65
792.549	17108.83
792.882	16927.82
793.214	16831.1
793.546	16920.59
793.879	16731.89
794.211	16651.44
794.543	16718.78
794.875	16674.04
795.207	16732.34
795.539	16545
795.871	16541.61
796.203	16463.42
796.535	16422.29
796.867	16217.78
797.198	16207.61
797.53	16364.89
797.862	16055.75
798.193	16185.46
798.525	16052.59
798.856	16151.11
799.188	15892.59
799.519	15907.73
799.85	15860.28
800.182	15733.95
800.513	15806.94
800.844	15607.4
801.175	15732.14
801.506	15661.18
801.837	15586.16
802.168	15463
802.499	15520.4
802.83	15391.36
803.161	15340.51
803.491	15296.22
803.822	15293.28
804.153	15273.4
804.483	15211.7
804.814	15105.49
805.145	15089.45
805.475	15135.32
805.805	14986.63
806.136	14983.01
806.466	14949.56
806.796	14877.93
807.126	14835.44
807.457	14801.32
807.787	14873.63
808.117	14697.59
808.447	14640.42
808.777	14706.63
809.107	14594.77
809.436	14605.84
809.766	14579.18
810.096	14493.08
810.426	14374.66
810.755	14479.97
811.085	14403.59
811.414	14349.58
811.744	14197.49
812.073	14263.71
812.403	14188.91
812.732	14141.45
813.061	14173.09
813.39	14068.46
813.719	13941.68
814.049	14092.86
814.378	14015.58
814.707	14049.7
815.036	13937.84
815.365	13854
815.693	13732.42
816.022	13726.32
816.351	13746.66
816.68	13731.74
817.008	13728.81
817.337	13611.29
817.665	13550.05
817.994	13611.07
818.322	13620.79
818.651	13519.32
818.979	13377.18
819.307	13573.56
819.636	13458.3
819.964	13384.41
820.292	13410.85
820.62	13459.21
820.948	13309.38
821.276	13468.25
821.604	13351.87
821.932	13463.95
822.259	13346.44
822.587	13272.09
822.915	13325.2
823.243	13342.83
823.57	13268.48
823.898	13293.79
824.225	13235.94
824.553	13300.12
824.88	13331.08
825.207	13353.9
825.535	13258.31
825.862	13354.58
826.189	13281.59
826.516	13317.74
826.843	13296.73
827.17	13297.18
827.497	13321.13
827.824	13295.37
828.151	13334.24
828.478	13219.44
828.805	13310.06
829.131	13199.1
829.458	13261.7
829.785	13189.84
830.111	13264.19
830.438	13337.4
830.764	13303.51
831.09	13243.62
831.417	13152.32
831.743	13167.46
832.069	13193.9
832.395	13172.44
832.722	13172.21
833.048	13160.69
833.374	13116.84
833.7	13036.17
834.026	13088.82
834.351	13135.6
834.677	13088.14
835.003	13063.96
835.329	13123.17
835.654	13014.7
835.98	13002.27
836.306	13010.18
836.631	13006.34
836.956	13043.17
837.282	12991.2
837.607	12955.72
837.932	12860.81
838.258	12917.75
838.583	12901.03
838.908	12882.73
839.233	12792.79
839.558	12803.41
839.883	12824.2
840.208	12751.88
840.533	12704.65
840.858	12739.91
841.182	12728.15
841.507	12691.32
841.832	12620.13
842.156	12501.27
842.481	12644.31
842.805	12588.27
843.13	12550.31
843.454	12517.09
843.778	12435.51
844.103	12391.67
844.427	12499.91
844.751	12346.7
845.075	12308.05
845.399	12295.85
845.723	12260.82
846.047	12327.03
846.371	12123.65
846.695	12132.46
847.019	12059.02
847.343	11983.09
847.666	11981.73
847.99	11824.9
848.313	11887.27
848.637	11793.26
848.96	11777.22
849.284	11789.42
849.607	11678.24
849.931	11662.19
850.254	11546.49
850.577	11516.66
850.9	11394.4
851.223	11454.52
851.546	11388.98
851.869	11334.52
852.192	11318.47
852.515	11225.59
852.838	11148.53
853.161	11270.57
853.483	11119.61
853.806	11111.02
854.129	11060.85
854.451	11080.29
854.774	10989.67
855.096	10984.02
855.419	10909.44
855.741	10905.83
856.063	10794.87
856.385	10803.46
856.708	10770.92
857.03	10706.29
857.352	10704.03
857.674	10664.71
857.996	10678.26
858.318	10593.29
858.64	10581.09
858.961	10553.52
859.283	10533.86
859.605	10519.17
859.926	10553.52
860.248	10449.34
860.57	10389.91
860.891	10482.79
861.212	10374.77
861.534	10359.85
861.855	10316.69
862.176	10298.39
862.498	10311.95
862.819	10233.98
863.14	10240.31
863.461	10164.83
863.782	10263.81
864.103	10152.85
864.424	10164.15
864.745	10205.28
865.065	10053.42
865.386	10080.99
865.707	10095.91
866.027	10095.45
866.348	10141.78
866.668	10024.5
866.989	10047.55
867.309	9977.49
867.63	9994.67
867.95	9930.71
868.27	9880.77
868.59	9953.31
868.91	9911.73
869.23	9877.16
869.55	9848.23
869.87	9845.07
870.19	9825.41
870.51	9811.85
870.83	9821.56
871.15	9835.35
871.469	9744.96
871.789	9801
872.109	9782.69
872.428	9731.62
872.748	9769.14
873.067	9776.37
873.386	9692.53
873.706	9720.32
874.025	9645.3
874.344	9602.13
874.663	9663.83
874.982	9538.86
875.301	9532.31
875.62	9634.22
875.939	9620.44
876.258	9557.62
876.577	9498.18
876.896	9496.37
877.214	9512.65
877.533	9553.77
877.852	9514.23
878.17	9505.19
878.489	9446.88
878.807	9475.13
879.125	9408.24
879.444	9394.68
879.762	9385.64
880.08	9338.41
880.398	9315.59
880.716	9371.41
881.034	9246.66
881.352	9336.6
881.67	9254.8
881.988	9360.33
882.306	9261.8
882.624	9174.58
882.941	9113.11
883.259	9139.55
883.577	9177.51
883.894	9178.64
884.212	9099.1
884.529	9045.54
884.846	9050.74
885.164	9014.58
885.481	8992.43
885.798	9006.9
886.115	8976.16
886.432	8948.59
886.75	8913.11
887.067	9010.51
887.383	8803.74
887.7	8918.76
888.017	8781.14
888.334	8857.3
888.651	8802.38
888.967	8756.51
889.284	8770.97
889.6	8733.46
889.917	8684.87
890.233	8648.94
890.55	8630.41
890.866	8641.93
891.182	8623.18
891.498	8601.71
891.815	8588.15
892.131	8524.87
892.447	8530.98
892.763	8518.55
893.079	8432.22
893.395	8425.44
893.71	8401.26
894.026	8406.91
894.342	8355.61
894.657	8314.94
894.973	8281.04
895.289	8270.19
895.604	8268.84
895.92	8153.59
896.235	8183.19
896.55	8080.82
896.865	8127.37
897.181	8146.13
897.496	8103.19
897.811	8091.89
898.126	8034.49
898.441	8039.24
898.756	7997.43
899.071	7961.05
899.386	7956.08
899.7	7898
900.015	7827.04
900.33	7807.83
900.644	7827.27
900.959	7801.73
901.273	7763.54
901.588	7794.5
901.902	7700.72
902.216	7680.6
902.531	7672.92
902.845	7612.81
903.159	7601.28
903.473	7530.55
903.787	7526.93
904.101	7472.7
904.415	7458.01
904.729	7410.55
905.042	7413.49
905.356	7373.04
905.67	7370.1
905.984	7374.4
906.297	7336.66
906.611	7258.92
906.924	7180.96
907.237	7210.56
907.551	7211.69
907.864	7195.19
908.177	7150.45
908.491	7119.94
908.804	7076.1
909.117	7054.4
909.43	6962.43
909.743	6983.45
910.056	6993.84
910.368	6902.77
910.681	6939.83
910.994	6898.02
911.307	6836.11
911.619	6850.57
911.932	6796.56
912.244	6776.22
912.557	6748.88
912.869	6718.59
913.181	6670.23
913.494	6619.84
913.806	6654.19
914.118	6574.19
914.43	6556.34
914.742	6553.63
915.054	6508.66
915.366	6480.18
915.678	6467.3
915.99	6446.51
916.302	6406.29
916.613	6377.13
916.925	6404.7
917.236	6361.77
917.548	6358.83
917.859	6330.13
918.171	6225.05
918.482	6273.41
918.794	6218.72
919.105	6221.43
919.416	6102.79
919.727	6148.67
920.038	6161.32
920.349	6096.24
920.66	6064.6
920.971	6055.56
921.282	5983.7
921.593	5940.31
921.903	5936.02
922.214	5953.87
922.525	5905.73
922.835	5870.26
923.146	5842.23
923.456	5866.19
923.767	5824.61
924.077	5784.38
924.387	5829.13
924.697	5742.57
925.008	5665.97
925.318	5680.2
925.628	5652.86
925.938	5644.95
926.248	5590.94
926.558	5587.55
926.867	5556.37
927.177	5591.39
927.487	5550.04
927.796	5468.23
928.106	5466.88
928.416	5447.44
928.725	5447.22
929.034	5419.87
929.344	5388.91
929.653	5369.48
929.962	5337.61
930.271	5296.71
930.581	5286.09
930.89	5251.74
931.199	5240.89
931.508	5206.77
931.817	5168.58
932.125	5162.03
932.434	5113.66
932.743	5130.84
933.051	5039.09
933.36	5108.24
933.669	5040.22
933.977	5063.72
934.286	5031.18
934.594	5032.54
934.902	4903.05
935.21	4920
935.519	4932.43
935.827	4920
936.135	4871.86
936.443	4859.43
936.751	4871.19
937.059	4824.18
937.367	4820.34
937.674	4790.74
937.982	4768.82
938.29	4757.52
938.597	4783.96
938.905	4703.73
939.213	4676.84
939.52	4671.19
939.827	4688.59
940.135	4624.41
940.442	4593
940.749	4577.63
941.056	4602.04
941.363	4515.04
941.67	4512.1
941.977	4476.17
942.284	4486.34
942.591	4485.43
942.898	4474.59
943.205	4420.8
943.511	4433.68
943.818	4399.56
944.125	4357.98
944.431	4361.82
944.738	4369.28
945.044	4294.03
945.35	4302.61
945.657	4307.13
945.963	4285.21
946.269	4227.81
946.575	4212.9
946.881	4228.94
947.187	4188.72
947.493	4141.04
947.799	4122.96
948.105	4127.93
948.41	4140.81
948.716	4118.44
949.022	4064.2
949.327	4099.23
949.633	4017.2
949.938	4082.51
950.244	4050.19
950.549	3988.95
950.854	3993.47
951.16	3966.35
951.465	3909.85
951.77	3943.53
952.075	3888.61
952.38	3909.18
952.685	3905.56
952.99	3843.64
953.294	3831.89
953.599	3805.68
953.904	3827.82
954.209	3796.86
954.513	3748.28
954.818	3742.85
955.122	3718.45
955.426	3718.67
955.731	3683.87
956.035	3679.35
956.339	3656.3
956.643	3638.9
956.948	3661.95
957.252	3596.42
957.556	3601.61
957.86	3605.46
958.163	3616.98
958.467	3561.62
958.771	3569.52
959.075	3533.14
959.378	3505.35
959.682	3521.39
959.985	3500.83
960.289	3513.93
960.592	3450.66
960.896	3453.14
961.199	3423.54
961.502	3437.1
961.805	3379.47
962.108	3378.12
962.411	3379.93
962.714	3380.83
963.017	3344.45
963.32	3306.71
963.623	3308.97
963.926	3318.91
964.228	3256.99
964.531	3283.88
964.833	3243.88
965.136	3195.07
965.438	3230.78
965.741	3232.58
966.043	3175.18
966.345	3176.54
966.648	3169.31
966.95	3170.44
967.252	3122.3
967.554	3144.45
967.856	3184
968.158	3095.41
968.46	3102.64
968.761	3091.57
969.063	3044.11
969.365	2997.34
969.666	3058.13
969.968	3000.5
970.269	3011.35
970.571	3024.68
970.872	2998.24
971.174	2985.81
971.475	2983.33
971.776	2957.56
972.077	2941.07
972.378	2941.29
972.679	2913.72
972.98	2888.86
973.281	2870.79
973.582	2891.8
973.883	2865.36
974.183	2869.43
974.484	2865.36
974.785	2814.06
975.085	2831.24
975.386	2831.69
975.686	2778.36
975.986	2783.56
976.287	2758.7
976.587	2760.28
976.887	2750.11
977.187	2765.48
977.487	2724.8
977.787	2705.59
978.087	2688.87
978.387	2662.43
978.687	2683.22
978.987	2666.05
979.286	2647.97
979.586	2640.51
979.885	2595.54
980.185	2621.08
980.484	2605.48
980.784	2583.79
981.083	2567.29
981.382	2585.82
981.682	2548.31
981.981	2549.66
982.28	2540.4
982.579	2520.29
982.878	2531.13
983.177	2494.75
983.475	2520.06
983.774	2458.14
984.073	2449.78
984.372	2437.58
984.67	2412.72
984.969	2450.91
985.267	2421.76
985.566	2440.74
985.864	2391.25
986.162	2397.35
986.461	2392.61
986.759	2338.14
987.057	2324.59
987.355	2333.85
987.653	2327.52
987.951	2335.88
988.249	2341.31
988.547	2303.12
988.844	2309.67
989.142	2267.41
989.44	2265.15
989.737	2269.22
990.035	2249.11
990.332	2268.09
990.63	2242.78
990.927	2227.87
991.224	2230.12
991.521	2203.01
991.819	2183.8
992.116	2178.83
992.413	2163.91
992.71	2141.77
993.006	2201.2
993.303	2146.06
993.6	2118.26
993.897	2139.96
994.193	2113.52
994.49	2130.47
994.787	2087.76
995.083	2094.31
995.379	2087.53
995.676	2047.53
995.972	2041.43
996.268	2042.11
996.565	2047.08
996.861	2024.03
997.157	2022.67
997.453	2009.79
997.749	2000.75
998.044	1976.35
998.34	1976.57
998.636	1984.71
998.932	1935.9
999.227	1945.61
999.523	1900.64
999.818	1942.22
1000.114	1930.7
1000.409	1897.03
1000.704	1899.96
1001	1867.42
1001.295	1875.33
1001.59	1850.02
1001.885	1888.67
1002.18	1841.21
1002.475	1847.54
1002.77	1836.46
1003.065	1794.66
1003.359	1813.41
1003.654	1786.52
1003.949	1795.79
1004.243	1779.06
1004.538	1763.7
1004.832	1746.97
1005.127	1745.62
1005.421	1741.1
1005.715	1748.78
1006.009	1731.38
1006.304	1699.29
1006.598	1696.13
1006.892	1702
1007.186	1695
1007.48	1709.69
1007.773	1685.28
1008.067	1648.45
1008.361	1666.75
1008.655	1630.37
1008.948	1624.49
1009.242	1655.22
1009.535	1598.05
1009.829	1600.99
1010.122	1583.36
1010.415	1589.24
1010.708	1579.97
1011.001	1563.93
1011.295	1527.09
1011.588	1556.02
1011.881	1519.86
1012.173	1490.48
1012.466	1519.64
1012.759	1514.66
1013.052	1497.04
1013.344	1499.97
1013.637	1511.05
1013.93	1484.61
1014.222	1460.65
1014.514	1446.64
1014.807	1454.33
1015.099	1422.91
1015.391	1453.42
1015.683	1417.04
1015.976	1413.42
1016.268	1397.38
1016.56	1394.21
1016.851	1398.51
1017.143	1368.68
1017.435	1384.72
1017.727	1348.34
1018.018	1340.43
1018.31	1368.23
1018.602	1351.73
1018.893	1354.22
1019.185	1308.12
1019.476	1340.66
1019.767	1304.05
1020.058	1300.21
1020.35	1283.26
1020.641	1283.94
1020.932	1266.53
1021.223	1276.7
1021.514	1273.31
1021.804	1241
1022.095	1247.55
1022.386	1252.3
1022.677	1226.08
1022.967	1233.99
1023.258	1220.21
1023.548	1194.67
1023.839	1196.71
1024.129	1176.82
1024.419	1201.45
1024.709	1196.48
1025	1139.08
1025.29	1152.64
1025.58	1152.87
1025.87	1149.48
1026.16	1155.58
1026.449	1140.89
1026.739	1125.3
1027.029	1114.22
1027.319	1111.96
1027.608	1092.08
1027.898	1099.31
1028.187	1132.3
1028.477	1073.09
1028.766	1114.22
1029.055	1074.68
1029.344	1051.17
1029.634	1062.92
1029.923	1051.85
1030.212	1052.3
1030.501	1014.56
1030.79	1017.73
1031.078	1026.99
1031.367	1021.12
1031.656	1019.08
1031.945	989.93
1032.233	1005.98
1032.522	974.11
1032.81	994.45
1033.099	1007.56
1033.387	977.73
1033.675	972.53
1033.963	962.81
1034.251	973.89
1034.54	944.51
1034.828	965.75
1035.116	913.78
1035.403	930.27
1035.691	900.44
1035.979	925.75
1036.267	912.65
1036.554	914
1036.842	911.52
1037.129	882.36
1037.417	921.91
1037.704	894.11
1037.992	877.62
1038.279	893.44
1038.566	894.11
1038.853	894.11
1039.14	894.11
