Data from hue_200_FLMS001491_00034.txt Node
Date: Tue Feb 07 16:43:11 GMT 2017
User: dcchb
Spectrometer: FLMS00149
Trigger mode: 0
Integration Time (sec): 2.000000E-2
Scans to average: 10
Electric dark correction enabled: true
Nonlinearity correction enabled: false
Boxcar width: 0
XAxis mode: Wavelengths
Number of Pixels in Spectrum: 2048
>>>>>Begin Spectral Data<<<<<
341.393	-12.51
341.776	-12.51
342.16	-12.51
342.543	-70.37
342.927	-59.29
343.31	-72.63
343.693	-59.74
344.077	-57.71
344.46	-62.23
344.843	-59.07
345.226	-50.93
345.61	-39.63
345.993	-15.45
346.376	0.59
346.759	9.18
347.142	24.77
347.525	63.42
347.908	44.43
348.291	78.33
348.674	94.6
349.057	102.06
349.44	127.6
349.823	147.71
350.206	163.3
350.588	172.34
350.971	220.02
351.354	208.27
351.737	233.13
352.119	244.2
352.502	259.12
352.884	276.52
353.267	300.7
353.65	283.3
354.032	281.04
354.414	287.14
354.797	295.5
355.179	323.52
355.562	344.31
355.944	307.7
356.326	343.86
356.709	349.51
357.091	340.25
357.473	333.69
357.855	355.16
358.238	329.17
358.62	328.27
359.002	332.56
359.384	342.51
359.766	339.12
360.148	353.13
360.53	328.72
360.912	352.67
361.294	343.86
361.676	337.99
362.057	340.02
362.439	338.44
362.821	327.14
363.203	330.3
363.584	321.71
363.966	322.39
364.348	322.17
364.729	329.85
365.111	321.94
365.493	325.78
365.874	324.2
366.256	322.84
366.637	322.39
367.019	297.31
367.4	319
367.781	308.83
368.163	324.88
368.544	310.64
368.925	323.75
369.306	314.48
369.688	323.75
370.069	316.07
370.45	321.71
370.831	320.36
371.212	324.88
371.593	316.97
371.974	340.7
372.355	325.56
372.736	316.74
373.117	307.25
373.498	337.08
373.879	323.52
374.26	325.56
374.641	310.42
375.021	327.82
375.402	316.97
375.783	311.55
376.163	334.37
376.544	338.89
376.925	344.54
377.305	348.38
377.686	340.25
378.066	316.74
378.447	335.27
378.827	344.76
379.208	335.5
379.588	350.87
379.968	348.15
380.349	361.04
380.729	333.69
381.109	325.1
381.489	329.4
381.87	341.38
382.25	345.67
382.63	341.38
383.01	348.38
383.39	368.95
383.77	352
384.15	360.81
384.53	359
384.91	361.71
385.29	358.78
385.67	368.27
386.049	367.36
386.429	367.14
386.809	385.44
387.189	350.64
387.568	334.6
387.948	359.91
388.328	382.5
388.707	373.01
389.087	340.25
389.466	349.28
389.846	381.37
390.225	370.98
390.605	385.22
390.984	401.03
391.363	364.43
391.743	389.74
392.122	392.45
392.501	393.35
392.881	386.35
393.26	364.88
393.639	391.54
394.018	386.12
394.397	385.67
394.776	390.19
395.155	382.28
395.534	379.11
395.913	391.32
396.292	404.65
396.671	402.84
397.05	407.14
397.429	433.58
397.808	425.44
398.186	404.65
398.565	429.73
398.944	425.89
399.323	417.31
399.701	426.8
400.08	411.2
400.458	444.2
400.837	444.65
401.215	424.54
401.594	452.33
401.972	454.59
402.351	438.55
402.729	456.4
403.107	445.1
403.486	465.21
403.864	465.21
404.242	481.48
404.62	492.33
404.999	478.77
405.377	482.61
405.755	493.01
406.133	504.31
406.511	477.87
406.889	492.33
407.267	497.53
407.645	512.9
408.023	522.61
408.401	534.82
408.779	535.27
409.156	535.27
409.534	537.08
409.912	559
410.29	537.75
410.667	573.01
411.045	571.2
411.422	593.35
411.8	603.74
412.178	619.33
412.555	632.44
412.933	626.34
413.31	613.23
413.687	640.12
414.065	649.62
414.442	680.8
414.819	672.67
415.197	695.26
415.574	729.84
415.951	715.6
416.328	723.06
416.705	741.82
417.082	740.46
417.46	757.41
417.837	770.97
418.214	760.35
418.591	781.59
418.967	791.53
419.344	797.63
419.721	817.07
420.098	838.76
420.475	858.88
420.852	817.75
421.228	866.33
421.605	862.49
421.982	896.61
422.358	909.95
422.735	959.66
423.111	937.29
423.488	959.89
423.864	996.73
424.241	997.86
424.617	1005.31
424.994	1009.38
425.37	1056.61
425.746	1073.79
426.123	1103.84
426.499	1100
426.875	1126.89
427.251	1114.24
427.627	1127.8
428.003	1163.5
428.379	1205.99
428.756	1202.82
429.132	1201.01
429.507	1234.23
429.883	1247.79
430.259	1258.87
430.635	1284.63
431.011	1255.93
431.387	1290.73
431.763	1307.68
432.138	1349.03
432.514	1372.99
432.89	1378.18
433.265	1419.54
433.641	1436.71
434.016	1464.51
434.392	1500.89
434.767	1567.78
435.143	1532.3
435.518	1602.58
435.894	1622.7
436.269	1631.96
436.644	1652.3
437.02	1686.65
437.395	1689.81
437.77	1727.55
438.145	1779.53
438.52	1771.17
438.895	1828.34
439.271	1890.04
439.646	1894.78
440.021	1916.7
440.395	1938.4
440.77	1940.66
441.145	1939.3
441.52	2018.85
441.895	2014.78
442.27	2060.88
442.645	2099.75
443.019	2101.55
443.394	2107.88
443.769	2150.82
444.143	2131.16
444.518	2180.42
444.892	2196.92
445.267	2226.52
445.641	2237.14
446.016	2287.54
446.39	2291.61
446.764	2329.8
447.139	2309.46
447.513	2353.98
447.887	2375.22
448.262	2386.97
448.636	2397.14
449.01	2409.57
449.384	2447.31
449.758	2469.45
450.132	2531.83
450.506	2504.71
450.88	2502
451.254	2540.87
451.628	2602.78
452.002	2605.5
452.376	2645.95
452.75	2666.29
453.123	2676.46
453.497	2738.37
453.871	2742.67
454.244	2788.32
454.618	2804.36
454.992	2815.66
455.365	2830.35
455.739	2942.21
456.112	2965.94
456.486	2999.84
456.859	2985.83
457.232	3025.37
457.606	3040.51
457.979	3070.57
458.352	3166.16
458.725	3197.12
459.099	3189.89
459.472	3267.17
459.845	3322.77
460.218	3325.03
460.591	3338.81
460.964	3338.81
461.337	3427.62
461.71	3515.53
462.083	3549.65
462.456	3539.94
462.829	3585.81
463.201	3668.29
463.574	3678.01
463.947	3719.59
464.32	3778.12
464.692	3819.93
465.065	3835.97
465.438	3870.77
465.81	3964.56
466.183	3983.77
466.555	4066.93
466.928	4095.4
467.3	4071.22
467.672	4194.83
468.045	4299.46
468.417	4258.79
468.789	4315.51
469.161	4376.98
469.534	4449.97
469.906	4531.32
470.278	4567.7
470.65	4575.39
471.022	4713.24
471.394	4744.42
471.766	4800.47
472.138	4883.4
472.51	4971.99
472.882	5009.5
473.253	5082.49
473.625	5198.42
473.997	5263.05
474.369	5289.72
474.74	5372.43
475.112	5406.1
475.484	5524.06
475.855	5657.17
476.227	5642.48
476.598	5806.32
476.97	5865.52
477.341	5963.83
477.713	6021.9
478.084	6040.66
478.455	6201.79
478.827	6304.61
479.198	6425.73
479.569	6478.39
479.94	6614.43
480.311	6712.73
480.682	6832.96
481.053	6936.91
481.424	6988.88
481.795	7053.29
482.166	7202.44
482.537	7275.88
482.908	7466.39
483.279	7473.84
483.65	7658.24
484.021	7792.7
484.391	7865.47
484.762	7894.17
485.133	7950.89
485.503	8087.84
485.874	8201.28
486.244	8323.99
486.615	8388.17
486.985	8489.41
487.356	8625.68
487.726	8741.83
488.097	8866.35
488.467	8921.71
488.837	9101.37
489.207	9173.69
489.578	9325.77
489.948	9379.33
490.318	9469.72
490.688	9515.15
491.058	9618.19
491.428	9741.35
491.798	9882.14
492.168	9999.65
492.538	10010.73
492.908	10103.15
493.278	10145.64
493.648	10231.06
494.017	10314.9
494.387	10453.65
494.757	10444.16
495.126	10593.31
495.496	10626.3
495.866	10630.82
496.235	10832.62
496.605	10844.38
496.974	10816.13
497.344	10969.12
497.713	10980.42
498.082	11055.44
498.452	11209.11
498.821	11189.68
499.19	11247.76
499.559	11294.99
499.928	11290.47
500.298	11336.11
500.667	11523.23
501.036	11414.76
501.405	11578.37
501.774	11543.34
502.143	11583.11
502.512	11663.56
502.88	11676.67
503.249	11653.39
503.618	11759.61
503.987	11795.31
504.356	11770.23
504.724	11928.87
505.093	11812.03
505.462	11891.58
505.83	11945.82
506.199	12057.68
506.567	12114.85
506.936	12106.72
507.304	12302.19
507.672	12276.2
508.041	12283.89
508.409	12291.34
508.777	12344
509.145	12413.6
509.514	12354.39
509.882	12364.11
510.25	12373.6
510.618	12513.71
510.986	12516.65
511.354	12580.6
511.722	12565.23
512.09	12623.99
512.458	12624.44
512.826	12744.21
513.193	12673.93
513.561	12704.44
513.929	12760.03
514.297	12807.04
514.664	12872.35
515.032	12906.69
515.4	12907.6
515.767	12976.75
516.135	12996.18
516.502	12783.31
516.869	13030.53
517.237	13068.5
517.604	12920.48
517.972	13090.87
518.339	13113.47
518.706	13034.83
519.073	12943.53
519.44	13086.58
519.808	13198.21
520.175	13081.38
520.542	13246.12
520.909	13250.19
521.276	13117.54
521.643	13272.33
522.009	13219.45
522.376	13317.31
522.743	13306.91
523.11	13391.88
523.477	13423.07
523.843	13418.77
524.21	13439.56
524.577	13538.54
524.943	13474.82
525.31	13490.18
525.676	13565.43
526.043	13512.55
526.409	13570.86
526.776	13643.4
527.142	13576.96
527.508	13621.93
527.874	13654.92
528.241	13665.54
528.607	13568.37
528.973	13656.05
529.339	13669.16
529.705	13689.05
530.071	13661.48
530.437	13679.1
530.803	13627.35
531.169	13614.7
531.535	13571.54
531.901	13549.16
532.267	13602.95
532.632	13624.64
532.998	13498.32
533.364	13504.64
533.73	13494.93
534.095	13584.42
534.461	13475.95
534.826	13418.09
535.192	13496.74
535.557	13485.66
535.923	13355.72
536.288	13393.91
536.653	13397.76
537.019	13303.29
537.384	13296.74
537.749	13290.87
538.114	13251.54
538.479	13182.85
538.845	13144.65
539.21	13066.46
539.575	13146.24
539.94	12995.73
540.305	13058.1
540.67	12954.83
541.034	13003.19
541.399	12951.67
541.764	12917.99
542.129	12910.54
542.494	12788.05
542.858	12747.6
543.223	12706.93
543.587	12765.46
543.952	12704.67
544.316	12599.13
544.681	12530.43
545.045	12534.27
545.41	12584.9
545.774	12497.44
546.138	12446.37
546.503	12371.12
546.867	12372.25
547.231	12332.02
547.595	12302.42
547.959	12293.15
548.324	12231.23
548.688	12072.14
549.052	12127.73
549.416	12129.09
549.779	11988.53
550.143	11985.59
550.507	12013.61
550.871	11908.75
551.235	11905.82
551.599	11913.73
551.962	11977.91
552.326	11797.35
552.689	11787.63
553.053	11765.03
553.417	11694.75
553.78	11767.29
554.143	11687.97
554.507	11672.38
554.87	11693.62
555.234	11724.8
555.597	11590.12
555.96	11564.81
556.323	11511.48
556.686	11486.84
557.05	11549.89
557.413	11520.06
557.776	11464.47
558.139	11512.15
558.502	11440.29
558.865	11419.05
559.228	11457.47
559.59	11488.43
559.953	11510.57
560.316	11457.24
560.679	11319.39
561.041	11385.38
561.404	11434.19
561.767	11427.86
562.129	11412.72
562.492	11404.14
562.854	11434.64
563.217	11313.29
563.579	11345.15
563.941	11406.62
564.304	11382.21
564.666	11482.33
565.028	11353.29
565.39	11369.56
565.753	11397.81
566.115	11438.94
566.477	11443.91
566.839	11376.57
567.201	11518.26
567.563	11396.9
567.925	11478.71
568.287	11443.91
568.648	11454.08
569.01	11520.97
569.372	11493.4
569.734	11441.87
570.095	11554.64
570.457	11518.48
570.819	11535.88
571.18	11508.31
571.542	11547.86
571.903	11476.22
572.265	11575.43
572.626	11603.45
572.987	11591.02
573.349	11538.59
573.71	11623.56
574.071	11597.12
574.432	11582.21
574.794	11609.1
575.155	11547.86
575.516	11651.59
575.877	11664.69
576.238	11637.8
576.599	11648.65
576.96	11579.05
577.32	11663.11
577.681	11735.2
578.042	11764.8
578.403	11683
578.763	11696.78
579.124	11758.02
579.485	11751.92
579.845	11770.91
580.206	11686.61
580.566	11684.13
580.927	11647.52
581.287	11757.57
581.648	11721.41
582.008	11679.83
582.368	11679.83
582.728	11697.69
583.089	11660.63
583.449	11636.45
583.809	11644.81
584.169	11774.97
584.529	11668.08
584.889	11711.02
585.249	11636.22
585.609	11679.83
585.969	11700.85
586.329	11640.74
586.688	11647.52
587.048	11627.63
587.408	11656.33
587.768	11572.94
588.127	11617.24
588.487	11608.65
588.846	11674.64
589.206	11580.18
589.565	11645.94
589.925	11541.53
590.284	11575.66
590.643	11583.11
591.003	11645.48
591.362	11625.37
591.721	11524.58
592.08	11544.02
592.44	11634.41
592.799	11582.66
593.158	11507.86
593.517	11503.34
593.876	11535.21
594.235	11457.69
594.593	11545.6
594.952	11545.83
595.311	11479.16
595.67	11540.85
596.029	11540.4
596.387	11541.53
596.746	11513.28
597.104	11483
597.463	11424.93
597.822	11458.37
598.18	11541.76
598.538	11455.43
598.897	11600.97
599.255	11383.12
599.613	11577.24
599.972	11519.39
600.33	11499.27
600.688	11482.78
601.046	11536.79
601.404	11577.01
601.762	11534.08
602.12	11538.59
602.478	11570.01
602.836	11494.98
603.194	11430.8
603.552	11483.23
603.91	11468.09
604.268	11514.64
604.625	11480.74
604.983	11477.58
605.341	11441.42
605.698	11541.53
606.056	11538.14
606.413	11479.61
606.771	11546.96
607.128	11507.41
607.485	11499.05
607.843	11568.65
608.2	11633.06
608.557	11498.82
608.914	11495.88
609.272	11559.84
609.629	11546.96
609.986	11645.71
610.343	11552.38
610.7	11669.44
611.057	11602.1
611.414	11575.66
611.771	11606.16
612.127	11707.86
612.484	11605.26
612.841	11602.32
613.198	11636.22
613.554	11630.57
613.911	11669.66
614.267	11690.23
614.624	11686.84
614.98	11662.43
615.337	11733.84
615.693	11732.49
616.05	11693.17
616.406	11769.78
616.762	11729.32
617.118	11720.29
617.475	11715.09
617.831	11723.67
618.187	11760.28
618.543	11821.53
618.899	11888.64
619.255	11814.97
619.611	11774.97
619.967	11770
620.323	11894.52
620.678	11761.64
621.034	11746.73
621.39	11802.99
621.746	11723.45
622.101	11899.49
622.457	11843.9
622.812	11798.93
623.168	11795.09
623.523	11791.7
623.879	11783.56
624.234	11664.02
624.589	11753.28
624.945	11769.1
625.3	11781.3
625.655	11711.47
626.01	11829.89
626.365	11764.8
626.72	11733.84
627.075	11817.91
627.43	11694.52
627.785	11711.02
628.14	11709.44
628.495	11648.2
628.85	11736.78
629.205	11715.09
629.559	11768.42
629.914	11584.7
630.269	11698.82
630.623	11664.24
630.978	11598.25
631.332	11701.98
631.687	11649.33
632.041	11588.76
632.396	11631.7
632.75	11630.8
633.104	11572.27
633.459	11516.67
633.813	11543.34
634.167	11496.34
634.521	11546.5
634.875	11472.38
635.229	11404.59
635.583	11445.72
635.937	11387.64
636.291	11447.98
636.645	11401.2
636.999	11441.2
637.352	11470.35
637.706	11322.33
638.06	11382.21
638.413	11354.87
638.767	11387.64
639.121	11323.91
639.474	11225.38
639.828	11320.3
640.181	11254.53
640.534	11284.59
640.888	11266.29
641.241	11150.13
641.594	11235.55
641.947	11219.06
642.301	11233.07
642.654	11285.04
643.007	11203.69
643.36	11198.72
643.713	11226.96
644.066	11209.11
644.419	11118.04
644.771	11134.31
645.124	11074.2
645.477	10944.94
645.83	10931.38
646.182	10812.06
646.535	10813.42
646.888	10813.64
647.24	10737.94
647.593	10792.4
647.945	10769.58
648.298	10768.9
648.65	10787.65
649.002	10754.89
649.355	10756.02
649.707	10739.75
650.059	10817.03
650.411	10923.24
650.763	10943.81
651.115	10940.64
651.467	11040.75
651.819	11045.95
652.171	10969.8
652.523	11024.26
652.875	11001.89
653.227	10963.24
653.578	10989
653.93	11060.42
654.282	11005.73
654.633	10896.58
654.985	10995.33
655.337	10947.2
655.688	10940.42
656.039	11080.53
656.391	10922.79
656.742	11005.5
657.094	11017.7
657.445	11055.44
657.796	11051.6
658.147	11006.18
658.498	11049.34
658.849	10955.79
659.2	11008.44
659.551	10970.02
659.902	10996.01
660.253	11029
660.604	11046.18
660.955	11002.79
661.306	11042.34
661.656	11052.51
662.007	11038.27
662.358	11028.55
662.708	11057.7
663.059	11093.18
663.409	11015.22
663.76	10996.91
664.11	11015.22
664.461	11117.36
664.811	11045.95
665.161	11041.21
665.511	10959.63
665.862	11023.13
666.212	11049.34
666.562	11075.78
666.912	11112.39
667.262	11082.34
667.612	11033.75
667.962	11053.41
668.312	11049.79
668.662	11047.31
669.011	11033.98
669.361	11026.52
669.711	10996.91
670.06	10971.6
670.41	10981.55
670.76	11062.9
671.109	10994.2
671.459	11006.41
671.808	10961.66
672.157	11003.47
672.507	10963.47
672.856	10877.6
673.205	10990.36
673.554	10951.72
673.904	10917.59
674.253	10970.93
674.602	10911.49
674.951	10787.43
675.3	10724.15
675.649	10900.19
675.998	10860.19
676.346	10871.95
676.695	10871.04
677.044	10864.49
677.393	10829.69
677.741	10810.48
678.09	10841.89
678.438	10762.12
678.787	10813.19
679.135	10756.69
679.484	10681.22
679.832	10760.99
680.181	10650.48
680.529	10744.49
680.877	10645.06
681.225	10681.22
681.573	10672.4
681.922	10606.19
682.27	10584.5
682.618	10648.67
682.966	10597.6
683.314	10562.8
683.661	10561.9
684.009	10501.33
684.357	10489.36
684.705	10483.93
685.053	10413.43
685.4	10425.86
685.748	10326.42
686.095	10344.28
686.443	10337.27
686.79	10306.76
687.138	10311.06
687.485	10295.01
687.832	10206.2
688.18	10259.98
688.527	10232.19
688.874	10140.21
689.221	10121.46
689.568	10138.86
689.915	10073.32
690.262	10132.76
690.609	10021.8
690.956	9996.49
691.303	9982.48
691.65	9930.95
691.997	9909.49
692.344	9791.52
692.69	9786.1
693.037	9793.78
693.383	9720.11
693.73	9746.55
694.077	9662.03
694.423	9680.79
694.769	9732.77
695.116	9667.23
695.462	9630.17
695.808	9575.71
696.155	9554.47
696.501	9455.94
696.847	9461.14
697.193	9421.81
697.539	9382.72
697.885	9328.03
698.231	9304.98
698.577	9340.69
698.923	9277.64
699.269	9196.96
699.614	9130.75
699.96	9135.27
700.306	9148.83
700.651	9128.71
700.997	9020.24
701.342	9044.88
701.688	9039
702.033	8916.29
702.379	8936.4
702.724	8937.76
703.069	8885.56
703.415	8887.14
703.76	8856.41
704.105	8828.84
704.45	8806.69
704.795	8753.81
705.14	8688.5
705.485	8685.11
705.83	8703.64
706.175	8643.76
706.52	8609.18
706.865	8538.9
707.209	8583.87
707.554	8538.45
707.899	8518.34
708.243	8450.54
708.588	8493.03
708.932	8385.23
709.277	8363.76
709.621	8376.19
709.966	8287.15
710.31	8418.68
710.654	8254.61
710.998	8303.43
711.342	8296.65
711.687	8254.84
712.031	8238.79
712.375	8130.77
712.719	8242.64
713.063	8212.13
713.407	8187.27
713.75	8136.65
714.094	8131.23
714.438	8127.39
714.782	8097.1
715.125	8079.48
715.469	8064.11
715.812	8006.94
716.156	8043.32
716.499	7985.47
716.843	8048.07
717.186	7963.77
717.53	7966.71
717.873	8000.83
718.216	7974.85
718.559	7897.56
718.902	7876.77
719.246	7910.89
719.589	7862.31
719.932	7805.36
720.275	7833.38
720.617	7848.75
720.96	7844.68
721.303	7877.9
721.646	7846.49
721.989	7799.26
722.331	7842.65
722.674	7787.96
723.016	7790.44
723.359	7766.26
723.701	7769.2
724.044	7762.87
724.386	7694.18
724.729	7715.87
725.071	7694.85
725.413	7675.42
725.755	7715.19
726.097	7710.9
726.439	7639.71
726.782	7666.83
727.124	7639.94
727.465	7649.43
727.807	7620.73
728.149	7685.14
728.491	7573.5
728.833	7642.88
729.175	7646.27
729.516	7629.77
729.858	7613.73
730.199	7666.83
730.541	7665.93
730.882	7632.71
731.224	7581.86
731.565	7614.63
731.906	7599.49
732.248	7614.63
732.589	7706.61
732.93	7571.92
733.271	7609.88
733.612	7669.54
733.953	7634.97
734.294	7603.33
734.635	7622.77
734.976	7654.18
735.317	7576.21
735.658	7573.5
735.999	7585.7
736.339	7595.2
736.68	7578.47
737.021	7666.83
737.361	7608.98
737.702	7713.38
738.042	7629.09
738.383	7636.78
738.723	7617.79
739.063	7650.11
739.404	7713.84
739.744	7633.84
740.084	7612.14
740.424	7696.44
740.764	7685.36
741.104	7734.4
741.444	7706.61
741.784	7726.04
742.124	7735.08
742.464	7764.46
742.804	7770.11
743.143	7813.04
743.483	7825.47
743.823	7825.25
744.162	7817.56
744.502	7874.28
744.841	7908.18
745.181	7960.61
745.52	7929.42
745.86	8031.12
746.199	8058.23
746.538	8042.87
746.877	8107.5
747.216	8119.7
747.556	8266.36
747.895	8266.59
748.234	8252.35
748.573	8295.06
748.911	8429.3
749.25	8435.4
749.589	8471.78
749.928	8595.4
750.267	8617.32
750.605	8697.31
750.944	8758.56
751.283	8820.02
751.621	8956.52
751.96	9023.86
752.298	9083.29
752.636	9172.78
752.975	9256.62
753.313	9399.89
753.651	9513.79
753.989	9576.61
754.327	9712.65
754.666	9781.35
755.004	9961.91
755.342	10132.08
755.679	10128.24
756.017	10308.57
756.355	10491.39
756.693	10697.04
757.031	10790.59
757.368	10905.17
757.706	11048.89
758.044	11149
758.381	11420.18
758.719	11452.95
759.056	11699.27
759.394	11901.07
759.731	11923.44
760.068	12187.84
760.405	12387.84
760.743	12575.18
761.08	12676.42
761.417	12864.21
761.754	13048.16
762.091	13207.25
762.428	13447.92
762.765	13656.51
763.102	13796.84
763.438	13958.87
763.775	14120.67
764.112	14332.87
764.449	14514.11
764.785	14638.85
765.122	14844.04
765.458	14963.59
765.795	15170.82
766.131	15422.79
766.467	15505.27
766.804	15640.18
767.14	15683.57
767.476	15965.15
767.812	16135.08
768.148	16305.02
768.485	16337.56
768.821	16505.24
769.157	16636.54
769.492	16803.77
769.828	16949.75
770.164	16951.79
770.5	17185.68
770.836	17390.87
771.171	17441.72
771.507	17627.02
771.842	17657.53
772.178	17819.79
772.513	17944.75
772.849	18020.46
773.184	18120.57
773.519	18192.66
773.855	18302.94
774.19	18307
774.525	18427.91
774.86	18537.05
775.195	18748.35
775.53	18669.71
775.865	18594.68
776.2	18705.41
776.535	18691.18
776.87	18827.22
777.205	18901.79
777.539	18869.25
777.874	18962.58
778.209	18866.76
778.543	18951.28
778.878	18967.78
779.212	19040.77
779.547	19058.17
779.881	19227.43
780.215	19136.14
780.55	19228.56
780.884	19219.07
781.218	19226.08
781.552	19241.67
781.886	19295
782.22	19282.12
782.554	19356.92
782.888	19172.74
783.222	19200.54
783.556	19271.72
783.889	19311.72
784.223	19196.02
784.557	19240.31
784.89	19270.82
785.224	19186.08
785.557	19112.41
785.891	19177.04
786.224	19126.42
786.558	19175.46
786.891	19089.81
787.224	18980.89
787.557	19125.74
787.891	19127.55
788.224	19009.81
788.557	19055.69
788.89	19182.24
789.223	19051.62
789.556	19012.75
789.888	18973.43
790.221	18957.83
790.554	18843.94
790.887	18733.66
791.219	18750.83
791.552	18691.4
791.884	18767.11
792.217	18755.35
792.549	18729.37
792.882	18615.92
793.214	18471.52
793.546	18581.12
793.879	18581.8
794.211	18516.94
794.543	18427
794.875	18524.17
795.207	18551.07
795.539	18425.19
795.871	18527.79
796.203	18237.63
796.535	18222.49
796.867	18302.71
797.198	18267.91
797.53	18211.19
797.862	18103.17
798.193	18085.54
798.525	18055.03
798.856	18062.94
799.188	17889.16
799.519	17837.64
799.85	17806
800.182	17860.46
800.513	17838.09
800.844	17779.79
801.175	17753.35
801.506	17857.75
801.837	17745.89
802.168	17709.51
802.499	17667.47
802.83	17544.76
803.161	17556.97
803.491	17572.11
803.822	17489.4
804.153	17513.13
804.483	17314.26
804.814	17294.38
805.145	17279.69
805.475	17252.57
805.805	17236.75
806.136	17181.84
806.466	17203.3
806.796	17207.15
807.126	17025.68
807.457	17027.94
807.787	17088.73
808.117	16869.98
808.447	16948.62
808.777	16879.25
809.107	16844.67
809.436	16747.05
809.766	16796.31
810.096	16682.41
810.426	16578.69
810.755	16703.66
811.085	16702.53
811.414	16746.59
811.744	16572.81
812.073	16514.06
812.403	16559.25
812.732	16496.88
813.061	16373.04
813.39	16334.18
813.719	16347.06
814.049	16387.05
814.378	16276.32
814.707	16177.57
815.036	16246.72
815.365	16204.01
815.693	16091.47
816.022	16058.93
816.351	16023.45
816.68	16020.28
817.008	16053.5
817.337	15915.88
817.665	15895.77
817.994	15979.61
818.322	15979.38
818.651	15837.46
818.979	15696.9
819.307	15841.31
819.636	15747.07
819.964	15681.76
820.292	15797.92
820.62	15821.87
820.948	15724.02
821.276	15800.18
821.604	15689.9
821.932	15744.13
822.259	15758.82
822.587	15730.58
822.915	15678.37
823.243	15694.64
823.57	15660.29
823.898	15615.55
824.225	15639.28
824.553	15619.39
824.88	15683.8
825.207	15750.69
825.535	15651.26
825.862	15712.5
826.189	15600.18
826.516	15777.35
826.843	15756.34
827.17	15797.24
827.497	15788.88
827.824	15680.63
828.151	15794.53
828.478	15739.61
828.805	15722.44
829.131	15719.95
829.458	15732.61
829.785	15712.04
830.111	15738.48
830.438	15754.53
830.764	15787.75
831.09	15774.87
831.417	15718.15
831.743	15673.4
832.069	15790.23
832.395	15726.28
832.722	15809.44
833.048	15697.36
833.374	15682.67
833.7	15550.24
834.026	15628.43
834.351	15710.69
834.677	15564.03
835.003	15693.74
835.329	15637.92
835.654	15696.23
835.98	15590.69
836.306	15599.05
836.631	15540.98
836.956	15621.2
837.282	15545.27
837.607	15458.27
837.932	15410.81
838.258	15439.28
838.583	15439.74
838.908	15382.11
839.233	15391.6
839.558	15387.99
839.883	15280.87
840.208	15181.21
840.533	15242.23
840.858	15225.96
841.182	15191.61
841.507	15223.02
841.832	15140.08
842.156	15123.81
842.481	15057.15
842.805	15064.6
843.13	14976.24
843.454	15035.9
843.778	14948.9
844.103	14905.96
844.427	14887.66
844.751	14892.63
845.075	14788
845.399	14826.42
845.723	14685.63
846.047	14725.63
846.371	14619.87
846.695	14573.77
847.019	14590.27
847.343	14345.98
847.666	14355.02
847.99	14283.16
848.313	14251.74
848.637	14143.05
848.96	14169.49
849.284	14109.83
849.607	14061.92
849.931	14064.18
850.254	13898.98
850.577	13910.51
850.9	13778.99
851.223	13743.06
851.546	13754.13
851.869	13638.2
852.192	13656.05
852.515	13543.29
852.838	13481.14
853.161	13440.47
853.483	13468.94
853.806	13419
854.129	13369.28
854.451	13318.89
854.774	13256.97
855.096	13098.1
855.419	13170.42
855.741	13075.73
856.063	13096.75
856.385	13025.56
856.708	12930.42
857.03	12877.77
857.352	12952.57
857.674	12930.65
857.996	12842.52
858.318	12798.67
858.64	12786.02
858.961	12744.21
859.283	12711.22
859.605	12607.27
859.926	12679.13
860.248	12641.39
860.57	12545.8
860.891	12596.42
861.212	12443.2
861.534	12449.31
861.855	12455.86
862.176	12455.18
862.498	12481.62
862.819	12476.88
863.14	12366.6
863.461	12360.49
863.782	12258.8
864.103	12362.75
864.424	12317.11
864.745	12285.92
865.065	12143.32
865.386	12169.31
865.707	12118.92
866.027	12192.81
866.348	12064
866.668	12051.8
866.989	12053.38
867.309	11975.87
867.63	12019.94
867.95	12072.82
868.27	11960.96
868.59	12039.6
868.91	11909.21
869.23	11860.62
869.55	11852.48
869.87	11947.85
870.19	11851.36
870.51	11900.62
870.83	11856.55
871.15	11785.59
871.469	11821.07
871.789	11791.24
872.109	11793.28
872.428	11718.48
872.748	11714.18
873.067	11704.24
873.386	11744.69
873.706	11661.76
874.025	11605.71
874.344	11567.97
874.663	11603.9
874.982	11546.28
875.301	11643
875.62	11612.49
875.939	11527.75
876.258	11568.42
876.577	11483.46
876.896	11576.33
877.214	11453.4
877.533	11503.57
877.852	11351.93
878.17	11385.15
878.489	11389.45
878.807	11381.08
879.125	11371.37
879.444	11336.11
879.762	11269
880.08	11254.76
880.398	11208.21
880.716	11280.52
881.034	11231.26
881.352	11218.15
881.67	11145.38
881.988	11188.1
882.306	11117.82
882.624	11086.18
882.941	11102
883.259	10965.95
883.577	11000.08
883.894	11012.28
884.212	11036.24
884.529	10959.4
884.846	10927.76
885.164	10920.31
885.481	10870.36
885.798	10817.48
886.115	10764.6
886.432	10859.74
886.75	10676.7
887.067	10797.37
887.383	10660.43
887.7	10740.65
888.017	10662.23
888.334	10641.44
888.651	10614.33
888.967	10661.56
889.284	10562.8
889.6	10494.1
889.917	10450.04
890.233	10434.9
890.55	10492.97
890.866	10459.53
891.182	10360.09
891.498	10395.57
891.815	10274.45
892.131	10299.08
892.447	10194.9
892.763	10236.93
893.079	10209.59
893.395	10207.33
893.71	10108.8
894.026	10095.24
894.342	10128.01
894.657	10035.58
894.973	10013.66
895.289	9945.87
895.604	9920.78
895.92	9806.44
896.235	9849.15
896.55	9831.07
896.865	9876.72
897.181	9762.37
897.496	9824.97
897.811	9688.7
898.126	9735.48
898.441	9713.33
898.756	9647.8
899.071	9531.87
899.386	9552.66
899.7	9436.96
900.015	9432.44
900.33	9338.2
900.644	9367.58
900.959	9380.91
901.273	9326.9
901.588	9303.17
901.902	9212.55
902.216	9148.15
902.531	9187.47
902.845	9172.78
903.159	9121.48
903.473	9097.76
903.787	9015.95
904.101	8969.17
904.415	9026.34
904.729	8946.12
905.042	8852.79
905.356	8845.78
905.67	8802.17
905.984	8782.28
906.297	8768.72
906.611	8738.89
906.924	8716.52
907.237	8663.42
907.551	8629.07
907.864	8625.23
908.177	8559.69
908.491	8597.88
908.804	8516.53
909.117	8444.66
909.43	8374.38
909.743	8375.29
910.056	8367.15
910.368	8374.16
910.681	8292.58
910.994	8276.31
911.307	8262.3
911.619	8208.29
911.932	8187.95
912.244	8132.81
912.557	8156.31
912.869	8040.83
913.181	7964.68
913.494	7959.48
913.806	7933.94
914.118	7898.46
914.43	7891.69
914.742	7867.28
915.054	7843.1
915.366	7758.81
915.678	7776.66
915.99	7707.96
916.302	7694.4
916.613	7631.13
916.925	7619.38
917.236	7659.15
917.548	7527.85
917.859	7574.86
918.171	7459.83
918.482	7436.78
918.794	7409.66
919.105	7438.59
919.416	7371.92
919.727	7360.4
920.038	7299.61
920.349	7315.2
920.66	7241.98
920.971	7279.5
921.282	7246.28
921.593	7183.23
921.903	7114.08
922.214	7175.32
922.525	7072.05
922.835	7064.14
923.146	6976.23
923.456	6958.38
923.767	6942.11
924.077	6950.24
924.387	6948.21
924.697	6884.03
925.008	6854.42
925.318	6917.02
925.628	6821.2
925.938	6783.01
926.248	6754.77
926.558	6745.05
926.867	6664.37
927.177	6677.48
927.487	6607.2
927.796	6528.78
928.106	6566.3
928.416	6572.4
928.725	6531.72
929.034	6484.26
929.344	6521.33
929.653	6489.01
929.962	6420.76
930.271	6362.01
930.581	6361.78
930.89	6352.52
931.199	6268.9
931.508	6274.33
931.817	6293.54
932.125	6252.41
932.434	6246.98
932.743	6177.83
933.051	6160.66
933.36	6097.61
933.669	6078.17
933.977	6082.92
934.286	6050.38
934.594	6012.86
934.902	5995.24
935.21	5959.08
935.519	5995.01
935.827	5946.65
936.135	5930.15
936.443	5840.89
936.751	5865.75
937.059	5910.49
937.367	5816.94
937.674	5810.84
937.982	5806.32
938.29	5742.36
938.597	5752.76
938.905	5649.26
939.213	5648.35
939.52	5661.24
939.827	5652.65
940.135	5641.12
940.442	5551.63
940.749	5537.85
941.056	5538.53
941.363	5508.7
941.67	5447.46
941.977	5399.55
942.284	5415.14
942.591	5434.57
942.898	5368.81
943.205	5371.98
943.511	5341.7
943.818	5338.76
944.125	5264.86
944.431	5286.33
944.738	5233
945.044	5254.01
945.35	5176.05
945.657	5170.63
945.963	5118.88
946.269	5153
946.575	5142.6
946.881	5071.87
947.187	5090.18
947.493	5037.52
947.799	5027.58
948.105	4981.93
948.41	4999.11
948.716	4982.61
949.022	4980.12
949.327	4952.33
949.633	4834.14
949.938	4857.87
950.244	4860.58
950.549	4830.75
950.854	4769.96
951.16	4812.67
951.465	4786.68
951.77	4754.59
952.075	4713.46
952.38	4744.2
952.685	4696.29
952.99	4667.36
953.294	4689.96
953.599	4604.99
953.904	4667.36
954.209	4615.16
954.513	4611.32
954.818	4586.69
955.122	4562.51
955.426	4515.28
955.731	4519.57
956.035	4468.72
956.339	4454.26
956.643	4417.65
956.948	4370.87
957.252	4360.25
957.556	4405
957.86	4363.64
958.163	4330.42
958.467	4305.79
958.771	4335.39
959.075	4323.87
959.378	4208.17
959.682	4279.12
959.985	4233.93
960.289	4263.31
960.592	4223.08
960.896	4214.27
961.199	4180.14
961.502	4140.15
961.805	4131.56
962.108	4125.23
962.411	4095.85
962.714	4033.48
963.017	4060.83
963.32	4067.38
963.623	4029.87
963.926	4011.56
964.228	4007.95
964.531	3981.73
964.833	3954.61
965.136	3959.81
965.438	3938.12
965.741	3860.83
966.043	3914.84
966.345	3848.63
966.648	3838.46
966.95	3828.06
967.252	3846.14
967.554	3810.21
967.856	3785.13
968.158	3749.2
968.46	3770.66
968.761	3710.78
969.063	3727.27
969.365	3692.47
969.666	3702.64
969.968	3657.67
970.269	3650.89
970.571	3649.99
970.872	3637.56
971.174	3593.72
971.475	3597.11
971.776	3589.65
972.077	3568.86
972.378	3563.89
972.679	3539.94
972.98	3501.29
973.281	3525.02
973.582	3472.37
973.883	3463.55
974.183	3458.13
974.484	3467.39
974.785	3410.67
975.085	3414.74
975.386	3438.24
975.686	3385.81
975.986	3364.35
976.287	3361.63
976.587	3324.12
976.887	3298.81
977.187	3301.75
977.487	3292.71
977.787	3283.67
978.087	3229.21
978.387	3225.59
978.687	3242.77
978.987	3180.17
979.286	3146.5
979.586	3185.14
979.885	3169.55
980.185	3164.35
980.484	3099.72
980.784	3088.2
981.083	3091.36
981.382	3080.51
981.682	3119.38
981.981	3087.97
982.28	3024.92
982.579	3008.88
982.878	3038.71
983.177	3022.89
983.475	3000.97
983.774	2973.17
984.073	2968.2
984.372	2931.14
984.67	2939.27
984.969	2944.24
985.267	2920.74
985.566	2939.72
985.864	2888.88
986.162	2888.2
986.461	2870.57
986.759	2875.55
987.057	2837.35
987.355	2812.95
987.653	2840.29
987.951	2793.29
988.249	2777.24
988.547	2782.89
988.844	2766.85
989.142	2759.39
989.44	2755.1
989.737	2734.98
990.035	2709.67
990.332	2672.84
990.63	2745.15
990.927	2633.74
991.224	2650.24
991.521	2642.11
991.819	2646.63
992.116	2601.88
992.413	2594.88
992.71	2628.55
993.006	2560.3
993.303	2557.81
993.6	2573.63
993.897	2558.27
994.193	2527.76
994.49	2527.53
994.787	2536.35
995.083	2496.12
995.379	2475.1
995.676	2491.83
995.972	2475.56
996.268	2467.42
996.565	2438.27
996.861	2412.96
997.157	2433.07
997.453	2424.26
997.749	2402.11
998.044	2394.43
998.34	2353.07
998.636	2376.35
998.932	2374.32
999.227	2344.26
999.523	2363.24
999.818	2320.76
1000.114	2317.37
1000.409	2292.96
1000.704	2254.55
1001	2252.51
1001.295	2233.75
1001.59	2228.11
1001.885	2238.05
1002.18	2225.62
1002.475	2226.98
1002.77	2170.71
1003.065	2147.43
1003.359	2172.29
1003.654	2154.89
1003.949	2092.52
1004.243	2137.26
1004.538	2130.71
1004.832	2109.46
1005.127	2087.54
1005.421	2106.3
1005.715	2050.26
1006.009	2092.52
1006.304	2077.83
1006.598	2074.21
1006.892	2068.34
1007.186	2034.89
1007.48	2000.09
1007.773	1989.02
1008.067	1964.84
1008.361	1958.28
1008.655	1943.37
1008.948	1944.5
1009.242	1946.98
1009.535	1909.92
1009.829	1915.8
1010.122	1900.88
1010.415	1878.51
1010.708	1868.57
1011.001	1861.79
1011.295	1816.59
1011.588	1799.64
1011.881	1804.16
1012.173	1804.61
1012.466	1808.68
1012.759	1787.89
1013.052	1744.05
1013.344	1760.09
1013.637	1759.42
1013.93	1742.24
1014.222	1742.47
1014.514	1730.04
1014.807	1732.53
1015.099	1716.03
1015.391	1701.57
1015.683	1702.02
1015.976	1658.18
1016.268	1665.18
1016.56	1650.95
1016.851	1644.39
1017.143	1656.14
1017.435	1640.32
1017.727	1621.57
1018.018	1594.22
1018.31	1605.97
1018.602	1573.89
1018.893	1581.79
1019.185	1570.95
1019.476	1560.55
1019.767	1561.68
1020.058	1537.5
1020.35	1536.15
1020.641	1537.05
1020.932	1516.26
1021.223	1511.51
1021.514	1494.34
1021.804	1497.28
1022.095	1499.76
1022.386	1470.16
1022.677	1427
1022.967	1438.52
1023.258	1413.89
1023.548	1421.35
1023.839	1420.22
1024.129	1406.21
1024.419	1391.07
1024.709	1404.62
1025	1398.97
1025.29	1361.91
1025.58	1364.17
1025.87	1339.77
1026.16	1363.72
1026.449	1330.05
1026.739	1312.88
1027.029	1318.07
1027.319	1281.69
1027.608	1334.34
1027.898	1311.75
1028.187	1291.18
1028.477	1292.54
1028.766	1260.67
1029.055	1251.18
1029.344	1243.05
1029.634	1238.98
1029.923	1266.55
1030.212	1241.24
1030.501	1227.45
1030.79	1195.82
1031.078	1219.54
1031.367	1147
1031.656	1174.8
1031.945	1169.38
1032.233	1169.15
1032.522	1144.29
1032.81	1151.75
1033.099	1153.56
1033.387	1123.05
1033.675	1144.29
1033.963	1120.56
1034.251	1081.02
1034.54	1112.2
1034.828	1090.28
1035.116	1091.86
1035.403	1075.37
1035.691	1078.53
1035.979	1052.54
1036.267	1043.5
1036.554	1072.88
1036.842	1046.44
1037.129	1040.11
1037.417	1042.6
1037.704	1043.5
1037.992	1055.48
1038.279	1020
1038.566	1002.83
1038.853	1002.83
1039.14	1002.83
