Data from hue_34_FLMS001491_00092.txt Node
Date: Tue Feb 07 17:26:28 GMT 2017
User: dcchb
Spectrometer: FLMS00149
Trigger mode: 0
Integration Time (sec): 2.000000E-2
Scans to average: 10
Electric dark correction enabled: true
Nonlinearity correction enabled: false
Boxcar width: 0
XAxis mode: Wavelengths
Number of Pixels in Spectrum: 2048
>>>>>Begin Spectral Data<<<<<
341.393	-33.22
341.776	-33.22
342.16	-33.22
342.543	-62.37
342.927	-55.82
343.31	-72.31
343.693	-48.36
344.077	-71.18
344.46	-54.24
344.843	-71.18
345.226	-42.03
345.61	-38.19
345.993	-15.37
346.376	1.81
346.759	-2.03
347.142	24.86
347.525	40
347.908	74.12
348.291	79.77
348.674	90.85
349.057	103.5
349.44	123.16
349.823	131.97
350.206	179.2
350.588	221.24
350.971	216.49
351.354	217.62
351.737	240.22
352.119	264.63
352.502	272.76
352.884	276.38
353.267	271.18
353.65	297.85
354.032	312.76
354.414	301.91
354.797	305.3
355.179	313.89
355.562	323.38
355.944	301.01
356.326	320.44
356.709	325.42
357.091	324.06
357.473	334.23
357.855	336.04
358.238	336.04
358.62	340.33
359.002	345.98
359.384	356.37
359.766	331.52
360.148	327.9
360.53	334
360.912	348.69
361.294	331.06
361.676	315.92
362.057	341.23
362.439	317.73
362.821	327
363.203	324.96
363.584	345.75
363.966	324.06
364.348	320.44
364.729	327.67
365.111	304.62
365.493	334.68
365.874	303.72
366.256	328.58
366.637	308.24
367.019	320.9
367.4	310.27
367.781	324.74
368.163	315.92
368.544	311.63
368.925	309.6
369.306	333.32
369.688	296.72
370.069	335.13
370.45	324.06
370.831	296.94
371.212	297.85
371.593	322.93
371.974	319.77
372.355	296.49
372.736	325.19
373.117	321.12
373.498	305.3
373.879	297.39
374.26	328.8
374.641	321.12
375.021	298.75
375.402	330.16
375.783	321.8
376.163	348.47
376.544	316.6
376.925	331.97
377.305	320.9
377.686	312.76
378.066	316.15
378.447	329.48
378.827	337.62
379.208	328.13
379.588	345.75
379.968	322.7
380.349	327.22
380.729	317.96
381.109	322.93
381.489	349.14
381.87	326.32
382.25	338.07
382.63	333.78
383.01	348.69
383.39	331.97
383.77	343.27
384.15	348.01
384.53	339.65
384.91	354.11
385.29	339.88
385.67	347.79
386.049	345.75
386.429	341.91
386.809	335.58
387.189	314.79
387.568	353.44
387.948	351.86
388.328	348.24
388.707	343.72
389.087	356.15
389.466	345.3
389.846	367
390.225	359.31
390.605	371.06
390.984	351.4
391.363	361.12
391.743	347.56
392.122	345.98
392.501	381.01
392.881	365.41
393.26	381.68
393.639	383.49
394.018	363.15
394.397	352.53
394.776	386.88
395.155	377.62
395.534	382.36
395.913	373.78
396.292	358.18
396.671	354.11
397.05	382.36
397.429	381.91
397.808	379.2
398.186	381.46
398.565	385.3
398.944	380.33
399.323	399.54
399.701	381.23
400.08	357.73
400.458	388.01
400.837	397.05
401.215	394.57
401.594	391.63
401.972	401.8
402.351	410.16
402.729	402.7
403.107	391.4
403.486	391.18
403.864	410.61
404.242	406.09
404.62	412.42
404.999	407.22
405.377	408.8
405.755	409.48
406.133	419.42
406.511	403.83
406.889	446.99
407.267	425.75
407.645	404.74
408.023	427.33
408.401	445.86
408.779	434.34
409.156	439.08
409.534	417.62
409.912	443.6
410.29	430.27
410.667	431.18
411.045	456.94
411.422	439.08
411.8	457.62
412.178	455.13
412.555	448.8
412.933	461.23
413.31	475.02
413.687	465.75
414.065	448.35
414.442	456.71
414.819	459.87
415.197	484.73
415.574	470.72
415.951	474.34
416.328	487.67
416.705	464.17
417.082	489.48
417.46	496.48
417.837	500.33
418.214	477.73
418.591	498.97
418.967	497.39
419.344	522.92
419.721	496.26
420.098	501.68
420.475	511.4
420.852	517.5
421.228	523.15
421.605	510.04
421.982	506.2
422.358	503.94
422.735	545.52
423.111	529.93
423.488	548.23
423.864	534
424.241	510.04
424.617	537.39
424.994	531.06
425.37	533.32
425.746	561.34
426.123	544.84
426.499	551.17
426.875	557.73
427.251	576.26
427.627	555.24
428.003	568.8
428.379	588.46
428.756	578.97
429.132	572.87
429.507	580.32
429.883	590.94
430.259	608.12
430.635	602.02
431.011	627.33
431.387	604.28
431.763	600.89
432.138	615.13
432.514	618.97
432.89	623.49
433.265	644.05
433.641	654.9
434.016	626.2
434.392	622.81
434.767	669.36
435.143	643.82
435.518	669.36
435.894	673.65
436.269	659.87
436.644	687.21
437.02	706.42
437.395	685.86
437.77	664.62
438.145	702.81
438.52	691.28
438.895	683.15
439.271	693.32
439.646	691.06
440.021	721.79
440.395	707.1
440.77	729.02
441.145	726.99
441.52	728.79
441.895	747.1
442.27	745.52
442.645	746.42
443.019	758.17
443.394	746.87
443.769	738.29
444.143	740.77
444.518	749.36
444.892	758.4
445.267	766.99
445.641	761.56
446.016	757.72
446.39	798.85
446.764	773.09
447.139	804.72
447.513	803.37
447.887	809.92
448.262	781.45
448.636	802.69
449.01	793.88
449.384	807.21
449.758	839.07
450.132	813.31
450.506	811.96
450.88	837.27
451.254	823.93
451.628	853.54
452.002	863.48
452.376	865.51
452.75	855.57
453.123	857.38
453.497	873.42
453.871	877.94
454.244	892.63
454.618	915.68
454.992	920.2
455.365	902.8
455.739	937.15
456.112	929.69
456.486	922.91
456.859	963.14
457.232	958.17
457.606	973.76
457.979	993.42
458.352	991.39
458.725	1011.05
459.099	986.87
459.472	1042.68
459.845	1047.88
460.218	1062.8
460.591	1045.62
460.964	1057.15
461.337	1117.26
461.71	1085.17
462.083	1087.43
462.456	1109.8
462.829	1101.89
463.201	1119.97
463.574	1120.42
463.947	1156.13
464.32	1173.98
464.692	1176.47
465.065	1176.92
465.438	1195.22
465.81	1236.58
466.183	1235.9
466.555	1254.66
466.928	1252.4
467.3	1292.62
467.672	1297.59
468.045	1309.8
468.417	1337.14
468.789	1334.2
469.161	1365.39
469.534	1373.52
469.906	1403.8
470.278	1450.13
470.65	1434.99
471.022	1467.31
471.394	1511.15
471.766	1514.54
472.138	1535.1
472.51	1572.84
472.882	1589.79
473.253	1624.14
473.625	1633.18
473.997	1698.71
474.369	1690.35
474.74	1742.33
475.112	1785.04
475.484	1797.92
475.855	1883.57
476.227	1871.36
476.598	1909.1
476.97	1958.59
477.341	2018.7
477.713	2059.61
478.084	2090.57
478.455	2155.88
478.827	2202.65
479.198	2272.93
479.569	2279.94
479.94	2383.44
480.311	2409.2
480.682	2482.65
481.053	2543.21
481.424	2594.96
481.795	2672.92
482.166	2650.1
482.537	2796.31
482.908	2858.68
483.279	2912.24
483.65	2994.05
484.021	3040.37
484.391	3145
484.762	3192.46
485.133	3246.69
485.503	3331.21
485.874	3393.13
486.244	3491.66
486.615	3556.97
486.985	3653.69
487.356	3748.15
487.726	3831.31
488.097	3930.52
488.467	3968.26
488.837	4110.17
489.207	4216.84
489.578	4264.97
489.948	4341.81
490.318	4483.5
490.688	4513.78
491.058	4577.28
491.428	4689.82
491.798	4756.49
492.168	4882.36
492.538	4958.74
492.908	5059.98
493.278	5132.07
493.648	5196.02
494.017	5252.07
494.387	5369.58
494.757	5444.83
495.126	5530.7
495.496	5597.59
495.866	5753.75
496.235	5759.4
496.605	5845.5
496.974	5877.13
497.344	6043.23
497.713	6081.2
498.082	6177.92
498.452	6251.36
498.821	6306.27
499.19	6370.23
499.559	6394.41
499.928	6500.85
500.298	6552.82
500.667	6632.82
501.036	6652.93
501.405	6760.95
501.774	6802.31
502.143	6907.61
502.512	6962.98
502.88	6989.19
503.249	7038.46
503.618	7149.19
503.987	7202.97
504.356	7246.59
504.724	7339.02
505.093	7389.86
505.462	7397.55
505.83	7414.49
506.199	7596.64
506.567	7670.31
506.936	7610.42
507.304	7747.59
507.672	7743.07
508.041	7851.54
508.409	7906.46
508.777	7962.73
509.145	8072.56
509.514	8101.93
509.882	8113.01
510.25	8101.93
510.618	8244.08
510.986	8240.24
511.354	8337.41
511.722	8411.76
512.09	8503.96
512.458	8529.49
512.826	8551.87
513.193	8601.36
513.561	8605.65
513.929	8648.13
514.297	8769.03
514.664	8823.72
515.032	8867.11
515.4	8936.49
515.767	8965.41
516.135	9039.76
516.502	8970.61
516.869	9095.58
517.237	9155.69
517.604	9168.12
517.972	9260.77
518.339	9248.8
518.706	9305.97
519.073	9378.28
519.44	9389.36
519.808	9479.75
520.175	9448.34
520.542	9606.3
520.909	9646.07
521.276	9611.95
521.643	9740.76
522.009	9828.22
522.376	9830.93
522.743	9897.59
523.11	10031.83
523.477	10107.3
523.843	10154.76
524.21	10190.24
524.577	10220.75
524.943	10368.77
525.31	10288.09
525.676	10465.04
526.043	10516.79
526.409	10565.82
526.776	10670.23
527.142	10672.49
527.508	10689.66
527.874	10690.79
528.241	10839.26
528.607	10794.52
528.973	11024.57
529.339	10982.99
529.705	11018.92
530.071	11217.56
530.437	11197.9
530.803	11285.8
531.169	11333.94
531.535	11318.57
531.901	11320.15
532.267	11356.99
532.632	11403.32
532.998	11503.43
533.364	11626.36
533.73	11672.91
534.095	11770.09
534.461	11777.77
534.826	11842.17
535.192	11816.19
535.557	11975.96
535.923	11989.74
536.288	11944.77
536.653	12035.62
537.019	12066.12
537.384	12067.25
537.749	12126.69
538.114	12257.53
538.479	12211.66
538.845	12357.19
539.21	12275.38
539.575	12346.12
539.94	12407.13
540.305	12476.73
540.67	12537.07
541.034	12547.92
541.399	12738.42
541.764	12705.65
542.129	12684.19
542.494	12817.06
542.858	12853.45
543.223	12857.29
543.587	12992.65
543.952	12927.12
544.316	13066.32
544.681	13046.21
545.045	13104.06
545.41	13118.07
545.774	13199.65
546.138	13258.86
546.503	13217.73
546.867	13189.03
547.231	13435.13
547.595	13412.98
547.959	13540.89
548.324	13486.2
548.688	13539.08
549.052	13622.24
549.416	13606.65
549.779	13725.51
550.143	13757.83
550.507	13890.48
550.871	13910.82
551.235	13872.4
551.599	13956.7
551.962	13950.14
552.326	13994.66
552.689	14113.53
553.053	14043.02
553.417	14065.17
553.78	14348.1
554.143	14257.7
554.507	14352.16
554.87	14406.85
555.234	14493.4
555.597	14450.47
555.96	14518.49
556.323	14597.36
556.686	14523.69
557.05	14638.03
557.413	14733.62
557.776	14796
558.139	14860.4
558.502	14793.96
558.865	14850.01
559.228	14952.83
559.59	14908.53
559.953	14950.34
560.316	15229.88
560.679	15153.73
561.041	15251.58
561.404	15315.98
561.767	15371.57
562.129	15240.96
562.492	15496.32
562.854	15489.54
563.217	15550.33
563.579	15585.13
563.941	15698.8
564.304	15671.68
564.666	15849.3
565.028	15732.47
565.39	15882.07
565.753	16016.75
566.115	16008.39
566.477	16040.26
566.839	16181.27
567.201	16185.79
567.563	16277.99
567.925	16438.21
568.287	16388.5
568.648	16379.68
569.01	16512.56
569.372	16586.68
569.734	16555.27
570.095	16694.7
570.457	16792.1
570.819	16827.81
571.18	16867.81
571.542	16967.24
571.903	17041.59
572.265	17044.52
572.626	17170.62
572.987	17231.19
573.349	17278.19
573.71	17406.1
574.071	17473.89
574.432	17564.51
574.794	17701.46
575.155	17768.12
575.516	17751.62
575.877	17971.5
576.238	18137.83
576.599	18204.49
576.96	18221.44
577.32	18320.42
577.681	18578.04
578.042	18596.8
578.403	18730.35
578.763	18878.37
579.124	19023.91
579.485	19188.65
579.845	19382.32
580.206	19482.2
580.566	19588.41
580.927	19746.37
581.287	19895.75
581.648	20011.45
582.008	20230.65
582.368	20545
582.728	20636.75
583.089	20784.31
583.449	20964.19
583.809	21168.71
584.169	21318.54
584.529	21506.1
584.889	21872.19
585.249	21907.9
585.609	22074
585.969	22364.61
586.329	22521.22
586.688	22810.7
587.048	23015.67
587.408	23125.49
587.768	23486.16
588.127	23599.15
588.487	23858.36
588.846	24238.46
589.206	24376.53
589.565	24598.9
589.925	24946.24
590.284	25090.41
590.643	25375.15
591.003	25736.95
591.362	26022.37
591.721	26141.46
592.08	26433.43
592.44	26842.91
592.799	26893.76
593.158	27185.5
593.517	27361.99
593.876	27718.14
594.235	27839.95
594.593	28107.96
594.952	28430.89
595.311	28639.47
595.67	28933.02
596.029	29341.38
596.387	29567.58
596.746	29821.59
597.104	29843.51
597.463	30150.17
597.822	30511.51
598.18	30607.1
598.538	30905.85
598.897	31267.43
599.255	31264.94
599.613	31761.88
599.972	31839.39
600.33	32198.93
600.688	32230.56
601.046	32639.37
601.404	33007.95
601.762	32944.9
602.12	33426.69
602.478	33595.95
602.836	33734.48
603.194	33704.2
603.552	33938.54
603.91	33987.35
604.268	34438.42
604.625	34453.56
604.983	34874.34
605.341	34778.07
605.698	35249.24
606.056	35295.8
606.413	35368.34
606.771	35658.27
607.128	35896.01
607.485	36037.7
607.843	36037.47
608.2	36390.91
608.557	36527.18
608.914	36509.55
609.272	36994.06
609.629	37119.93
609.986	37341.17
610.343	37356.08
610.7	37742.06
611.057	37730.31
611.414	37713.13
611.771	37985.44
612.127	38137.3
612.484	38325.32
612.841	38576.16
613.198	38525.54
613.554	38563.05
613.911	38911.97
614.267	39090.72
614.624	39201.91
614.98	39245.3
615.337	39467.66
615.693	39442.8
616.05	39636.25
616.406	39845.05
616.762	39805.51
617.118	39931.15
617.475	40034.2
617.831	40115.33
618.187	40351.71
618.543	40450.01
618.899	40782.88
619.255	40589.44
619.611	40646.61
619.967	40854.07
620.323	41066.49
620.678	40955.08
621.034	40917.12
621.39	40847.97
621.746	41084.34
622.101	41473.26
622.457	41282.53
622.812	41363.88
623.168	41493.37
623.523	41397.1
623.879	41790.77
624.234	41505.12
624.589	41684.78
624.945	41718.68
625.3	41971.78
625.655	41965
626.01	41989.4
626.365	42024.88
626.72	41922.74
627.075	42150.08
627.43	41964.77
627.785	42008.84
628.14	42165.67
628.495	42247.02
628.85	42220.36
629.205	41975.39
629.559	42341.71
629.914	42184.65
630.269	42261.94
630.623	42204.54
630.978	42122.28
631.332	42219
631.687	42538.09
632.041	42195.73
632.396	42355.95
632.75	42141.26
633.104	42208.16
633.459	42192.11
633.813	42132.45
634.167	42177.87
634.521	42136.75
634.875	42336.51
635.229	42239.57
635.583	42099.23
635.937	42290.87
636.291	42132.23
636.645	42249.06
636.999	42237.31
637.352	42405.21
637.706	42009.52
638.06	42190.76
638.413	42175.16
638.767	42151.43
639.121	42197.08
639.474	41940.37
639.828	41922.97
640.181	41975.62
640.534	41983.75
640.888	41900.37
641.241	41802.29
641.594	41907.6
641.947	41982.4
642.301	41827.15
642.654	41986.69
643.007	41921.16
643.36	41881.16
643.713	41812.46
644.066	41993.47
644.419	41665.35
644.771	41400.49
645.124	41134.51
645.477	41051.35
645.83	40875.99
646.182	40579.95
646.535	40662.21
646.888	40687.07
647.24	40331.59
647.593	40671.47
647.945	40635.09
648.298	40439.39
648.65	40276.68
649.002	40293.18
649.355	40433.74
649.707	40553.06
650.059	40740.4
650.411	41070.78
650.763	41095.42
651.115	41477.78
651.467	41386.48
651.819	41349.65
652.171	41320.04
652.523	41181.74
652.875	41333.15
653.227	41019.49
653.578	41384.67
653.93	41236.2
654.282	41145.81
654.633	40984.91
654.985	41100.84
655.337	41030.79
655.688	41128.64
656.039	41178.58
656.391	41007.28
656.742	40994.18
657.094	41004.12
657.445	41154.62
657.796	41153.72
658.147	41003.67
658.498	41090.22
658.849	41027.62
659.2	40895.2
659.551	41014.97
659.902	41084.8
660.253	41026.94
660.604	40971.58
660.955	40805.48
661.306	40892.71
661.656	40827.4
662.007	40934.52
662.358	40934.97
662.708	40884.8
663.059	40781.75
663.409	40636.9
663.76	40953.73
664.11	40881.41
664.461	40873.5
664.811	40890
665.161	40843.45
665.511	40719.16
665.862	40818.14
666.212	41112.14
666.562	40813.62
666.912	40710.57
667.262	40676.44
667.612	40710.34
667.962	40790.34
668.312	40690.23
668.662	40913.95
669.011	40690.23
669.361	40616.56
669.711	40706.73
670.06	40520.52
670.41	40594.86
670.76	40529.78
671.109	40730.23
671.459	40643.45
671.808	40622.21
672.157	40577.01
672.507	40328.21
672.856	40483.68
673.205	40469.44
673.554	40509.44
673.904	40467.64
674.253	40612.04
674.602	40436.22
674.951	39984.71
675.3	39797.82
675.649	40384.47
675.998	40274.65
676.346	40310.8
676.695	40468.09
677.044	40227.87
677.393	40276.46
677.741	40327.08
678.09	40263.12
678.438	40166.18
678.787	40169.57
679.135	40184.71
679.484	39888.22
679.832	40235.1
680.181	40020.19
680.529	39985.39
680.877	39864.04
681.225	39860.42
681.573	40054.99
681.922	39702.46
682.27	39578.85
682.618	39746.3
682.966	39567.77
683.314	39748.56
683.661	39587.21
684.009	39352.41
684.357	39298.63
684.705	39243.71
685.053	39308.12
685.4	39320.32
685.748	39010.27
686.095	38950.16
686.443	38949.03
686.79	38817.51
687.138	38867
687.485	38981.8
687.832	38796.49
688.18	38777.06
688.527	38631.98
688.874	38762.37
689.221	38434.47
689.568	38478.99
689.915	38362.61
690.262	38423.62
690.609	38259.56
690.956	38107.92
691.303	38167.36
691.65	38063.63
691.997	37877.87
692.344	37802.17
692.69	37649.86
693.037	37741.15
693.383	37421.84
693.73	37544.55
694.077	37295.74
694.423	37387.49
694.769	37293.71
695.116	37109.53
695.462	37096.43
695.808	36947.05
696.155	37087.61
696.501	36818.01
696.847	36823.66
697.193	36575.76
697.539	36681.07
697.885	36401.98
698.231	36402.66
698.577	36398.14
698.923	36251.48
699.269	36056.45
699.614	35929.22
699.96	35834.31
700.306	35921.32
700.651	35800.64
700.997	35558.39
701.342	35557.26
701.688	35443.59
702.033	35338.96
702.379	35442.46
702.724	35286.98
703.069	35371.95
703.415	34919.99
703.76	34929.25
704.105	34966.54
704.45	34886.99
704.795	34663.5
705.14	34548.92
705.485	34684.51
705.83	34575.59
706.175	34461.24
706.52	34396.16
706.865	34244.75
707.209	34200.68
707.554	34077.07
707.899	34198.65
708.243	34062.83
708.588	33959.79
708.932	33725.67
709.277	33733.58
709.621	33752.78
709.966	33536.97
710.31	33661.04
710.654	33175.4
710.998	33329.07
711.342	33399.8
711.687	33252.23
712.031	33135.17
712.375	33108.96
712.719	33042.97
713.063	32956.65
713.407	33089.3
713.75	32925.01
714.094	32860.83
714.438	32652.93
714.782	32819.48
715.125	32662.42
715.469	32681.4
715.812	32462.2
716.156	32229.21
716.499	32382.43
716.843	32409.54
717.186	32280.96
717.53	32396.89
717.873	32288.87
718.216	32257.23
718.559	31999.84
718.902	31815.89
719.246	31933.4
719.589	31776.11
719.932	31742.44
720.275	31832.61
720.617	31626.06
720.96	31588.77
721.303	31651.82
721.646	31622.9
721.989	31366.41
722.331	31502.9
722.674	31414.99
723.016	31388.33
723.359	31420.64
723.701	31204.6
724.044	31100.65
724.386	31068.11
724.729	31171.61
725.071	31187.65
725.413	31150.14
725.755	31036.02
726.097	30859.75
726.439	30736.82
726.782	30855.69
727.124	30897.04
727.465	30746.31
727.807	30736.59
728.149	30619.53
728.491	30521.91
728.833	30699.98
729.175	30410.73
729.516	30492.53
729.858	30387.9
730.199	30337.51
730.541	30371.18
730.882	30200.11
731.224	30420.9
731.565	30133.9
731.906	30118.76
732.248	30234.01
732.589	30017.29
732.93	29963.96
733.271	29911.3
733.612	29979.78
733.953	30029.49
734.294	29883.28
734.635	29793.57
734.976	29855.26
735.317	29539.11
735.658	29723.29
735.999	29748.82
736.339	29511.77
736.68	29626.11
737.021	29563.29
737.361	29378.21
737.702	29563.74
738.042	29449.62
738.383	29456.85
738.723	29502.95
739.063	29270.87
739.404	29324.2
739.744	29286.01
740.084	29217.54
740.424	29300.47
740.764	29197.65
741.104	29096.41
741.444	29019.12
741.784	28928.73
742.124	29047.6
742.464	28945.23
742.804	28861.61
743.143	28787.94
743.483	28777.55
743.823	28718.34
744.162	28702.75
744.502	28690.32
744.841	28490.1
745.181	28602.86
745.52	28407.39
745.86	28432.47
746.199	28401.97
746.538	28465.69
746.877	28475.18
747.216	28369.65
747.556	28239.48
747.895	28321.06
748.234	28188.19
748.573	28075.87
748.911	28110.45
749.25	28151.8
749.589	27876.56
749.928	27889.44
750.267	28100.05
750.605	27877.23
750.944	27869.32
751.283	27777.57
751.621	27837.01
751.96	27684.02
752.298	27614.87
752.636	27625.26
752.975	27593.62
753.313	27469.56
753.651	27503.01
753.989	27295.78
754.327	27421.65
754.666	27169.91
755.004	27166.74
755.342	27262.33
755.679	27137.82
756.017	27104.6
756.355	27043.58
756.693	26916.81
757.031	27005.17
757.368	26874.55
757.706	26766.3
758.044	26638.4
758.381	26805.62
758.719	26641.56
759.056	26641.33
759.394	26565.4
759.731	26387.78
760.068	26336.93
760.405	26186.66
760.743	26127.67
761.08	26220.33
761.417	26052.87
761.754	25979.2
762.091	26005.87
762.428	25872.31
762.765	25730.4
763.102	25788.02
763.438	25692.88
763.775	25549.38
764.112	25542.61
764.449	25504.64
764.785	25373.57
765.122	25129.96
765.458	25151.88
765.795	25039.34
766.131	25103.75
766.467	24935.84
766.804	24892
767.14	24689.97
767.476	24780.37
767.812	24695.17
768.148	24656.98
768.485	24456.08
768.821	24414.5
769.157	24392.13
769.492	24309.42
769.828	24235.75
770.164	24029.2
770.5	23955.75
770.836	24027.16
771.171	23892.25
771.507	23843.21
771.842	23638.25
772.178	23454.98
772.513	23559.83
772.849	23400.97
773.184	23266.73
773.519	23332.49
773.855	23223.57
774.19	23156.68
774.525	23038.94
774.86	22923.92
775.195	22952.62
775.53	22877.36
775.865	22638.5
776.2	22561.89
776.535	22453.42
776.87	22494.78
777.205	22390.37
777.539	22279.87
777.874	22393.54
778.209	22060.89
778.543	22070.61
778.878	21934.11
779.212	21944.28
779.547	21841.23
779.881	21784.06
780.215	21713.1
780.55	21650.05
780.884	21464.97
781.218	21556.95
781.552	21620.22
781.886	21372.09
782.22	21247.12
782.554	21266.33
782.888	21022.27
783.222	20957.64
783.556	20855.04
783.889	20757.65
784.223	20658.21
784.557	20731.21
784.89	20672.68
785.224	20523.53
785.557	20437.65
785.891	20344.1
786.224	20266.13
786.558	20278.11
786.891	20108.4
787.224	20086.48
787.557	20005.35
787.891	19968.51
788.224	19872.7
788.557	19938.46
788.89	19892.58
789.223	19796.54
789.556	19613.5
789.888	19497.57
790.221	19536.89
790.554	19331.92
790.887	19433.39
791.219	19226.61
791.552	19178.7
791.884	19224.58
792.217	19153.17
792.549	19049.67
792.882	18863.68
793.214	18838.15
793.546	18751.6
793.879	18698.49
794.211	18653.97
794.543	18640.87
794.875	18640.87
795.207	18767.42
795.539	18566.07
795.871	18534.88
796.203	18323.81
796.535	18223.7
796.867	18220.76
797.198	18057.15
797.53	18193.42
797.862	18055.8
798.193	18139.41
798.525	17943.03
798.856	17991.17
799.188	17735.8
799.519	17686.31
799.85	17669.14
800.182	17611.29
800.513	17633.21
800.844	17510.5
801.175	17609.03
801.506	17461.69
801.837	17342.14
802.168	17457.17
802.499	17335.82
802.83	17261.47
803.161	17185.99
803.491	17185.54
803.822	17072.55
804.153	16971.98
804.483	16851.76
804.814	16882.95
805.145	16836.85
805.475	16845.43
805.805	16700.8
806.136	16731.54
806.466	16745.55
806.796	16656.06
807.126	16601.6
807.457	16508.04
807.787	16480.02
808.117	16417.42
808.447	16322.51
808.777	16323.64
809.107	16289.74
809.436	16205.45
809.766	16173.59
810.096	16116.19
810.426	16137.65
810.755	16105.79
811.085	15988.96
811.414	16014.49
811.744	15929.52
812.073	15948.96
812.403	15870.54
812.732	15794.61
813.061	15814.5
813.39	15654.05
813.719	15663.99
814.049	15712.81
814.378	15601.85
814.707	15566.14
815.036	15544.45
815.365	15468.52
815.693	15382.19
816.022	15282.08
816.351	15355.98
816.68	15188.08
817.008	15330.9
817.337	15145.14
817.665	15113.5
817.994	15102.2
818.322	15196.44
818.651	15007.52
818.979	14909.21
819.307	15055.88
819.636	15010.23
819.964	14879.16
820.292	14951.92
820.62	15010.9
820.948	14812.94
821.276	14948.08
821.604	14903.56
821.932	14885.94
822.259	14846.62
822.587	14823.79
822.915	14871.25
823.243	14951.92
823.57	14782.21
823.898	14783.34
824.225	14768.2
824.553	14738.6
824.88	14860.85
825.207	14802.1
825.535	14808.2
825.862	14791.48
826.189	14784.92
826.516	14726.62
826.843	14851.81
827.17	14791.02
827.497	14762.32
827.824	14736.34
828.151	14795.09
828.478	14817.69
828.805	14826.73
829.131	14720.06
829.458	14848.42
829.785	14675.77
830.111	14731.36
830.438	14803
830.764	14727.97
831.09	14758.93
831.417	14713.74
831.743	14777.46
832.069	14738.6
832.395	14676.9
832.722	14750.12
833.048	14608.43
833.374	14649.33
833.7	14585.38
834.026	14620.18
834.351	14597.58
834.677	14565.27
835.003	14614.31
835.329	14557.13
835.654	14538.83
835.98	14427.42
836.306	14487.98
836.631	14514.65
836.956	14570.69
837.282	14502.44
837.607	14404.59
837.932	14385.16
838.258	14388.55
838.583	14348.55
838.908	14181.32
839.233	14323.47
839.558	14224.71
839.883	14185.39
840.208	14142.68
840.533	14203.69
840.858	14145.16
841.182	14101.55
841.507	14079.18
841.832	14057.94
842.156	13982.68
842.481	14097.26
842.805	13936.36
843.13	14045.28
843.454	13899.52
843.778	13793.99
844.103	13772.07
844.427	13852.52
844.751	13906.53
845.075	13737.04
845.399	13721
845.723	13630.6
846.047	13619.3
846.371	13589.93
846.695	13570.04
847.019	13428.12
847.343	13349.03
847.666	13304.51
847.99	13290.27
848.313	13262.25
848.637	13154.91
848.96	13183.61
849.284	13225.19
849.607	13020.45
849.931	13027.23
850.254	12886.44
850.577	12843.05
850.9	12696.39
851.223	12848.02
851.546	12671.53
851.869	12663.85
852.192	12629.72
852.515	12620.91
852.838	12526.68
853.161	12529.39
853.483	12364.65
853.806	12342.5
854.129	12352.9
854.451	12336.62
854.774	12267.25
855.096	12213.69
855.419	12197.87
855.741	12190.19
856.063	12068.16
856.385	12051.43
856.708	12007.82
857.03	11993.58
857.352	11979.8
857.674	11868.61
857.996	11875.62
858.318	11861.61
858.64	11782.29
858.961	11785.23
859.283	11709.3
859.605	11702.07
859.926	11728.96
860.248	11630.2
860.57	11591.79
860.891	11622.29
861.212	11584.33
861.534	11519.02
861.855	11486.7
862.176	11449.87
862.498	11515.4
862.819	11466.82
863.14	11457.55
863.461	11425.91
863.782	11382.75
864.103	11367.61
864.424	11308.18
864.745	11316.09
865.065	11289.42
865.386	11253.94
865.707	11246.48
866.027	11177.79
866.348	11281.29
866.668	11203.32
866.989	11126.94
867.309	11097.79
867.63	11068.41
867.95	11134.85
868.27	11088.97
868.59	11053.04
868.91	11034.06
869.23	10962.42
869.55	10997.9
869.87	11027.73
870.19	10937.79
870.51	10979.37
870.83	10968.07
871.15	10899.37
871.469	10902.76
871.789	10948.41
872.109	10860.05
872.428	10730.34
872.748	10866.83
873.067	10820.73
873.386	10787.96
873.706	10783.45
874.025	10679.49
874.344	10692.83
874.663	10781.19
874.982	10735.54
875.301	10687.18
875.62	10627.29
875.939	10603.79
876.258	10637.69
876.577	10579.83
876.896	10585.26
877.214	10532.6
877.533	10570.8
877.852	10553.17
878.17	10515.2
878.489	10538.48
878.807	10501.42
879.125	10437.01
879.444	10488.31
879.762	10416.9
880.08	10423
880.398	10386.62
880.716	10325.6
881.034	10316.56
881.352	10415.09
881.67	10323.12
881.988	10318.6
882.306	10251.93
882.624	10259.17
882.941	10236.57
883.259	10148.43
883.577	10123.8
883.894	10133.29
884.212	10175.1
884.529	10105.72
884.846	10031.6
885.164	9986.63
885.481	10062.11
885.798	10020.98
886.115	9999.96
886.432	9972.39
886.75	9888.33
887.067	9917.25
887.383	9854.43
887.7	9919.97
888.017	9827.99
888.334	9811.04
888.651	9755.68
888.967	9807.65
889.284	9725.17
889.6	9667.09
889.917	9662.12
890.233	9717.03
890.55	9532.86
890.866	9607.43
891.182	9556.13
891.498	9503.25
891.815	9534.44
892.131	9438.62
892.447	9467.32
892.763	9387.78
893.079	9387.32
893.395	9390.04
893.71	9342.58
894.026	9355.01
894.342	9294.9
894.657	9184.17
894.973	9254.9
895.289	9270.94
895.604	9250.83
895.92	9190.94
896.235	9104.17
896.55	9141.68
896.865	9095.58
897.181	9036.37
897.496	9009.25
897.811	8985.3
898.126	8958.18
898.441	8940.78
898.756	8854.46
899.071	8780.11
899.386	8840.9
899.7	8784.4
900.015	8772.2
900.33	8703.27
900.644	8659.43
900.959	8658.3
901.273	8642.48
901.588	8616.27
901.902	8608.59
902.216	8522.04
902.531	8432.32
902.845	8454.92
903.159	8396.39
903.473	8418.31
903.787	8338.99
904.101	8320.01
904.415	8320.01
904.729	8335.37
905.042	8234.13
905.356	8201.82
905.67	8166.11
905.984	8149.62
906.297	8170.86
906.611	8125.66
906.924	8083.4
907.237	8040.47
907.551	8029.62
907.864	7991.43
908.177	7984.87
908.491	7944.65
908.804	7841.83
909.117	7799.12
909.43	7817.42
909.743	7765.45
910.056	7777.2
910.368	7673.7
910.681	7693.81
910.994	7634.83
911.307	7666.24
911.619	7633.92
911.932	7563.87
912.244	7516.64
912.557	7588.95
912.869	7519.58
913.181	7439.35
913.494	7434.38
913.806	7320.49
914.118	7345.34
914.43	7301.95
914.742	7308.73
915.054	7328.85
915.366	7194.61
915.678	7281.84
915.99	7200.94
916.302	7100.38
916.613	7089.31
916.925	7122.07
917.236	7103.77
917.548	7051.11
917.859	7010.21
918.171	6929.99
918.482	6938.12
918.794	6929.31
919.105	6901.74
919.416	6846.83
919.727	6837.11
920.038	6809.54
920.349	6771.57
920.66	6741.97
920.971	6699.26
921.282	6659.94
921.593	6658.13
921.903	6637.11
922.214	6610.45
922.525	6546.72
922.835	6521.64
923.146	6556.21
923.456	6464.24
923.767	6495.65
924.077	6449.1
924.387	6432.83
924.697	6341.98
925.008	6363.67
925.318	6356.22
925.628	6342.66
925.938	6272.83
926.248	6223.79
926.558	6208.42
926.867	6220.18
927.177	6173.4
927.487	6160.29
927.796	6088.65
928.106	6107.18
928.416	6033.74
928.725	6053.63
929.034	6013.4
929.344	5995.32
929.653	5957.81
929.962	5883.46
930.271	5902.67
930.581	5934.76
930.89	5831.03
931.199	5837.59
931.508	5791.71
931.817	5797.59
932.125	5772.96
932.434	5751.26
932.743	5686.4
933.051	5680.08
933.36	5693.18
933.669	5659.51
933.977	5608.89
934.286	5632.39
934.594	5552.17
934.902	5500.42
935.21	5496.13
935.519	5505.39
935.827	5508.56
936.135	5470.82
936.443	5411.16
936.751	5377.94
937.059	5325.74
937.367	5356.47
937.674	5328.45
937.982	5295
938.29	5297.49
938.597	5253.87
938.905	5215
939.213	5214.78
939.52	5216.36
939.827	5171.84
940.135	5163.71
940.442	5150.15
940.749	5079.64
941.056	5118.51
941.363	5027.21
941.67	5045.07
941.977	4991.06
942.284	4967.1
942.591	4966.88
942.898	4975.01
943.205	4943.15
943.511	4944.28
943.818	4874.22
944.125	4877.39
944.431	4822.47
944.738	4837.61
945.044	4795.81
945.35	4771.63
945.657	4732.3
945.963	4721.46
946.269	4733.66
946.575	4757.39
946.881	4657.73
947.187	4666.54
947.493	4627.9
947.799	4622.03
948.105	4580.44
948.41	4555.81
948.716	4584.06
949.022	4532.99
949.327	4536.6
949.633	4491.63
949.938	4448.47
950.244	4484.18
950.549	4427.68
950.854	4425.19
951.16	4364.18
951.465	4391.97
951.77	4321.69
952.075	4354.24
952.38	4351.75
952.685	4303.16
952.99	4273.11
953.294	4262.94
953.599	4205.77
953.904	4220
954.209	4201.92
954.513	4185.43
954.818	4202.83
955.122	4193.79
955.426	4158.31
955.731	4144.3
956.035	4098.88
956.339	4055.49
956.643	4083.73
956.948	4055.71
957.252	4061.36
957.556	4014.36
957.86	4049.16
958.163	3950.86
958.467	3967.58
958.771	3985.21
959.075	3936.85
959.378	3907.47
959.682	3928.03
959.985	3949.27
960.289	3857.53
960.592	3899.11
960.896	3797.19
961.199	3863.63
961.502	3809.84
961.805	3733.91
962.108	3742.05
962.411	3769.39
962.714	3737.98
963.017	3746.79
963.32	3750.18
963.623	3687.59
963.926	3702.73
964.228	3663.63
964.531	3642.39
964.833	3638.77
965.136	3588.61
965.438	3580.92
965.741	3580.7
966.043	3554.48
966.345	3522.62
966.648	3571.88
966.95	3535.73
967.252	3527.36
967.554	3505.9
967.856	3462.96
968.158	3443.07
968.46	3415.73
968.761	3432.45
969.063	3392.91
969.365	3351.55
969.666	3368.05
969.968	3354.94
970.269	3324.21
970.571	3357.65
970.872	3337.31
971.174	3289.63
971.475	3273.13
971.776	3275.62
972.077	3287.82
972.378	3274.04
972.679	3265.45
972.98	3230.88
973.281	3241.04
973.582	3210.31
973.883	3205.34
974.183	3168.5
974.484	3136.87
974.785	3124.44
975.085	3098.68
975.386	3112.23
975.686	3146.81
975.986	3052.8
976.287	3063.42
976.587	3057.77
976.887	3040.82
977.187	3067.72
977.487	3003.54
977.787	2965.35
978.087	2984.1
978.387	2955.4
978.687	2956.08
978.987	2976.42
979.286	2918.79
979.586	2924.44
979.885	2901.39
980.185	2889.19
980.484	2912.47
980.784	2876.31
981.083	2860.04
981.382	2821.85
981.682	2855.97
981.981	2806.71
982.28	2828.85
982.579	2791.79
982.878	2811
983.177	2782.53
983.475	2791.79
983.774	2719.93
984.073	2726.93
984.372	2669.08
984.67	2701.62
984.969	2703.21
985.267	2676.99
985.566	2705.24
985.864	2646.94
986.162	2652.81
986.461	2674.05
986.759	2603.32
987.057	2613.72
987.355	2575.3
987.653	2584.34
987.951	2580.27
988.249	2557.45
988.547	2567.84
988.844	2529.65
989.142	2545.24
989.44	2524.23
989.737	2488.97
990.035	2499.6
990.332	2493.95
990.63	2474.74
990.927	2470.9
991.224	2426.15
991.521	2438.35
991.819	2417.56
992.116	2399.71
992.413	2399.48
992.71	2407.62
993.006	2384.8
993.303	2395.87
993.6	2357.45
993.897	2366.04
994.193	2359.03
994.49	2347.73
994.787	2326.27
995.083	2298.24
995.379	2288.98
995.676	2284.46
995.972	2257.57
996.268	2282.2
996.565	2299.37
996.861	2238.36
997.157	2202.43
997.453	2187.97
997.749	2214.41
998.044	2200.17
998.34	2226.61
998.636	2167.17
998.932	2184.58
999.227	2136.22
999.523	2161.53
999.818	2167.4
1000.114	2118.14
1000.409	2095.31
1000.704	2076.33
1001	2098.02
1001.295	2097.8
1001.59	2065.03
1001.885	2079.27
1002.18	2041.53
1002.475	2045.37
1002.77	2028.2
1003.065	1998.82
1003.359	1997.69
1003.654	2009.89
1003.949	1956.56
1004.243	2005.15
1004.538	1968.99
1004.832	1961.08
1005.127	1938.48
1005.421	1943.45
1005.715	1931.47
1006.009	1911.81
1006.304	1898.03
1006.598	1874.53
1006.892	1863.45
1007.186	1869.33
1007.48	1848.99
1007.773	1858.48
1008.067	1833.85
1008.361	1824.13
1008.655	1797.01
1008.948	1795.66
1009.242	1781.87
1009.535	1774.42
1009.829	1784.36
1010.122	1771.7
1010.415	1745.94
1010.708	1745.49
1011.001	1745.04
1011.295	1736.23
1011.588	1721.99
1011.881	1692.61
1012.173	1661.88
1012.466	1678.83
1012.759	1659.62
1013.052	1660.75
1013.344	1665.27
1013.637	1659.17
1013.93	1657.81
1014.222	1617.81
1014.514	1636.12
1014.807	1616.91
1015.099	1594.76
1015.391	1599.05
1015.683	1600.41
1015.976	1564.93
1016.268	1533.74
1016.56	1564.25
1016.851	1527.42
1017.143	1536
1017.435	1523.35
1017.727	1513.18
1018.018	1521.54
1018.31	1506.63
1018.602	1514.08
1018.893	1463.92
1019.185	1488.1
1019.476	1449.91
1019.767	1469.11
1020.058	1421.21
1020.35	1431.37
1020.641	1418.95
1020.932	1418.04
1021.223	1395.67
1021.514	1381.88
1021.804	1366.97
1022.095	1372.17
1022.386	1359.74
1022.677	1379.4
1022.967	1368.33
1023.258	1340.76
1023.548	1325.84
1023.839	1324.26
1024.129	1323.36
1024.419	1321.32
1024.709	1308.21
1025	1273.41
1025.29	1268.67
1025.58	1274.77
1025.87	1259.85
1026.16	1259.63
1026.449	1258.05
1026.739	1234.54
1027.029	1231.38
1027.319	1205.62
1027.608	1239.52
1027.898	1214.66
1028.187	1190.7
1028.477	1217.37
1028.766	1173.53
1029.055	1203.58
1029.344	1179.18
1029.634	1133.3
1029.923	1159.74
1030.212	1157.94
1030.501	1162.46
1030.79	1141.44
1031.078	1091.5
1031.367	1110.03
1031.656	1089.69
1031.945	1105.28
1032.233	1087.2
1032.522	1094.89
1032.81	1062.34
1033.099	1087.2
1033.387	1071.61
1033.675	1060.09
1033.963	1060.09
1034.251	1065.96
1034.54	1047.88
1034.828	1044.72
1035.116	1012.18
1035.403	1045.4
1035.691	1011.5
1035.979	998.17
1036.267	991.84
1036.554	1008.56
1036.842	980.31
1037.129	993.87
1037.417	978.73
1037.704	977.38
1037.992	964.95
1038.279	969.01
1038.566	934.21
1038.853	934.21
1039.14	934.21
