Data from hue_320_FLMS001491_74.txt Node
Date: Mon Feb 06 15:47:40 GMT 2017
User: dcchb
Spectrometer: FLMS00149
Trigger mode: 0
Integration Time (sec): 2.000000E-2
Scans to average: 10
Electric dark correction enabled: true
Nonlinearity correction enabled: false
Boxcar width: 0
XAxis mode: Wavelengths
Number of Pixels in Spectrum: 2048
>>>>>Begin Spectral Data<<<<<
341.393	-18.98
341.776	-18.98
342.16	-18.98
342.543	-80
342.927	-70.05
343.31	-68.7
343.693	-72.31
344.077	-83.84
344.46	-54.91
344.843	-49.26
345.226	-32.09
345.61	-34.8
345.993	-38.42
346.376	2.94
346.759	15.14
347.142	35.71
347.525	51.98
347.908	62.15
348.291	69.6
348.674	88.36
349.057	108.47
349.44	119.32
349.823	132.65
350.206	143.27
350.588	203.38
350.971	208.13
351.354	208.36
351.737	237.06
352.119	242.93
352.502	243.16
352.884	267.56
353.267	275.92
353.65	297.85
354.032	296.04
354.414	286.32
354.797	310.95
355.179	309.6
355.562	316.15
355.944	308.69
356.326	317.51
356.709	317.51
357.091	341.23
357.473	345.75
357.855	333.32
358.238	326.09
358.62	332.42
359.002	332.87
359.384	328.8
359.766	317.51
360.148	336.26
360.53	328.35
360.912	323.83
361.294	319.54
361.676	305.75
362.057	347.79
362.439	318.41
362.821	320.22
363.203	314.34
363.584	344.62
363.966	314.34
364.348	304.85
364.729	297.85
365.111	309.37
365.493	323.83
365.874	318.64
366.256	315.25
366.637	310.95
367.019	306.43
367.4	318.41
367.781	291.74
368.163	307.11
368.544	277.05
368.925	304.4
369.306	298.98
369.688	298.07
370.069	298.07
370.45	311.18
370.831	305.98
371.212	311.63
371.593	300.33
371.974	320.67
372.355	300.78
372.736	316.15
373.117	298.3
373.498	303.04
373.879	314.79
374.26	320.22
374.641	275.47
375.021	301.01
375.402	313.89
375.783	319.31
376.163	321.8
376.544	306.88
376.925	320.44
377.305	313.44
377.686	328.35
378.066	333.1
378.447	317.51
378.827	311.63
379.208	316.83
379.588	323.83
379.968	302.59
380.349	330.39
380.729	323.38
381.109	317.96
381.489	317.73
381.87	341.91
382.25	314.34
382.63	342.59
383.01	327
383.39	325.42
383.77	328.8
384.15	333.78
384.53	324.29
384.91	324.06
385.29	334.91
385.67	338.97
386.049	329.03
386.429	323.38
386.809	335.13
387.189	353.21
387.568	361.8
387.948	341.91
388.328	336.94
388.707	331.97
389.087	342.82
389.466	333.32
389.846	346.88
390.225	335.13
390.605	351.4
390.984	351.86
391.363	352.31
391.743	350.27
392.122	363.38
392.501	349.14
392.881	368.8
393.26	372.87
393.639	349.82
394.018	381.46
394.397	355.02
394.776	371.52
395.155	367.45
395.534	388.24
395.913	361.8
396.292	378.52
396.671	372.19
397.05	377.62
397.429	371.74
397.808	374.91
398.186	374.45
398.565	373.55
398.944	374
399.323	385.75
399.701	411.97
400.08	359.31
400.458	375.58
400.837	398.86
401.215	381.23
401.594	408.35
401.972	390.5
402.351	400.22
402.729	410.38
403.107	396.6
403.486	400.22
403.864	401.8
404.242	413.1
404.62	414
404.999	394.11
405.377	414.68
405.755	421.91
406.133	412.87
406.511	428.69
406.889	429.59
407.267	420.1
407.645	434.56
408.023	422.36
408.401	423.94
408.779	445.64
409.156	441.8
409.534	459.65
409.912	475.47
410.29	458.75
410.667	475.24
411.045	463.72
411.422	464.62
411.8	489.7
412.178	474.34
412.555	483.6
412.933	491.29
413.31	502.36
413.687	514.34
414.065	520.66
414.442	522.02
414.819	506.88
415.197	525.86
415.574	535.35
415.951	536.26
416.328	533.09
416.705	557.27
417.082	556.37
417.46	545.75
417.837	584.17
418.214	588.69
418.591	566.31
418.967	569.93
419.344	578.29
419.721	595.01
420.098	603.6
420.475	606.99
420.852	613.09
421.228	621.9
421.605	625.29
421.982	633.43
422.358	652.41
422.735	645.86
423.111	644.05
423.488	653.99
423.864	676.59
424.241	669.13
424.617	654.67
424.994	690.15
425.37	694.22
425.746	674.11
426.123	702.81
426.499	697.83
426.875	686.08
427.251	715.01
427.627	725.18
428.003	731.28
428.379	725.86
428.756	767.89
429.132	747.78
429.507	785.52
429.883	797.27
430.259	777.15
430.635	801.79
431.011	786.42
431.387	828
431.763	809.47
432.138	799.3
432.514	828.45
432.89	839.75
433.265	828.68
433.641	867.77
434.016	836.36
434.392	857.6
434.767	868.9
435.143	883.14
435.518	889.69
435.894	892.18
436.269	909.13
436.644	897.38
437.02	917.49
437.395	941.44
437.77	921.78
438.145	947.09
438.52	969.24
438.895	976.92
439.271	976.02
439.646	995.68
440.021	995.45
440.395	997.04
440.77	982.35
441.145	1028.9
441.52	1012.18
441.895	1018.5
442.27	1013.31
442.645	1001.33
443.019	1018.28
443.394	1024.61
443.769	1043.36
444.143	1045.85
444.518	1059.41
444.892	1048.33
445.267	1057.37
445.641	1032.29
446.016	1083.59
446.39	1058.96
446.764	1076.13
447.139	1061.44
447.513	1087.2
447.887	1068.9
448.262	1053.76
448.636	1061.67
449.01	1099.18
449.384	1102.57
449.758	1080.65
450.132	1110.25
450.506	1091.5
450.88	1127.88
451.254	1110.93
451.628	1156.35
452.002	1136.92
452.376	1136.02
452.75	1148.67
453.123	1156.35
453.497	1164.72
453.871	1139.63
454.244	1178.5
454.618	1198.61
454.992	1216.92
455.365	1206.07
455.739	1230.7
456.112	1226.86
456.486	1211.49
456.859	1251.94
457.232	1270.7
457.606	1258.5
457.979	1255.33
458.352	1289.01
458.725	1289.01
459.099	1286.75
459.472	1295.33
459.845	1308.89
460.218	1345.73
460.591	1310.7
460.964	1345.28
461.337	1348.89
461.71	1363.13
462.083	1387.76
462.456	1397.25
462.829	1391.38
463.201	1396.35
463.574	1415.78
463.947	1408.1
464.32	1440.64
464.692	1467.76
465.065	1467.76
465.438	1472.73
465.81	1488.55
466.183	1485.16
466.555	1518.6
466.928	1495.1
467.3	1526.74
467.672	1554.08
468.045	1559.06
468.417	1536.23
468.789	1568.09
469.161	1565.61
469.534	1577.59
469.906	1606.51
470.278	1627.3
470.65	1641.76
471.022	1671.82
471.394	1667.07
471.766	1678.83
472.138	1682.89
472.51	1722.21
472.882	1711.82
473.253	1768.77
473.625	1793.63
473.997	1828.88
474.369	1812.83
474.74	1817.35
475.112	1856.22
475.484	1848.76
475.855	1891.02
476.227	1915.43
476.598	1914.75
476.97	1935.09
477.341	1973.73
477.713	2010.79
478.084	2019.61
478.455	2049.66
478.827	2031.81
479.198	2120.17
479.569	2101.41
479.94	2144.8
480.311	2149.1
480.682	2207.17
481.053	2277.23
481.424	2265.93
481.795	2279.49
482.166	2285.82
482.537	2328.07
482.908	2334.85
483.279	2389.09
483.65	2379.15
484.021	2453.49
484.391	2488.75
484.762	2482.42
485.133	2502.08
485.503	2529.43
485.874	2525.13
486.244	2552.93
486.615	2617.56
486.985	2632.7
487.356	2686.03
487.726	2703.21
488.097	2708.4
488.467	2712.47
488.837	2746.82
489.207	2764.45
489.578	2775.07
489.948	2811.45
490.318	2848.06
490.688	2832.92
491.058	2888.51
491.428	2916.53
491.798	2980.94
492.168	2995.63
492.538	3005.57
492.908	3030.43
493.278	3061.61
493.648	3055.51
494.017	3035.4
494.387	3116.75
494.757	3127.38
495.126	3130.99
495.496	3128.51
495.866	3198.56
496.235	3210.76
496.605	3212.12
496.974	3219.8
497.344	3259.35
497.713	3267.26
498.082	3281.04
498.452	3324.88
498.821	3318.1
499.19	3320.59
499.559	3363.08
499.928	3340.93
500.298	3399.01
500.667	3398.55
501.036	3375.28
501.405	3390.42
501.774	3416.41
502.143	3466.35
502.512	3456.41
502.88	3441.94
503.249	3474.71
503.618	3488.95
503.987	3478.33
504.356	3519.91
504.724	3541.38
505.093	3490.76
505.462	3532.11
505.83	3563.07
506.199	3599.91
506.567	3638.1
506.936	3623.41
507.304	3640.13
507.672	3656.4
508.041	3683.52
508.409	3665.89
508.777	3717.87
509.145	3718.55
509.514	3727.59
509.882	3711.99
510.25	3703.41
510.618	3753.8
510.986	3774.82
511.354	3745.44
511.722	3810.3
512.09	3779.79
512.458	3799
512.826	3824.31
513.193	3798.32
513.561	3810.75
513.929	3853.23
514.297	3861.59
514.664	3859.79
515.032	3886.9
515.4	3915.6
515.767	3938.43
516.135	3939.56
516.502	3877.64
516.869	3982.95
517.237	3951.08
517.604	3895.94
517.972	3973.91
518.339	3968.26
518.706	3993.34
519.073	3955.83
519.44	4004.64
519.808	4055.26
520.175	4011.87
520.542	4051.87
520.909	4080.12
521.276	4049.84
521.643	4061.14
522.009	4118.99
522.376	4106.78
522.743	4137.29
523.11	4144.52
523.477	4163.51
523.843	4179.1
524.21	4180.23
524.577	4247.8
524.943	4220.91
525.31	4243.05
525.676	4311.75
526.043	4330.06
526.409	4324.18
526.776	4347.46
527.142	4377.96
527.508	4449.15
527.874	4423.61
528.241	4421.8
528.607	4452.76
528.973	4428.13
529.339	4457.06
529.705	4525.08
530.071	4551.07
530.437	4582.7
530.803	4542.71
531.169	4592.42
531.535	4581.57
531.901	4590.16
532.267	4620.67
532.632	4638.52
532.998	4682.81
533.364	4662.25
533.73	4686.43
534.095	4766.43
534.461	4750.61
534.826	4771.17
535.192	4801.91
535.557	4779.99
535.923	4873.54
536.288	4858.86
536.653	4912.19
537.019	4882.36
537.384	4868.35
537.749	4864.28
538.114	4940.21
538.479	4904.96
538.845	5005.74
539.21	4927.33
539.575	4968.91
539.94	4977.27
540.305	5038.51
540.67	5058.62
541.034	5031.96
541.399	5113.76
541.764	5082.58
542.129	5148.11
542.494	5158.73
542.858	5212.07
543.223	5172.75
543.587	5223.59
543.952	5179.98
544.316	5270.6
544.681	5289.8
545.045	5316.92
545.41	5355.57
545.774	5334.77
546.138	5366.41
546.503	5392.63
546.867	5435.56
547.231	5489.57
547.595	5471.04
547.959	5481.21
548.324	5477.14
548.688	5521.66
549.052	5550.81
549.416	5534.77
549.779	5581.55
550.143	5575.67
550.507	5632.39
550.871	5602.56
551.235	5581.32
551.599	5662.68
551.962	5661.09
552.326	5675.33
552.689	5706.52
553.053	5667.87
553.417	5720.3
553.78	5764.37
554.143	5753.97
554.507	5801.2
554.87	5794.42
555.234	5833.97
555.597	5813.63
555.96	5845.5
556.323	5889.56
556.686	5820.19
557.05	5843.69
557.413	5921.65
557.776	5941.99
558.139	5938.15
558.502	5996.45
558.865	5971.82
559.228	6006.62
559.59	6041.2
559.953	5998.03
560.316	6095.88
560.679	6085.94
561.041	6160.52
561.404	6179.27
561.767	6169.56
562.129	6164.81
562.492	6170.91
562.854	6253.39
563.217	6182.21
563.579	6216.33
563.941	6267.63
564.304	6255.88
564.666	6283.22
565.028	6301.53
565.39	6320.06
565.753	6387.18
566.115	6429.89
566.477	6427.4
566.839	6408.19
567.201	6486.16
567.563	6465.14
567.925	6530.68
568.287	6479.83
568.648	6600.28
569.01	6663.78
569.372	6628.98
569.734	6598.02
570.095	6657
570.457	6652.03
570.819	6680.95
571.18	6709.88
571.542	6759.6
571.903	6834.17
572.265	6860.16
572.626	6869.2
572.987	6875.53
573.349	6954.62
573.71	6978.12
574.071	7067.16
574.432	7083.66
574.794	7115.75
575.155	7155.97
575.516	7216.08
575.877	7288.62
576.238	7336.53
576.599	7412.91
576.96	7447.49
577.32	7471.67
577.681	7574.26
578.042	7699.91
578.403	7708.5
578.763	7836.18
579.124	7933.58
579.485	7972.45
579.845	8084.99
580.206	8153.01
580.566	8247.92
580.927	8384.41
581.287	8508.02
581.648	8600.23
582.008	8748.47
582.368	8872.08
582.728	9037.5
583.089	9101.23
583.449	9346.87
583.809	9448.34
584.169	9628.67
584.529	9790.48
584.889	10013.3
585.249	10093.07
585.609	10207.42
585.969	10529.89
586.329	10654.86
586.688	10847.17
587.048	11010.56
587.408	11281.29
587.768	11502.52
588.127	11734.83
588.487	11919.69
588.846	12173.69
589.206	12401.48
589.565	12622.04
589.925	12956.04
590.284	13078.53
590.643	13394.9
591.003	13615.46
591.362	13988.78
591.721	14186.52
592.08	14472.61
592.44	14775.66
592.799	14970.23
593.158	15291.8
593.517	15523.66
593.876	15768.4
594.235	15995.29
594.593	16336.75
594.952	16634.14
595.311	16921.81
595.67	17186.21
596.029	17610.38
596.387	17871.17
596.746	18223.02
597.104	18358.61
597.463	18712.95
597.822	18982.33
598.18	19243.11
598.538	19480.84
598.897	19836.54
599.255	20023.65
599.613	20585.22
599.972	20766.46
600.33	21020.69
600.688	21364.18
601.046	21683.95
601.404	21904.73
601.762	22061.11
602.12	22424.72
602.478	22692.96
602.836	23023.12
603.194	23158.94
603.552	23486.39
603.91	23651.58
604.268	23998.47
604.625	24268.06
604.983	24543.08
605.341	24659.24
605.698	25012
606.056	25330.63
606.413	25485.66
606.771	25769.04
607.128	25925.42
607.485	26113.21
607.843	26403.37
608.2	26776.02
608.557	26968.33
608.914	26964.94
609.272	27347.76
609.629	27547.52
609.986	28026.61
610.343	27953.84
610.7	28349.54
611.057	28496.43
611.414	28541.17
611.771	28813.71
612.127	29129.63
612.484	29187.03
612.841	29492.56
613.198	29515.38
613.554	29682.61
613.911	30097.74
614.267	30095.48
614.624	30342.48
614.98	30535.92
615.337	30759.42
615.693	30874.67
616.05	30944.5
616.406	31382
616.762	31276.92
617.118	31327.76
617.475	31487.99
617.831	31810.46
618.187	31957.8
618.543	32104.47
618.899	32292.94
619.255	32479.6
619.611	32492.48
619.967	32679.59
620.323	32802.53
620.678	32894.73
621.034	32858.8
621.39	33181.95
621.746	33124.33
622.101	33545.78
622.457	33437.54
622.812	33561.6
623.168	33682.05
623.523	33840.47
623.879	33910.29
624.234	33740.58
624.589	34005.66
624.945	34087.01
625.3	34343.96
625.655	34295.6
626.01	34402.03
626.365	34495.59
626.72	34416.72
627.075	34498.08
627.43	34662.14
627.785	34633.67
628.14	34651.29
628.495	34911.4
628.85	34885.86
629.205	34774.68
629.559	35064.61
629.914	34857.16
630.269	35107.33
630.623	34983.03
630.978	34997.5
631.332	35168.79
631.687	35217.15
632.041	35046.31
632.396	35275.91
632.75	35190.26
633.104	35374.21
633.459	35150.71
633.813	35332.63
634.167	35197.27
634.521	35307.77
634.875	35451.27
635.229	35282.69
635.583	35262.12
635.937	35308.68
636.291	35282.69
636.645	35384.61
636.999	35159.08
637.352	35451.05
637.706	35232.52
638.06	35369.24
638.413	35270.49
638.767	35296.7
639.121	35370.6
639.474	35242.24
639.828	35172.18
640.181	35221.9
640.534	35348.22
640.888	35149.36
641.241	35146.42
641.594	35134.22
641.947	35318.85
642.301	35203.59
642.654	35317.04
643.007	35259.86
643.36	35229.13
643.713	35194.55
644.066	35346.64
644.419	35130.6
644.771	34871.17
645.124	34617.39
645.477	34664.85
645.83	34495.59
646.182	34240.46
646.535	34109.16
646.888	34322.94
647.24	34156.39
647.593	34238.65
647.945	34302.6
648.298	34181.7
648.65	34236.84
649.002	34061.25
649.355	34185.77
649.707	34062.16
650.059	34271.64
650.411	34643.16
650.763	34662.14
651.115	34950.04
651.467	34939.42
651.819	34904.17
652.171	34802.93
652.523	34837.95
652.875	34802.25
653.227	34699.2
653.578	35037.95
653.93	34859.42
654.282	34796.37
654.633	34677.73
654.985	34705.75
655.337	34685.19
655.688	34757.73
656.039	34895.13
656.391	34614.46
656.742	34465.31
657.094	34569.26
657.445	34755.24
657.796	34675.7
658.147	34694.91
658.498	34641.35
658.849	34697.62
659.2	34605.64
659.551	34497.17
659.902	34695.58
660.253	34612.42
660.604	34588.47
660.955	34420.79
661.306	34664.4
661.656	34602.03
662.007	34490.17
662.358	34491.97
662.708	34473.9
663.059	34614.91
663.409	34398.87
663.76	34549.37
664.11	34522.03
664.461	34554.8
664.811	34620.78
665.161	34569.03
665.511	34533.78
665.862	34514.12
666.212	34658.75
666.562	34561.8
666.912	34532.88
667.262	34468.92
667.612	34461.47
667.962	34575.59
668.312	34563.84
668.662	34675.02
669.011	34399.32
669.361	34360
669.711	34415.37
670.06	34449.26
670.41	34363.39
670.76	34329.27
671.109	34552.09
671.459	34309.83
671.808	34390.51
672.157	34357.29
672.507	34226.22
672.856	34139.44
673.205	34296.95
673.554	34538.98
673.904	34258.08
674.253	34315.71
674.602	34274.35
674.951	33867.36
675.3	33686.12
675.649	34212.43
675.998	34094.24
676.346	34191.64
676.695	34364.52
677.044	33947.81
677.393	34061.48
677.741	34131.08
678.09	34104.41
678.438	33891.54
678.787	34103.96
679.135	34000.01
679.484	33807.92
679.832	33990.29
680.181	33763.41
680.529	33893.35
680.877	33694.48
681.225	33746.23
681.573	33936.73
681.922	33731.54
682.27	33609.96
682.618	33655.16
682.966	33500.36
683.314	33575.39
683.661	33453.36
684.009	33395.73
684.357	33362.29
684.705	33266.24
685.053	33355.73
685.4	33272.8
685.748	33135.4
686.095	33126.59
686.443	32956.65
686.79	32917.33
687.138	32954.84
687.485	33010.66
687.832	32853.83
688.18	33092.24
688.527	32799.14
688.874	32733.83
689.221	32688.18
689.568	32539.03
689.915	32567.73
690.262	32513.27
690.609	32346.27
690.956	32419.49
691.303	32230.11
691.65	31988.31
691.997	32071.02
692.344	31886.39
692.69	31803.91
693.037	31743.57
693.383	31676
693.73	31819.05
694.077	31734.31
694.423	31600.53
694.769	31496.8
695.116	31486.63
695.462	31460.87
695.808	31274.88
696.155	31332.28
696.501	31058.17
696.847	31048
697.193	30923.93
697.539	31060.88
697.885	30761
698.231	30696.14
698.577	30689.14
698.923	30636.03
699.269	30526.88
699.614	30445.53
699.96	30258.19
700.306	30350.61
700.651	30224.29
700.997	30057.06
701.342	30055.25
701.688	29990.17
702.033	29942.04
702.379	29924.41
702.724	29770.74
703.069	29693
703.415	29422.28
703.76	29577.98
704.105	29481.94
704.45	29508.15
704.795	29397.19
705.14	29259.12
705.485	29239.23
705.83	29157.43
706.175	29096.18
706.52	29087.6
706.865	28961.5
707.209	28946.36
707.554	28851.9
707.899	28962.18
708.243	28691.22
708.588	28768.74
708.932	28511.34
709.277	28570.32
709.621	28568.74
709.966	28368.07
710.31	28331.91
710.654	28313.61
710.998	28232.7
711.342	28203.55
711.687	28167.62
712.031	28071.35
712.375	27839.95
712.719	27953.84
713.063	27904.13
713.407	28058.47
713.75	27747.07
714.094	27777.8
714.438	27646.73
714.782	27758.37
715.125	27657.58
715.469	27555.43
715.812	27425.72
716.156	27191.83
716.499	27449.22
716.843	27358.83
717.186	27286.06
717.53	27368.09
717.873	27225.95
718.216	27238.15
718.559	27161.77
718.902	27016.46
719.246	27084.71
719.589	26940.99
719.932	26784.83
720.275	26787.77
720.617	26786.41
720.96	26688.11
721.303	26789.35
721.646	26776.7
721.989	26555.91
722.331	26690.15
722.674	26541
723.016	26501.22
723.359	26429.36
723.701	26506.87
724.044	26305.52
724.386	26204.28
724.729	26317.05
725.071	26355.01
725.413	26209.25
725.755	26166.77
726.097	26087
726.439	25879.55
726.782	25950.05
727.124	26035.93
727.465	25921.13
727.807	25840
728.149	25885.2
728.491	25770.4
728.833	25832.09
729.175	25714.13
729.516	25634.13
729.858	25668.93
730.199	25643.17
730.541	25595.03
730.882	25575.6
731.224	25647.69
731.565	25492.44
731.906	25410.18
732.248	25477.97
732.589	25184.42
732.93	25257.87
733.271	25299.22
733.612	25258.32
733.953	25345.77
734.294	25206.12
734.635	24996.18
734.976	25075.72
735.317	24957.54
735.658	24965.22
735.999	25030.3
736.339	24949.4
736.68	25059.23
737.021	24887.03
737.361	24818.1
737.702	24955.5
738.042	24874.83
738.383	24760.48
738.723	24812.23
739.063	24731.78
739.404	24847.93
739.744	24714.83
740.084	24605
740.424	24605.23
740.764	24653.36
741.104	24642.06
741.444	24517.77
741.784	24372.47
742.124	24417.21
742.464	24394.39
742.804	24259.02
743.143	24355.52
743.483	24337.89
743.823	24154.62
744.162	24190.78
744.502	24225.13
744.841	24107.39
745.181	24304.45
745.52	24097.22
745.86	24078.01
746.199	24129.31
746.538	23943.78
746.877	24021.97
747.216	24057.67
747.556	23838.92
747.895	23930.44
748.234	23697.68
748.573	23686.38
748.911	23687.51
749.25	23687.06
749.589	23588.98
749.928	23575.2
750.267	23646.16
750.605	23443.9
750.944	23567.06
751.283	23399.38
751.621	23428.54
751.96	23221.99
752.298	23350.35
752.636	23273.51
752.975	23221.31
753.313	23125.49
753.651	23215.66
753.989	23120.3
754.327	23016.57
754.666	22916.46
755.004	23041.43
755.342	22916.91
755.679	22843.69
756.017	22726.63
756.355	22749.68
756.693	22629.46
757.031	22745.62
757.368	22634.89
757.706	22510.14
758.044	22443.93
758.381	22538.39
758.719	22413.65
759.056	22454.32
759.394	22254.33
759.731	22207.33
760.068	22190.38
760.405	22134.11
760.743	21883.72
761.08	22018.63
761.417	21864.28
761.754	21889.82
762.091	21769.15
762.428	21677.62
762.765	21661.8
763.102	21521.92
763.438	21510.39
763.775	21433.79
764.112	21525.54
764.449	21412.09
764.785	21329.83
765.122	21075.83
765.458	21219.33
765.795	20977.08
766.131	21015.49
766.467	20954.7
766.804	20764.2
767.14	20841.03
767.476	20789.28
767.812	20635.62
768.148	20657.31
768.485	20561.04
768.821	20549.74
769.157	20460.03
769.492	20366.24
769.828	20386.13
770.164	20125.57
770.5	20146.14
770.836	20177.32
771.171	19953.83
771.507	20040.83
771.842	19895.97
772.178	19887.61
772.513	19729.88
772.849	19771.23
773.184	19587.73
773.519	19608.52
773.855	19438.58
774.19	19521.07
774.525	19330.79
774.86	19351.58
775.195	19324.24
775.53	19336.44
775.865	19208.31
776.2	19010.35
776.535	18896.68
776.87	18893.74
777.205	18853.06
777.539	18771.26
777.874	18747.3
778.209	18662.33
778.543	18582.34
778.878	18547.53
779.212	18471.83
779.547	18392.28
779.881	18411.04
780.215	18241.1
780.55	18335.79
780.884	18097.6
781.218	17973.54
781.552	18125.17
781.886	17969.25
782.22	17823.71
782.554	17798.4
782.888	17646.54
783.222	17635.47
783.556	17538.52
783.889	17429.82
784.223	17384.63
784.557	17235.03
784.89	17362.71
785.224	17302.37
785.557	17248.13
785.891	17086.78
786.224	17075.03
786.558	17031.42
786.891	16752.1
787.224	16915.94
787.557	16779.67
787.891	16669.17
788.224	16717.75
788.557	16709.39
788.89	16659.22
789.223	16565.67
789.556	16485.44
789.888	16500.58
790.221	16439.12
790.554	16327.71
790.887	16189.18
791.219	16271.21
791.552	16175.62
791.884	16061.5
792.217	16059.24
792.549	16019.69
792.882	15897.66
793.214	15833.71
793.546	15897.66
793.879	15784.44
794.211	15673.26
794.543	15757.1
794.875	15621.51
795.207	15636.65
795.539	15577.9
795.871	15515.07
796.203	15353.49
796.535	15286.83
796.867	15302.65
797.198	15341.29
797.53	15196.21
797.862	15132.03
798.193	15178.58
798.525	15106.5
798.856	15093.84
799.188	14891.36
799.519	14857.69
799.85	14796.67
800.182	14896.33
800.513	14841.87
800.844	14606.85
801.175	14760.74
801.506	14711.7
801.837	14596.9
802.168	14603.46
802.499	14649.78
802.83	14446.17
803.161	14370.7
803.491	14415.89
803.822	14412.05
804.153	14310.36
804.483	14124.6
804.814	14203.92
805.145	14169.57
805.475	14048.22
805.805	14184.03
806.136	14010.03
806.466	14002.8
806.796	14024.49
807.126	13867.21
807.457	13860.65
807.787	13895
808.117	13845.29
808.447	13798.28
808.777	13730.94
809.107	13749.47
809.436	13701.11
809.766	13613.43
810.096	13644.84
810.426	13544.73
810.755	13530.04
811.085	13443.71
811.414	13415.69
811.744	13376.82
812.073	13319.88
812.403	13351.06
812.732	13314.23
813.061	13259.54
813.39	13196.72
813.719	13131.41
814.049	13232.42
814.378	13090.96
814.707	13071.75
815.036	13138.19
815.365	13003.05
815.693	12943.61
816.022	12852.32
816.351	12888.93
816.68	12778.65
817.008	12802.15
817.337	12730.51
817.665	12724.86
817.994	12783.39
818.322	12700.91
818.651	12683.96
818.979	12596.5
819.307	12693.23
819.636	12563.96
819.964	12491.87
820.292	12622.49
820.62	12586.34
820.948	12607.13
821.276	12519.22
821.604	12502.5
821.932	12493
822.259	12485.55
822.587	12434.93
822.915	12500.46
823.243	12535.72
823.57	12393.35
823.898	12543.62
824.225	12388.6
824.553	12457.98
824.88	12437.41
825.207	12427.7
825.535	12440.35
825.862	12446.23
826.189	12396.51
826.516	12411.65
826.843	12461.14
827.17	12453.91
827.497	12515.38
827.824	12435.38
828.151	12426.57
828.478	12322.39
828.805	12486
829.131	12330.07
829.458	12424.53
829.785	12326
830.111	12354.48
830.438	12453.68
830.764	12396.74
831.09	12356.74
831.417	12377.08
831.743	12388.15
832.069	12342.5
832.395	12372.56
832.722	12301.82
833.048	12331.43
833.374	12311.31
833.7	12258.21
834.026	12230.86
834.351	12284.65
834.677	12363.97
835.003	12284.65
835.329	12233.35
835.654	12239
835.98	12243.97
836.306	12166.46
836.631	12155.84
836.956	12181.15
837.282	12149.51
837.607	12157.87
837.932	12097.76
838.258	12069.06
838.583	12019.57
838.908	11982.28
839.233	12147.48
839.558	12039.68
839.883	11996.29
840.208	11846.02
840.533	11977.99
840.858	11937.77
841.182	11874.04
841.507	11851.67
841.832	11858.45
842.156	11853.93
842.481	11833.36
842.805	11801.72
843.13	11710.2
843.454	11669.98
843.778	11639.69
844.103	11644.21
844.427	11629.98
844.751	11573.48
845.075	11688.73
845.399	11488.74
845.723	11456.2
846.047	11516.08
846.371	11392.24
846.695	11364.67
847.019	11362.19
847.343	11293.49
847.666	11088.52
847.99	11154.06
848.313	11177.33
848.637	10978.69
848.96	11019.37
849.284	10984.57
849.607	10857.12
849.931	10911.8
850.254	10836.1
850.577	10816.44
850.9	10613.51
851.223	10716.33
851.546	10567.86
851.869	10613.96
852.192	10644.69
852.515	10541.19
852.838	10516.33
853.161	10486.28
853.483	10415.55
853.806	10397.47
854.129	10434.08
854.451	10336
854.774	10303.68
855.096	10237.92
855.419	10265.27
855.741	10284.25
856.063	10123.8
856.385	10171.94
856.708	10082.22
857.03	10038.38
857.352	10058.49
857.674	9998.61
857.996	10057.36
858.318	9972.39
858.64	9952.96
858.961	9926.74
859.283	9877.25
859.605	9820.08
859.926	9829.12
860.248	9804.04
860.57	9754.55
860.891	9744.6
861.212	9732.63
861.534	9719.74
861.855	9674.32
862.176	9647.88
862.498	9721.33
862.819	9721.1
863.14	9661.21
863.461	9556.36
863.782	9530.37
864.103	9608.11
864.424	9529.47
864.745	9562.46
865.065	9432.75
865.386	9476.81
865.707	9452.18
866.027	9485.63
866.348	9439.75
866.668	9456.25
866.989	9351.84
867.309	9337.38
867.63	9307.55
867.95	9404.27
868.27	9268.23
868.59	9294.9
868.91	9300.09
869.23	9226.42
869.55	9180.32
869.87	9214.67
870.19	9247.67
870.51	9190.04
870.83	9246.54
871.15	9123.83
871.469	9129.25
871.789	9209.02
872.109	9153.88
872.428	9115.24
872.748	9149.36
873.067	9087.44
873.386	9098.29
873.706	9112.3
874.025	9063.49
874.344	9025.75
874.663	9052.19
874.982	8966.77
875.301	9001.57
875.62	8995.24
875.939	8946.21
876.258	8903.72
876.577	8893.78
876.896	8890.84
877.214	8886.32
877.533	8938.07
877.852	8896.94
878.17	8835.7
878.489	8839.09
878.807	8838.41
879.125	8807.45
879.444	8812.2
879.762	8772.88
880.08	8752.54
880.398	8727.45
880.716	8695.59
881.034	8732.2
881.352	8704.86
881.67	8682.03
881.988	8687.91
882.306	8654.69
882.624	8611.07
882.941	8582.37
883.259	8551.64
883.577	8566.55
883.894	8550.28
884.212	8549.38
884.529	8505.31
884.846	8534.92
885.164	8465.09
885.481	8405.43
885.798	8437.29
886.115	8441.36
886.432	8368.59
886.75	8366.11
887.067	8355.03
887.383	8281.36
887.7	8287.92
888.017	8299.67
888.334	8303.74
888.651	8299.67
888.967	8205.21
889.284	8236.85
889.6	8103.06
889.917	8141.25
890.233	8127.47
890.55	8105.55
890.866	8131.99
891.182	8040.69
891.498	8082.05
891.815	8031.2
892.131	8058.09
892.447	7953.92
892.763	7901.04
893.079	7873.24
893.395	7916.63
893.71	7863.3
894.026	7812
894.342	7830.53
894.657	7791.66
894.973	7827.14
895.289	7724.09
895.604	7719.35
895.92	7697.65
896.235	7623.98
896.55	7659.23
896.865	7645.9
897.181	7608.61
897.496	7616.07
897.811	7547.82
898.126	7521.38
898.441	7512.34
898.756	7476.64
899.071	7461.5
899.386	7437.09
899.7	7368.62
900.015	7320.26
900.33	7324.1
900.644	7249.53
900.959	7318.23
901.273	7235.52
901.588	7258.57
901.902	7174.5
902.216	7191.68
902.531	7151.68
902.845	7110.32
903.159	7020.38
903.473	7067.16
903.787	7019.02
904.101	6975.86
904.415	6983.32
904.729	6979.48
905.042	6913.49
905.356	6933.15
905.67	6863.1
905.984	6933.6
906.297	6864.45
906.611	6851.12
906.924	6826.04
907.237	6803.21
907.551	6804.34
907.864	6699.48
908.177	6731.8
908.491	6654.97
908.804	6671.24
909.117	6573.61
909.43	6640.73
909.743	6572.71
910.056	6496.33
910.368	6490.45
910.681	6494.07
910.994	6464.91
911.307	6433.28
911.619	6410.23
911.932	6442.99
912.244	6362.54
912.557	6328.42
912.869	6335.2
913.181	6283.45
913.494	6267.86
913.806	6264.02
914.118	6237.12
914.43	6144.47
914.742	6177.24
915.054	6141.53
915.366	6145.38
915.678	6101.53
915.99	6046.62
916.302	6036.9
916.613	5963.46
916.925	5955.78
917.236	6016.56
917.548	5986.96
917.859	5949.22
918.171	5876.46
918.482	5905.38
918.794	5827.19
919.105	5807.3
919.416	5791.71
919.727	5750.36
920.038	5798.94
920.349	5698.16
920.66	5705.16
920.971	5664.48
921.282	5728.89
921.593	5611.83
921.903	5605.73
922.214	5609.57
922.525	5574.09
922.835	5528.22
923.146	5516.92
923.456	5478.73
923.767	5549.91
924.077	5475.34
924.387	5433.76
924.697	5400.54
925.008	5373.64
925.318	5382.01
925.628	5342.91
925.938	5300.88
926.248	5284.38
926.558	5261.1
926.867	5285.28
927.177	5210.48
927.487	5155.8
927.796	5147.44
928.106	5121
928.416	5150.15
928.725	5111.96
929.034	5074.44
929.344	5085.52
929.653	5024.05
929.962	5043.71
930.271	5061.34
930.581	4956.03
930.89	4960.1
931.199	4925.07
931.508	4919.64
931.817	4924.39
932.125	4901.11
932.434	4825.18
932.743	4866.54
933.051	4830.38
933.36	4795.13
933.669	4790.38
933.977	4746.99
934.286	4723.27
934.594	4725.07
934.902	4686.2
935.21	4675.13
935.519	4655.7
935.827	4638.3
936.135	4650.5
936.443	4566.21
936.751	4589.94
937.059	4576.15
937.367	4557.17
937.674	4519.88
937.982	4551.74
938.29	4469.04
938.597	4478.75
938.905	4418.64
939.213	4435.36
939.52	4452.54
939.827	4428.36
940.135	4384.07
940.442	4378.64
940.749	4387.23
941.056	4363.5
941.363	4295.48
941.67	4274.69
941.977	4219.1
942.284	4237.18
942.591	4264.52
942.898	4189.27
943.205	4236.5
943.511	4166.44
943.818	4164.86
944.125	4132.09
944.431	4114.02
944.738	4057.52
945.044	4099.1
945.35	4075.15
945.657	4019.33
945.963	4028.82
946.269	4039.44
946.575	4017.97
946.881	3971.87
947.187	3966.9
947.493	3939.11
947.799	3920.35
948.105	3923.74
948.41	3930.07
948.716	3851.65
949.022	3849.62
949.327	3841.71
949.633	3815.27
949.938	3792.89
950.244	3804.42
950.549	3818.88
950.854	3731.65
951.16	3737.08
951.465	3735.04
951.77	3715.83
952.075	3669.73
952.38	3688.94
952.685	3657.76
952.99	3624.54
953.294	3655.72
953.599	3632.22
953.904	3634.71
954.209	3582.28
954.513	3555.84
954.818	3536.63
955.122	3582.05
955.426	3552.22
955.731	3492.11
956.035	3486.46
956.339	3476.52
956.643	3486.91
956.948	3448.5
957.252	3431.55
957.556	3467.48
957.86	3457.76
958.163	3434.49
958.467	3370.08
958.771	3387.71
959.075	3396.75
959.378	3385.22
959.682	3328.05
959.985	3327.37
960.289	3265.9
960.592	3278.56
960.896	3323.3
961.199	3262.97
961.502	3245.79
961.805	3229.29
962.108	3210.09
962.411	3194.04
962.714	3177.77
963.017	3162.4
963.32	3194.94
963.623	3145.45
963.926	3114.95
964.228	3100.26
964.531	3109.97
964.833	3090.99
965.136	3056.19
965.438	3073.59
965.741	3028.17
966.043	3027.72
966.345	3031.56
966.648	3026.36
966.95	3011.67
967.252	3011.45
967.554	2988.17
967.856	2972.58
968.158	2926.02
968.46	2907.27
968.761	2957.89
969.063	2920.6
969.365	2901.84
969.666	2896.65
969.968	2874.27
970.269	2857.33
970.571	2898.68
970.872	2846.48
971.174	2804.9
971.475	2801.51
971.776	2782.75
972.077	2783.2
972.378	2745.46
972.679	2734.17
972.98	2759.48
973.281	2738.69
973.582	2728.06
973.883	2717.22
974.183	2689.65
974.484	2667.5
974.785	2678.12
975.085	2673.15
975.386	2639.03
975.686	2644.22
975.986	2637.44
976.287	2637.22
976.587	2599.25
976.887	2606.03
977.187	2618.24
977.487	2583.89
977.787	2569.65
978.087	2564.23
978.387	2535.3
978.687	2506.37
978.987	2552.02
979.286	2498.47
979.586	2506.15
979.885	2474.74
980.185	2484.45
980.484	2425.7
980.784	2440.61
981.083	2433.61
981.382	2407.62
981.682	2413.04
981.981	2408.3
982.28	2419.6
982.579	2405.13
982.878	2384.8
983.177	2363.78
983.475	2374.17
983.774	2364.01
984.073	2333.72
984.372	2311.35
984.67	2331.24
984.969	2334.85
985.267	2303.44
985.566	2276.78
985.864	2279.71
986.162	2283.78
986.461	2290.79
986.759	2265.48
987.057	2221.18
987.355	2252.14
987.653	2227.74
987.951	2197.68
988.249	2186.38
988.547	2152.94
988.844	2158.59
989.142	2212.37
989.44	2161.07
989.737	2135.54
990.035	2159.04
990.332	2107.29
990.63	2121.53
990.927	2133.5
991.224	2088.08
991.521	2109.32
991.819	2088.53
992.116	2058.25
992.413	2090.11
992.71	2045.14
993.006	2026.39
993.303	2028.42
993.6	2048.76
993.897	2031.59
994.193	2029.78
994.49	2020.06
994.787	1958.82
995.083	1981.42
995.379	1989.1
995.676	1949.78
995.972	1987.52
996.268	1967.18
996.565	1960.4
996.861	1947.29
997.157	1940.51
997.453	1912.27
997.749	1881.08
998.044	1926.05
998.34	1903.68
998.636	1878.14
998.932	1864.81
999.227	1886.73
999.523	1851.7
999.818	1838.6
1000.114	1833.4
1000.409	1830.46
1000.704	1851.48
1001	1820.97
1001.295	1766.06
1001.59	1800.86
1001.885	1783
1002.18	1776.9
1002.475	1749.11
1002.77	1734.64
1003.065	1756.34
1003.359	1739.39
1003.654	1714.53
1003.949	1707.07
1004.243	1707.07
1004.538	1706.85
1004.832	1686.06
1005.127	1677.24
1005.421	1682.22
1005.715	1641.99
1006.009	1632.5
1006.304	1631.82
1006.598	1605.16
1006.892	1649
1007.186	1609
1007.48	1620.3
1007.773	1580.52
1008.067	1587.98
1008.361	1578.94
1008.655	1585.72
1008.948	1582.33
1009.242	1521.99
1009.535	1556.57
1009.829	1505.95
1010.122	1554.31
1010.415	1547.76
1010.708	1525.84
1011.001	1491.26
1011.295	1488.77
1011.588	1461.43
1011.881	1489.68
1012.173	1481.09
1012.466	1468.66
1012.759	1456.68
1013.052	1464.37
1013.344	1438.61
1013.637	1431.37
1013.93	1408.32
1014.222	1387.08
1014.514	1376.24
1014.807	1400.19
1015.099	1349.57
1015.391	1388.44
1015.683	1353.41
1015.976	1387.53
1016.268	1325.84
1016.56	1354.09
1016.851	1360.87
1017.143	1356.57
1017.435	1317.93
1017.727	1317.93
1018.018	1301.21
1018.31	1312.51
1018.602	1291.49
1018.893	1286.97
1019.185	1253.07
1019.476	1274.32
1019.767	1284.03
1020.058	1271.6
1020.35	1227.31
1020.641	1226.86
1020.932	1227.31
1021.223	1232.74
1021.514	1222.79
1021.804	1220.08
1022.095	1225.28
1022.386	1189.35
1022.677	1189.12
1022.967	1185.96
1023.258	1155.45
1023.548	1172.62
1023.839	1160.42
1024.129	1173.53
1024.419	1140.76
1024.709	1138.73
1025	1122.23
1025.29	1133.98
1025.58	1117.71
1025.87	1120.2
1026.16	1096.92
1026.449	1090.37
1026.739	1069.58
1027.029	1090.14
1027.319	1074.55
1027.608	1065.51
1027.898	1045.17
1028.187	1026.64
1028.477	1049.01
1028.766	1050.14
1029.055	1040.88
1029.344	1018.5
1029.634	1033.42
1029.923	1030.93
1030.212	1038.62
1030.501	983.25
1030.79	1000.2
1031.078	993.19
1031.367	951.84
1031.656	980.54
1031.945	988
1032.233	972.18
1032.522	971.05
1032.81	971.27
1033.099	946.64
1033.387	929.92
1033.675	973.31
1033.963	921.78
1034.251	937.83
1034.54	900.99
1034.828	948.68
1035.116	907.77
1035.403	920.2
1035.691	927.43
1035.979	903.25
1036.267	900.99
1036.554	870.03
1036.842	877.49
1037.129	849.47
1037.417	854.67
1037.704	854.21
1037.992	866.42
1038.279	860.54
1038.566	844.05
1038.853	844.05
1039.14	844.05
