Data from hue_100_FLMS001491_00019.txt Node
Date: Tue Feb 07 17:02:44 GMT 2017
User: dcchb
Spectrometer: FLMS00149
Trigger mode: 0
Integration Time (sec): 2.000000E-2
Scans to average: 10
Electric dark correction enabled: true
Nonlinearity correction enabled: false
Boxcar width: 0
XAxis mode: Wavelengths
Number of Pixels in Spectrum: 2048
>>>>>Begin Spectral Data<<<<<
341.393	-18.06
341.776	-18.06
342.16	-18.06
342.543	-54.45
342.927	-86.54
343.31	-59.87
343.693	-66.2
344.077	-87.44
344.46	-62.81
344.843	-53.77
345.226	-39.98
345.61	-24.84
345.993	-24.17
346.376	4.08
346.759	19.67
347.142	3.86
347.525	60.13
347.908	44.53
348.291	67.36
348.674	92.22
349.057	127.24
349.44	120.91
349.823	141.48
350.206	158.2
350.588	191.87
350.971	213.34
351.354	203.17
351.737	215.15
352.119	258.76
352.502	248.37
352.884	262.15
353.267	297.41
353.65	286.79
354.032	306.67
354.414	319.1
354.797	290.63
355.179	309.61
355.562	314.81
355.944	322.94
356.326	336.05
356.709	336.28
357.091	318.88
357.473	336.05
357.855	351.19
358.238	333.79
358.62	328.59
359.002	339.21
359.384	341.93
359.766	345.32
360.148	347.58
360.53	349.84
360.912	348.25
361.294	336.05
361.676	324.53
362.057	332.43
362.439	341.7
362.821	331.98
363.203	339.44
363.584	328.14
363.966	325.88
364.348	310.51
364.729	315.49
365.111	314.13
365.493	327.01
365.874	300.8
366.256	321.14
366.637	325.2
367.019	305.54
367.4	306.9
367.781	333.79
368.163	320.23
368.544	301.93
368.925	300.57
369.306	304.64
369.688	322.27
370.069	319.33
370.45	315.71
370.831	304.64
371.212	324.98
371.593	331.76
371.974	314.36
372.355	316.84
372.736	332.43
373.117	307.12
373.498	311.64
373.879	323.17
374.26	324.98
374.641	317.75
375.021	321.59
375.402	312.32
375.783	319.55
376.163	313.9
376.544	333.56
376.925	341.93
377.305	334.92
377.686	318.65
378.066	330.63
378.447	311.87
378.827	354.81
379.208	330.63
379.588	340.34
379.968	357.97
380.349	336.28
380.729	361.36
381.109	345.77
381.489	330.17
381.87	329.05
382.25	332.66
382.63	336.73
383.01	347.58
383.39	335.37
383.77	360.91
384.15	340.57
384.53	319.78
384.91	326.56
385.29	350.29
385.67	355.71
386.049	365.43
386.429	367.24
386.809	352.77
387.189	352.32
387.568	344.19
387.948	345.99
388.328	360
388.707	357.52
389.087	361.59
389.466	357.74
389.846	349.84
390.225	372.43
390.605	359.1
390.984	371.08
391.363	377.63
391.743	359.55
392.122	384.64
392.501	386.44
392.881	390.51
393.26	388.93
393.639	386.44
394.018	386.44
394.397	392.09
394.776	381.02
395.155	390.51
395.534	386.67
395.913	398.42
396.292	395.71
396.671	404.75
397.05	392.32
397.429	413.11
397.808	410.17
398.186	376.73
398.565	396.61
398.944	411.53
399.323	425.54
399.701	414.47
400.08	420.12
400.458	414.69
400.837	424.41
401.215	419.89
401.594	422.15
401.972	428.25
402.351	396.61
402.729	412.43
403.107	433.68
403.486	434.58
403.864	432.77
404.242	447.46
404.62	447.01
404.999	442.26
405.377	433
405.755	441.58
406.133	441.36
406.511	433
406.889	448.36
407.267	440
407.645	449.95
408.023	463.73
408.401	453.56
408.779	434.13
409.156	496.05
409.534	460.57
409.912	481.36
410.29	498.08
410.667	489.94
411.045	457.4
411.422	455.37
411.8	469.83
412.178	496.95
412.555	505.31
412.933	517.51
413.31	507.8
413.687	500.11
414.065	520.45
414.442	515.93
414.819	520
415.197	510.51
415.574	519.1
415.951	531.53
416.328	507.8
416.705	528.59
417.082	528.59
417.46	529.72
417.837	544.18
418.214	531.53
418.591	556.84
418.967	558.87
419.344	553.9
419.721	571.3
420.098	561.81
420.475	545.08
420.852	545.08
421.228	563.16
421.605	582.37
421.982	561.36
422.358	589.83
422.735	585.99
423.111	577.4
423.488	614.01
423.864	603.16
424.241	605.65
424.617	591.86
424.994	620.79
425.37	596.16
425.746	630.05
426.123	626.89
426.499	647.23
426.875	630.73
427.251	639.09
427.627	642.71
428.003	660.11
428.379	655.82
428.756	658.53
429.132	665.99
429.507	671.41
429.883	684.29
430.259	667.79
430.635	674.57
431.011	701.69
431.387	702.82
431.763	712.31
432.138	712.09
432.514	726.77
432.89	724.29
433.265	746.89
433.641	739.2
434.016	752.99
434.392	756.6
434.767	765.87
435.143	752.08
435.518	772.65
435.894	778.98
436.269	804.29
436.644	772.65
437.02	787.11
437.395	824.17
437.77	787.34
438.145	815.13
438.52	853.55
438.895	824.63
439.271	857.39
439.646	847
440.021	870.95
440.395	865.75
440.77	855.36
441.145	871.86
441.52	875.7
441.895	890.39
442.27	894
442.645	883.61
443.019	905.53
443.394	905.98
443.769	914.34
444.143	912.31
444.518	926.09
444.892	933.55
445.267	943.04
445.641	930.84
446.016	939.2
446.39	936.26
446.764	944.4
447.139	968.58
447.513	966.77
447.887	975.81
448.262	968.12
448.636	980.78
449.01	996.15
449.384	985.98
449.758	986.43
450.132	1033.21
450.506	1011.74
450.88	1024.17
451.254	1046.77
451.628	1026.88
452.002	1071.4
452.376	1053.77
452.75	1067.1
453.123	1063.94
453.497	1088.57
453.871	1114.11
454.244	1143.03
454.618	1144.62
454.992	1133.32
455.365	1143.71
455.739	1178.29
456.112	1167.89
456.486	1180.32
456.859	1208.8
457.232	1222.81
457.606	1227.55
457.979	1249.25
458.352	1271.17
458.725	1299.64
459.099	1297.61
459.472	1305.06
459.845	1327.89
460.218	1335.12
460.591	1353.65
460.964	1377.83
461.337	1374.89
461.71	1409.47
462.083	1455.57
462.456	1413.99
462.829	1442.46
463.201	1460.77
463.574	1478.39
463.947	1501.44
464.32	1549.8
464.692	1584.38
465.065	1558.39
465.438	1593.19
465.81	1603.59
466.183	1647.43
466.555	1669.8
466.928	1694.88
467.3	1681.55
467.672	1730.36
468.045	1777.59
468.417	1800.87
468.789	1797.93
469.161	1826.86
469.534	1867.76
469.906	1921.77
470.278	1931.94
470.65	1975.56
471.022	2020.98
471.394	2061.43
471.766	2093.97
472.138	2100.75
472.51	2166.51
472.882	2223.68
473.253	2253.74
473.625	2312.5
473.997	2405.37
474.369	2406.05
474.74	2399.5
475.112	2513.62
475.484	2563.11
475.855	2629.32
476.227	2652.37
476.598	2721.98
476.97	2816.21
477.341	2894.63
477.713	2963.33
478.084	3022.53
478.455	3107.28
478.827	3180.04
479.198	3288.97
479.569	3343.66
479.94	3451.9
480.311	3540.71
480.682	3625.68
481.053	3781.84
481.424	3817.31
481.795	3940.93
482.166	4055.27
482.537	4152.45
482.908	4256.17
483.279	4366
483.65	4478.09
484.021	4659.33
484.391	4745.43
484.762	4825.65
485.133	4921.47
485.503	5069.03
485.874	5242.59
486.244	5290.72
486.615	5484.62
486.985	5589.02
487.356	5758.51
487.726	5855
488.097	6127.76
488.467	6193.98
488.837	6342.67
489.207	6494.08
489.578	6644.13
489.948	6833.73
490.318	6988.08
490.688	7004.12
491.058	7207.06
491.428	7389.2
491.798	7609.31
492.168	7782.63
492.538	7854.27
492.908	8070.08
493.278	8203.41
493.648	8317.31
494.017	8515.95
494.387	8593.01
494.757	8772.66
495.126	8971.08
495.496	9023.28
495.866	9162.71
496.235	9289.04
496.605	9539.2
496.974	9621.23
497.344	9791.4
497.713	9885.63
498.082	9949.58
498.452	10192.51
498.821	10295.34
499.19	10363.81
499.559	10510.92
499.928	10665.27
500.298	10776.68
500.667	10947.3
501.036	10914.08
501.405	11089.21
501.774	11211.92
502.143	11350.68
502.512	11407.4
502.88	11525.13
503.249	11589.99
503.618	11719.71
503.987	11899.59
504.356	11930.55
504.724	12056.65
505.093	12078.34
505.462	12255.06
505.83	12293.93
506.199	12409.18
506.567	12552
506.936	12588.16
507.304	12756.29
507.672	12762.62
508.041	12888.71
508.409	13084.42
508.777	13114.25
509.145	13160.35
509.514	13222.27
509.882	13384.07
510.25	13256.84
510.618	13412.32
510.986	13419.55
511.354	13570.73
511.722	13666.77
512.09	13822.48
512.458	13853.21
512.826	13921.46
513.193	13935.01
513.561	13979.53
513.929	14140.43
514.297	14177.04
514.664	14202.35
515.032	14248.45
515.4	14356.92
515.767	14429.69
516.135	14450.03
516.502	14367.32
516.869	14666.52
517.237	14585.17
517.604	14499.75
517.972	14702.68
518.339	14730.47
518.706	14823.13
519.073	14795.11
519.44	14793.75
519.808	14989.68
520.175	14952.39
520.542	15091.82
520.909	15165.27
521.276	15043.91
521.643	15128.2
522.009	15211.82
522.376	15352.38
522.743	15376.56
523.11	15398.25
523.477	15433.05
523.843	15586.27
524.21	15623.33
524.577	15681.64
524.943	15648.19
525.31	15769.77
525.676	15722.31
526.043	15830.33
526.409	15916.88
526.776	15970.22
527.142	15969.31
527.508	15909.43
527.874	16000.5
528.241	16034.62
528.607	15977
528.973	16078.69
529.339	15979.25
529.705	16150.55
530.071	16208.63
530.437	16196.2
530.803	16287.04
531.169	16254.5
531.535	16186.26
531.901	16100.16
532.267	16179.25
532.632	16167.05
532.998	16185.13
533.364	16143.09
533.73	16246.14
534.095	16292.24
534.461	16174.96
534.826	16315.07
535.192	16197.1
535.557	16257.21
535.923	16177.89
536.288	16199.36
536.653	16105.81
537.019	16108.74
537.384	16093.6
537.749	16163.88
538.114	16123.43
538.479	16128.18
538.845	16068.52
539.21	15976.54
539.575	16024.23
539.94	16015.41
540.305	16064.22
540.67	15908.3
541.034	15834.4
541.399	15909.88
541.764	15898.58
542.129	15824.46
542.494	15851.35
542.858	15787.17
543.223	15738.81
543.587	15762.99
543.952	15675.53
544.316	15750.33
544.681	15611.13
545.045	15617
545.41	15628.3
545.774	15614.07
546.138	15526.39
546.503	15470.34
546.867	15458.36
547.231	15572.26
547.595	15419.95
547.959	15444.13
548.324	15386.05
548.688	15360.06
549.052	15351.02
549.416	15275.09
549.779	15284.13
550.143	15241.87
550.507	15297.69
550.871	15202.78
551.235	15198.26
551.599	15205.04
551.962	15132.05
552.326	15210.46
552.689	15171.82
553.053	15064.02
553.417	15023.12
553.78	15144.93
554.143	15007.53
554.507	14982.22
554.87	15093.4
555.234	15062.22
555.597	15014.76
555.96	14966.85
556.323	14968.43
556.686	14918.49
557.05	14977.02
557.413	14946.97
557.776	14945.84
558.139	14941.99
558.502	14894.31
558.865	14870.81
559.228	14978.6
559.59	14907.87
559.953	14830.36
560.316	14964.82
560.679	15006.17
561.041	14926.18
561.404	15067.19
561.767	15131.82
562.129	14938.6
562.492	15083.91
562.854	15042.1
563.217	14973.86
563.579	15033.52
563.941	15053.86
564.304	14956.01
564.666	15226.51
565.028	15157.13
565.39	15132.72
565.753	15125.49
566.115	15167.98
566.477	15239.39
566.839	15143.8
567.201	15259.95
567.563	15122.1
567.925	15327.97
568.287	15235.32
568.648	15339.27
569.01	15333.17
569.372	15423.34
569.734	15326.84
570.095	15359.16
570.457	15320.52
570.819	15432.38
571.18	15380.17
571.542	15394.41
571.903	15420.4
572.265	15464.47
572.626	15519.83
572.987	15492.04
573.349	15508.08
573.71	15525.48
574.071	15537.01
574.432	15624.24
574.794	15549.44
575.155	15636.67
575.516	15448.65
575.877	15548.98
576.238	15562.09
576.599	15602.32
576.96	15505.6
577.32	15564.12
577.681	15697.23
578.042	15683.67
578.403	15642.54
578.763	15582.43
579.124	15586.95
579.485	15677.34
579.845	15672.37
580.206	15624.01
580.566	15587.4
580.927	15705.36
581.287	15685.93
581.648	15614.97
582.008	15727.51
582.368	15669.43
582.728	15665.82
583.089	15504.24
583.449	15622.2
583.809	15537.46
584.169	15579.94
584.529	15503.11
584.889	15605.71
585.249	15528.19
585.609	15490.45
585.969	15565.48
586.329	15544.01
586.688	15545.59
587.048	15533.39
587.408	15502.66
587.768	15482.77
588.127	15419.5
588.487	15469.66
588.846	15529.78
589.206	15497.69
589.565	15471.92
589.925	15552.37
590.284	15450.46
590.643	15332.04
591.003	15484.13
591.362	15535.42
591.721	15452.04
592.08	15450.46
592.44	15471.7
592.799	15366.16
593.158	15345.15
593.517	15320.52
593.876	15398.71
594.235	15379.27
594.593	15376.56
594.952	15398.71
595.311	15270.57
595.67	15416.78
596.029	15395.09
596.387	15546.05
596.746	15390.57
597.104	15312.83
597.463	15334.98
597.822	15383.79
598.18	15353.73
598.538	15373.62
598.897	15391.02
599.255	15254.08
599.613	15450.91
599.972	15269.22
600.33	15317.35
600.688	15272.15
601.046	15278.03
601.404	15327.52
601.762	15296.11
602.12	15367.75
602.478	15348.09
602.836	15284.36
603.194	15318.48
603.552	15327.75
603.91	15261.76
604.268	15346.5
604.625	15273.51
604.983	15344.92
605.341	15298.37
605.698	15353.96
606.056	15327.97
606.413	15370.91
606.771	15493.62
607.128	15503.34
607.485	15374.3
607.843	15435.09
608.2	15376.11
608.557	15456.78
608.914	15380.4
609.272	15392.15
609.629	15438.93
609.986	15496.1
610.343	15417.46
610.7	15486.84
611.057	15475.09
611.414	15544.24
611.771	15514.41
612.127	15558.7
612.484	15450.68
612.841	15580.85
613.198	15447.74
613.554	15566.84
613.911	15667.4
614.267	15576.55
614.624	15536.1
614.98	15589.43
615.337	15724.8
615.693	15626.27
616.05	15649.32
616.406	15680.05
616.762	15649.09
617.118	15667.85
617.475	15593.28
617.831	15681.18
618.187	15764.35
618.543	15745.36
618.899	15780.39
619.255	15737.45
619.611	15681.18
619.967	15772.48
620.323	15779.26
620.678	15817.23
621.034	15765.02
621.39	15678.02
621.746	15763.22
622.101	15829.43
622.457	15755.31
622.812	15804.34
623.168	15851.57
623.523	15822.42
623.879	15812.03
624.234	15780.16
624.589	15771.35
624.945	15736.32
625.3	15756.21
625.655	15795.08
626.01	15815.19
626.365	15776.32
626.72	15774.51
627.075	15782.65
627.43	15769.32
627.785	15779.49
628.14	15756.44
628.495	15795.53
628.85	15855.42
629.205	15748.98
629.559	15801.63
629.914	15692.71
630.269	15738.13
630.623	15672.6
630.978	15579.49
631.332	15619.94
631.687	15715.08
632.041	15627.4
632.396	15673.05
632.75	15550.79
633.104	15626.04
633.459	15526.39
633.813	15479.83
634.167	15516.44
634.521	15495.65
634.875	15520.28
635.229	15435.99
635.583	15433.96
635.937	15395.99
636.291	15410
636.645	15418.14
636.999	15350.12
637.352	15421.53
637.706	15340.4
638.06	15349.89
638.413	15314.87
638.767	15259.27
639.121	15240.74
639.474	15243.68
639.828	15236.9
640.181	15235.32
640.534	15237.58
640.888	15127.53
641.241	15116.9
641.594	15127.98
641.947	15219.05
642.301	15066.96
642.654	15100.18
643.007	15188.54
643.36	15122.78
643.713	15096.79
644.066	15129.56
644.419	15082.78
644.771	15040.97
645.124	14836.69
645.477	14803.47
645.83	14667.65
646.182	14627.65
646.535	14691.15
646.888	14732.28
647.24	14511.27
647.593	14639.63
647.945	14645.28
648.298	14578.16
648.65	14561.67
649.002	14510.59
649.355	14542.91
649.707	14613.42
650.059	14668.1
650.411	14814.09
650.763	14803.24
651.115	15023.8
651.467	14911.26
651.819	14903.58
652.171	14955.1
652.523	14893.18
652.875	14837.82
653.227	14794.43
653.578	14967.98
653.93	15003.91
654.282	14895.89
654.633	14789.91
654.985	14952.39
655.337	14910.13
655.688	14943.8
656.039	15002.78
656.391	14795.11
656.742	14839.62
657.094	14911.03
657.445	14866.97
657.796	14852.5
658.147	14864.48
658.498	14902.9
658.849	14943.58
659.2	14811.15
659.551	14884.37
659.902	14961.2
660.253	14930.92
660.604	15001.2
660.955	14953.75
661.306	14990.35
661.656	14992.61
662.007	14911.26
662.358	14958.49
662.708	14984.7
663.059	15015.21
663.409	14900.41
663.76	14983.12
664.11	14963.69
664.461	14979.06
664.811	14950.36
665.161	14993.29
665.511	14889.11
665.862	14959.85
666.212	14939.28
666.562	15098.37
666.912	14940.86
667.262	15012.27
667.612	14974.31
667.962	14989.22
668.312	14888.66
668.662	14988.55
669.011	14954.65
669.361	14900.19
669.711	14908.77
670.06	14962.78
670.41	14908.1
670.76	15008.21
671.109	14999.39
671.459	14977.7
671.808	14858.15
672.157	14890.24
672.507	14828.55
672.856	14805.5
673.205	14846.86
673.554	14855.44
673.904	14810.02
674.253	14925.95
674.602	14779.06
674.951	14594.43
675.3	14557.82
675.649	14784.94
675.998	14650.93
676.346	14724.15
676.695	14762.56
677.044	14679.85
677.393	14752.17
677.741	14761.89
678.09	14684.83
678.438	14636.69
678.787	14685.96
679.135	14629.91
679.484	14567.54
679.832	14562.34
680.181	14473.08
680.529	14486.41
680.877	14459.52
681.225	14411.84
681.573	14528.22
681.922	14408
682.27	14342.01
682.618	14459.52
682.966	14365.74
683.314	14348.34
683.661	14325.29
684.009	14191.96
684.357	14172.75
684.705	14229.02
685.053	14191.51
685.4	14170.49
685.748	14111.06
686.095	14119.87
686.443	14048.23
686.79	13972.53
687.138	14042.81
687.485	14016.82
687.832	13936.6
688.18	13996.48
688.527	13861.34
688.874	13819.31
689.221	13776.83
689.568	13759.88
689.915	13765.53
690.262	13707.45
690.609	13640.33
690.956	13570.05
691.303	13590.39
691.65	13587.45
691.997	13516.04
692.344	13434.46
692.69	13433.56
693.037	13420.45
693.383	13297.52
693.73	13376.84
694.077	13257.97
694.423	13184.3
694.769	13203.73
695.116	13082.16
695.462	13092.55
695.808	13072.66
696.155	13034.93
696.501	12958.32
696.847	12932.33
697.193	12804.2
697.539	12888.04
697.885	12727.82
698.231	12754.93
698.577	12690.75
698.923	12628.16
699.269	12572.56
699.614	12572.34
699.96	12465.9
700.306	12453.47
700.651	12459.35
700.997	12394.94
701.342	12286.7
701.688	12352.68
702.033	12246.47
702.379	12240.82
702.724	12145.46
703.069	12147.27
703.415	12081.28
703.76	12068.85
704.105	12024.33
704.45	11975.29
704.795	11902.07
705.14	11896.2
705.485	11776.43
705.83	11852.58
706.175	11780.5
706.52	11747.05
706.865	11674.74
707.209	11690.33
707.554	11658.24
707.899	11715.86
708.243	11564.23
708.588	11518.13
708.932	11479.26
709.277	11472.93
709.621	11470.45
709.966	11402.65
710.31	11460.96
710.654	11324.91
710.998	11291.24
711.342	11263.9
711.687	11227.06
712.031	11176.67
712.375	11139.83
712.719	11193.84
713.063	11205.37
713.407	11204.69
713.75	11059.84
714.094	11117.24
714.438	11052.83
714.782	11027.07
715.125	11049.67
715.469	11105.48
715.812	11006.05
716.156	10910.24
716.499	10862.1
716.843	10954.53
717.186	10829.11
717.53	10943
717.873	10982.78
718.216	10822.1
718.559	10794.31
718.902	10815.32
719.246	10793.4
719.589	10800.63
719.932	10729.68
720.275	10714.76
720.617	10743.69
720.96	10670.92
721.303	10698.04
721.646	10685.61
721.989	10629.57
722.331	10717.92
722.674	10709.34
723.016	10613.52
723.359	10657.36
723.701	10637.02
724.044	10590.02
724.386	10531.49
724.729	10602.67
725.071	10616.46
725.413	10539.4
725.755	10605.38
726.097	10526.07
726.439	10478.83
726.782	10458.95
727.124	10540.98
727.465	10481.55
727.807	10495.78
728.149	10444.71
728.491	10439.29
728.833	10504.82
729.175	10468.89
729.516	10468.89
729.858	10445.62
730.199	10465.73
730.541	10432.28
730.882	10415.79
731.224	10461.43
731.565	10417.14
731.906	10456.69
732.248	10408.1
732.589	10431.83
732.93	10355.9
733.271	10382.79
733.612	10397.25
733.953	10405.84
734.294	10349.8
734.635	10356.13
734.976	10413.07
735.317	10344.15
735.658	10331.27
735.999	10442.23
736.339	10376.46
736.68	10326.07
737.021	10367.65
737.361	10368.78
737.702	10380.53
738.042	10324.49
738.383	10445.16
738.723	10467.08
739.063	10408.33
739.404	10446.75
739.744	10407.65
740.084	10401.1
740.424	10447.88
740.764	10428.44
741.104	10578.27
741.444	10511.38
741.784	10522.9
742.124	10525.16
742.464	10509.34
742.804	10552.05
743.143	10613.29
743.483	10585.5
743.823	10637.93
744.162	10583.69
744.502	10746.17
744.841	10682.45
745.181	10793.85
745.52	10772.16
745.86	10846.96
746.199	10879.28
746.538	10910.91
746.877	10931.25
747.216	10999.05
747.556	11025.03
747.895	11077.24
748.234	11142.09
748.573	11139.83
748.911	11232.26
749.25	11279.94
749.589	11280.62
749.928	11492.14
750.267	11579.37
750.605	11542.99
750.944	11663.44
751.283	11685.36
751.621	11869.53
751.96	11958.12
752.298	12034.95
752.636	12201.05
752.975	12169.19
753.313	12303.65
753.651	12510.65
753.989	12463.64
754.327	12696.18
754.666	12718.55
755.004	12951.99
755.342	13088.26
755.679	13172.1
756.017	13237.41
756.355	13506.33
756.693	13517.62
757.031	13800.33
757.368	13846.2
757.706	14005.97
758.044	14150.15
758.381	14379.98
758.719	14502.68
759.056	14710.14
759.394	14858.61
759.731	14924.82
760.068	15196
760.405	15347.63
760.743	15405.71
761.08	15669.88
761.417	15746.04
761.754	15949.88
762.091	16113.71
762.428	16311.45
762.765	16316.42
763.102	16598.9
763.438	16772.91
763.775	16940.81
764.112	17082.5
764.449	17254.25
764.785	17413.12
765.122	17476.16
765.458	17612.88
765.795	17825.31
766.131	17970.84
766.467	18137.16
766.804	18349.14
767.14	18343.71
767.476	18493.77
767.812	18651.05
768.148	18771.27
768.485	18840.65
768.821	18951.38
769.157	19045.62
769.492	19227.31
769.828	19358.83
770.164	19373.29
770.5	19459.84
770.836	19617.35
771.171	19655.09
771.507	19763.79
771.842	19743.45
772.178	19906.16
772.513	19953.16
772.849	20085.36
773.184	20074.74
773.519	20263.44
773.855	20276.32
774.19	20262.31
774.525	20390.66
774.86	20421.4
775.195	20499.59
775.53	20602.18
775.865	20551.79
776.2	20558.12
776.535	20540.72
776.87	20569.42
777.205	20679.7
777.539	20558.34
777.874	20755.17
778.209	20555.18
778.543	20733.48
778.878	20632.24
779.212	20721.05
779.547	20724.44
779.881	20899.58
780.215	20716.31
780.55	20822.74
780.884	20730.32
781.218	20678.79
781.552	20858.9
781.886	20720.37
782.22	20626.59
782.554	20703.42
782.888	20566.48
783.222	20559.93
783.556	20540.49
783.889	20555.18
784.223	20421.85
784.557	20509.53
784.89	20499.14
785.224	20467.05
785.557	20373.72
785.891	20497.55
786.224	20444.45
786.558	20399.25
786.891	20257.33
787.224	20257.11
787.557	20200.16
787.891	20173.04
788.224	20219.6
788.557	20161.52
788.89	20198.13
789.223	20162.87
789.556	20079.49
789.888	20148.86
790.221	20039.26
790.554	19975.99
790.887	19918.13
791.219	19837.01
791.552	19837.23
791.884	19789.78
792.217	19827.97
792.549	19659.38
792.882	19646.05
793.214	19585.94
793.546	19649.89
793.879	19521.31
794.211	19358.15
794.543	19627.52
794.875	19444.02
795.207	19502.33
795.539	19349.79
795.871	19465.72
796.203	19183.69
796.535	19103.69
796.867	19141.66
797.198	19091.26
797.53	19143.47
797.862	19058.72
798.193	18967.2
798.525	18946.86
798.856	19004.03
799.188	18860.31
799.519	18660.09
799.85	18581.22
800.182	18605.85
800.513	18577.15
800.844	18487.44
801.175	18633.42
801.506	18517.27
801.837	18440.66
802.168	18398.85
802.499	18525.85
802.83	18273.43
803.161	18261.91
803.491	18292.64
803.822	18239.08
804.153	18152.98
804.483	18075.02
804.814	18087.45
805.145	17995.47
805.475	17952.08
805.805	17996.15
806.136	17943.27
806.466	17882.03
806.796	17849.04
807.126	17752.77
807.457	17686.55
807.787	17750.96
808.117	17622.6
808.447	17591.19
808.777	17586.44
809.107	17532.21
809.436	17360.24
809.766	17455.15
810.096	17387.81
810.426	17343.51
810.755	17215.15
811.085	17357.98
811.414	17156.4
811.744	17140.35
812.073	17149.39
812.403	17167.02
812.732	16964.77
813.061	17052.9
813.39	16940.59
813.719	16942.17
814.049	17012.45
814.378	16963.18
814.707	16926.57
815.036	16919.12
815.365	16791.21
815.693	16697.65
816.022	16727.03
816.351	16666.02
816.68	16605.91
817.008	16738.11
817.337	16460.6
817.665	16459.47
817.994	16472.12
818.322	16426.02
818.651	16372.24
818.979	16343.99
819.307	16432.58
819.636	16409.07
819.964	16303.77
820.292	16376.98
820.62	16368.17
820.948	16206.37
821.276	16213.83
821.604	16233.03
821.932	16222.41
822.259	16262.19
822.587	16243.65
822.915	16223.32
823.243	16301.73
823.57	16247.04
823.898	16232.58
824.225	16115.3
824.553	16107.61
824.88	16152.13
825.207	16219.25
825.535	16207.5
825.862	16180.61
826.189	16177.67
826.516	16237.78
826.843	16331.34
827.17	16221.28
827.497	16332.47
827.824	16259.02
828.151	16349.41
828.478	16284.56
828.805	16328.4
829.131	16319.13
829.458	16252.02
829.785	16299.7
830.111	16177.89
830.438	16288.85
830.764	16225.12
831.09	16242.75
831.417	16198.91
831.743	16286.59
832.069	16178.8
832.395	16219.93
832.722	16275.52
833.048	16170.21
833.374	16143.54
833.7	16047.28
834.026	16144.67
834.351	16112.13
834.677	16096.77
835.003	16109.2
835.329	16021.29
835.654	16030.1
835.98	15991.91
836.306	16011.57
836.631	15992.59
836.956	16091.34
837.282	16020.84
837.607	15983.32
837.932	15950.56
838.258	15925.47
838.583	15805.02
838.908	15738.58
839.233	15800.28
839.558	15748.75
839.883	15702.2
840.208	15708.75
840.533	15702.43
840.858	15656.78
841.182	15607.74
841.507	15609.55
841.832	15512.37
842.156	15552.6
842.481	15484.58
842.805	15473.51
843.13	15370.46
843.454	15395.77
843.778	15408.65
844.103	15319.61
844.427	15282.32
844.751	15272.83
845.075	15174.76
845.399	15155.1
845.723	15133.18
846.047	15123.91
846.371	14995.55
846.695	14985.83
847.019	14779.29
847.343	14874.2
847.666	14760.76
847.99	14690.25
848.313	14644.6
848.637	14598.05
848.96	14531.61
849.284	14557.15
849.607	14406.87
849.931	14424.72
850.254	14284.16
850.577	14158.29
850.9	14169.13
851.223	14144.73
851.546	13996.26
851.869	13933.21
852.192	13958.97
852.515	13824.28
852.838	13818.18
853.161	13766.43
853.483	13762.14
853.806	13745.87
854.129	13715.81
854.451	13685.08
854.774	13536.61
855.096	13583.16
855.419	13448.93
855.741	13406.44
856.063	13434.92
856.385	13412.09
856.708	13373
857.03	13302.26
857.352	13258.2
857.674	13195.37
857.996	13214.58
858.318	13043.74
858.64	13182.49
858.961	13111.31
859.283	13072.44
859.605	12939.79
859.926	13041.48
860.248	12911.54
860.57	12925.32
860.891	12916.51
861.212	12761.94
861.534	12781.6
861.855	12698.21
862.176	12786.12
862.498	12721.49
862.819	12767.36
863.14	12699.12
863.461	12632.9
863.782	12526.46
864.103	12606.69
864.424	12565.56
864.745	12659.34
865.065	12514.26
865.386	12490.99
865.707	12489.63
866.027	12468.84
866.348	12449.86
866.668	12428.39
866.989	12378.9
867.309	12384.55
867.63	12362.4
867.95	12348.62
868.27	12298.67
868.59	12330.76
868.91	12242.63
869.23	12282.63
869.55	12189.75
869.87	12235.85
870.19	12233.36
870.51	12175.74
870.83	12186.13
871.15	12118.57
871.469	12141.39
871.789	12209.18
872.109	12075.63
872.428	11991.34
872.748	12042.64
873.067	12062.97
873.386	11979.13
873.706	11991.56
874.025	11891.9
874.344	11880.38
874.663	11912.24
874.982	11889.65
875.301	11863.88
875.62	11829.53
875.939	11772.36
876.258	11804.45
876.577	11765.35
876.896	11769.42
877.214	11660.5
877.533	11659.14
877.852	11666.37
878.17	11693.04
878.489	11677.22
878.807	11693.49
879.125	11588.64
879.444	11617.56
879.762	11570.33
880.08	11563.78
880.398	11515.42
880.716	11566.04
881.034	11520.16
881.352	11500.73
881.67	11469.54
881.988	11403.78
882.306	11414.4
882.624	11352.71
882.941	11351.58
883.259	11333.05
883.577	11261.41
883.894	11317.23
884.212	11261.64
884.529	11282.66
884.846	11203.56
885.164	11195.43
885.481	11071.14
885.798	11112.72
886.115	11079.27
886.432	11051.7
886.75	11059.16
887.067	11064.81
887.383	11025.49
887.7	11011.25
888.017	10921.31
888.334	10950.23
888.651	10896
888.967	10853.51
889.284	10809.45
889.6	10848.54
889.917	10696.23
890.233	10684.7
890.55	10679.73
890.866	10697.36
891.182	10628.66
891.498	10564.48
891.815	10558.38
892.131	10557.02
892.447	10525.61
892.763	10440.19
893.079	10397.25
893.395	10353.41
893.71	10418.27
894.026	10347.54
894.342	10334.43
894.657	10250.37
894.973	10176.92
895.289	10237.03
895.604	10194.32
895.92	10168.56
896.235	10052.63
896.55	10117.49
896.865	10060.09
897.181	10008.56
897.496	9953.65
897.811	9972.18
898.126	9963.82
898.441	9878.4
898.756	9839.76
899.071	9812.64
899.386	9856.7
899.7	9698.74
900.015	9692.87
900.33	9585.98
900.644	9605.64
900.959	9593.21
901.273	9545.75
901.588	9536.49
901.902	9449.26
902.216	9415.36
902.531	9434.12
902.845	9419.43
903.159	9298.07
903.473	9273.22
903.787	9204.52
904.101	9215.14
904.415	9204.29
904.729	9188.02
905.042	9147.57
905.356	9104.86
905.67	9070.28
905.984	9033.9
906.297	9040
906.611	8960.91
906.924	8938.31
907.237	8969.95
907.551	8892.66
907.864	8769.95
908.177	8776.51
908.491	8737.64
908.804	8784.87
909.117	8644.76
909.43	8647.02
909.743	8601.14
910.056	8564.76
910.368	8481.37
910.681	8529.06
910.994	8509.17
911.307	8463.52
911.619	8399.34
911.932	8437.31
912.244	8297.88
912.557	8407.48
912.869	8257.42
913.181	8238.89
913.494	8175.39
913.806	8139.46
914.118	8094.49
914.43	8035.74
914.742	8051.78
915.054	7999.13
915.366	8022.18
915.678	8027.15
915.99	7871.45
916.302	7851.56
916.613	7819.47
916.925	7814.27
917.236	7784.22
917.548	7711.9
917.859	7752.8
918.171	7683.88
918.482	7611.34
918.794	7614.96
919.105	7611.57
919.416	7545.8
919.727	7521.85
920.038	7499.48
920.349	7514.84
920.66	7482.98
920.971	7401.4
921.282	7426.49
921.593	7338.35
921.903	7308.97
922.214	7272.37
922.525	7269.43
922.835	7201.63
923.146	7239.6
923.456	7182.2
923.767	7156.44
924.077	7144.01
924.387	7059.04
924.697	7050.9
925.008	7032.37
925.318	6988.76
925.628	7030.11
925.938	6951.92
926.248	6888.19
926.558	6858.82
926.867	6828.08
927.177	6856.78
927.487	6818.14
927.796	6759.84
928.106	6761.87
928.416	6724.13
928.725	6700.4
929.034	6615.21
929.344	6615.43
929.653	6607.3
929.962	6603.68
930.271	6598.03
930.581	6540.63
930.89	6487.08
931.199	6462.67
931.508	6413.86
931.817	6424.03
932.125	6462.67
932.434	6405.95
932.743	6316.91
933.051	6281.43
933.36	6257.25
933.669	6272.17
933.977	6176.57
934.286	6210.7
934.594	6151.04
934.902	6112.62
935.21	6082.79
935.519	6106.52
935.827	6078.5
936.135	6002.12
936.443	5970.25
936.751	5984.49
937.059	6009.35
937.367	5928.45
937.674	5920.99
937.982	5881.44
938.29	5890.93
938.597	5810.03
938.905	5758.73
939.213	5794.21
939.52	5769.58
939.827	5754.21
940.135	5688.23
940.442	5651.62
940.749	5672.41
941.056	5658.85
941.363	5613.2
941.67	5587.21
941.977	5594.22
942.284	5561.9
942.591	5524.84
942.898	5451.62
943.205	5530.26
943.511	5461.34
943.818	5444.62
944.125	5388.35
944.431	5391.96
944.738	5374.11
945.044	5339.76
945.35	5302.02
945.657	5250.95
945.963	5278.75
946.269	5206.2
946.575	5168.47
946.881	5158.3
947.187	5169.82
947.493	5146.77
947.799	5145.42
948.105	5104.29
948.41	5026.77
948.716	5098.86
949.022	5029.49
949.327	5045.53
949.633	4980.67
949.938	5017.51
950.244	4925.53
950.549	4894.8
950.854	4900
951.16	4886.21
951.465	4855.71
951.77	4818.42
952.075	4785.65
952.38	4810.74
952.685	4774.8
952.99	4760.34
953.294	4748.82
953.599	4739.78
953.904	4684.64
954.209	4642.38
954.513	4667.01
954.818	4624.3
955.122	4628.14
955.426	4603.06
955.731	4587.46
956.035	4553.11
956.339	4531.42
956.643	4535.49
956.948	4480.8
957.252	4443.51
957.556	4462.95
957.86	4419.11
958.163	4437.41
958.467	4427.02
958.771	4376.85
959.075	4392.67
959.378	4336.62
959.682	4340.01
959.985	4325.55
960.289	4279.22
960.592	4271.54
960.896	4286.91
961.199	4198.55
961.502	4234.03
961.805	4134.59
962.108	4166.23
962.411	4123.3
962.714	4131.66
963.017	4126.46
963.32	4145.22
963.623	4048.95
963.926	4088.49
964.228	4031.55
964.531	4047.37
964.833	4097.08
965.136	4003.52
965.438	4010.76
965.741	3983.41
966.043	3929.18
966.345	3907.71
966.648	3904.09
966.95	3903.41
967.252	3814.15
967.554	3855.73
967.856	3882.4
968.158	3822.06
968.46	3810.76
968.761	3792
969.063	3813.93
969.365	3784.32
969.666	3740.71
969.968	3732.35
970.269	3699.13
970.571	3695.06
970.872	3676.3
971.174	3654.16
971.475	3675.17
971.776	3659.35
972.077	3625.91
972.378	3624.33
972.679	3544.33
972.98	3593.82
973.281	3565.12
973.582	3582.52
973.883	3530.54
974.183	3518.34
974.484	3507.72
974.785	3475.18
975.085	3452.13
975.386	3484.44
975.686	3437.44
975.986	3411
976.287	3418.68
976.587	3375.74
976.887	3344.56
977.187	3360.15
977.487	3348.4
977.787	3343.2
978.087	3300.49
978.387	3268.18
978.687	3267.72
978.987	3259.59
979.286	3220.72
979.586	3260.27
979.885	3222.3
980.185	3161.96
980.484	3213.26
980.784	3173.26
981.083	3134.85
981.382	3144.79
981.682	3122.64
981.981	3138.91
982.28	3117.67
982.579	3092.59
982.878	3082.87
983.177	3082.87
983.475	3054.17
983.774	3042.19
984.073	3033.61
984.372	2966.04
984.67	2986.83
984.969	2978.92
985.267	3000.84
985.566	2941.86
985.864	2909.54
986.162	2901.18
986.461	2921.97
986.759	2917.23
987.057	2872.93
987.355	2859.15
987.653	2900.05
987.951	2894.85
988.249	2819.15
988.547	2804.23
988.844	2812.82
989.142	2791.81
989.44	2789.77
989.737	2782.09
990.035	2734.18
990.332	2769.88
990.63	2706.61
990.927	2732.37
991.224	2737.12
991.521	2692.15
991.819	2670.9
992.116	2696.44
992.413	2682.88
992.71	2657.57
993.006	2642.43
993.303	2620.74
993.6	2633.17
993.897	2606.73
994.193	2583.22
994.49	2581.19
994.787	2538.25
995.083	2547.97
995.379	2538.25
995.676	2480.4
995.972	2513.17
996.268	2485.15
996.565	2521.08
996.861	2485.15
997.157	2491.02
997.453	2460.29
997.749	2452.38
998.044	2415.54
998.34	2395.21
998.636	2382.1
998.932	2375.09
999.227	2371.48
999.523	2358.82
999.818	2347.52
1000.114	2351.82
1000.409	2298.48
1000.704	2302.55
1001	2306.62
1001.295	2285.15
1001.59	2274.98
1001.885	2279.95
1002.18	2263.23
1002.475	2232.5
1002.77	2232.72
1003.065	2188.66
1003.359	2191.37
1003.654	2187.75
1003.949	2139.17
1004.243	2161.77
1004.538	2147.98
1004.832	2129.45
1005.127	2118.83
1005.421	2086.74
1005.715	2093.07
1006.009	2071.37
1006.304	2067.53
1006.598	2052.39
1006.892	2045.16
1007.186	2058.27
1007.48	2008.77
1007.773	2027.08
1008.067	1992.96
1008.361	1987.08
1008.655	1979.17
1008.948	2005.16
1009.242	1958.83
1009.535	1975.78
1009.829	1944.14
1010.122	1924.03
1010.415	1910.47
1010.708	1910.02
1011.001	1887.65
1011.295	1892.85
1011.588	1881.32
1011.881	1857.14
1012.173	1819.63
1012.466	1837.93
1012.759	1836.8
1013.052	1826.63
1013.344	1812.62
1013.637	1765.84
1013.93	1768.1
1014.222	1767.88
1014.514	1751.38
1014.807	1757.48
1015.099	1744.38
1015.391	1739.4
1015.683	1714.32
1015.976	1693.08
1016.268	1683.36
1016.56	1686.07
1016.851	1655.11
1017.143	1654.21
1017.435	1646.98
1017.727	1635.9
1018.018	1619.41
1018.31	1600.88
1018.602	1616.92
1018.893	1590.71
1019.185	1578.5
1019.476	1578.28
1019.767	1572.18
1020.058	1530.14
1020.35	1564.72
1020.641	1534.21
1020.932	1537.37
1021.223	1541.67
1021.514	1509.35
1021.804	1494.66
1022.095	1471.16
1022.386	1480.65
1022.677	1465.06
1022.967	1476.13
1023.258	1466.87
1023.548	1452.63
1023.839	1415.57
1024.129	1415.57
1024.419	1402.24
1024.709	1397.72
1025	1413.08
1025.29	1385.29
1025.58	1361.79
1025.87	1371.73
1026.16	1366.08
1026.449	1353.42
1026.739	1328.11
1027.029	1308.68
1027.319	1324.05
1027.608	1307.78
1027.898	1291.96
1028.187	1324.73
1028.477	1255.8
1028.766	1313.43
1029.055	1270.49
1029.344	1234.11
1029.634	1223.03
1029.923	1247.44
1030.212	1229.59
1030.501	1221.22
1030.79	1232.98
1031.078	1193.2
1031.367	1193.2
1031.656	1215.35
1031.945	1169.25
1032.233	1195.01
1032.522	1166.54
1032.81	1161.11
1033.099	1162.02
1033.387	1157.72
1033.675	1146.42
1033.963	1136.93
1034.251	1138.74
1034.54	1121.34
1034.828	1102.58
1035.116	1137.16
1035.403	1094.9
1035.691	1101.23
1035.979	1068.23
1036.267	1066.88
1036.554	1077.27
1036.842	1051.96
1037.129	1051.96
1037.417	1055.81
1037.704	1014.45
1037.992	1038.4
1038.279	1030.72
1038.566	1011.74
1038.853	1011.74
1039.14	1011.74
