Data from hue_300_FLMS001491_00037.txt Node
Date: Tue Feb 07 15:50:39 GMT 2017
User: dcchb
Spectrometer: FLMS00149
Trigger mode: 0
Integration Time (sec): 2.000000E-2
Scans to average: 10
Electric dark correction enabled: true
Nonlinearity correction enabled: false
Boxcar width: 0
XAxis mode: Wavelengths
Number of Pixels in Spectrum: 2048
>>>>>Begin Spectral Data<<<<<
341.393	-15.47
341.776	-15.47
342.16	-15.47
342.543	-75.13
342.927	-62.7
343.31	-84.39
343.693	-70.61
344.077	-61.57
344.46	-62.92
344.843	-52.75
345.226	-38.06
345.61	-10.95
345.993	-1.91
346.376	5.78
346.759	16.17
347.142	21.82
347.525	27.25
347.908	72.67
348.291	57.75
348.674	77.19
349.057	104.53
349.44	116.51
349.823	135.72
350.206	156.28
350.588	173.46
350.971	207.35
351.354	215.94
351.737	222.72
352.119	243.06
352.502	231.53
352.884	258.2
353.267	254.58
353.65	295.94
354.032	296.39
354.414	311.08
354.797	321.25
355.179	307.24
355.562	298.88
355.944	299.33
356.326	343.39
356.709	315.6
357.091	335.94
357.473	334.58
357.855	341.59
358.238	328.25
358.62	328.71
359.002	338.42
359.384	330.51
359.766	337.97
360.148	327.12
360.53	333.9
360.912	343.17
361.294	331.87
361.676	345.88
362.057	336.39
362.439	304.75
362.821	317.63
363.203	304.53
363.584	314.47
363.966	319.44
364.348	318.76
364.729	320.34
365.111	299.1
365.493	313.57
365.874	308.37
366.256	311.98
366.637	310.4
367.019	307.24
367.4	314.47
367.781	292.77
368.163	330.97
368.544	314.47
368.925	317.86
369.306	314.7
369.688	309.72
370.069	287.13
370.45	317.63
370.831	292.32
371.212	295.71
371.593	299.78
371.974	307.92
372.355	310.4
372.736	325.99
373.117	311.76
373.498	295.94
373.879	290.74
374.26	322.38
374.641	299.33
375.021	315.83
375.402	344.07
375.783	325.54
376.163	327.58
376.544	324.19
376.925	303.17
377.305	313.79
377.686	322.6
378.066	302.49
378.447	311.31
378.827	309.27
379.208	327.8
379.588	328.03
379.968	350.4
380.349	306.11
380.729	334.13
381.109	304.53
381.489	338.2
381.87	327.58
382.25	331.64
382.63	319.21
383.01	320.57
383.39	342.27
383.77	321.7
384.15	324.41
384.53	350.17
384.91	332.55
385.29	341.81
385.67	334.13
386.049	345.43
386.429	322.83
386.809	358.54
387.189	337.29
387.568	347.91
387.948	332.55
388.328	344.75
388.707	367.35
389.087	374.35
389.466	358.08
389.846	367.8
390.225	354.02
390.605	351.53
390.984	346.56
391.363	372.55
391.743	373.9
392.122	364.86
392.501	349.5
392.881	359.89
393.26	371.87
393.639	371.64
394.018	358.54
394.397	374.35
394.776	388.14
395.155	372.77
395.534	376.39
395.913	387.91
396.292	368.03
396.671	390.17
397.05	387.24
397.429	392.89
397.808	391.53
398.186	400.79
398.565	368.7
398.944	391.98
399.323	386.78
399.701	386.33
400.08	408.25
400.458	404.18
400.837	418.87
401.215	406.67
401.594	379.78
401.972	405.31
402.351	403.96
402.729	400.12
403.107	429.95
403.486	428.59
403.864	426.33
404.242	421.81
404.62	411.87
404.999	441.7
405.377	443.96
405.755	443.73
406.133	444.64
406.511	451.87
406.889	463.39
407.267	451.87
407.645	475.82
408.023	439.21
408.401	474.92
408.779	452.09
409.156	480.34
409.534	488.7
409.912	499.77
410.29	498.42
410.667	475.82
411.045	499.77
411.422	512.66
411.8	512.2
412.178	535.93
412.555	519.21
412.933	543.62
413.31	577.51
413.687	560.34
414.065	557.4
414.442	566.44
414.819	587.68
415.197	596.72
415.574	580.68
415.951	607.34
416.328	629.26
416.705	614.12
417.082	621.58
417.46	630.84
417.837	640.56
418.214	627.91
418.591	649.83
418.967	645.08
419.344	676.04
419.721	681.69
420.098	689.83
420.475	695.02
420.852	708.36
421.228	725.53
421.605	715.81
421.982	723.5
422.358	758.07
422.735	765.76
423.111	739.09
423.488	770.95
423.864	782.03
424.241	791.97
424.617	826.55
424.994	795.36
425.37	806.89
425.746	820.9
426.123	840.78
426.499	826.09
426.875	845.98
427.251	845.53
427.627	899.99
428.003	861.57
428.379	888.47
428.756	893.89
429.132	916.04
429.507	915.13
429.883	908.8
430.259	885.98
430.635	943.61
431.011	948.8
431.387	956.94
431.763	980.44
432.138	988.8
432.514	976.15
432.89	993.32
433.265	1025.64
433.641	1007.78
434.016	1048.24
434.392	1055.47
434.767	1038.74
435.143	1075.81
435.518	1095.24
435.894	1092.08
436.269	1118.29
436.644	1140.21
437.02	1127.33
437.395	1158.51
437.77	1134.33
438.145	1152.87
438.52	1163.49
438.895	1175.92
439.271	1211.39
439.646	1191.28
440.021	1229.93
440.395	1219.08
440.77	1206.42
441.145	1219.98
441.52	1252.07
441.895	1238.74
442.27	1265.18
442.645	1245.97
443.019	1275.57
443.394	1260.88
443.769	1258.17
444.143	1288
444.518	1298.4
444.892	1279.19
445.267	1289.81
445.641	1291.62
446.016	1291.17
446.39	1300.43
446.764	1344.5
447.139	1310.15
447.513	1327.1
447.887	1328.91
448.262	1325.74
448.636	1318.74
449.01	1354.22
449.384	1354.89
449.758	1346.31
450.132	1351.5
450.506	1359.87
450.88	1398.51
451.254	1383.14
451.628	1399.41
452.002	1385.18
452.376	1403.03
452.75	1407.32
453.123	1405.74
453.497	1419.98
453.871	1427.21
454.244	1457.72
454.618	1442.8
454.992	1472.86
455.365	1475.12
455.739	1485.06
456.112	1500.65
456.486	1526.41
456.859	1516.47
457.232	1528
457.606	1550.82
457.979	1551.5
458.352	1540.2
458.725	1557.37
459.099	1595.11
459.472	1610.71
459.845	1591.05
460.218	1615
460.591	1622.46
460.964	1641.21
461.337	1671.04
461.71	1687.77
462.083	1681.66
462.456	1693.42
462.829	1711.72
463.201	1713.75
463.574	1709.91
463.947	1719.4
464.32	1748.33
464.692	1756.47
465.065	1780.42
465.438	1781.78
465.81	1813.64
466.183	1845.5
466.555	1835.79
466.928	1836.46
467.3	1845.05
467.672	1841.21
468.045	1878.95
468.417	1863.35
468.789	1891.38
469.161	1927.53
469.534	1941.54
469.906	1938.61
470.278	1982.45
470.65	1988.78
471.022	1989.45
471.394	2027.87
471.766	2090.02
472.138	2067.19
472.51	2103.57
472.882	2097.47
473.253	2148.55
473.625	2144.48
473.997	2169.56
474.369	2183.35
474.74	2193.97
475.112	2224.25
475.484	2241.65
475.855	2250.69
476.227	2264.25
476.598	2305.6
476.97	2370.46
477.341	2396
477.713	2402.55
478.084	2395.09
478.455	2464.7
478.827	2486.84
479.198	2535.2
479.569	2469.21
479.94	2530
480.311	2520.06
480.682	2584.01
481.053	2668.53
481.424	2664.69
481.795	2679.83
482.166	2733.16
482.537	2732.94
482.908	2738.59
483.279	2796.66
483.65	2805.7
484.021	2832.14
484.391	2849.77
484.762	2890.9
485.133	2896.1
485.503	2904.01
485.874	2954.17
486.244	3003.89
486.615	3039.37
486.985	3019.71
487.356	3101.29
487.726	3083.21
488.097	3152.13
488.467	3148.52
488.837	3211.57
489.207	3204.56
489.578	3231.45
489.948	3267.61
490.318	3331.79
490.688	3286.59
491.058	3336.76
491.428	3321.62
491.798	3362.98
492.168	3444.78
492.538	3434.61
492.908	3493.37
493.278	3558.9
493.648	3486.36
494.017	3531.11
494.387	3596.87
494.757	3612.24
495.126	3605.23
495.496	3595.51
495.866	3635.96
496.235	3635.06
496.605	3644.33
496.974	3660.82
497.344	3653.14
497.713	3686.36
498.082	3694.27
498.452	3750.99
498.821	3738.11
499.19	3725.9
499.559	3796.19
499.928	3848.39
500.298	3759.8
500.667	3849.29
501.036	3801.61
501.405	3855.39
501.774	3854.49
502.143	3894.71
502.512	3934.71
502.88	3936.29
503.249	3886.8
503.618	3941.49
503.987	3964.32
504.356	4006.58
504.724	3973.58
505.093	4037.76
505.462	4016.97
505.83	4045.44
506.199	4040.92
506.567	4031.66
506.936	4087.7
507.304	4105.56
507.672	4083.41
508.041	4115.05
508.409	4155.27
508.777	4131.54
509.145	4179
509.514	4188.94
509.882	4193.46
510.25	4194.59
510.618	4222.39
510.986	4214.03
511.354	4238.66
511.722	4261.94
512.09	4291.77
512.458	4301.71
512.826	4262.39
513.193	4313.69
513.561	4302.16
513.929	4377.19
514.297	4354.14
514.664	4385.1
515.032	4401.37
515.4	4387.13
515.767	4367.92
516.135	4421.25
516.502	4400.69
516.869	4447.02
517.237	4446.11
517.604	4385.1
517.972	4459.44
518.339	4474.59
518.706	4488.82
519.073	4474.59
519.44	4493.57
519.808	4524.75
520.175	4558.88
520.542	4544.64
520.909	4607.24
521.276	4552.78
521.643	4591.87
522.009	4631.64
522.376	4627.8
522.743	4691.53
523.11	4638.65
523.477	4721.13
523.843	4726.56
524.21	4770.4
524.577	4786.67
524.943	4787.12
525.31	4792.54
525.676	4816.72
526.043	4806.78
526.409	4857.63
526.776	4837.51
527.142	4906.66
527.508	4881.58
527.874	4984.85
528.241	4989.37
528.607	5000
528.973	4985.76
529.339	5071.63
529.705	5040.45
530.071	5110.28
530.437	5188.92
530.803	5119.54
531.169	5101.46
531.535	5141.69
531.901	5186.88
532.267	5228.01
532.632	5211.06
532.998	5203.83
533.364	5225.98
533.73	5245.64
534.095	5327.44
534.461	5332.64
534.826	5337.16
535.192	5428.91
535.557	5373.77
535.923	5385.07
536.288	5456.93
536.653	5482.24
537.019	5467.33
537.384	5478.18
537.749	5431.85
538.114	5512.75
538.479	5532.19
538.845	5496.71
539.21	5516.37
539.575	5558.85
539.94	5648.11
540.305	5623.71
540.67	5604.95
541.034	5662.8
541.399	5706.19
541.764	5708.9
542.129	5767.66
542.494	5802.69
542.858	5802.01
543.223	5826.41
543.587	5837.04
543.952	5895.34
544.316	5885.85
544.681	5851.05
545.045	5896.24
545.41	5959.52
545.774	5959.29
546.138	5976.02
546.503	5995.45
546.867	5999.52
547.231	6078.39
547.595	6046.3
547.959	6114.54
548.324	6134.66
548.688	6132.62
549.052	6180.3
549.416	6207.42
549.779	6150.7
550.143	6230.25
550.507	6231.83
550.871	6226.18
551.235	6205.39
551.599	6328.77
551.962	6284.71
552.326	6289.68
552.689	6367.19
553.053	6343.24
553.417	6353.18
553.78	6471.82
554.143	6394.08
554.507	6449.68
554.87	6432.27
555.234	6491.71
555.597	6464.14
555.96	6540.07
556.323	6524.25
556.686	6541.65
557.05	6563.12
557.413	6546.62
557.776	6623
558.139	6583.91
558.502	6623.91
558.865	6626.17
559.228	6673.62
559.59	6653.51
559.953	6743.9
560.316	6756.11
560.679	6818.7
561.041	6797.69
561.404	6878.14
561.767	6851.02
562.129	6816.22
562.492	6876.78
562.854	6892.15
563.217	6859.83
563.579	6905.93
563.941	6945.03
564.304	6926.27
564.666	7032.71
565.028	6979.6
565.39	7081.07
565.753	7055.53
566.115	7122.88
566.477	7102.99
566.839	7113.39
567.201	7126.72
567.563	7197.23
567.925	7263.21
568.287	7190.45
568.648	7260.5
569.01	7287.39
569.372	7316.77
569.734	7325.58
570.095	7338.92
570.457	7407.62
570.819	7457.33
571.18	7435.86
571.542	7584.56
571.903	7561.74
572.265	7618.68
572.626	7618.46
572.987	7688.06
573.349	7661.85
573.71	7774.84
574.071	7790.43
574.432	7873.82
574.794	7981.16
575.155	7999.46
575.516	7983.65
575.877	8039.24
576.238	8137.54
576.599	8178.67
576.96	8232.23
577.32	8375.05
577.681	8420.47
578.042	8525.78
578.403	8556.96
578.763	8704.98
579.124	8776.39
579.485	8890.29
579.845	8993.11
580.206	9100
580.566	9159.89
580.927	9269.94
581.287	9458.41
581.648	9560.78
582.008	9675.35
582.368	9844.61
582.728	9975.46
583.089	10115.57
583.449	10293.42
583.809	10470.36
584.169	10718.04
584.529	10817.92
584.889	11062.21
585.249	11155.09
585.609	11399.38
585.969	11647.73
586.329	11823.55
586.688	11914.39
587.048	12231.67
587.408	12406.58
587.768	12579.23
588.127	12816.74
588.487	13044.3
588.846	13402.71
589.206	13523.16
589.565	13788.47
589.925	14108.46
590.284	14322.91
590.643	14528.11
591.003	14882.22
591.362	15219.39
591.721	15355.43
592.08	15765.81
592.44	15969.88
592.799	16337.78
593.158	16560.37
593.517	16861.6
593.876	17100.69
594.235	17397.41
594.593	17717.18
594.952	18002.14
595.311	18269.25
595.67	18662.91
596.029	18963.7
596.387	19288.43
596.746	19641.42
597.104	19813.17
597.463	20116.66
597.822	20425.35
598.18	20676.65
598.538	20864.21
598.897	21407.25
599.255	21380.36
599.613	22039.32
599.972	22017.85
600.33	22486.32
600.688	22617.39
601.046	22954.33
601.404	23394.54
601.762	23520.64
602.12	23897.58
602.478	24132.6
602.836	24455.53
603.194	24530.33
603.552	24894.84
603.91	25027.72
604.268	25441.04
604.625	25482.17
604.983	25817.75
605.341	26006.22
605.698	26373.22
606.056	26659.77
606.413	26823.15
606.771	27101.34
607.128	27299.97
607.485	27377.26
607.843	27731.15
608.2	27983.8
608.557	28328.65
608.914	28315.09
609.272	28657.9
609.629	28904.68
609.986	29177.89
610.343	29353.71
610.7	29679.35
611.057	29656.97
611.414	29858.33
611.771	30020.81
612.127	30379.22
612.484	30449.95
612.841	30708.7
613.198	30825.53
613.554	31013.1
613.911	31265.97
614.267	31390.49
614.624	31485.63
614.98	31769.24
615.337	31941.66
615.693	32213.07
616.05	32173.07
616.406	32562.21
616.762	32531.02
617.118	32593.17
617.475	32710.23
617.831	33032.7
618.187	33167.16
618.543	33246.94
618.899	33525.35
619.255	33524.67
619.611	33552.69
619.967	33744.55
620.323	33954.71
620.678	34036.52
621.034	34106.35
621.39	34175.27
621.746	34148.61
622.101	34717.63
622.457	34551.99
622.812	34635.6
623.168	34844.41
623.523	34872.43
623.879	35125.53
624.234	34874.01
624.589	35104.29
624.945	35101.58
625.3	35224.06
625.655	35381.12
626.01	35423.6
626.365	35534.11
626.72	35501.34
627.075	35527.1
627.43	35560.77
627.785	35680.32
628.14	35613.65
628.495	35828.79
628.85	35849.13
629.205	35762.12
629.559	35985.85
629.914	35932.29
630.269	36072.85
630.623	35971.16
630.978	35846.42
631.332	36078.5
631.687	36061.78
632.041	36001.44
632.396	36194.66
632.75	36092.96
633.104	35996.92
633.459	36084.6
633.813	36007.77
634.167	36111.49
634.521	36144.04
634.875	36245.73
635.229	36114.66
635.583	36012.06
635.937	35997.37
636.291	36170.25
636.645	36222.45
636.999	36110.82
637.352	36216.58
637.706	35986.75
638.06	36296.12
638.413	36151.94
638.767	36130.93
639.121	36198.95
639.474	35986.98
639.828	36130.93
640.181	36169.8
640.534	36130.02
640.888	35987.66
641.241	35932.74
641.594	36052.51
641.947	36256.35
642.301	36066.98
642.654	36226.07
643.007	36189.23
643.36	36101.1
643.713	36090.03
644.066	36136.35
644.419	35953.08
644.771	35733.65
645.124	35461.79
645.477	35295.02
645.83	35252.76
646.182	35050.73
646.535	35009.15
646.888	35076.04
647.24	34963.5
647.593	35024.52
647.945	35129.6
648.298	34943.39
648.65	34845.54
649.002	34895.03
649.355	34932.09
649.707	34923.95
650.059	35040.34
650.411	35528.91
650.763	35494.79
651.115	35878.96
651.467	35806.87
651.819	35904.95
652.171	35625.41
652.523	35637.61
652.875	35722.13
653.227	35483.71
653.578	35719.19
653.93	35688.68
654.282	35505.18
654.633	35636.03
654.985	35537.95
655.337	35633.31
655.688	35673.77
656.039	35723.93
656.391	35589.47
656.742	35517.16
657.094	35591.73
657.445	35817.94
657.796	35666.99
658.147	35500.21
658.498	35660.43
658.849	35661.56
659.2	35513.09
659.551	35504.28
659.902	35562.36
660.253	35495.24
660.604	35629.47
660.955	35386.77
661.306	35491.62
661.656	35371.63
662.007	35351.51
662.358	35506.31
662.708	35389.48
663.059	35341.57
663.409	35281.01
663.76	35536.82
664.11	35460.66
664.461	35493.43
664.811	35523.71
665.161	35415.24
665.511	35435.13
665.862	35432.42
666.212	35496.59
666.562	35490.49
666.912	35413.43
667.262	35371.4
667.612	35318.07
667.962	35478.52
668.312	35372.98
668.662	35480.78
669.011	35397.84
669.361	35312.64
669.711	35341.34
670.06	35276.04
670.41	35286.43
670.76	35198.98
671.109	35381.8
671.459	35331.4
671.808	35261.57
672.157	35192.65
672.507	34967.57
672.856	35192.42
673.205	35085.98
673.554	35144.29
673.904	35186.32
674.253	35333.44
674.602	35094.57
674.951	34583.4
675.3	34512.21
675.649	35020.9
675.998	34883.73
676.346	35140.22
676.695	35125.08
677.044	34889.15
677.393	34994.91
677.741	35143.16
678.09	34890.28
678.438	34907.01
678.787	34855.93
679.135	34857.06
679.484	34723.28
679.832	34818.65
680.181	34503.4
680.529	34741.59
680.877	34575.72
681.225	34547.69
681.573	34743.62
681.922	34477.41
682.27	34486.23
682.618	34463.18
682.966	34503.4
683.314	34509.28
683.661	34382.95
684.009	34243.75
684.357	34195.84
684.705	34051.89
685.053	34190.41
685.4	34041.04
685.748	33947.26
686.095	33885.79
686.443	33895.73
686.79	33776.87
687.138	33791.33
687.485	33749.75
687.832	33625.01
688.18	33724.89
688.527	33455.07
688.874	33452.58
689.221	33385.46
689.568	33282.42
689.915	33297.1
690.262	33253.94
690.609	33101.18
690.956	32985.7
691.303	33116.54
691.65	32895.99
691.997	32815.08
692.344	32665.03
692.69	32672.04
693.037	32651.92
693.383	32397.92
693.73	32591.59
694.077	32440.4
694.423	32407.64
694.769	32272.95
695.116	32126.06
695.462	32190.24
695.808	32112.05
696.155	32172.16
696.501	31889.01
696.847	31903.24
697.193	31565.62
697.539	31728.78
697.885	31426.42
698.231	31381.67
698.577	31464.84
698.923	31293.99
699.269	31185.07
699.614	31099.87
699.96	31143.04
700.306	31105.3
700.651	30984.85
700.997	30861.01
701.342	30724.97
701.688	30716.83
702.033	30637.06
702.379	30569.49
702.724	30567.46
703.069	30697.85
703.415	30373.79
703.76	30353.45
704.105	30215.38
704.45	30201.14
704.795	30001.82
705.14	29833.92
705.485	29898.32
705.83	29733.36
706.175	29862.17
706.52	29711.21
706.865	29750.53
707.209	29527.94
707.554	29450.43
707.899	29448.84
708.243	29337.21
708.588	29515.51
708.932	29145.58
709.277	29053.6
709.621	29148.74
709.966	28971.34
710.31	29057.44
710.654	28791.69
710.998	28860.16
711.342	28777.22
711.687	28745.59
712.031	28667.17
712.375	28565.93
712.719	28590.79
713.063	28442.09
713.407	28633.72
713.75	28461.3
714.094	28414.97
714.438	28235.09
714.782	28275.99
715.125	28163.68
715.469	28257.01
715.812	28137.47
716.156	27920.97
716.499	27904.25
716.843	27959.62
717.186	27916.23
717.53	27904.93
717.873	27932.5
718.216	27826.97
718.559	27673.3
718.902	27464.94
719.246	27520.99
719.589	27516.92
719.932	27434.89
720.275	27455.22
720.617	27328.45
720.96	27269.24
721.303	27283.48
721.646	27302.69
721.989	27052.3
722.331	27171.62
722.674	26989.02
723.016	27190.37
723.359	27145.18
723.701	27062.69
724.044	26814.79
724.386	26709.93
724.729	26818.86
725.071	26786.32
725.413	26759.88
725.755	26712.19
726.097	26604.63
726.439	26554.01
726.782	26502.71
727.124	26685.75
727.465	26500.67
727.807	26579.32
728.149	26528.02
728.491	26403.05
728.833	26487.34
729.175	26322.82
729.516	26288.48
729.858	26323.95
730.199	26182.26
730.541	26233.56
730.882	26117.86
731.224	26303.84
731.565	26088.25
731.906	26129.38
732.248	26078.99
732.589	25965.32
732.93	25943.4
733.271	26006
733.612	25955.38
733.953	25870.18
734.294	25882.84
734.635	25918.99
734.976	25753.35
735.317	25775.27
735.658	25663.41
735.999	25759.22
736.339	25636.97
736.68	25642.62
737.021	25585.44
737.361	25470.19
737.702	25574.37
738.042	25485.56
738.383	25444.66
738.723	25441.04
739.063	25297.09
739.404	25349.52
739.744	25389.74
740.084	25196.98
740.424	25223.42
740.764	25134.38
741.104	25279.69
741.444	25030.66
741.784	25084.67
742.124	25085.12
742.464	24966.7
742.804	24941.62
743.143	25005.12
743.483	25090.31
743.823	24822.3
744.162	24905.01
744.502	24847.84
744.841	24778.46
745.181	24966.02
745.52	24758.57
745.86	24825.24
746.199	24694.39
746.538	24764.9
746.877	24747.95
747.216	24710.89
747.556	24679.25
747.895	24586.83
748.234	24471.12
748.573	24516.32
748.911	24599.25
749.25	24491.91
749.589	24394.97
749.928	24530.1
750.267	24540.05
750.605	24443.55
750.944	24325.82
751.283	24331.92
751.621	24391.35
751.96	24280.62
752.298	24307.51
752.636	24309.77
752.975	24098.02
753.313	23981.42
753.651	24194.97
753.989	23974.41
754.327	24075.65
754.666	23985.94
755.004	23949.33
755.342	23959.72
755.679	24070.91
756.017	23839.95
756.355	23924.47
756.693	23730.8
757.031	23814.64
757.368	23675.21
757.706	23662.33
758.044	23661.43
758.381	23725.83
758.719	23544.82
759.056	23560.64
759.394	23507.98
759.731	23371.04
760.068	23400.64
760.405	23177.14
760.743	23202.23
761.08	23388.66
761.417	23189.57
761.754	23096.92
762.091	23129.01
762.428	22954.55
762.765	22909.81
763.102	22996.81
763.438	22874.78
763.775	22753.2
764.112	22800.88
764.449	22793.43
764.785	22642.7
765.122	22523.83
765.458	22516.82
765.795	22515.02
766.131	22341.46
766.467	22422.81
766.804	22325.19
767.14	22132.43
767.476	22067.57
767.812	22053.56
768.148	22047.46
768.485	21924.97
768.821	21801.59
769.157	21795.49
769.492	21786.22
769.828	21774.24
770.164	21555.04
770.5	21508.71
770.836	21498.77
771.171	21414.71
771.507	21345.55
771.842	21078.67
772.178	21127.71
772.513	21121.61
772.849	20987.37
773.184	20951.89
773.519	20916.19
773.855	20857.66
774.19	20732.46
774.525	20662.63
774.86	20647.04
775.195	20639.81
775.53	20507.84
775.865	20412.25
776.2	20270.33
776.535	20153.72
776.87	20154.4
777.205	20006.38
777.539	20014.29
777.874	19963.22
778.209	19853.62
778.543	19829.66
778.878	19635.54
779.212	19688.65
779.547	19566.39
779.881	19629.44
780.215	19517.58
780.55	19625.6
780.884	19390.8
781.218	19340.41
781.552	19362.78
781.886	19245.04
782.22	19061.55
782.554	19073.3
782.888	18901.78
783.222	18817.71
783.556	18716.02
783.889	18800.08
784.223	18606.64
784.557	18597.83
784.89	18557.83
785.224	18509.24
785.557	18306.76
785.891	18272.64
786.224	18324.39
786.558	18243.04
786.891	18252.75
787.224	18061.12
787.557	17940.45
787.891	17891.86
788.224	17931.18
788.557	17873.78
788.89	17855.02
789.223	17837.4
789.556	17695.26
789.888	17637.18
790.221	17527.8
790.554	17496.62
790.887	17366.45
791.219	17319.22
791.552	17277.64
791.884	17201.03
792.217	17152.44
792.549	17116.51
792.882	16981.15
793.214	16912.9
793.546	16946.8
793.879	16800.82
794.211	16731.66
794.543	16829.52
794.875	16728.73
795.207	16755.84
795.539	16601.27
795.871	16691.67
796.203	16451.22
796.535	16371.22
796.867	16300.04
797.198	16280.15
797.53	16328.06
797.862	16149.76
798.193	16178.01
798.525	16140.27
798.856	16102.3
799.188	15890.56
799.519	15973.72
799.85	15745.7
800.182	15860.05
800.513	15778.47
800.844	15695.53
801.175	15767.62
801.506	15706.61
801.837	15588.87
802.168	15606.04
802.499	15531.02
802.83	15491.47
803.161	15350.46
803.491	15450.79
803.822	15358.14
804.153	15217.35
804.483	15207.41
804.814	15250.35
805.145	15154.98
805.475	15102.33
805.805	15071.37
806.136	15093.74
806.466	15052.16
806.796	15068.21
807.126	14817.59
807.457	14858.49
807.787	14867.76
808.117	14806.74
808.447	14741.89
808.777	14756.12
809.107	14719.97
809.436	14667.31
809.766	14661.89
810.096	14632.96
810.426	14519.52
810.755	14508.67
811.085	14494.89
811.414	14536.24
811.744	14339.64
812.073	14261.45
812.403	14310.49
812.732	14218.51
813.061	14216.02
813.39	14103.26
813.719	14051.51
814.049	14096.25
814.378	13983.71
814.707	14078.4
815.036	13997.95
815.365	13914.56
815.693	13764.96
816.022	13825.53
816.351	13745.08
816.68	13731.07
817.008	13851.97
817.337	13668.92
817.665	13661.01
817.994	13665.08
818.322	13616.04
818.651	13501.02
818.979	13504.63
819.307	13553.22
819.636	13555.02
819.964	13411.07
820.292	13509.38
820.62	13400.9
820.948	13428.47
821.276	13418.31
821.604	13393.67
821.932	13421.7
822.259	13418.08
822.587	13378.53
822.915	13363.84
823.243	13447.46
823.57	13430.06
823.898	13406.55
824.225	13344.86
824.553	13292.43
824.88	13313.9
825.207	13358.42
825.535	13314.81
825.862	13388.48
826.189	13295.37
826.516	13282.26
826.843	13349.83
827.17	13358.65
827.497	13388.48
827.824	13417.85
828.151	13396.39
828.478	13318.2
828.805	13360
829.131	13289.95
829.458	13265.32
829.785	13235.49
830.111	13279.1
830.438	13341.02
830.764	13267.8
831.09	13333.56
831.417	13207.69
831.743	13266.67
832.069	13246.56
832.395	13109.61
832.722	13279.78
833.048	13213.11
833.374	13170.4
833.7	13120.91
834.026	13192.55
834.351	13245.2
834.677	13186
835.003	13067.81
835.329	13084.53
835.654	13066
835.98	13025.1
836.306	13077.75
836.631	13090.18
836.956	13031.2
837.282	13027.36
837.607	12925.44
837.932	12894.25
838.258	12953.01
838.583	12921.6
838.908	12878.88
839.233	12849.96
839.558	12861.03
839.883	12779.23
840.208	12696.52
840.533	12808.38
840.858	12813.35
841.182	12798.43
841.507	12809.73
841.832	12710.98
842.156	12648.16
842.481	12669.17
842.805	12634.82
843.13	12596.86
843.454	12645.44
843.778	12560.7
844.103	12510.98
844.427	12506.92
844.751	12435.51
845.075	12381.5
845.399	12355.51
845.723	12296.3
846.047	12267.15
846.371	12210.65
846.695	12259.47
847.019	12182.86
847.343	12018.34
847.666	12024.22
847.99	11916.65
848.313	11979.93
848.637	11905.58
848.96	11802.3
849.284	11854.28
849.607	11699.48
849.931	11596.21
850.254	11601.63
850.577	11571.35
850.9	11467.62
851.223	11472.59
851.546	11409.09
851.869	11324.35
852.192	11401.86
852.515	11265.59
852.838	11285.03
853.161	11167.97
853.483	11165.48
853.806	11133.85
854.129	11090.91
854.451	11063.79
854.774	11101.76
855.096	11006.17
855.419	10993.96
855.741	10927.3
856.063	10906.28
856.385	10846.62
856.708	10796.91
857.03	10781.09
857.352	10843.01
857.674	10721.65
857.996	10699.96
858.318	10670.58
858.64	10650.02
858.961	10543.8
859.283	10585.61
859.605	10534.99
859.926	10561.43
860.248	10579.74
860.57	10452.73
860.891	10487.08
861.212	10399.4
861.534	10419.97
861.855	10381.55
862.176	10360.53
862.498	10391.27
862.819	10392.85
863.14	10307.88
863.461	10255.9
863.782	10311.27
864.103	10257.26
864.424	10206.64
864.745	10231.72
865.065	10183.81
865.386	10147.66
865.707	10132.74
866.027	10196.47
866.348	10143.36
866.668	10128.67
866.989	10067.43
867.309	10001.45
867.63	10097.26
867.95	10006.64
868.27	9991.05
868.59	10003.48
868.91	9955.57
869.23	9937.72
869.55	9890.49
869.87	9942.24
870.19	9914.89
870.51	9952.86
870.83	9946.98
871.15	9841.9
871.469	9822.02
871.789	9844.16
872.109	9850.26
872.428	9739.53
872.748	9757.38
873.067	9767.78
873.386	9758.06
873.706	9812.52
874.025	9766.2
874.344	9654.34
874.663	9736.37
874.982	9688.91
875.301	9703.6
875.62	9584.96
875.939	9549.03
876.258	9663.38
876.577	9559.42
876.896	9622.92
877.214	9556.49
877.533	9501.12
877.852	9536.15
878.17	9509.03
878.489	9519.88
878.807	9493.21
879.125	9472.42
879.444	9436.26
879.762	9416.6
880.08	9409.15
880.398	9339.32
880.716	9389.94
881.034	9355.36
881.352	9347.68
881.67	9303.84
881.988	9264.29
882.306	9234.91
882.624	9249.38
882.941	9229.26
883.259	9202.82
883.577	9168.25
883.894	9182.26
884.212	9160.11
884.529	9207.34
884.846	9074.01
885.164	9111.07
885.481	9075.59
885.798	9047.35
886.115	9031.98
886.432	8989.04
886.75	8951.76
887.067	9006.67
887.383	8964.41
887.7	8987.24
888.017	8851.65
888.334	8930.97
888.651	8843.28
888.967	8823.4
889.284	8738.88
889.6	8772.33
889.917	8666.11
890.233	8751.76
890.55	8677.87
890.866	8657.3
891.182	8642.16
891.498	8627.24
891.815	8618.21
892.131	8586.57
892.447	8556.74
892.763	8476.51
893.079	8492.79
893.395	8481.71
893.71	8455.05
894.026	8429.51
894.342	8322.62
894.657	8411.66
894.973	8343.18
895.289	8314.71
895.604	8323.07
895.92	8221.38
896.235	8196.3
896.55	8249.63
896.865	8194.94
897.181	8220.48
897.496	8135.28
897.811	8088.95
898.126	8064.1
898.441	8081.95
898.756	8008.05
899.071	7984.78
899.386	7968.05
899.7	7938
900.015	7818.23
900.33	7787.72
900.644	7843.08
900.959	7824.33
901.273	7763.76
901.588	7695.52
901.902	7741.17
902.216	7714.73
902.531	7623.2
902.845	7651.9
903.159	7630.89
903.473	7575.52
903.787	7525.8
904.101	7455.3
904.415	7474.05
904.729	7461.17
905.042	7428.41
905.356	7410.33
905.67	7388.63
905.984	7350.89
906.297	7373.27
906.611	7239.03
906.924	7327.84
907.237	7188.86
907.551	7243.55
907.864	7151.13
908.177	7167.62
908.491	7111.35
908.804	7155.87
909.117	7046.72
909.43	7034.74
909.743	6993.39
910.056	7035.87
910.368	6958.59
910.681	6878.36
910.994	6953.62
911.307	6832.94
911.619	6848.53
911.932	6837.01
912.244	6774.41
912.557	6782.77
912.869	6727.18
913.181	6722.44
913.494	6733.28
913.806	6700.29
914.118	6637.01
914.43	6569.67
914.742	6592.72
915.054	6605.38
915.366	6488.54
915.678	6483.57
915.99	6503.46
916.302	6400.86
916.613	6423.91
916.925	6458.94
917.236	6398.6
917.548	6350.69
917.859	6270.92
918.171	6267.31
918.482	6242.9
918.794	6233.41
919.105	6242.67
919.416	6178.5
919.727	6182.34
920.038	6176.01
920.349	6080.87
920.66	6100.31
920.971	6076.58
921.282	6035.9
921.593	5984.38
921.903	5984.83
922.214	5933.53
922.525	5952.96
922.835	5925.4
923.146	5898.05
923.456	5843.82
923.767	5860.76
924.077	5780.09
924.387	5794.55
924.697	5718.17
925.008	5734.67
925.318	5707.1
925.628	5709.58
925.938	5682.69
926.248	5621.22
926.558	5557.72
926.867	5538.06
927.177	5563.14
927.487	5539.42
927.796	5519.3
928.106	5506.87
928.416	5479.31
928.725	5447.44
929.034	5463.49
929.344	5445.86
929.653	5394.34
929.962	5348.69
930.271	5333.32
930.581	5346.65
930.89	5294.23
931.199	5252.64
931.508	5261.91
931.817	5238.41
932.125	5197.28
932.434	5199.76
932.743	5141.01
933.051	5125.19
933.36	5084.51
933.669	5122.48
933.977	5116.38
934.286	5072.08
934.594	5037.28
934.902	4998.41
935.21	4981.47
935.519	4978.75
935.827	4968.36
936.135	4925.87
936.443	4870.06
936.751	4882.03
937.059	4887
937.367	4825.76
937.674	4804.97
937.982	4800.9
938.29	4770.17
938.597	4748.93
938.905	4713.68
939.213	4722.71
939.52	4630.06
939.827	4661.7
940.135	4679.55
940.442	4639.78
940.749	4597.07
941.056	4617.86
941.363	4583.51
941.67	4571.53
941.977	4551.42
942.284	4505.77
942.591	4510.29
942.898	4510.52
943.205	4439.78
943.511	4416.06
943.818	4424.19
944.125	4404.31
944.431	4349.39
944.738	4339.9
945.044	4349.17
945.35	4336.51
945.657	4289.51
945.963	4262.39
946.269	4247.47
946.575	4261.48
946.881	4263.07
947.187	4239.56
947.493	4197.3
947.799	4164.99
948.105	4164.99
948.41	4103.52
948.716	4087.93
949.022	4137.65
949.327	4086.8
949.633	4028.04
949.938	4080.25
950.244	4043.86
950.549	3965.45
950.854	3957.99
951.16	3984.2
951.465	3953.02
951.77	3927.48
952.075	3945.79
952.38	3862.62
952.685	3874.6
952.99	3866.92
953.294	3859.69
953.599	3826.02
953.904	3797.54
954.209	3823.08
954.513	3752.12
954.818	3764.77
955.122	3724.32
955.426	3742.4
955.731	3690.43
956.035	3735.4
956.339	3671.44
956.643	3711.89
956.948	3648.17
957.252	3643.42
957.556	3641.16
957.86	3624.66
958.163	3634.38
958.467	3564.78
958.771	3530.66
959.075	3558.23
959.378	3527.94
959.682	3551.67
959.985	3530.43
960.289	3494.27
960.592	3492.01
960.896	3463.31
961.199	3422.41
961.502	3414.27
961.805	3443.2
962.108	3443.65
962.411	3427.38
962.714	3360.94
963.017	3323.2
963.32	3359.59
963.623	3319.59
963.926	3377.44
964.228	3287.72
964.531	3258.12
964.833	3277.56
965.136	3233.71
965.438	3239.14
965.741	3236.2
966.043	3208.18
966.345	3198.69
966.648	3164.34
966.95	3189.65
967.252	3172.7
967.554	3105.13
967.856	3115.75
968.158	3120.72
968.46	3088.86
968.761	3099.48
969.063	3104.45
969.365	3052.02
969.666	3029.2
969.968	3000.95
970.269	3032.36
970.571	3016.32
970.872	3002.31
971.174	2971.12
971.475	2972.48
971.776	2971.8
972.077	2953.04
972.378	2960.05
972.679	2916.66
972.98	2947.39
973.281	2896.55
973.582	2873.95
973.883	2870.56
974.183	2857.23
974.484	2828.08
974.785	2821.97
975.085	2827.4
975.386	2818.81
975.686	2805.25
975.986	2798.7
976.287	2758.92
976.587	2739.26
976.887	2755.76
977.187	2753.95
977.487	2728.42
977.787	2706.04
978.087	2692.71
978.387	2684.8
978.687	2672.83
978.987	2682.54
979.286	2595.99
979.586	2685.25
979.885	2619.27
980.185	2629.66
980.484	2602.32
980.784	2588.31
981.083	2567.29
981.382	2548.31
981.682	2587.86
981.981	2534.3
982.28	2539.95
982.579	2508.99
982.878	2509.44
983.177	2506.95
983.475	2527.74
983.774	2480.29
984.073	2476.22
984.372	2440.51
984.67	2459.27
984.969	2435.32
985.267	2410.91
985.566	2428.09
985.864	2404.13
986.162	2428.99
986.461	2379.5
986.759	2330.01
987.057	2377.92
987.355	2355.32
987.653	2339.73
987.951	2360.74
988.249	2344.7
988.547	2307.64
988.844	2297.02
989.142	2284.36
989.44	2251.59
989.737	2246.62
990.035	2247.75
990.332	2270.8
990.63	2232.16
990.927	2204.14
991.224	2245.94
991.521	2203.01
991.819	2177.25
992.116	2167.08
992.413	2187.87
992.71	2177.02
993.006	2129.79
993.303	2133.63
993.6	2169.34
993.897	2133.4
994.193	2121.2
994.49	2101.09
994.787	2116.68
995.083	2094.76
995.379	2125.95
995.676	2067.42
995.972	2063.12
996.268	2051.6
996.565	2053.63
996.861	2033.52
997.157	2003.46
997.453	2030.36
997.749	1993.07
998.044	1948.55
998.34	1993.75
998.636	1961.66
998.932	1944.48
999.227	1941.32
999.523	1927.31
999.818	1906.74
1000.114	1905.39
1000.409	1915.33
1000.704	1945.39
1001	1903.58
1001.295	1865.16
1001.59	1855.45
1001.885	1862.9
1002.18	1839.85
1002.475	1834.88
1002.77	1836.46
1003.065	1804.83
1003.359	1809.35
1003.654	1762.34
1003.949	1780.87
1004.243	1764.6
1004.538	1760.53
1004.832	1759.4
1005.127	1742.91
1005.421	1733.64
1005.715	1726.41
1006.009	1730.93
1006.304	1713.53
1006.598	1725.73
1006.892	1689.12
1007.186	1679.63
1007.48	1680.31
1007.773	1671.27
1008.067	1660.42
1008.361	1626.98
1008.655	1657.71
1008.948	1625.85
1009.242	1625.4
1009.535	1591.5
1009.829	1613.64
1010.122	1594.44
1010.415	1580.88
1010.708	1568.67
1011.001	1562.35
1011.295	1570.71
1011.588	1556.02
1011.881	1540.43
1012.173	1531.16
1012.466	1540.88
1012.759	1529.13
1013.052	1522.8
1013.344	1502.46
1013.637	1484.61
1013.93	1519.18
1014.222	1494.78
1014.514	1475.79
1014.807	1461.56
1015.099	1430.37
1015.391	1428.79
1015.683	1444.61
1015.976	1417.04
1016.268	1413.65
1016.56	1417.49
1016.851	1368.23
1017.143	1378.62
1017.435	1387.89
1017.727	1348.79
1018.018	1372.07
1018.31	1355.57
1018.602	1346.53
1018.893	1315.8
1019.185	1340.43
1019.476	1323.93
1019.767	1269.92
1020.058	1297.72
1020.35	1295.69
1020.641	1278.96
1020.932	1297.27
1021.223	1263.82
1021.514	1266.08
1021.804	1260.88
1022.095	1254.33
1022.386	1240.77
1022.677	1216.37
1022.967	1222.02
1023.258	1211.17
1023.548	1196.03
1023.839	1214.11
1024.129	1195.35
1024.419	1169.81
1024.709	1167.1
1025	1184.5
1025.29	1168.01
1025.58	1153.09
1025.87	1128.46
1026.16	1159.42
1026.449	1146.76
1026.739	1114.22
1027.029	1129.36
1027.319	1097.27
1027.608	1106.99
1027.898	1116.48
1028.187	1070.38
1028.477	1088.69
1028.766	1056.6
1029.055	1080.78
1029.344	1067.22
1029.634	1052.75
1029.923	1034
1030.212	1060.89
1030.501	1040.78
1030.79	1034.45
1031.078	1015.02
1031.367	1031.29
1031.656	1010.04
1031.945	995.58
1032.233	992.87
1032.522	1009.14
1032.81	1009.14
1033.099	988.58
1033.387	992.19
1033.675	965.53
1033.963	954.45
1034.251	968.69
1034.54	923.49
1034.828	951.06
1035.116	952.87
1035.403	937.28
1035.691	918.52
1035.979	954.23
1036.267	930.72
1036.554	911.97
1036.842	916.26
1037.129	909.26
1037.417	897.73
1037.704	892.08
1037.992	907.45
1038.279	885.75
1038.566	865.42
1038.853	865.42
1039.14	865.42
