Data from hue_90_FLMS001491_39.txt Node
Date: Mon Feb 06 15:25:03 GMT 2017
User: dcchb
Spectrometer: FLMS00149
Trigger mode: 0
Integration Time (sec): 2.000000E-2
Scans to average: 10
Electric dark correction enabled: true
Nonlinearity correction enabled: false
Boxcar width: 0
XAxis mode: Wavelengths
Number of Pixels in Spectrum: 2048
>>>>>Begin Spectral Data<<<<<
341.393	-28.45
341.776	-28.45
342.16	-28.45
342.543	-55.79
342.927	-77.03
343.31	-57.37
343.693	-53.08
344.077	-54.21
344.46	-52.63
344.843	-65.96
345.226	-44.72
345.61	-35.9
345.993	-4.72
346.376	-9.24
346.759	5.45
347.142	14.27
347.525	35.51
347.908	39.35
348.291	74.38
348.674	90.2
349.057	118.67
349.44	91.55
349.823	133.13
350.206	174.49
350.588	172.68
350.971	208.16
351.354	229.4
351.737	231.43
352.119	230.98
352.502	261.94
352.884	263.75
353.267	279.12
353.65	292.9
354.032	302.85
354.414	304.43
354.797	317.53
355.179	313.01
355.562	321.83
355.944	330.87
356.326	329.06
356.709	329.06
357.091	326.8
357.473	355.05
357.855	340.81
358.238	329.51
358.62	327.48
359.002	346.91
359.384	337.65
359.766	327.93
360.148	353.01
360.53	322.51
360.912	341.26
361.294	330.64
361.676	360.02
362.057	332
362.439	316.18
362.821	324.99
363.203	325.22
363.584	334.71
363.966	314.82
364.348	330.64
364.729	333.35
365.111	328.61
365.493	312.79
365.874	309.85
366.256	328.61
366.637	325.9
367.019	308.27
367.4	322.96
367.781	329.51
368.163	315.95
368.544	291.32
368.925	314.37
369.306	322.05
369.688	322.96
370.069	322.28
370.45	302.62
370.831	306.46
371.212	304.43
371.593	321.83
371.974	319.12
372.355	296.74
372.736	319.12
373.117	305.56
373.498	327.03
373.879	315.27
374.26	313.24
374.641	314.14
375.021	289.29
375.402	314.37
375.783	323.86
376.163	325.44
376.544	325.44
376.925	334.03
377.305	328.83
377.686	333.35
378.066	337.65
378.447	335.61
378.827	334.48
379.208	327.48
379.588	317.99
379.968	317.08
380.349	342.17
380.729	354.82
381.109	350.3
381.489	339.91
381.87	349.4
382.25	341.04
382.63	334.93
383.01	340.13
383.39	358.21
383.77	353.69
384.15	347.36
384.53	363.41
384.91	342.84
385.29	374.03
385.67	334.26
386.049	362.28
386.429	353.92
386.809	349.85
387.189	347.36
387.568	336.97
387.948	353.01
388.328	364.09
388.707	360.02
389.087	387.14
389.466	353.69
389.846	368.38
390.225	355.27
390.605	365.89
390.984	353.92
391.363	377.65
391.743	367.93
392.122	377.65
392.501	382.84
392.881	397.53
393.26	372.9
393.639	361.6
394.018	389.85
394.397	395.05
394.776	388.04
395.155	369.96
395.534	388.27
395.913	381.26
396.292	400.02
396.671	400.92
397.05	385.1
397.429	379.91
397.808	400.02
398.186	375.84
398.565	426.91
398.944	419.45
399.323	394.59
399.701	391.66
400.08	403.86
400.458	409.73
400.837	417.42
401.215	403.86
401.594	419.23
401.972	414.03
402.351	425.33
402.729	432.11
403.107	412.9
403.486	423.97
403.864	446.57
404.242	434.82
404.62	424.2
404.999	423.97
405.377	421.94
405.755	432.79
406.133	436.63
406.511	431.88
406.889	442.5
407.267	427.59
407.645	434.59
408.023	466.46
408.401	459.45
408.779	463.07
409.156	467.36
409.534	437.53
409.912	454.71
410.29	459.45
410.667	474.37
411.045	474.37
411.422	455.38
411.8	489.05
412.178	487.7
412.555	478.43
412.933	490.18
413.31	482.73
413.687	509.17
414.065	510.3
414.442	488.6
414.819	514.37
415.197	511.43
415.574	511.65
415.951	536.96
416.328	533.35
416.705	526.34
417.082	515.27
417.46	531.54
417.837	543.06
418.214	532.22
418.591	551.2
418.967	549.84
419.344	543.97
419.721	552.33
420.098	553.91
420.475	583.29
420.852	556.85
421.228	553.46
421.605	574.02
421.982	574.02
422.358	586.45
422.735	579.9
423.111	568.37
423.488	591.88
423.864	597.98
424.241	583.97
424.617	582.39
424.994	594.14
425.37	634.59
425.746	611.09
426.123	611.54
426.499	620.8
426.875	604.53
427.251	637.3
427.627	636.85
428.003	653.34
428.379	638.2
428.756	641.37
429.132	661.25
429.507	666.23
429.883	672.33
430.259	678.88
430.635	672.1
431.011	672.1
431.387	680.91
431.763	703.74
432.138	701.03
432.514	699.9
432.89	694.7
433.265	719.78
433.641	719.11
434.016	743.74
434.392	731.53
434.767	763.17
435.143	753.23
435.518	781.48
435.894	770.86
436.269	776.51
436.644	799.1
437.02	771.53
437.395	787.13
437.77	806.79
438.145	806.11
438.52	842.49
438.895	848.37
439.271	825.54
439.646	821.48
440.021	839.33
440.395	850.18
440.77	804.53
441.145	858.31
441.52	877.07
441.895	864.86
442.27	874.36
442.645	871.42
443.019	872.1
443.394	892.21
443.769	913.68
444.143	890.4
444.518	896.95
444.892	917.97
445.267	901.93
445.641	944.86
446.016	932.89
446.39	929.5
446.764	914.13
447.139	938.76
447.513	933.79
447.887	932.21
448.262	955.48
448.636	957.52
449.01	963.84
449.384	989.38
449.758	1003.17
450.132	1009.04
450.506	998.65
450.88	1024.86
451.254	992.54
451.628	1026.67
452.002	1051.98
452.376	1046.1
452.75	1068.25
453.123	1053.79
453.497	1105.31
453.871	1084.29
454.244	1086.1
454.618	1101.02
454.992	1125.42
455.365	1135.37
455.739	1148.7
456.112	1165.65
456.486	1148.47
456.859	1175.36
457.232	1187.34
457.606	1217.62
457.979	1208.13
458.352	1221.69
458.725	1244.97
459.099	1253.33
459.472	1301.46
459.845	1280.9
460.218	1289.49
460.591	1319.09
460.964	1334.23
461.337	1366.32
461.71	1387.56
462.083	1359.77
462.456	1386.88
462.829	1406.77
463.201	1412.87
463.574	1435.92
463.947	1465.53
464.32	1485.64
464.692	1509.59
465.065	1520.44
465.438	1535.36
465.81	1574.68
466.183	1616.93
466.555	1632.53
466.928	1636.37
467.3	1672.3
467.672	1678.85
468.045	1732.19
468.417	1749.59
468.789	1749.13
469.161	1783.48
469.534	1788.46
469.906	1856.93
470.278	1883.14
470.65	1876.36
471.022	1933.31
471.394	1976.7
471.766	2017.83
472.138	2048.34
472.51	2091.27
472.882	2149.58
473.253	2213.53
473.625	2228.22
473.997	2269.35
474.369	2317.48
474.74	2378.72
475.112	2415.56
475.484	2449
475.855	2550.24
476.227	2555.89
476.598	2684.25
476.97	2711.14
477.341	2776.23
477.713	2880.4
478.084	2878.82
478.455	2979.16
478.827	3021.64
479.198	3147.52
479.569	3218.02
479.94	3323.33
480.311	3354.74
480.682	3441.07
481.053	3592.93
481.424	3679.25
481.795	3751.79
482.166	3877.44
482.537	3951.56
482.908	4102.07
483.279	4144.78
483.65	4309.97
484.021	4449.85
484.391	4513.13
484.762	4578.21
485.133	4690.53
485.503	4822.73
485.874	4984.3
486.244	5052.55
486.615	5235.14
486.985	5384.07
487.356	5537.28
487.726	5592.88
488.097	5778.18
488.467	5883.49
488.837	6062.02
489.207	6209.81
489.578	6323.93
489.948	6474.21
490.318	6617.03
490.688	6698.84
491.058	6883.46
491.428	7017.02
491.798	7207.07
492.168	7381.76
492.538	7496.33
492.908	7642.09
493.278	7843.21
493.648	7918.92
494.017	8108.52
494.387	8177.89
494.757	8339.92
495.126	8501.27
495.496	8560.03
495.866	8746.69
496.235	8844.54
496.605	8966.57
496.974	9121.6
497.344	9263.06
497.713	9362.27
498.082	9428.03
498.452	9650.4
498.821	9760.9
499.19	9850.39
499.559	9933.78
499.928	10085.41
500.298	10206.54
500.667	10379.64
501.036	10388.68
501.405	10552.07
501.774	10557.49
502.143	10735.11
502.512	10847.88
502.88	10935.56
503.249	11052.39
503.618	11072.05
503.987	11252.16
504.356	11279.96
504.724	11379.39
505.093	11411.93
505.462	11634.98
505.83	11620.29
506.199	11738.93
506.567	11860.51
506.936	11937.79
507.304	12145.47
507.672	12087.39
508.041	12226.6
508.409	12235.19
508.777	12400.83
509.145	12445.8
509.514	12463.2
509.882	12603.31
510.25	12601.96
510.618	12723.54
510.986	12682.86
511.354	12944.32
511.722	12981.38
512.09	13034.94
512.458	13079.23
512.826	13109.74
513.193	13172.34
513.561	13115.84
513.929	13281.94
514.297	13354.93
514.664	13381.37
515.032	13486.45
515.4	13555.15
515.767	13514.7
516.135	13592.44
516.502	13535.72
516.869	13718.31
517.237	13787.24
517.604	13724.19
517.972	13854.13
518.339	13859.78
518.706	13926.89
519.073	13853.68
519.44	13958.31
519.808	14025.65
520.175	14038.98
520.542	14136.83
520.909	14255.47
521.276	14193.1
521.643	14223.84
522.009	14389.25
522.376	14314.23
522.743	14352.87
523.11	14461.34
523.477	14556.03
523.843	14536.14
524.21	14726.65
524.577	14777.49
524.943	14657.5
525.31	14779.3
525.676	14754.89
526.043	14876.7
526.409	14871.73
526.776	14971.61
527.142	14860.65
527.508	15036.47
527.874	15021.33
528.241	15102.46
528.607	15084.38
528.973	15189.01
529.339	15018.84
529.705	15176.35
530.071	15220.87
530.437	15117.82
530.803	15153.75
531.169	15221.55
531.535	15242.57
531.901	15170.93
532.267	15240.31
532.632	15235.79
532.998	15232.85
533.364	15187.65
533.73	15082.57
534.095	15222.68
534.461	15163.7
534.826	15155.56
535.192	15176.8
535.557	15213.87
535.923	15174.32
536.288	15173.41
536.653	15160.31
537.019	15093.87
537.384	15136.81
537.749	15107.65
538.114	15034.44
538.479	15007.54
538.845	15081.21
539.21	14922.35
539.575	15014.77
539.94	14866.08
540.305	14937.26
540.67	14914.44
541.034	14847.1
541.399	14947.66
541.764	14835.8
542.129	14793.54
542.494	14868.79
542.858	14770.49
543.223	14723.48
543.587	14802.8
543.952	14683.26
544.316	14706.76
544.681	14612.75
545.045	14599.42
545.41	14587.67
545.774	14513.32
546.138	14525.07
546.503	14593.54
546.867	14460.89
547.231	14567.78
547.595	14543.83
547.959	14523.04
548.324	14479.65
548.688	14365.3
549.052	14315.58
549.416	14373.89
549.779	14288.47
550.143	14260.22
550.507	14281.01
550.871	14238.07
551.235	14197.17
551.599	14242.82
551.962	14222.03
552.326	14208.92
552.689	14223.61
553.053	14074.91
553.417	14070.84
553.78	14210.28
554.143	14017.96
554.507	14035.82
554.87	14099.54
555.234	14162.14
555.597	14001.02
555.96	14001.69
556.323	13950.4
556.686	14036.72
557.05	14057.06
557.413	14001.47
557.776	14042.14
558.139	13956.95
558.502	13982.26
558.865	14035.59
559.228	14071.75
559.59	14027
559.953	14122.82
560.316	14052.09
560.679	14005.31
561.041	14072.2
561.404	14122.82
561.767	14067.68
562.129	14047.12
562.492	14197.85
562.854	14077.4
563.217	14098.64
563.579	14112.65
563.941	14133.67
564.304	14163.95
564.666	14198.52
565.028	14229.94
565.39	14287.56
565.753	14289.82
566.115	14271.97
566.477	14308.58
566.839	14259.31
567.201	14335.47
567.563	14297.05
567.925	14373.89
568.287	14306.32
568.648	14288.47
569.01	14461.57
569.372	14521.45
569.734	14380.67
570.095	14527.78
570.457	14457.05
570.819	14535.47
571.18	14507.22
571.542	14548.57
571.903	14481.68
572.265	14570.72
572.626	14575.92
572.987	14481.46
573.349	14605.07
573.71	14606.2
574.071	14608.46
574.432	14693.2
574.794	14736.59
575.155	14689.59
575.516	14606.88
575.877	14700.43
576.238	14666.99
576.599	14776.59
576.96	14694.78
577.32	14682.13
577.681	14767.55
578.042	14759.64
578.403	14703.14
578.763	14776.81
579.124	14797.15
579.485	14821.56
579.845	14791.5
580.206	14714.44
580.566	14782.24
580.927	14751.05
581.287	14745.86
581.648	14695.24
582.008	14758.51
582.368	14795.12
582.728	14783.59
583.089	14773.65
583.449	14713.31
583.809	14770.26
584.169	14765.74
584.529	14744.27
584.889	14848.23
585.249	14648
585.609	14667.67
585.969	14819.3
586.329	14644.84
586.688	14638.97
587.048	14608.91
587.408	14619.76
587.768	14568.91
588.127	14612.53
588.487	14624.28
588.846	14704.05
589.206	14614.11
589.565	14606.42
589.925	14676.03
590.284	14620.21
590.643	14548.57
591.003	14632.19
591.362	14655.46
591.721	14565.29
592.08	14536.82
592.44	14610.94
592.799	14610.49
593.158	14539.98
593.517	14584.28
593.876	14571.85
594.235	14509.03
594.593	14495.24
594.952	14617.72
595.311	14498.86
595.67	14495.01
596.029	14604.84
596.387	14566.42
596.746	14514
597.104	14516.93
597.463	14589.7
597.822	14653.2
598.18	14436.03
598.538	14515.35
598.897	14532.53
599.255	14466.09
599.613	14630.6
599.972	14553.32
600.33	14517.39
600.688	14503.15
601.046	14557.39
601.404	14620.21
601.762	14520.1
602.12	14588.8
602.478	14590.83
602.836	14516.93
603.194	14521
603.552	14549.48
603.91	14376.83
604.268	14568.46
604.625	14528.91
604.983	14542.24
605.341	14468.57
605.698	14561.91
606.056	14506.31
606.413	14533.66
606.771	14605.75
607.128	14563.49
607.485	14556.48
607.843	14541.11
608.2	14696.36
608.557	14686.2
608.914	14600.32
609.272	14684.16
609.629	14693.2
609.986	14693.2
610.343	14612.98
610.7	14702.92
611.057	14649.13
611.414	14647.1
611.771	14696.14
612.127	14789.7
612.484	14761
612.841	14784.72
613.198	14744.95
613.554	14710.15
613.911	14881.22
614.267	14769.81
614.624	14768.91
614.98	14852.29
615.337	14911.95
615.693	14848.45
616.05	14908.56
616.406	14952.86
616.762	14824.5
617.118	14885.96
617.475	14901.11
617.831	14934.1
618.187	14870.37
618.543	14952.63
618.899	14982.01
619.255	15011.38
619.611	15020.2
619.967	15103.81
620.323	15061.78
620.678	14983.59
621.034	14938.84
621.39	14958.96
621.746	14985.17
622.101	15135.45
622.457	14992.18
622.812	15052.74
623.168	15007.32
623.523	14991.27
623.879	15090.93
624.234	14938.62
624.589	15026.53
624.945	15067.2
625.3	15051.61
625.655	14952.63
626.01	14966.19
626.365	14993.08
626.72	15008.9
627.075	14989.46
627.43	14981.1
627.785	15028.11
628.14	15037.6
628.495	15070.82
628.85	14964.15
629.205	14921.9
629.559	14973.42
629.914	14935.68
630.269	14906.53
630.623	14917.38
630.978	14913.31
631.332	14946.53
631.687	14896.59
632.041	14767.55
632.396	14861.11
632.75	14756.93
633.104	14843.93
633.459	14759.64
633.813	14653.43
634.167	14790.83
634.521	14805.29
634.875	14695.46
635.229	14793.99
635.583	14681.9
635.937	14747.89
636.291	14731.17
636.645	14705.86
636.999	14670.83
637.352	14717.16
637.706	14655.91
638.06	14568.68
638.413	14604.84
638.767	14543.6
639.121	14552.19
639.474	14469.7
639.828	14459.08
640.181	14496.37
640.534	14486.43
640.888	14478.74
641.241	14425.19
641.594	14425.41
641.947	14491.62
642.301	14383.83
642.654	14499.08
643.007	14419.99
643.36	14359.42
643.713	14395.13
644.066	14422.7
644.419	14305.64
644.771	14295.02
645.124	14114.01
645.477	14107.91
645.83	14021.81
646.182	13939.32
646.535	13851.64
646.888	13951.53
647.24	13880.34
647.593	14024.52
647.945	13943.39
648.298	13821.13
648.65	13876.05
649.002	13883.73
649.355	13929.61
649.707	13882.83
650.059	13882.38
650.411	14068.36
650.763	14037.4
651.115	14217.06
651.467	14190.39
651.819	14164.63
652.171	14194.91
652.523	14238.98
652.875	14094.12
653.227	14078.53
653.578	14235.36
653.93	14200.56
654.282	14116.27
654.633	14103.84
654.985	14097.96
655.337	14080.79
655.688	14091.86
656.039	14123.5
656.391	14027.46
656.742	14034.01
657.094	14119.43
657.445	14123.05
657.796	14170.05
658.147	14096.38
658.498	14106.78
658.849	14107
659.2	14093.22
659.551	14077.62
659.902	14102.71
660.253	14138.19
660.604	14147.9
660.955	14002.6
661.306	14109.49
661.656	14121.01
662.007	14102.48
662.358	14041.69
662.708	14109.94
663.059	14106.55
663.409	14074.91
663.76	14098.41
664.11	14147.9
664.461	14097.74
664.811	14202.14
665.161	14076.72
665.511	14116.72
665.862	14137.51
666.212	14168.7
666.562	14282.82
666.912	14193.1
667.262	14158.53
667.612	14183.84
667.962	14199.65
668.312	14177.51
668.662	14163.5
669.011	14163.95
669.361	14160.33
669.711	14124.4
670.06	14122.14
670.41	14177.51
670.76	14028.13
671.109	14160.33
671.459	14181.12
671.808	14118.75
672.157	14139.09
672.507	13980.45
672.856	14014.35
673.205	14052.54
673.554	14140.22
673.904	14045.53
674.253	14092.99
674.602	14024.07
674.951	13788.82
675.3	13796.73
675.649	13922.15
675.998	13999.66
676.346	13963.5
676.695	14018.19
677.044	13838.31
677.393	13920.79
677.741	13940.23
678.09	13829.27
678.438	13878.08
678.787	13874.69
679.135	13778.65
679.484	13795.15
679.832	13802.15
680.181	13723.06
680.529	13770.97
680.877	13761.25
681.225	13726.9
681.573	13845.99
681.922	13659.56
682.27	13615.49
682.618	13679.67
682.966	13558.77
683.314	13613
683.661	13565.1
684.009	13525.1
684.357	13420.92
684.705	13441.03
685.053	13397.42
685.4	13439.9
685.748	13334.37
686.095	13297.98
686.443	13338.43
686.79	13173.47
687.138	13332.33
687.485	13272.22
687.832	13203.75
688.18	13229.74
688.527	13108.61
688.874	13092.34
689.221	13112
689.568	13105.22
689.915	13013.25
690.262	12959.24
690.609	12928.5
690.956	12919.24
691.303	12870.88
691.65	12822.06
691.997	12865.23
692.344	12743.42
692.69	12726.25
693.037	12758.11
693.383	12605.8
693.73	12589.08
694.077	12497.1
694.423	12570.09
694.769	12397.89
695.116	12460.94
695.462	12413.26
695.808	12418.68
696.155	12363.09
696.501	12279.71
696.847	12257.11
697.193	12155.87
697.539	12224.79
697.885	12100.5
698.231	12011.92
698.577	12108.64
698.923	12052.82
699.269	11963.33
699.614	11916.33
699.96	11781.41
700.306	11879.94
700.651	11784.13
700.997	11740.96
701.342	11726.05
701.688	11732.38
702.033	11631.36
702.379	11592.49
702.724	11562.21
703.069	11507.07
703.415	11453.29
703.76	11463.91
704.105	11479.73
704.45	11409.67
704.795	11304.36
705.14	11293.97
705.485	11293.97
705.83	11252.39
706.175	11190.24
706.52	11170.13
706.865	11094.2
707.209	11115.89
707.554	11081.09
707.899	11098.27
708.243	11009.68
708.588	10958.61
708.932	10952.73
709.277	10851.04
709.621	11006.07
709.966	10827.99
710.31	10913.87
710.654	10745.96
710.998	10749.12
711.342	10794.55
711.687	10832.51
712.031	10802.23
712.375	10699.41
712.719	10674.1
713.063	10687.66
713.407	10711.61
713.75	10623.7
714.094	10536.25
714.438	10577.38
714.782	10565.85
715.125	10520.43
715.469	10573.31
715.812	10474.33
716.156	10425.06
716.499	10405.63
716.843	10422.81
717.186	10384.84
717.53	10358.17
717.873	10387.1
718.216	10376.03
718.559	10318.18
718.902	10261.45
719.246	10348
719.589	10276.59
719.932	10192.08
720.275	10212.42
720.617	10282.02
720.96	10242.47
721.303	10239.98
721.646	10286.31
721.989	10136.71
722.331	10185.52
722.674	10152.08
723.016	10135.81
723.359	10136.94
723.701	10139.42
724.044	10052.19
724.386	10028.69
724.729	10155.24
725.071	10081.57
725.413	10035.92
725.755	10054.23
726.097	10052.87
726.439	9984.85
726.782	9966.32
727.124	10028.69
727.465	9917.28
727.807	9964.96
728.149	9983.95
728.491	9920.45
728.833	9948.24
729.175	9930.84
729.516	9995.25
729.858	9922.25
730.199	9955.47
730.541	9976.72
730.882	9939.88
731.224	9939.65
731.565	9949.6
731.906	9975.59
732.248	9956.38
732.589	9891.75
732.93	9846.55
733.271	9914.12
733.612	9924.51
733.953	9869.6
734.294	9884.74
734.635	9844.97
734.976	9909.6
735.317	9826.66
735.658	9908.02
735.999	9894.46
736.339	9908.92
736.68	9951.18
737.021	9849.03
737.361	9865.76
737.702	9911.41
738.042	9815.82
738.383	9871.86
738.723	9885.42
739.063	9861.92
739.404	9912.54
739.744	9939.2
740.084	9875.02
740.424	9957.05
740.764	9899.65
741.104	9922.71
741.444	9951.86
741.784	9937.39
742.124	9938.75
742.464	9974.23
742.804	9943.95
743.143	10003.61
743.483	10030.27
743.823	9981.23
744.162	10059.65
744.502	10079.99
744.841	10067.33
745.181	10154.79
745.52	10159.54
745.86	10197.5
746.199	10172.64
746.538	10283.15
746.877	10328.34
747.216	10373.09
747.556	10413.31
747.895	10528.34
748.234	10490.37
748.573	10570.82
748.911	10623.25
749.25	10697.37
749.589	10715.45
749.928	10817.6
750.267	10884.94
750.605	10973.07
750.944	11017.14
751.283	11045.39
751.621	11148.66
751.96	11263.01
752.298	11286.74
752.636	11393.85
752.975	11442.44
753.313	11501.19
753.651	11735.54
753.989	11806.95
754.327	11886.95
754.666	11971.46
755.004	12072.48
755.342	12286.03
755.679	12383.21
756.017	12462.75
756.355	12640.15
756.693	12773.93
757.031	12870.65
757.368	13026.13
757.706	13125.56
758.044	13314.03
758.381	13486.91
758.719	13613.68
759.056	13772.55
759.394	13867.23
759.731	14028.59
760.068	14172.08
760.405	14319.2
760.743	14443.26
761.08	14621.56
761.417	14737.49
761.754	14918.73
762.091	15150.82
762.428	15183.13
762.765	15336.57
763.102	15597.36
763.438	15649.56
763.775	15856.11
764.112	15948.76
764.449	16154.41
764.785	16280.28
765.122	16385.13
765.458	16547.84
765.795	16701.28
766.131	16842.98
766.467	16927.27
766.804	17017.21
767.14	17175.62
767.476	17341.04
767.812	17503.3
768.148	17564.99
768.485	17757.53
768.821	17741.71
769.157	17988.71
769.492	18066.9
769.828	18077.75
770.164	18151.64
770.5	18290.62
770.836	18400.45
771.171	18418.3
771.507	18487.45
771.842	18521.12
772.178	18719.31
772.513	18771.74
772.849	18874.79
773.184	18882.47
773.519	18954.11
773.855	19094.44
774.19	19091.05
774.525	19101.9
774.86	19185.29
775.195	19366.98
775.53	19268.45
775.865	19270.71
776.2	19277.04
776.535	19307.77
776.87	19433.42
777.205	19433.42
777.539	19360.2
777.874	19496.01
778.209	19411.95
778.543	19494.2
778.878	19408.11
779.212	19504.6
779.547	19464.83
779.881	19668.21
780.215	19467.31
780.55	19605.39
780.884	19516.13
781.218	19491.49
781.552	19634.09
781.886	19598.61
782.22	19519.52
782.554	19446.07
782.888	19362.01
783.222	19400.2
783.556	19353.19
783.889	19382.57
784.223	19322.46
784.557	19406.07
784.89	19291.27
785.224	19276.13
785.557	19238.17
785.891	19319.52
786.224	19372.85
786.558	19369.46
786.891	19149.81
787.224	19110.71
787.557	19099.87
787.891	19106.87
788.224	19132.86
788.557	19160.43
788.89	19036.59
789.223	19012.64
789.556	18879.53
789.888	18903.94
790.221	18913.2
790.554	18825.3
790.887	18854
791.219	18774.9
791.552	18736.71
791.884	18734
792.217	18793.21
792.549	18650.61
792.882	18472.54
793.214	18515.47
793.546	18509.82
793.879	18435.02
794.211	18356.83
794.543	18470.05
794.875	18397.96
795.207	18443.39
795.539	18335.37
795.871	18219.66
796.203	18094.24
796.535	18111.64
796.867	18091.98
797.198	18021.02
797.53	17969.27
797.862	17936.28
798.193	17913
798.525	17869.84
798.856	17848.15
799.188	17751.2
799.519	17717.3
799.85	17591.2
800.182	17691.54
800.513	17672.56
800.844	17512.56
801.175	17675.04
801.506	17563.41
801.837	17482.96
802.168	17369.06
802.499	17319.57
802.83	17363.64
803.161	17351.21
803.491	17258.56
803.822	17267.37
804.153	17188.5
804.483	17054.95
804.814	16976.76
805.145	17007.26
805.475	16958.68
805.805	16866.93
806.136	16942.86
806.466	16913.03
806.796	16776.76
807.126	16763.66
807.457	16705.58
807.787	16767.95
808.117	16649.53
808.447	16591.46
808.777	16624.45
809.107	16455.41
809.436	16552.36
809.766	16432.36
810.096	16431.23
810.426	16403.89
810.755	16364.34
811.085	16316.44
811.414	16347.62
811.744	16205.03
812.073	16177.23
812.403	16192.6
812.732	16136.1
813.061	16094.52
813.39	16037.35
813.719	15988.31
814.049	16114.63
814.378	15924.81
814.707	16004.13
815.036	15923.9
815.365	15937.46
815.693	15736.34
816.022	15768.88
816.351	15748.99
816.68	15646.85
817.008	15715.32
817.337	15593.97
817.665	15555.55
817.994	15646.85
818.322	15642.1
818.651	15407.31
818.979	15494.08
819.307	15551.26
819.636	15411.6
819.964	15399.17
820.292	15433.29
820.62	15472.39
820.948	15382.67
821.276	15453.41
821.604	15340.64
821.932	15401.66
822.259	15440.07
822.587	15371.38
822.915	15269.91
823.243	15424.26
823.57	15383.13
823.898	15306.74
824.225	15271.27
824.553	15359.17
824.88	15385.84
825.207	15357.59
825.535	15346.74
825.862	15412.96
826.189	15344.71
826.516	15392.17
826.843	15483.24
827.17	15430.58
827.497	15444.59
827.824	15366.63
828.151	15411.37
828.478	15415.44
828.805	15488.21
829.131	15367.31
829.458	15332.73
829.785	15276.46
830.111	15331.83
830.438	15465.38
830.764	15357.36
831.09	15389.68
831.417	15265.84
831.743	15374.54
832.069	15322.11
832.395	15231.27
832.722	15349.46
833.048	15357.82
833.374	15304.26
833.7	15295.67
834.026	15262.23
834.351	15257.03
834.677	15243.02
835.003	15268.33
835.329	15245.05
835.654	15187.2
835.98	15075.34
836.306	15114.89
836.631	15057.71
836.956	15126.64
837.282	15091.83
837.607	15026.3
837.932	15053.64
838.258	15088.9
838.583	14999.63
838.908	14945.17
839.233	14914.21
839.558	14927.32
839.883	14821.11
840.208	14732.75
840.533	14864.5
840.858	14913.99
841.182	14800.32
841.507	14840.54
841.832	14743.82
842.156	14686.87
842.481	14710.83
842.805	14570.72
843.13	14707.89
843.454	14572.75
843.778	14544.96
844.103	14521.45
844.427	14553.32
844.751	14450.95
845.075	14443.26
845.399	14362.36
845.723	14317.84
846.047	14351.74
846.371	14174.34
846.695	14216.6
847.019	14036.95
847.343	14097.96
847.666	13944.97
847.99	14001.69
848.313	13944.75
848.637	13861.36
848.96	13810.06
849.284	13687.35
849.607	13624.53
849.931	13628.6
850.254	13525.32
850.577	13471.54
850.9	13382.73
851.223	13353.12
851.546	13351.54
851.869	13224.09
852.192	13333.91
852.515	13161.49
852.838	13084.66
853.161	13106.8
853.483	13084.43
853.806	12989.97
854.129	12977.99
854.451	12914.04
854.774	12808.28
855.096	12736.87
855.419	12787.04
855.741	12738.22
856.063	12659.58
856.385	12639.47
856.708	12607.61
857.03	12647.15
857.352	12553.14
857.674	12468.17
857.996	12500.49
858.318	12373.04
858.64	12356.09
858.961	12401.96
859.283	12367.84
859.605	12215.98
859.926	12276.99
860.248	12354.28
860.57	12174.85
860.891	12256.66
861.212	12206.26
861.534	12110.44
861.855	12081.07
862.176	12045.59
862.498	12087.85
862.819	12020.05
863.14	11920.17
863.461	11924.46
863.782	11886.27
864.103	11953.84
864.424	11881.75
864.745	11956.1
865.065	11765.37
865.386	11799.72
865.707	11814.41
866.027	11746.16
866.348	11773.96
866.668	11761.07
866.989	11731.47
867.309	11545.04
867.63	11663.45
867.95	11683.79
868.27	11576
868.59	11624.81
868.91	11611.25
869.23	11534.87
869.55	11535.09
869.87	11555.88
870.19	11577.8
870.51	11554.75
870.83	11500.29
871.15	11391.59
871.469	11431.37
871.789	11450.35
872.109	11472.72
872.428	11343.68
872.748	11364.93
873.067	11408.32
873.386	11306.85
873.706	11401.31
874.025	11320.63
874.344	11274.53
874.663	11296.91
874.982	11262.78
875.301	11321.99
875.62	11230.24
875.939	11205.84
876.258	11153.18
876.577	11140.75
876.896	11141.66
877.214	11087.19
877.533	11171.03
877.852	11085.84
878.17	11157.25
878.489	11070.47
878.807	11066.63
879.125	11124.48
879.444	11062.34
879.762	10969.23
880.08	11017.37
880.398	10924.26
880.716	10954.54
881.034	10934.43
881.352	10917.93
881.67	10844.49
881.988	10922.23
882.306	10876.58
882.624	10795.9
882.941	10744.15
883.259	10733.53
883.577	10715.68
883.894	10641.1
884.212	10641.1
884.529	10543.03
884.846	10542.8
885.164	10622.12
885.481	10524.72
885.798	10535.57
886.115	10472.75
886.432	10483.82
886.75	10363.37
887.067	10424.61
887.383	10383.26
887.7	10382.35
888.017	10348.91
888.334	10276.82
888.651	10282.47
888.967	10219.42
889.284	10272.07
889.6	10222.81
889.917	10164.28
890.233	10228.69
890.55	10141
890.866	10105.53
891.182	10055.58
891.498	10030.95
891.815	9985.53
892.131	9975.81
892.447	9977.84
892.763	9917.96
893.079	9886.1
893.395	9862.59
893.71	9789.6
894.026	9839.54
894.342	9775.82
894.657	9725.87
894.973	9663.28
895.289	9667.34
895.604	9733.11
895.92	9611.3
896.235	9578.31
896.55	9582.15
896.865	9494.47
897.181	9401.81
897.496	9445.66
897.811	9381.93
898.126	9395.94
898.441	9376.73
898.756	9386.22
899.071	9261.48
899.386	9318.88
899.7	9184.65
900.015	9219.9
900.33	9002.28
900.644	9128.83
900.959	9075.04
901.273	9029.4
901.588	9045.67
901.902	9010.86
902.216	9007.7
902.531	8943.97
902.845	8949.85
903.159	8895.61
903.473	8753.7
903.787	8701.04
904.101	8762.51
904.415	8796.18
904.729	8685.45
905.042	8600.48
905.356	8570.88
905.67	8532.91
905.984	8544.66
906.297	8509.18
906.611	8441.39
906.924	8460.37
907.237	8417.21
907.551	8458.79
907.864	8351.22
908.177	8361.84
908.491	8339.7
908.804	8173.37
909.117	8219.93
909.43	8126.37
909.743	8071.68
910.056	8049.53
910.368	8016.54
910.681	8080.49
910.994	8006.82
911.307	7926.15
911.619	7909.2
911.932	7924.11
912.244	7837.79
912.557	7846.83
912.869	7763.67
913.181	7759.15
913.494	7773.16
913.806	7657
914.118	7706.27
914.43	7640.73
914.742	7608.64
915.054	7610.45
915.366	7532.26
915.678	7540.39
915.99	7520.28
916.302	7487.74
916.613	7389.21
916.925	7450.68
917.236	7356.67
917.548	7351.47
917.859	7356.9
918.171	7277.58
918.482	7220.63
918.794	7215.21
919.105	7242.55
919.416	7193.51
919.727	7117.58
920.038	7156
920.349	7086.4
920.66	7009.56
920.971	7061.54
921.282	7005.04
921.593	6915.55
921.903	6910.58
922.214	6867.64
922.525	6935.44
922.835	6822.22
923.146	6808.21
923.456	6780.19
923.767	6825.61
924.077	6776.35
924.387	6725.05
924.697	6697.93
925.008	6618.61
925.318	6613.87
925.628	6621.55
925.938	6595.79
926.248	6560.76
926.558	6508.33
926.867	6521.21
927.177	6525.51
927.487	6413.42
927.796	6381.33
928.106	6386.3
928.416	6370.48
928.725	6305.4
929.034	6312.63
929.344	6337.94
929.653	6310.6
929.962	6231.95
930.271	6214.33
930.581	6199.87
930.89	6104.05
931.199	6123.26
931.508	6123.03
931.817	6105.63
932.125	6086.2
932.434	6084.39
932.743	6036.25
933.051	5955.35
933.36	5966.65
933.669	5909.03
933.977	5892.3
934.286	5852.98
934.594	5857.73
934.902	5834
935.21	5815.92
935.519	5752.19
935.827	5763.04
936.135	5694.79
936.443	5685.08
936.751	5676.04
937.059	5616.83
937.367	5655.02
937.674	5644.63
937.982	5609.6
938.29	5588.58
938.597	5581.58
938.905	5480.56
939.213	5471.75
939.52	5499.77
939.827	5475.36
940.135	5399.89
940.442	5404.41
940.749	5379.55
941.056	5450.96
941.363	5309.49
941.67	5302.49
941.977	5278.53
942.284	5224.07
942.591	5262.26
942.898	5202.15
943.205	5196.95
943.511	5183.39
943.818	5097.07
944.125	5096.17
944.431	5115.15
944.738	5068.82
945.044	5070.63
945.35	5075.38
945.657	5012.55
945.963	4975.04
946.269	4942.72
946.575	4969.16
946.881	4936.4
947.187	4916.51
947.493	4893.91
947.799	4845.55
948.105	4806.23
948.41	4785.67
948.716	4829.96
949.022	4775.95
949.327	4799.45
949.633	4751.54
949.938	4666.57
950.244	4697.98
950.549	4664.09
950.854	4653.47
951.16	4615.5
951.465	4621.15
951.77	4619.34
952.075	4628.16
952.38	4594.94
952.685	4543.41
952.99	4509.06
953.294	4558.1
953.599	4430.42
953.904	4454.15
954.209	4439.46
954.513	4467.71
954.818	4435.17
955.122	4380.7
955.426	4344.55
955.731	4385
956.035	4309.75
956.339	4342.29
956.643	4331.67
956.948	4283.53
957.252	4254.61
957.556	4243.98
957.86	4235.62
958.163	4204.21
958.467	4185.45
958.771	4214.15
959.075	4192.46
959.378	4134.16
959.682	4137.55
959.985	4084.67
960.289	4063.2
960.592	4075.18
960.896	4029.53
961.199	3969.87
961.502	4023.88
961.805	3988.62
962.108	3926.03
962.411	3935.74
962.714	3873.37
963.017	3886.93
963.32	3914.05
963.623	3901.85
963.926	3863.43
964.228	3872.47
964.531	3855.75
964.833	3836.54
965.136	3797.22
965.438	3794.5
965.741	3796.99
966.043	3750.21
966.345	3737.56
966.648	3740.72
966.95	3678.12
967.252	3711.12
967.554	3664.56
967.856	3660.72
968.158	3617.33
968.46	3606.49
968.761	3629.76
969.063	3621.18
969.365	3574.62
969.666	3587.5
969.968	3544.79
970.269	3559.26
970.571	3532.14
970.872	3508.18
971.174	3481.07
971.475	3461.41
971.776	3479.48
972.077	3435.19
972.378	3452.37
972.679	3378.02
972.98	3384.35
973.281	3413.95
973.582	3390.45
973.883	3394.97
974.183	3353.84
974.484	3328.98
974.785	3330.79
975.085	3341.64
975.386	3289.21
975.686	3281.52
975.986	3242.2
976.287	3241.75
976.587	3196.78
976.887	3200.85
977.187	3192.94
977.487	3204.92
977.787	3160.17
978.087	3152.26
978.387	3148.65
978.687	3131.92
978.987	3100.51
979.286	3055.54
979.586	3100.29
979.885	3067.07
980.185	3064.13
980.484	3029.78
980.784	3028.2
981.083	3018.25
981.382	2970.8
981.682	2955.43
981.981	2988.42
982.28	2948.65
982.579	2889.44
982.878	2934.19
983.177	2943.91
983.475	2895.09
983.774	2856.9
984.073	2904.36
984.372	2889.9
984.67	2830.69
984.969	2872.04
985.267	2824.13
985.566	2811.93
985.864	2842.44
986.162	2768.32
986.461	2788.66
986.759	2778.26
987.057	2734.87
987.355	2752.05
987.653	2722.44
987.951	2711.14
988.249	2723.12
988.547	2704.59
988.844	2644.48
989.142	2639.51
989.44	2618.72
989.737	2650.58
990.035	2599.96
990.332	2621.88
990.63	2624.82
990.927	2575.55
991.224	2575.33
991.521	2598.6
991.819	2600.86
992.116	2536.68
992.413	2570.13
992.71	2534.88
993.006	2499.62
993.303	2521.09
993.6	2504.82
993.897	2475.44
994.193	2479.29
994.49	2453.07
994.787	2426.63
995.083	2429.12
995.379	2419.63
995.676	2404.94
995.972	2418.95
996.268	2387.99
996.565	2374.88
996.861	2356.12
997.157	2352.06
997.453	2362
997.749	2322.68
998.044	2309.12
998.34	2269.8
998.636	2334.2
998.932	2286.52
999.227	2248.1
999.523	2235.45
999.818	2241.55
1000.114	2234.32
1000.409	2193.64
1000.704	2195
1001	2178.28
1001.295	2178.05
1001.59	2161.33
1001.885	2134.21
1002.18	2141.44
1002.475	2166.98
1002.77	2105.74
1003.065	2085.17
1003.359	2103.93
1003.654	2089.24
1003.949	2053.99
1004.243	2088.11
1004.538	2032.52
1004.832	2058.73
1005.127	2019.18
1005.421	1970.6
1005.715	1990.48
1006.009	1980.32
1006.304	1973.54
1006.598	1980.32
1006.892	1973.08
1007.186	1931.28
1007.48	1954.33
1007.773	1936.93
1008.067	1905.74
1008.361	1889.02
1008.655	1875.23
1008.948	1889.02
1009.242	1866.65
1009.535	1884.5
1009.829	1851.96
1010.122	1833.88
1010.415	1845.86
1010.708	1829.58
1011.001	1818.51
1011.295	1785.52
1011.588	1773.77
1011.881	1770.83
1012.173	1736.03
1012.466	1754.11
1012.759	1748.46
1013.052	1725.41
1013.344	1713.43
1013.637	1750.26
1013.93	1696.93
1014.222	1709.81
1014.514	1698.74
1014.807	1670.27
1015.099	1638.18
1015.391	1663.26
1015.683	1656.26
1015.976	1629.59
1016.268	1604.05
1016.56	1620.55
1016.851	1558.18
1017.143	1618.74
1017.435	1589.59
1017.727	1572.64
1018.018	1564.05
1018.31	1565.86
1018.602	1531.51
1018.893	1552.3
1019.185	1509.82
1019.476	1481.8
1019.767	1535.36
1020.058	1543.49
1020.35	1496.94
1020.641	1449.93
1020.932	1480.67
1021.223	1474.79
1021.514	1488.12
1021.804	1444.28
1022.095	1418.3
1022.386	1451.29
1022.677	1418.3
1022.967	1382.59
1023.258	1339.65
1023.548	1384.17
1023.839	1376.49
1024.129	1388.47
1024.419	1336.04
1024.709	1362.03
1025	1335.59
1025.29	1306.66
1025.58	1322.03
1025.87	1306.21
1026.16	1305.98
1026.449	1292.88
1026.739	1299.66
1027.029	1280.9
1027.319	1267.34
1027.608	1263.72
1027.898	1252.2
1028.187	1233.22
1028.477	1232.09
1028.766	1234.57
1029.055	1231.41
1029.344	1226.21
1029.634	1198.64
1029.923	1173.1
1030.212	1172.65
1030.501	1173.33
1030.79	1176.27
1031.078	1159.32
1031.367	1157.06
1031.656	1177.4
1031.945	1136.95
1032.233	1125.87
1032.522	1129.72
1032.81	1130.62
1033.099	1122.03
1033.387	1110.28
1033.675	1106.67
1033.963	1088.14
1034.251	1101.24
1034.54	1097.63
1034.828	1087.46
1035.116	1057.18
1035.403	1048.59
1035.691	1044.97
1035.979	1056.5
1036.267	1056.72
1036.554	1025.76
1036.842	1030.96
1037.129	1018.31
1037.417	1014.46
1037.704	995.26
1037.992	1003.62
1038.279	998.65
1038.566	1003.84
1038.853	1003.84
1039.14	1003.84
