Data from hue_100_FLMS001491_00042.txt Node
Date: Tue Feb 07 17:03:13 GMT 2017
User: dcchb
Spectrometer: FLMS00149
Trigger mode: 0
Integration Time (sec): 2.000000E-2
Scans to average: 10
Electric dark correction enabled: true
Nonlinearity correction enabled: false
Boxcar width: 0
XAxis mode: Wavelengths
Number of Pixels in Spectrum: 2048
>>>>>Begin Spectral Data<<<<<
341.393	10.2
341.776	10.2
342.16	10.2
342.543	-44.72
342.927	-65.51
343.31	-67.77
343.693	-75.45
344.077	-64.83
344.46	-62.79
344.843	-61.21
345.226	-53.76
345.61	-42.68
345.993	-30.03
346.376	3.64
346.759	13.81
347.142	42.51
347.525	26.02
347.908	71.44
348.291	80.93
348.674	117.77
349.057	102.4
349.44	140.14
349.823	146.47
350.206	167.03
350.588	200.47
350.971	217.65
351.354	217.42
351.737	259.23
352.119	260.36
352.502	263.3
352.884	266.24
353.267	280.92
353.65	285.9
354.032	307.59
354.414	323.64
354.797	320.92
355.179	324.09
355.562	335.61
355.944	352.34
356.326	339.23
356.709	331.77
357.091	329.51
357.473	336.52
357.855	343.07
358.238	335.16
358.62	330.87
359.002	341.94
359.384	348.27
359.766	338.78
360.148	356.63
360.53	357.31
360.912	364.99
361.294	344.65
361.676	341.94
362.057	346.23
362.439	354.6
362.821	325.22
363.203	329.29
363.584	321.15
363.966	361.83
364.348	329.29
364.729	308.49
365.111	330.19
365.493	332.45
365.874	318.66
366.256	324.09
366.637	333.35
367.019	299.46
367.4	340.58
367.781	325.9
368.163	326.12
368.544	339.68
368.925	332.67
369.306	321.38
369.688	336.06
370.069	341.26
370.45	308.95
370.831	333.13
371.212	336.74
371.593	313.47
371.974	326.8
372.355	322.28
372.736	353.47
373.117	329.51
373.498	318.21
373.879	322.73
374.26	305.33
374.641	314.37
375.021	309.17
375.402	328.83
375.783	337.87
376.163	346.46
376.544	350.75
376.925	340.36
377.305	342.17
377.686	332
378.066	324.99
378.447	342.17
378.827	344.65
379.208	352.79
379.588	363.41
379.968	362.96
380.349	338.1
380.729	343.52
381.109	345.1
381.489	337.65
381.87	362.05
382.25	345.78
382.63	358.66
383.01	346.46
383.39	350.75
383.77	353.47
384.15	352.56
384.53	358.21
384.91	358.66
385.29	361.37
385.67	369.06
386.049	371.32
386.429	378.32
386.809	376.97
387.189	378.78
387.568	361.83
387.948	397.76
388.328	370.41
388.707	369.51
389.087	368.38
389.466	397.08
389.846	382.39
390.225	390.07
390.605	398.44
390.984	379.45
391.363	395.27
391.743	400.47
392.122	396.63
392.501	386.23
392.881	400.24
393.26	376.29
393.639	412.9
394.018	423.07
394.397	390.53
394.776	405.22
395.155	413.35
395.534	406.57
395.913	413.8
396.292	404.99
396.671	421.03
397.05	428.04
397.429	410.41
397.808	422.16
398.186	442.73
398.565	428.49
398.944	436.63
399.323	413.8
399.701	423.75
400.08	429.17
400.458	447.47
400.837	442.5
401.215	450.86
401.594	435.27
401.972	438.43
402.351	445.89
402.729	452.22
403.107	447.47
403.486	434.14
403.864	435.5
404.242	453.35
404.62	475.72
404.999	454.71
405.377	467.59
405.755	473.24
406.133	465.78
406.511	480.69
406.889	456.51
407.267	455.61
407.645	489.51
408.023	473.01
408.401	474.37
408.779	499.68
409.156	498.32
409.534	484.99
409.912	514.82
410.29	509.85
410.667	499.9
411.045	509.62
411.422	511.2
411.8	518.43
412.178	521.14
412.555	509.39
412.933	528.83
413.31	545.32
413.687	561.14
414.065	543.52
414.442	571.54
414.819	543.74
415.197	556.4
415.574	545.32
415.951	548.49
416.328	575.61
416.705	578.32
417.082	562.95
417.46	565.44
417.837	578.32
418.214	554.36
418.591	583.74
418.967	592.56
419.344	609.96
419.721	590.3
420.098	600.69
420.475	618.09
420.852	598.43
421.228	615.15
421.605	607.24
421.982	632.1
422.358	600.92
422.735	630.52
423.111	649.73
423.488	632.55
423.864	627.81
424.241	652.44
424.617	630.75
424.994	654.02
425.37	669.84
425.746	655.6
426.123	675.72
426.499	668.49
426.875	686.34
427.251	685.89
427.627	708.26
428.003	710.29
428.379	720.91
428.756	694.25
429.132	711.42
429.507	699.67
429.883	726.34
430.259	749.61
430.635	751.42
431.011	748.26
431.387	749.39
431.763	765.21
432.138	753.91
432.514	770.63
432.89	809.5
433.265	803.17
433.641	808.82
434.016	786.9
434.392	792.78
434.767	828.48
435.143	800.91
435.518	841.81
435.894	832.55
436.269	870.06
436.644	866.67
437.02	866.9
437.395	874.81
437.77	875.49
438.145	907.12
438.52	906.45
438.895	892.43
439.271	901.93
439.646	924.52
440.021	915.48
440.395	935.82
440.77	918.87
441.145	940.12
441.52	940.57
441.895	974.24
442.27	950.51
442.645	976.73
443.019	1007.23
443.394	950.51
443.769	1000.91
444.143	1014.24
444.518	982.15
444.892	986.67
445.267	991.19
445.641	1008.59
446.016	1014.01
446.39	1012.88
446.764	1031.87
447.139	1058.31
447.513	1063.28
447.887	1040
448.262	1074.8
448.636	1060.79
449.01	1086.78
449.384	1100.34
449.758	1100.34
450.132	1119.32
450.506	1103.73
450.88	1116.38
451.254	1123.61
451.628	1148.47
452.002	1155.93
452.376	1166.78
452.75	1183.73
453.123	1193.9
453.497	1197.74
453.871	1217.4
454.244	1212.43
454.618	1225.76
454.992	1254.01
455.365	1201.35
455.739	1317.73
456.112	1300.79
456.486	1303.27
456.859	1306.43
457.232	1346.66
457.606	1328.13
457.979	1345.76
458.352	1378.98
458.725	1406.77
459.099	1430.27
459.472	1452.87
459.845	1452.65
460.218	1474.11
460.591	1489.03
460.964	1483.38
461.337	1522.7
461.71	1560.89
462.083	1569.03
462.456	1562.93
462.829	1588.69
463.201	1603.6
463.574	1627.33
463.947	1639.99
464.32	1674.79
464.692	1717.27
465.065	1698.97
465.438	1724.5
465.81	1767.21
466.183	1791.17
466.555	1843.82
466.928	1857.15
467.3	1874.78
467.672	1896.7
468.045	1954.1
468.417	1955.23
468.789	2014.44
469.161	1983.25
469.534	2049.01
469.906	2091.27
470.278	2064.83
470.65	2138.28
471.022	2204.04
471.394	2238.84
471.766	2270.48
472.138	2299.4
472.51	2373.53
472.882	2437.48
473.253	2473.86
473.625	2492.17
473.997	2580.07
474.369	2601.99
474.74	2641.31
475.112	2711.37
475.484	2765.15
475.855	2841.99
476.227	2875.66
476.598	2978.03
476.97	2992.72
477.341	3144.13
477.713	3220.51
478.084	3267.29
478.455	3345.25
478.827	3414.85
479.198	3534.17
479.569	3599.93
479.94	3714.05
480.311	3774.84
480.682	3911.79
481.053	4030.43
481.424	4146.81
481.795	4209.86
482.166	4297.99
482.537	4415.96
482.908	4569.85
483.279	4696.18
483.65	4785.44
484.021	4931.88
484.391	5031.53
484.762	5127.13
485.133	5228.59
485.503	5329.15
485.874	5527.34
486.244	5700.44
486.615	5782.48
486.985	5965.52
487.356	6136.14
487.726	6226.08
488.097	6459.97
488.467	6513.98
488.837	6744.26
489.207	6870.81
489.578	7062.89
489.948	7149.9
490.318	7318.25
490.688	7435.09
491.058	7603.22
491.428	7873.72
491.798	7937.22
492.168	8161.17
492.538	8270.09
492.908	8464.89
493.278	8604.77
493.648	8734.04
494.017	8958.66
494.387	9080.02
494.757	9207.92
495.126	9372.66
495.496	9540.57
495.866	9614.01
496.235	9817.62
496.605	9910.28
496.974	10047
497.344	10227.56
497.713	10332.64
498.082	10379.64
498.452	10625.74
498.821	10676.58
499.19	10779.86
499.559	11010.36
499.928	11112.05
500.298	11241.09
500.667	11354.76
501.036	11403.34
501.405	11550.68
501.774	11611.25
502.143	11796.55
502.512	11896.44
502.88	12085.36
503.249	11993.39
503.618	12246.03
503.987	12206.49
504.356	12430.66
504.724	12529.42
505.093	12570.55
505.462	12598.57
505.83	12801.27
506.199	12951.55
506.567	13161.26
506.936	13130.53
507.304	13244.2
507.672	13247.59
508.041	13373.46
508.409	13585.43
508.777	13633.12
509.145	13714.24
509.514	13710.4
509.882	13919.89
510.25	13921.47
510.618	13980.68
510.986	14028.59
511.354	14125.53
511.722	14276.94
512.09	14366.2
512.458	14360.1
512.826	14459.31
513.193	14553.09
513.561	14598.74
513.929	14650.72
514.297	14767.55
514.664	14795.12
515.032	14819.75
515.4	14947.21
515.767	15000.76
516.135	15110.37
516.502	14922.12
516.869	15098.39
517.237	15240.31
517.604	15144.71
517.972	15372.05
518.339	15409.11
518.706	15437.81
519.073	15464.71
519.44	15499.06
519.808	15677.13
520.175	15602.33
520.542	15775.43
520.909	15801.42
521.276	15796.45
521.643	15943.11
522.009	15931.13
522.376	15939.27
522.743	16059.49
523.11	16097.23
523.477	16207.74
523.843	16252.26
524.21	16475.98
524.577	16471.23
524.943	16513.49
525.31	16489.31
525.676	16645.24
526.043	16654.28
526.409	16703.54
526.776	16824.67
527.142	16838.46
527.508	16806.82
527.874	16938.11
528.241	16965.68
528.607	16866.25
528.973	17103.31
529.339	16935.4
529.705	17091.56
530.071	17111.89
530.437	17106.92
530.803	17113.02
531.169	17181.72
531.535	17095.62
531.901	17047.04
532.267	17136.75
532.632	17162.97
532.998	17241.61
533.364	17255.39
533.73	17154.38
534.095	17208.84
534.461	17270.99
534.826	17391.21
535.192	17293.81
535.557	17297.43
535.923	17197.32
536.288	17200.71
536.653	17227.37
537.019	17061.5
537.384	17174.27
537.749	17188.5
538.114	17217.65
538.479	17179.92
538.845	17190.31
539.21	17082.74
539.575	17095.62
539.94	17085.23
540.305	17200.25
540.67	17041.39
541.034	17066.02
541.399	17045.68
541.764	17034.16
542.129	16943.54
542.494	17041.61
542.858	16964.1
543.223	16988.06
543.587	16989.19
543.952	16903.09
544.316	16827.61
544.681	16793.26
545.045	16882.52
545.41	16892.92
545.774	16908.96
546.138	16788.97
546.503	16791.23
546.867	16628.74
547.231	16726.14
547.595	16685.92
547.959	16685.92
548.324	16636.88
548.688	16532.93
549.052	16576.99
549.416	16649.99
549.779	16523.89
550.143	16449.77
550.507	16547.39
550.871	16524.34
551.235	16468.52
551.599	16546.49
551.962	16504.91
552.326	16510.78
552.689	16528.18
553.053	16381.74
553.417	16388.52
553.78	16441.63
554.143	16377.45
554.507	16366.15
554.87	16477.79
555.234	16493.61
555.597	16341.29
555.96	16361.41
556.323	16299.03
556.686	16333.38
557.05	16390.56
557.413	16387.39
557.776	16423.55
558.139	16364.57
558.502	16375.64
558.865	16324.57
559.228	16457.67
559.59	16389.2
559.953	16322.76
560.316	16501.52
560.679	16456.32
561.041	16460.39
561.404	16402.99
561.767	16489.76
562.129	16474.85
562.492	16576.54
562.854	16499.03
563.217	16514.4
563.579	16583.55
563.941	16614.05
564.304	16566.6
564.666	16657.44
565.028	16656.09
565.39	16651.12
565.753	16779.93
566.115	16798.46
566.477	16826.7
566.839	16862.86
567.201	16836.2
567.563	16859.25
567.925	16899.47
568.287	16911.22
568.648	16843.65
569.01	16996.87
569.372	17043.65
569.734	16919.36
570.095	16955.51
570.457	17017.43
570.819	16964.33
571.18	16978.34
571.542	17070.99
571.903	17064.66
572.265	17237.32
572.626	17256.3
572.987	17242.96
573.349	17287.71
573.71	17172.01
574.071	17223.98
574.432	17219.24
574.794	17315.96
575.155	17413.58
575.516	17292.68
575.877	17285
576.238	17359.57
576.599	17408.61
576.96	17382.85
577.32	17375.39
577.681	17367.48
578.042	17387.82
578.403	17337.88
578.763	17380.14
579.124	17372.9
579.485	17443.41
579.845	17466.24
580.206	17450.87
580.566	17482.05
580.927	17427.59
581.287	17480.47
581.648	17458.78
582.008	17427.82
582.368	17390.08
582.728	17430.3
583.089	17461.49
583.449	17395.05
583.809	17447.93
584.169	17499.91
584.529	17328.61
584.889	17491.32
585.249	17358.67
585.609	17305.34
585.969	17471.21
586.329	17337.88
586.688	17343.75
587.048	17329.29
587.408	17306.01
587.768	17333.13
588.127	17337.65
588.487	17336.75
588.846	17400.02
589.206	17258.56
589.565	17195.28
589.925	17396.86
590.284	17258.33
590.643	17289.07
591.003	17289.29
591.362	17383.07
591.721	17293.13
592.08	17292.23
592.44	17259.69
592.799	17307.14
593.158	17263.53
593.517	17293.81
593.876	17169.97
594.235	17191.44
594.593	17097.88
594.952	17226.69
595.311	17153.7
595.67	17141.5
596.029	17321.38
596.387	17334.26
596.746	17268.73
597.104	17205.45
597.463	17184.21
597.822	17185.11
598.18	17160.03
598.538	17155.06
598.897	17238.9
599.255	17038.22
599.613	17307.14
599.972	17160.93
600.33	17158.9
600.688	17099.69
601.046	17234.6
601.404	17290.65
601.762	17263.53
602.12	17281.61
602.478	17306.01
602.836	17288.84
603.194	17215.17
603.552	17200.25
603.91	17160.48
604.268	17207.49
604.625	17096.3
604.983	17325.45
605.341	17112.35
605.698	17277.77
606.056	17246.35
606.413	17225.56
606.771	17301.27
607.128	17229.18
607.485	17210.65
607.843	17248.16
608.2	17393.47
608.557	17312.57
608.914	17225.79
609.272	17355.73
609.629	17410.42
609.986	17404.77
610.343	17336.52
610.7	17497.87
611.057	17466.24
611.414	17461.72
611.771	17416.52
612.127	17576.52
612.484	17524.09
612.841	17542.62
613.198	17541.49
613.554	17523.41
613.911	17553.92
614.267	17560.92
614.624	17499.23
614.98	17576.06
615.337	17618.1
615.693	17571.77
616.05	17563.18
616.406	17606.12
616.762	17654.93
617.118	17576.74
617.475	17577.65
617.831	17651.99
618.187	17694.7
618.543	17750.3
618.899	17797.07
619.255	17803.4
619.611	17762.73
619.967	17847.69
620.323	17872.1
620.678	17777.19
621.034	17725.89
621.39	17761.6
621.746	17649.73
622.101	17950.74
622.457	17732.22
622.812	17844.08
623.168	17892.67
623.523	17896.28
623.879	17853.8
624.234	17719.11
624.589	17856.28
624.945	17754.14
625.3	17797.98
625.655	17859.22
626.01	17727.02
626.365	17939.9
626.72	17775.38
627.075	17794.59
627.43	17771.99
627.785	17742.39
628.14	17746.45
628.495	17849.95
628.85	17713.69
629.205	17719.56
629.559	17797.53
629.914	17731.77
630.269	17794.36
630.623	17693.12
630.978	17636.4
631.332	17707.13
631.687	17683.86
632.041	17599.11
632.396	17600.24
632.75	17644.54
633.104	17527.93
633.459	17519.79
633.813	17512.34
634.167	17525.9
634.521	17512.11
634.875	17585.78
635.229	17472.79
635.583	17466.69
635.937	17454.26
636.291	17442.51
636.645	17458.78
636.999	17365.22
637.352	17436.41
637.706	17372.23
638.06	17373.36
638.413	17366.35
638.767	17166.58
639.121	17244.77
639.474	17225.11
639.828	17174.04
640.181	17191.67
640.534	17215.85
640.888	17160.03
641.241	17019.69
641.594	17052.91
641.947	17149.18
642.301	17036.87
642.654	17078.22
643.007	17177.2
643.36	17116.64
643.713	17098.79
644.066	17154.83
644.419	16994.61
644.771	17019.24
645.124	16711.23
645.477	16750.1
645.83	16692.92
646.182	16536.54
646.535	16520.27
646.888	16528.63
647.24	16434.17
647.593	16535.41
647.945	16456.77
648.298	16489.31
648.65	16355.76
649.002	16304.91
649.355	16562.98
649.707	16464.23
650.059	16483.66
650.411	16651.79
650.763	16786.03
651.115	16895.63
651.467	16840.94
651.819	16716.2
652.171	16790.1
652.523	16792.36
652.875	16876.19
653.227	16703.77
653.578	16800.49
653.93	16870.32
654.282	16751.9
654.633	16689.98
654.985	16733.37
655.337	16703.54
655.688	16750.77
656.039	16871
656.391	16737.44
656.742	16717.33
657.094	16827.16
657.445	16799.59
657.796	16728.85
658.147	16794.84
658.498	16744.9
658.849	16899.7
659.2	16689.08
659.551	16674.62
659.902	16827.38
660.253	16682.75
660.604	16694.73
660.955	16677.1
661.306	16772.92
661.656	16751.68
662.007	16737.89
662.358	16829.64
662.708	16737.67
663.059	16832.13
663.409	16700.38
663.76	16863.99
664.11	16717.33
664.461	16871.9
664.811	16823.99
665.161	16899.7
665.511	16762.75
665.862	16845.01
666.212	16931.11
666.562	16862.41
666.912	16838.91
667.262	16833.71
667.612	16803.65
667.962	16823.54
668.312	16777.67
668.662	16903.76
669.011	16782.64
669.361	16869.64
669.711	16866.7
670.06	16769.53
670.41	16701.51
670.76	16723.43
671.109	16850.21
671.459	16724.79
671.808	16791
672.157	16705.35
672.507	16613.6
672.856	16676.88
673.205	16588.74
673.554	16668.29
673.904	16648.86
674.253	16697.22
674.602	16632.13
674.951	16342.42
675.3	16395.08
675.649	16539.71
675.998	16556.88
676.346	16541.74
676.695	16623.55
677.044	16497.45
677.393	16537.45
677.741	16491.35
678.09	16528.41
678.438	16456.09
678.787	16431.46
679.135	16514.62
679.484	16410.67
679.832	16322.54
680.181	16311.46
680.529	16261.52
680.877	16293.39
681.225	16269.43
681.573	16317.79
681.922	16172.71
682.27	16181.3
682.618	16160.96
682.966	16117.8
683.314	16215.87
683.661	16028.76
684.009	15968.65
684.357	15984.47
684.705	15984.47
685.053	15966.84
685.4	15913.51
685.748	15766.17
686.095	15838.71
686.443	15753.06
686.79	15762.55
687.138	15745.83
687.485	15815.66
687.832	15609.34
688.18	15697.69
688.527	15601.2
688.874	15577.92
689.221	15530.69
689.568	15403.47
689.915	15475.33
690.262	15429.68
690.609	15413.18
690.956	15401.88
691.303	15387.87
691.65	15216.35
691.997	15268.33
692.344	15179.29
692.69	15033.31
693.037	15073.98
693.383	14904.5
693.73	15049.8
694.077	14965.51
694.423	14869.24
694.769	14934.55
695.116	14796.7
695.462	14805.97
695.808	14691.39
696.155	14691.85
696.501	14602.36
696.847	14615.01
697.193	14467.22
697.539	14509.48
697.885	14391.74
698.231	14362.36
698.577	14304.96
698.923	14289.14
699.269	14213.21
699.614	14115.14
699.96	14092.99
700.306	14140.67
700.651	13970.73
700.997	13977.51
701.342	14008.47
701.688	13917.4
702.033	13897.06
702.379	13770.51
702.724	13710.18
703.069	13815.26
703.415	13611.42
703.76	13743.85
704.105	13541.59
704.45	13522.84
704.795	13466.79
705.14	13446.23
705.485	13473.57
705.83	13388.6
706.175	13361.26
706.52	13335.27
706.865	13207.82
707.209	13232.22
707.554	13188.83
707.899	13166.91
708.243	13038.56
708.588	13015.05
708.932	13004.21
709.277	12982.29
709.621	12952
709.966	12906.58
710.31	12944.55
710.654	12775.74
710.998	12742.29
711.342	12810.31
711.687	12709.07
712.031	12645.57
712.375	12606.7
712.719	12690.32
713.063	12563.77
713.407	12719.24
713.75	12531.22
714.094	12530.32
714.438	12555.63
714.782	12548.17
715.125	12445.35
715.469	12394.5
715.812	12375.97
716.156	12321.74
716.499	12298.46
716.843	12332.59
717.186	12300.5
717.53	12328.29
717.873	12329.87
718.216	12271.34
718.559	12249.88
718.902	12121.29
719.246	12263.43
719.589	12181.85
719.932	12153.16
720.275	12151.35
720.617	12115.87
720.96	12079.71
721.303	12127.62
721.646	12079.71
721.989	11978.47
722.331	12131.46
722.674	12095.98
723.016	12013.05
723.359	12027.28
723.701	12005.36
724.044	11985.02
724.386	11895.76
724.729	11963.1
725.071	11973.95
725.413	11925.14
725.755	11968.3
726.097	11865.7
726.439	11789.77
726.782	11814.18
727.124	11881.52
727.465	11768.08
727.807	11813.5
728.149	11796.78
728.491	11728.31
728.833	11783.45
729.175	11799.94
729.516	11743.45
729.858	11696.22
730.199	11725.82
730.541	11757.69
730.882	11750.45
731.224	11784.35
731.565	11662.55
731.906	11694.64
732.248	11773.5
732.589	11713.84
732.93	11619.16
733.271	11686.27
733.612	11649.21
733.953	11689.44
734.294	11630
734.635	11655.77
734.976	11672.49
735.317	11666.84
735.658	11592.27
735.999	11678.82
736.339	11573.74
736.68	11652.6
737.021	11633.39
737.361	11572.15
737.702	11640.4
738.042	11687.63
738.383	11657.12
738.723	11646.95
739.063	11613.06
739.404	11656.44
739.744	11614.64
740.084	11675.88
740.424	11757.46
740.764	11639.5
741.104	11772.83
741.444	11665.94
741.784	11681.75
742.124	11774.41
742.464	11682.21
742.804	11737.8
743.143	11762.2
743.483	11782.32
743.823	11767.4
744.162	11783.45
744.502	11829.1
744.841	11881.07
745.181	11897.12
745.52	11982.54
745.86	12044.91
746.199	12097.56
746.538	12079.71
746.877	12155.41
747.216	12190.22
747.556	12205.81
747.895	12328.07
748.234	12387.05
748.573	12352.92
748.911	12432.02
749.25	12413.94
749.589	12503.43
749.928	12629.3
750.267	12665.46
750.605	12724.21
750.944	12781.39
751.283	12845.57
751.621	12944.77
751.96	12982.51
752.298	13095.05
752.636	13160.59
752.975	13316.06
753.313	13352.67
753.651	13556.51
753.989	13612.78
754.327	13754.02
754.666	13775.49
755.004	13912.88
755.342	14160.56
755.679	14235.36
756.017	14306.32
756.355	14561
756.693	14561.23
757.031	14770.71
757.368	14977.49
757.706	15042.12
758.044	15150.59
758.381	15383.35
758.719	15509.45
759.056	15704.47
759.394	15772.72
759.731	15939.95
760.068	16122.32
760.405	16215.65
760.743	16320.5
761.08	16671.68
761.417	16722.07
761.754	16899.47
762.091	17118
762.428	17167.49
762.765	17366.58
763.102	17588.49
763.438	17728.15
763.775	17806.11
764.112	17990.97
764.449	18246.1
764.785	18254.69
765.122	18424.4
765.458	18488.36
765.795	18681.57
766.131	18851.51
766.467	18948
766.804	19084.5
767.14	19184.38
767.476	19344.83
767.812	19280.43
768.148	19588.67
768.485	19600.19
768.821	19634.09
769.157	19852.61
769.492	19957.24
769.828	20143
770.164	19946.85
770.5	20215.54
770.836	20270.46
771.171	20222.1
771.507	20399.27
771.842	20416.67
772.178	20533.95
772.513	20678.35
772.849	20678.81
773.184	20628.86
773.519	20848.75
773.855	20854.62
774.19	20884.68
774.525	20931.68
774.86	21108.63
775.195	21125.57
775.53	21096.65
775.865	21161.51
776.2	21091.68
776.535	21132.58
776.87	21162.41
777.205	21166.03
777.539	21182.07
777.874	21369.64
778.209	21186.36
778.543	21194.95
778.878	21258.45
779.212	21170.32
779.547	21218.45
779.881	21326.25
780.215	21230.66
780.55	21291.22
780.884	21263.2
781.218	21271.33
781.552	21298
781.886	21214.16
782.22	21208.51
782.554	21224.78
782.888	21134.84
783.222	21013.71
783.556	21058.01
783.889	21032.92
784.223	20888.97
784.557	20843.1
784.89	21003.54
785.224	20976.88
785.557	20928.29
785.891	20859.82
786.224	20800.39
786.558	20848.52
786.891	20721.74
787.224	20605.14
787.557	20638.81
787.891	20660.28
788.224	20498.7
788.557	20645.81
788.89	20610.56
789.223	20538.47
789.556	20476.33
789.888	20521.07
790.221	20474.74
790.554	20386.38
790.887	20242.66
791.219	20250.12
791.552	20258.48
791.884	20091.93
792.217	20166.73
792.549	20159.72
792.882	20037.69
793.214	19940.29
793.546	19995.66
793.879	19925.61
794.211	19740.3
794.543	19921.76
794.875	19853.07
795.207	19942.55
795.539	19733.52
795.871	19793.18
796.203	19651.04
796.535	19492.85
796.867	19538.95
797.198	19488.33
797.53	19528.55
797.862	19299.86
798.193	19296.7
798.525	19242.46
798.856	19336.02
799.188	19174.44
799.519	19020.32
799.85	18948.46
800.182	19125.4
800.513	18984.84
800.844	18784.17
801.175	19012.86
801.506	18950.72
801.837	18835.47
802.168	18799.31
802.499	18706.66
802.83	18559.31
803.161	18631.18
803.491	18634.11
803.822	18727.45
804.153	18447.23
804.483	18403.61
804.814	18335.37
805.145	18455.59
805.475	18403.61
805.805	18223.73
806.136	18270.28
806.466	18283.16
806.796	18246.1
807.126	18152.55
807.457	18056.28
807.787	18078.87
808.117	17959.56
808.447	17907.35
808.777	18047.69
809.107	17875.49
809.436	17794.59
809.766	17841.82
810.096	17713.01
810.426	17678.66
810.755	17635.5
811.085	17618.1
811.414	17667.36
811.744	17424.65
812.073	17392.79
812.403	17522.96
812.732	17349.63
813.061	17304.88
813.39	17295.39
813.719	17269.4
814.049	17308.73
814.378	17327.26
814.707	17183.76
815.036	17155.74
815.365	17049.98
815.693	16965.23
816.022	16940.15
816.351	17028.28
816.68	16894.73
817.008	16981.95
817.337	16798.91
817.665	16763.66
817.994	16835.52
818.322	16800.94
818.651	16666.71
818.979	16707.16
819.307	16778.12
819.636	16736.09
819.964	16568.63
820.292	16675.07
820.62	16666.93
820.948	16578.8
821.276	16600.04
821.604	16556.66
821.932	16676.88
822.259	16570.67
822.587	16581.51
822.915	16465.81
823.243	16560.95
823.57	16525.7
823.898	16550.1
824.225	16492.93
824.553	16501.52
824.88	16580.84
825.207	16539.25
825.535	16470.78
825.862	16591.46
826.189	16413.16
826.516	16547.16
826.843	16549.42
827.17	16597.33
827.497	16509.88
827.824	16527.96
828.151	16539.93
828.478	16549.65
828.805	16618.35
829.131	16531.12
829.458	16527.96
829.785	16319.15
830.111	16546.49
830.438	16563.89
830.764	16570.67
831.09	16512.81
831.417	16418.81
831.743	16467.17
832.069	16434.85
832.395	16405.25
832.722	16588.97
833.048	16435.98
833.374	16438.01
833.7	16313.72
834.026	16383.78
834.351	16468.07
834.677	16335.64
835.003	16346.49
835.329	16360.73
835.654	16386.04
835.98	16200.28
836.306	16279.15
836.631	16186.72
836.956	16284.8
837.282	16337.23
837.607	16191.01
837.932	16138.59
838.258	16169.32
838.583	16114.41
838.908	15958.48
839.233	16106.05
839.558	15980.63
839.883	16028.31
840.208	15935.65
840.533	15955.09
840.858	16027.18
841.182	15931.13
841.507	15866.05
841.832	15802.78
842.156	15896.79
842.481	15833.96
842.805	15692.5
843.13	15681.65
843.454	15736.34
843.778	15667.86
844.103	15661.09
844.427	15618.83
844.751	15573.63
845.075	15560.52
845.399	15394.2
845.723	15402.34
846.047	15456.12
846.371	15285.5
846.695	15248.44
847.019	15135.22
847.343	15123.25
847.666	15077.37
847.99	14966.64
848.313	14975.45
848.637	14868.79
848.96	14850.94
849.284	14740.43
849.607	14684.39
849.931	14680.77
850.254	14574.56
850.577	14437.16
850.9	14401.68
851.223	14430.16
851.546	14217.96
851.869	14136.38
852.192	14359.65
852.515	14193.1
852.838	14107.23
853.161	14074.69
853.483	14016.16
853.806	14071.3
854.129	13984.29
854.451	13853.68
854.774	13874.24
855.096	13702.27
855.419	13746.56
855.741	13699.33
856.063	13596.96
856.385	13607.35
856.708	13544.53
857.03	13525.32
857.352	13520.12
857.674	13436.96
857.996	13383.86
858.318	13322.84
858.64	13348.83
858.961	13298.66
859.283	13299.11
859.605	13170.3
859.926	13231.09
860.248	13085.11
860.57	13169.17
860.891	13197.2
861.212	13023.41
861.534	12999.23
861.855	13019.8
862.176	12961.04
862.498	12990.87
862.819	12892.8
863.14	12903.19
863.461	12905.9
863.782	12803.99
864.103	12858.22
864.424	12779.35
864.745	12844.89
865.065	12779.35
865.386	12739.81
865.707	12743.65
866.027	12654.38
866.348	12634.5
866.668	12699.36
866.989	12672.01
867.309	12558.12
867.63	12497.1
867.95	12496.42
868.27	12488.97
868.59	12537.1
868.91	12467.72
869.23	12465.24
869.55	12472.69
869.87	12521.28
870.19	12372.13
870.51	12424.11
870.83	12395.41
871.15	12313.15
871.469	12377.56
871.789	12379.59
872.109	12271.12
872.428	12234.06
872.748	12318.35
873.067	12250.78
873.386	12239.71
873.706	12132.59
874.025	12162.42
874.344	12135.3
874.663	12041.07
874.982	12115.64
875.301	12106.38
875.62	12075.42
875.939	11995.87
876.258	12060.5
876.577	11957.45
876.896	11966.49
877.214	11956.78
877.533	11920.39
877.852	11884.24
878.17	11879.26
878.489	11831.13
878.807	11816.67
879.125	11799.49
879.444	11807.85
879.762	11744.13
880.08	11748.87
880.398	11718.82
880.716	11733.05
881.034	11673.17
881.352	11661.19
881.67	11594.98
881.988	11643.79
882.306	11619.61
882.624	11563.57
882.941	11453.29
883.259	11490.12
883.577	11513.85
883.894	11429.33
884.212	11414.19
884.529	11416.68
884.846	11334.42
885.164	11401.54
885.481	11316.57
885.798	11311.6
886.115	11240.18
886.432	11265.95
886.75	11207.19
887.067	11256.68
887.383	11165.38
887.7	11165.16
888.017	11177.81
888.334	11216.68
888.651	11018.72
888.967	11144.59
889.284	11037.03
889.6	10986.63
889.917	10928.33
890.233	10980.3
890.55	10891.49
890.866	10907.76
891.182	10796.58
891.498	10830.03
891.815	10782.57
892.131	10755
892.447	10708.67
892.763	10648.56
893.079	10616.25
893.395	10585.96
893.71	10548.9
894.026	10588.45
894.342	10561.33
894.657	10431.84
894.973	10415.8
895.289	10450.6
895.604	10408.34
895.92	10318.63
896.235	10310.04
896.55	10299.87
896.865	10221.91
897.181	10196.14
897.496	10207.44
897.811	10168.57
898.126	10090.38
898.441	10009.71
898.756	10008.35
899.071	9945.08
899.386	9995.47
899.7	9905.53
900.015	9854.23
900.33	9820.56
900.644	9743.73
900.959	9750.51
901.273	9765.87
901.588	9668.93
901.902	9609.72
902.216	9634.13
902.531	9541.92
902.845	9460.57
903.159	9531.53
903.473	9399.56
903.787	9424.87
904.101	9415.83
904.415	9361.82
904.729	9361.14
905.042	9274.81
905.356	9276.39
905.67	9228.49
905.984	9191.42
906.297	9238.88
906.611	9150.3
906.924	9163.63
907.237	9059.68
907.551	9066
907.864	8916.63
908.177	8879.34
908.491	8919.79
908.804	8862.85
909.117	8844.32
909.43	8784.43
909.743	8828.72
910.056	8743.75
910.368	8681.83
910.681	8664.21
910.994	8618.56
911.307	8583.53
911.619	8528.17
911.932	8614.04
912.244	8555.74
912.557	8439.35
912.869	8319.58
913.181	8360.49
913.494	8337.44
913.806	8359.81
914.118	8268.96
914.43	8213.37
914.742	8218.34
915.054	8170.21
915.366	8159.59
915.678	8108.74
915.99	8094.05
916.302	8017.67
916.613	7972.02
916.925	7972.47
917.236	7934.73
917.548	7921.18
917.859	7864.23
918.171	7879.82
918.482	7807.28
918.794	7738.13
919.105	7779.03
919.416	7693.61
919.727	7729.32
920.038	7662.65
920.349	7597.79
920.66	7593.05
920.971	7581.98
921.282	7503.79
921.593	7502.66
921.903	7417.01
922.214	7395.54
922.525	7412.49
922.835	7403
923.146	7353.06
923.456	7261.98
923.767	7219.73
924.077	7328.88
924.387	7197.35
924.697	7192.38
925.008	7210.91
925.318	7200.74
925.628	7120.74
925.938	7062.89
926.248	7028.32
926.558	6956.46
926.867	6995.78
927.177	6933.63
927.487	6962.33
927.796	6883.69
928.106	6838.72
928.416	6845.05
928.725	6812.96
929.034	6736.8
929.344	6758.49
929.653	6737.03
929.962	6644.37
930.271	6642.57
930.581	6614.77
930.89	6710.13
931.199	6551.72
931.508	6529.8
931.817	6547.65
932.125	6454.32
932.434	6462.46
932.743	6419.97
933.051	6415.9
933.36	6386.08
933.669	6342.23
933.977	6288
934.286	6290.48
934.594	6239.41
934.902	6253.88
935.21	6204.84
935.519	6183.14
935.827	6158.74
936.135	6122.13
936.443	6069.47
936.751	6097.72
937.059	6073.77
937.367	6005.52
937.674	6030.83
937.982	6011.62
938.29	5947.44
938.597	5927.78
938.905	5916.93
939.213	5904.96
939.52	5824.28
939.827	5882.36
940.135	5797.84
940.442	5737.73
940.749	5769.37
941.056	5747.9
941.363	5738.41
941.67	5672.42
941.977	5719.43
942.284	5616.38
942.591	5632.2
942.898	5587.68
943.205	5557.62
943.511	5575.47
943.818	5602.59
944.125	5500.22
944.431	5536.15
944.738	5470.39
945.044	5399.43
945.35	5415.03
945.657	5375.93
945.963	5344.97
946.269	5323.28
946.575	5326.22
946.881	5291.64
947.187	5281.47
947.493	5235.6
947.799	5187.01
948.105	5190.17
948.41	5163.96
948.716	5127.58
949.022	5108.14
949.327	5104.07
949.633	5077.63
949.938	5065.21
950.244	5060.01
950.549	5023.17
950.854	4958.54
951.16	4996.51
951.465	4938.43
951.77	4926.9
952.075	4951.31
952.38	4899.33
952.685	4894.14
952.99	4853.23
953.294	4818.43
953.599	4792.22
953.904	4828.6
954.209	4754.93
954.513	4755.84
954.818	4686.46
955.122	4730.98
955.426	4675.39
955.731	4694.82
956.035	4609.4
956.339	4637.87
956.643	4655.73
956.948	4558.33
957.252	4625.22
957.556	4549.06
957.86	4543.86
958.163	4461.61
958.467	4501.15
958.771	4517.42
959.075	4443.98
959.378	4404.21
959.682	4410.31
959.985	4428.84
960.289	4348.16
960.592	4316.07
960.896	4337.32
961.199	4332.8
961.502	4301.61
961.805	4261.16
962.108	4262.97
962.411	4204.44
962.714	4178.9
963.017	4199.24
963.32	4189.52
963.623	4182.97
963.926	4195.62
964.228	4120.15
964.531	4106.13
964.833	4116.08
965.136	4082.63
965.438	4054.38
965.741	4046.02
966.043	4044.44
966.345	4028.85
966.648	4016.87
966.95	3961.05
967.252	3945.01
967.554	3942.75
967.856	3919.47
968.158	3881.96
968.46	3871.79
968.761	3860.94
969.063	3850.77
969.365	3802.41
969.666	3846.25
969.968	3804.67
970.269	3801.51
970.571	3790.21
970.872	3773.71
971.174	3748.63
971.475	3742.75
971.776	3665.47
972.077	3674.28
972.378	3688.97
972.679	3674.73
972.98	3644.9
973.281	3620.05
973.582	3598.35
973.883	3578.92
974.183	3560.61
974.484	3566.04
974.785	3534.17
975.085	3547.05
975.386	3526.04
975.686	3529.88
975.986	3491.24
976.287	3455.08
976.587	3459.82
976.887	3425.47
977.187	3430.9
977.487	3411.69
977.787	3409.2
978.087	3359.49
978.387	3358.36
978.687	3361.52
978.987	3344.12
979.286	3272.48
979.586	3313.84
979.885	3280.17
980.185	3253.73
980.484	3268.19
980.784	3274.74
981.083	3268.42
981.382	3232.49
981.682	3199.04
981.981	3176.22
982.28	3208.31
982.579	3178.48
982.878	3155.2
983.177	3149.32
983.475	3115.65
983.774	3082.21
984.073	3099.83
984.372	3075.2
984.67	3080.63
984.969	3065.71
985.267	3059.16
985.566	3008.31
985.864	3034.98
986.162	2991.36
986.461	2961.08
986.759	2942.55
987.057	2934.64
987.355	2912.49
987.653	2912.72
987.951	2897.58
988.249	2922.21
988.547	2858.71
988.844	2869.78
989.142	2856.22
989.44	2822.78
989.737	2787.07
990.035	2777.81
990.332	2767.64
990.63	2777.13
990.927	2765.83
991.224	2743.23
991.521	2794.76
991.819	2714.76
992.116	2740.3
992.413	2712.27
992.71	2705.04
993.006	2667.75
993.303	2641.09
993.6	2647.87
993.897	2659.62
994.193	2663.91
994.49	2601.09
994.787	2617.59
995.083	2591.82
995.379	2560.64
995.676	2568.1
995.972	2530.81
996.268	2548.21
996.565	2513.63
996.861	2531.94
997.157	2495.78
997.453	2529.91
997.749	2506.18
998.044	2432.51
998.34	2462.34
998.636	2442.68
998.932	2449.46
999.227	2411.04
999.523	2419.63
999.818	2382.56
1000.114	2383.92
1000.409	2362.9
1000.704	2347.31
1001	2317.48
1001.295	2334.43
1001.59	2345.96
1001.885	2282.68
1002.18	2301.21
1002.475	2298.27
1002.77	2234.32
1003.065	2238.84
1003.359	2223.47
1003.654	2207.43
1003.949	2220.08
1004.243	2220.99
1004.538	2203.81
1004.832	2172.4
1005.127	2181.89
1005.421	2133.08
1005.715	2131.72
1006.009	2141.44
1006.304	2128.33
1006.598	2123.36
1006.892	2130.82
1007.186	2079.97
1007.48	2059.64
1007.773	2058.73
1008.067	2045.62
1008.361	2023.03
1008.655	1976.25
1008.948	1986.19
1009.242	1997.26
1009.535	1989.58
1009.829	2008.79
1010.122	1965.85
1010.415	1909.36
1010.708	1934.67
1011.001	1921.79
1011.295	1900.77
1011.588	1878.17
1011.881	1913.88
1012.173	1851.28
1012.466	1856.93
1012.759	1849.25
1013.052	1830.71
1013.344	1816.7
1013.637	1839.98
1013.93	1802.92
1014.222	1802.24
1014.514	1797.04
1014.807	1780.32
1015.099	1774.67
1015.391	1746.65
1015.683	1719.76
1015.976	1763.82
1016.268	1755.46
1016.56	1722.69
1016.851	1693.32
1017.143	1708.01
1017.435	1710.94
1017.727	1688.57
1018.018	1679.53
1018.31	1647.67
1018.602	1668.01
1018.893	1642.02
1019.185	1623.04
1019.476	1620.55
1019.767	1575.58
1020.058	1624.62
1020.35	1578.52
1020.641	1562.02
1020.932	1572.87
1021.223	1548.91
1021.514	1539.42
1021.804	1546.43
1022.095	1524.51
1022.386	1500.55
1022.677	1524.73
1022.967	1478.63
1023.258	1484.28
1023.548	1454
1023.839	1443.15
1024.129	1454.23
1024.419	1425.98
1024.709	1435.02
1025	1420.78
1025.29	1402.93
1025.58	1428.01
1025.87	1385.3
1026.16	1355.92
1026.449	1388.69
1026.739	1339.65
1027.029	1325.64
1027.319	1365.64
1027.608	1367.45
1027.898	1341.46
1028.187	1330.39
1028.477	1286.77
1028.766	1306.21
1029.055	1294.91
1029.344	1289.71
1029.634	1281.8
1029.923	1297.85
1030.212	1281.58
1030.501	1250.84
1030.79	1247
1031.078	1244.74
1031.367	1232.54
1031.656	1202.26
1031.945	1222.37
1032.233	1216.95
1032.522	1195.03
1032.81	1184.63
1033.099	1194.57
1033.387	1193.67
1033.675	1187.79
1033.963	1165.42
1034.251	1151.18
1034.54	1127.68
1034.828	1141.92
1035.116	1132.65
1035.403	1122.03
1035.691	1108.93
1035.979	1111.86
1036.267	1112.54
1036.554	1100.56
1036.842	1109.83
1037.129	1091.75
1037.417	1061.92
1037.704	1096.27
1037.992	1070.28
1038.279	1028.93
1038.566	1015.82
1038.853	1015.82
1039.14	1015.82
