Data from hue_270_FLMS001491_00029.txt Node
Date: Tue Feb 07 15:56:59 GMT 2017
User: dcchb
Spectrometer: FLMS00149
Trigger mode: 0
Integration Time (sec): 2.000000E-2
Scans to average: 10
Electric dark correction enabled: true
Nonlinearity correction enabled: false
Boxcar width: 0
XAxis mode: Wavelengths
Number of Pixels in Spectrum: 2048
>>>>>Begin Spectral Data<<<<<
341.393	-16.3
341.776	-16.3
342.16	-16.3
342.543	-80.03
342.927	-60.37
343.31	-68.5
343.693	-69.18
344.077	-65.56
344.46	-40.71
344.843	-39.58
345.226	-45.9
345.61	-11.1
345.993	-33.25
346.376	-18.11
346.759	10.37
347.142	42.46
347.525	46.07
347.908	63.25
348.291	64.38
348.674	64.15
349.057	101.21
349.44	119.06
349.823	135.34
350.206	172.17
350.588	198.38
350.971	202.9
351.354	221.66
351.737	226.18
352.119	229.12
352.502	253.3
352.884	272.28
353.267	278.16
353.65	295.78
354.032	311.6
354.414	299.17
354.797	296.24
355.179	332.84
355.562	325.61
355.944	316.8
356.326	324.48
356.709	316.12
357.091	332.62
357.473	345.27
357.855	345.27
358.238	348.21
358.62	350.25
359.002	327.87
359.384	331.49
359.766	331.94
360.148	347.31
360.53	330.81
360.912	328.55
361.294	336.23
361.676	322.9
362.057	333.07
362.439	317.25
362.821	337.82
363.203	305.5
363.584	302.79
363.966	302.11
364.348	321.55
364.729	303.01
365.111	331.71
365.493	316.35
365.874	312.28
366.256	327.87
366.637	333.3
367.019	299.17
367.4	322
367.781	307.76
368.163	311.15
368.544	314.09
368.925	313.86
369.306	297.59
369.688	319.29
370.069	293.07
370.45	291.94
370.831	332.17
371.212	313.64
371.593	321.32
371.974	314.54
372.355	315.44
372.736	302.11
373.117	310.7
373.498	324.26
373.879	312.05
374.26	321.09
374.641	318.38
375.021	328.32
375.402	305.05
375.783	319.06
376.163	331.49
376.544	318.38
376.925	321.55
377.305	319.29
377.686	324.93
378.066	331.94
378.447	323.58
378.827	324.71
379.208	306.18
379.588	324.26
379.968	325.84
380.349	335.78
380.729	335.78
381.109	329.68
381.489	338.27
381.87	329.68
382.25	340.75
382.63	358.38
383.01	344.82
383.39	335.78
383.77	332.84
384.15	369.91
384.53	347.08
384.91	353.63
385.29	355.44
385.67	351.15
386.049	337.36
386.429	347.08
386.809	365.84
387.189	373.07
387.568	352.96
387.948	362.67
388.328	362.22
388.707	350.02
389.087	370.81
389.466	362.67
389.846	388.44
390.225	355.44
390.605	374.43
390.984	383.01
391.363	385.27
391.743	366.97
392.122	380.75
392.501	356.35
392.881	390.02
393.26	404.03
393.639	405.84
394.018	400.41
394.397	388.21
394.776	394.76
395.155	391.15
395.534	395.89
395.913	409
396.292	379.62
396.671	395.89
397.05	387.98
397.429	394.99
397.808	411.71
398.186	396.8
398.565	417.14
398.944	433.86
399.323	414.88
399.701	431.15
400.08	428.21
400.458	427.08
400.837	409.9
401.215	453.29
401.594	442.67
401.972	430.02
402.351	427.98
402.729	420.75
403.107	446.29
403.486	444.93
403.864	439.28
404.242	453.52
404.62	444.03
404.999	470.02
405.377	451.71
405.755	454.65
406.133	475.44
406.511	465.27
406.889	478.15
407.267	482.22
407.645	482.67
408.023	476.34
408.401	505.5
408.779	495.33
409.156	512.05
409.534	491.03
409.912	504.59
410.29	538.04
410.667	528.77
411.045	545.27
411.422	543.69
411.8	543.91
412.178	562.67
412.555	568.09
412.933	587.98
413.31	587.53
413.687	569
414.065	599.5
414.442	606.51
414.819	593.4
415.197	609.22
415.574	625.04
415.951	614.42
416.328	627.75
416.705	620.29
417.082	640.86
417.46	645.83
417.837	655.77
418.214	652.38
418.591	665.94
418.967	692.16
419.344	683.8
419.721	687.19
420.098	683.12
420.475	708.43
420.852	722.21
421.228	722.89
421.605	754.75
421.982	740.74
422.358	771.7
422.735	773.74
423.111	776
423.488	811.48
423.864	784.13
424.241	790.69
424.617	831.59
424.994	786.17
425.37	845.37
425.746	845.15
426.123	861.19
426.499	844.92
426.875	863
427.251	870.23
427.627	893.28
428.003	921.53
428.379	920.17
428.756	934.86
429.132	947.52
429.507	946.84
429.883	946.61
430.259	952.26
430.635	988.87
431.011	1007.4
431.387	975.31
431.763	1030
432.138	1044.01
432.514	1041.07
432.89	1055.09
433.265	1094.41
433.641	1100.96
434.016	1088.76
434.392	1136.21
434.767	1131.69
435.143	1132.82
435.518	1185.48
435.894	1204.46
436.269	1190.67
436.644	1224.12
437.02	1234.29
437.395	1255.31
437.77	1290.79
438.145	1328.3
438.52	1301.86
438.895	1312.48
439.271	1338.02
439.646	1345.93
440.021	1368.52
440.395	1363.1
440.77	1372.82
441.145	1406.26
441.52	1418.01
441.895	1441.52
442.27	1401.29
442.645	1464.57
443.019	1470.22
443.394	1472.25
443.769	1471.12
444.143	1494.17
444.518	1489.2
444.892	1474.06
445.267	1520.84
445.641	1541.17
446.016	1548.63
446.39	1561.51
446.764	1566.94
447.139	1552.02
447.513	1607.39
447.887	1600.61
448.262	1585.01
448.636	1608.29
449.01	1624.56
449.384	1634.96
449.758	1643.09
450.132	1669.08
450.506	1646.93
450.88	1668.63
451.254	1675.63
451.628	1733.26
452.002	1713.6
452.376	1740.04
452.75	1747.04
453.123	1751.11
453.497	1758.57
453.871	1816.87
454.244	1820.49
454.618	1833.14
454.992	1858.91
455.365	1861.39
455.739	1902.52
456.112	1918.79
456.486	1909.07
456.859	1907.72
457.232	1997.21
457.606	1955.4
457.979	1993.59
458.352	2005.12
458.725	2022.74
459.099	2048.05
459.472	2087.83
459.845	2080.82
460.218	2084.21
460.591	2124.44
460.964	2087.37
461.337	2190.2
461.71	2195.62
462.083	2230.65
462.456	2263.64
462.829	2189.74
463.201	2241.72
463.574	2259.12
463.947	2301.15
464.32	2374.37
464.692	2367.14
465.065	2389.74
465.438	2415.95
465.81	2453.47
466.183	2453.69
466.555	2476.97
466.928	2523.3
467.3	2530.3
467.672	2540.02
468.045	2596.29
468.417	2578.89
468.789	2605.1
469.161	2623.41
469.534	2684.42
469.906	2746.34
470.278	2753.35
470.65	2759
471.022	2803.51
471.394	2857.98
471.766	2872.21
472.138	2928.03
472.51	2939.33
472.882	2963.06
473.253	3038.99
473.625	3064.75
473.997	3100.46
474.369	3111.53
474.74	3109.04
475.112	3190.17
475.484	3238.98
475.855	3273.78
476.227	3309.04
476.598	3363.27
476.97	3366.66
477.341	3463.84
477.713	3439.2
478.084	3517.39
478.455	3590.61
478.827	3612.98
479.198	3693.66
479.569	3711.29
479.94	3770.95
480.311	3797.61
480.682	3858.4
481.053	3912.19
481.424	3970.26
481.795	3975.23
482.166	4040.09
482.537	4106.76
482.908	4144.5
483.279	4186.75
483.65	4282.35
484.021	4306.98
484.391	4389.01
484.762	4356.92
485.133	4403.7
485.503	4442.57
485.874	4558.5
486.244	4543.81
486.615	4624.26
486.985	4639.17
487.356	4722.11
487.726	4779.96
488.097	4845.27
488.467	4873.06
488.837	4941.08
489.207	5005.26
489.578	5051.59
489.948	5040.07
490.318	5157.35
490.688	5157.8
491.058	5261.98
491.428	5264.69
491.798	5286.39
492.168	5381.75
492.538	5434.63
492.908	5447.96
493.278	5518.02
493.648	5483.9
494.017	5579.49
494.387	5667.17
494.757	5683.89
495.126	5697.22
495.496	5776.77
495.866	5748.3
496.235	5767.5
496.605	5813.15
496.974	5877.56
497.344	5885.01
497.713	5910.78
498.082	5975.41
498.452	6002.3
498.821	5993.03
499.19	6014.73
499.559	6071.9
499.928	6120.26
500.298	6130.88
500.667	6159.81
501.036	6120.26
501.405	6221.96
501.774	6178.34
502.143	6252.46
502.512	6277.77
502.88	6320.94
503.249	6323.65
503.618	6353.03
503.987	6396.41
504.356	6416.75
504.724	6400.93
505.093	6426.02
505.462	6447.26
505.83	6455.85
506.199	6515.28
506.567	6550.08
506.936	6530.87
507.304	6508.73
507.672	6655.62
508.041	6597.99
508.409	6685.9
508.777	6733.58
509.145	6776.74
509.514	6677.99
509.882	6717.08
510.25	6786.01
510.618	6816.74
510.986	6796.86
511.354	6850.64
511.722	6889.06
512.09	6894.25
512.458	6854.93
512.826	6926.34
513.193	6974.93
513.561	6967.7
513.929	7015.61
514.297	7021.03
514.664	7069.84
515.032	7019
515.4	7093.8
515.767	7140.35
516.135	7091.08
516.502	7061.93
516.869	7187.81
517.237	7247.92
517.604	7171.08
517.972	7270.06
518.339	7229.39
518.706	7217.86
519.073	7220.8
519.44	7245.43
519.808	7281.14
520.175	7270.06
520.542	7401.13
520.909	7395.71
521.276	7429.15
521.643	7439.55
522.009	7365.88
522.376	7484.07
522.743	7464.63
523.11	7632.09
523.477	7550.96
523.843	7574.91
524.21	7680.9
524.577	7661.92
524.943	7666.66
525.31	7714.57
525.676	7758.64
526.043	7776.94
526.409	7742.59
526.776	7808.35
527.142	7770.16
527.508	7871.18
527.874	7891.74
528.241	7943.72
528.607	7983.72
528.973	8012.19
529.339	7972.19
529.705	8065.3
530.071	8101.45
530.437	8138.74
530.803	8122.92
531.169	8164.28
531.535	8091.06
531.901	8100.1
532.267	8144.39
532.632	8209.7
532.998	8230.26
533.364	8275.69
533.73	8242.92
534.095	8274.56
534.461	8259.19
534.826	8295.8
535.192	8319.3
535.557	8300.09
535.923	8331.73
536.288	8357.27
536.653	8339.19
537.019	8371.05
537.384	8371.28
537.749	8426.19
538.114	8367.44
538.479	8430.26
538.845	8444.27
539.21	8438.17
539.575	8446.53
539.94	8428.45
540.305	8441.33
540.67	8442.01
541.034	8483.82
541.399	8513.87
541.764	8484.04
542.129	8519.97
542.494	8547.32
542.858	8590.48
543.223	8556.58
543.587	8636.81
543.952	8585.73
544.316	8577.83
544.681	8597.49
545.045	8622.57
545.41	8674.09
545.774	8691.95
546.138	8701.66
546.503	8706.86
546.867	8667.31
547.231	8815.33
547.595	8713.87
547.959	8739.18
548.324	8700.76
548.688	8743.7
549.052	8748.44
549.416	8791.83
549.779	8766.75
550.143	8769.46
550.507	8839.51
550.871	8775.56
551.235	8822.79
551.599	8850.81
551.962	8907.08
552.326	8839.51
552.689	8927.65
553.053	8875.9
553.417	8899.62
553.78	9010.81
554.143	8957.02
554.507	8949.57
554.87	8986.18
555.234	9080.64
555.597	8965.39
555.96	9065.95
556.323	9066.63
556.686	9042.45
557.05	9120.86
557.413	9125.38
557.776	9130.13
558.139	9170.58
558.502	9192.27
558.865	9162.44
559.228	9217.81
559.59	9272.95
559.953	9268.43
560.316	9332.61
560.679	9379.16
561.041	9370.12
561.404	9383.68
561.767	9469.55
562.129	9417.35
562.492	9510.46
562.854	9464.36
563.217	9520.4
563.579	9556.78
563.941	9560.17
564.304	9666.61
564.666	9688.98
565.028	9642.88
565.39	9699.15
565.753	9747.06
566.115	9807.17
566.477	9856.44
566.839	9835.87
567.201	9895.53
567.563	9862.54
567.925	9901.86
568.287	9971.69
568.648	10007.84
569.01	10066.15
569.372	10064.79
569.734	10111.8
570.095	10124.23
570.457	10182.53
570.819	10206.48
571.18	10192.7
571.542	10230.44
571.903	10284
572.265	10327.16
572.626	10360.6
572.987	10362.19
573.349	10396.08
573.71	10428.85
574.071	10465.46
574.432	10497.32
574.794	10585.68
575.155	10554.04
575.516	10601.05
575.877	10606.25
576.238	10674.27
576.599	10755.17
576.96	10746.58
577.32	10669.97
577.681	10787.48
578.042	10884.88
578.403	10859.57
578.763	10846.47
579.124	10864.54
579.485	10936.18
579.845	10942.73
580.206	10985.67
580.566	11028.83
580.927	11010.3
581.287	11132.56
581.648	11090.3
582.008	11113.58
582.368	11102.5
582.728	11151.77
583.089	11261.6
583.449	11267.7
583.809	11225.21
584.169	11292.33
584.529	11255.72
584.889	11366.23
585.249	11352.22
585.609	11349.5
585.969	11389.95
586.329	11402.38
586.688	11408.26
587.048	11429.28
587.408	11414.59
587.768	11531.42
588.127	11518.31
588.487	11568.48
588.846	11588.14
589.206	11599.21
589.565	11601.02
589.925	11663.62
590.284	11680.34
590.643	11700.46
591.003	11718.31
591.362	11872.88
591.721	11757.18
592.08	11836.04
592.44	11820
592.799	11864.97
593.158	11951.52
593.517	11861.58
593.876	11940.67
594.235	11944.06
594.593	11991.07
594.952	11941.8
595.311	12012.31
595.67	11964.63
596.029	12075.13
596.387	12053.67
596.746	12090.73
597.104	12068.81
597.463	12069.71
597.822	12119.43
598.18	12070.84
598.538	12044.85
598.897	12223.83
599.255	12051.18
599.613	12258.86
599.972	12208.69
600.33	12257.28
600.688	12172.53
601.046	12260.67
601.404	12292.53
601.762	12310.38
602.12	12386.76
602.478	12309.03
602.836	12292.76
603.194	12294.34
603.552	12353.77
603.91	12243.27
604.268	12323.49
604.625	12359.87
604.983	12398.74
605.341	12369.59
605.698	12402.13
606.056	12397.61
606.413	12457.95
606.771	12412.75
607.128	12403.94
607.485	12406.2
607.843	12420.21
608.2	12387.44
608.557	12552.86
608.914	12484.62
609.272	12504.05
609.629	12522.58
609.986	12615.23
610.343	12475.8
610.7	12622.01
611.057	12597.38
611.414	12540.21
611.771	12654.78
612.127	12658.85
612.484	12682.8
612.841	12755.79
613.198	12647.77
613.554	12655.68
613.911	12760.09
614.267	12786.3
614.624	12687.77
614.98	12833.98
615.337	12825.17
615.693	12801.22
616.05	12819.3
616.406	12820.2
616.762	12825.62
617.118	12817.71
617.475	12807.32
617.831	12844.38
618.187	12836.92
618.543	12894.55
618.899	12955.79
619.255	12926.86
619.611	12866.3
619.967	12906.3
620.323	12896.58
620.678	12892.97
621.034	12962.12
621.39	12877.83
621.746	12877.6
622.101	13077.37
622.457	12873.31
622.812	12937.26
623.168	12976.81
623.523	12979.52
623.879	13071.49
624.234	12828.56
624.589	12918.05
624.945	12989.69
625.3	12992.85
625.655	12975.68
626.01	12963.02
626.365	12913.98
626.72	12932.74
627.075	12954.21
627.43	12960.31
627.785	12896.13
628.14	12989.91
628.495	12946.52
628.85	13010.48
629.205	12963.02
629.559	12891.38
629.914	12986.75
630.269	12932.97
630.623	12827.66
630.978	12899.29
631.332	12898.16
631.687	12913.08
632.041	12762.57
632.396	12865.17
632.75	12770.26
633.104	12830.14
633.459	12756.02
633.813	12809.58
634.167	12732.07
634.521	12816.36
634.875	12770.03
635.229	12705.4
635.583	12596.7
635.937	12690.26
636.291	12737.49
636.645	12719.64
636.999	12582.92
637.352	12690.26
637.706	12544.95
638.06	12610.49
638.413	12625.18
638.767	12509.7
639.121	12580.43
639.474	12538.4
639.828	12519.64
640.181	12490.49
640.534	12476.93
640.888	12458.63
641.241	12450.94
641.594	12476.03
641.947	12505.41
642.301	12436.48
642.654	12429.7
643.007	12453.88
643.36	12423.15
643.713	12356.48
644.066	12487.78
644.419	12396.93
644.771	12285.98
645.124	12248.92
645.477	12209.59
645.83	12126.66
646.182	12086.43
646.535	12072.87
646.888	12066.77
647.24	11907.46
647.593	11982.48
647.945	12043.5
648.298	11976.15
648.65	11940.45
649.002	11873.33
649.355	12047.56
649.707	11952.88
650.059	11970.28
650.411	12139.54
650.763	12170.5
651.115	12250.27
651.467	12237.84
651.819	12196.26
652.171	12331.85
652.523	12143.38
652.875	12166.21
653.227	12184.74
653.578	12250.27
653.93	12169.37
654.282	12205.07
654.633	12158.52
654.985	12265.86
655.337	12190.84
655.688	12202.81
656.039	12225.64
656.391	12066.55
656.742	12116.94
657.094	12123.49
657.445	12205.07
657.796	12154.91
658.147	12176.15
658.498	12126.88
658.849	12168.92
659.2	12176.15
659.551	12061.58
659.902	12138.64
660.253	12171.4
660.604	12214.11
660.955	12130.05
661.306	12217.73
661.656	12115.36
662.007	12209.37
662.358	12157.84
662.708	12241.23
663.059	12207.79
663.409	12102.7
663.76	12235.13
664.11	12222.48
664.461	12211.18
664.811	12226.09
665.161	12240.33
665.511	12176.83
665.862	12210.95
666.212	12203.94
666.562	12316.03
666.912	12151.97
667.262	12126.43
667.612	12141.57
667.962	12168.47
668.312	12148.13
668.662	12260.44
669.011	12176.6
669.361	12138.64
669.711	12191.06
670.06	12154
670.41	12168.47
670.76	12031.07
671.109	12068.35
671.459	12130.5
671.808	12129.6
672.157	12128.01
672.507	12071.07
672.856	12064.51
673.205	12103.61
673.554	12113.33
673.904	12008.47
674.253	12115.81
674.602	12001.69
674.951	11824.07
675.3	11769.15
675.649	12048.24
675.998	11981.13
676.346	12028.13
676.695	12024.97
677.044	11964.85
677.393	11915.82
677.741	11944.52
678.09	11970.73
678.438	11870.39
678.787	11903.16
679.135	11914.23
679.484	11767.35
679.832	11864.07
680.181	11791.53
680.529	11822.49
680.877	11781.81
681.225	11794.69
681.573	11820.68
681.922	11724.41
682.27	11727.57
682.618	11728.48
682.966	11616.39
683.314	11637.18
683.661	11731.87
684.009	11589.27
684.357	11553.79
684.705	11503.85
685.053	11590.85
685.4	11494.81
685.748	11471.76
686.095	11478.31
686.443	11421.37
686.79	11435.15
687.138	11405.32
687.485	11444.42
687.832	11426.34
688.18	11366.9
688.527	11255.72
688.874	11290.97
689.221	11210.07
689.568	11210.07
689.915	11202.62
690.262	11202.39
690.609	11191.99
690.956	11130.53
691.303	11057.08
691.65	11051.88
691.997	10985.67
692.344	10913.36
692.69	10949.06
693.037	10919.23
693.383	10898.22
693.73	10872.91
694.077	10794.04
694.423	10789.74
694.769	10790.87
695.116	10723.76
695.462	10738.9
695.808	10629.3
696.155	10774.15
696.501	10633.59
696.847	10560.15
697.193	10551.11
697.539	10530.54
697.885	10395.18
698.231	10389.3
698.577	10410.32
698.923	10383.2
699.269	10303.88
699.614	10273.37
699.96	10210.78
700.306	10263.88
700.651	10164.22
700.997	10141.4
701.342	10047.39
701.688	10056.66
702.033	10045.81
702.379	10014.85
702.724	9993.61
703.069	9989.99
703.415	9749.55
703.76	9838.58
704.105	9800.84
704.45	9838.81
704.795	9743.67
705.14	9733.95
705.485	9738.92
705.83	9684.69
706.175	9626.84
706.52	9619.38
706.865	9658.93
707.209	9560.4
707.554	9541.19
707.899	9474.3
708.243	9556.1
708.588	9542.55
708.932	9474.07
709.277	9456.9
709.621	9471.14
709.966	9373.74
710.31	9406.05
710.654	9310.24
710.998	9337.58
711.342	9299.16
711.687	9246.51
712.031	9251.48
712.375	9223.23
712.719	9215.1
713.063	9192.05
713.407	9207.19
713.75	9123.35
714.094	9121.31
714.438	9134.19
714.782	9149.11
715.125	9110.69
715.469	9098.72
715.812	9068.43
716.156	9005.84
716.499	9022.33
716.843	8997.02
717.186	8963.8
717.53	8974.65
717.873	9011.03
718.216	8957.48
718.559	8966.06
718.902	8855.56
719.246	8952.96
719.589	8922.45
719.932	8902.79
720.275	8773.75
720.617	8867.76
720.96	8855.11
721.303	8887.87
721.646	8925.61
721.989	8779.18
722.331	8811.94
722.674	8711.38
723.016	8812.62
723.359	8738.95
723.701	8769.91
724.044	8736.47
724.386	8719.74
724.729	8781.21
725.071	8756.13
725.413	8670.48
725.755	8711.61
726.097	8696.69
726.439	8589.12
726.782	8599.07
727.124	8740.31
727.465	8614.21
727.807	8611.95
728.149	8590.48
728.491	8671.61
728.833	8648.11
729.175	8551.61
729.516	8557.49
729.858	8591.38
730.199	8583.7
730.541	8625.73
730.882	8568.11
731.224	8527.43
731.565	8507.09
731.906	8585.73
732.248	8548.9
732.589	8532.4
732.93	8494.66
733.271	8406.08
733.612	8486.3
733.953	8536.7
734.294	8509.13
734.635	8462.8
734.976	8547.32
735.317	8463.25
735.658	8473.65
735.999	8455.79
736.339	8487.43
736.68	8537.6
737.021	8532.4
737.361	8462.8
737.702	8531.27
738.042	8488.79
738.383	8479.07
738.723	8620.54
739.063	8479.07
739.404	8517.26
739.744	8556.81
740.084	8569.69
740.424	8534.66
740.764	8517.71
741.104	8602.68
741.444	8520.88
741.784	8528.11
742.124	8612.17
742.464	8532.85
742.804	8612.4
743.143	8570.59
743.483	8544.61
743.823	8611.95
744.162	8613.3
744.502	8646.3
744.841	8664.83
745.181	8733.3
745.52	8682
745.86	8764.94
746.199	8753.87
746.538	8768.33
746.877	8878.61
747.216	8797.48
747.556	8839.29
747.895	8938.72
748.234	8934.65
748.573	9023.01
748.911	9002.9
749.25	9094.42
749.589	9136
749.928	9210.8
750.267	9301.2
750.605	9296.45
750.944	9403.11
751.283	9391.36
751.621	9498.25
751.96	9515.2
752.298	9597.01
752.636	9738.7
752.975	9699.6
753.313	9865.25
753.651	10020.27
753.989	10055.75
754.327	10102.08
754.666	10131.91
755.004	10260.04
755.342	10442.64
755.679	10509.75
756.017	10578.9
756.355	10723.31
756.693	10840.14
757.031	10978.21
757.368	11061.38
757.706	11179.56
758.044	11341.14
758.381	11471.53
758.719	11564.19
759.056	11747.23
759.394	11894.35
759.731	11996.49
760.068	12044.4
760.405	12280.78
760.743	12452.3
761.08	12608.45
761.417	12664.05
761.754	12942
762.091	13006.18
762.428	13111.49
762.765	13265.39
763.102	13421.54
763.438	13567.75
763.775	13694.07
764.112	13884.8
764.449	13951.92
764.785	14121.18
765.122	14184.01
765.458	14355.3
765.795	14575.63
766.131	14653.6
766.467	14825.57
766.804	14850.43
767.14	15026.24
767.476	15161.83
767.812	15233.02
768.148	15465.1
768.485	15507.81
768.821	15619.9
769.157	15757.98
769.492	15875.26
769.828	15955.26
770.164	16028.25
770.5	16075.48
770.836	16256.49
771.171	16308.47
771.507	16485.41
771.842	16484.51
772.178	16562.7
772.513	16661.68
772.849	16777.61
773.184	16823.71
773.519	16948.68
773.855	16994.1
774.19	17060.31
774.525	17099.86
774.86	17179.63
775.195	17365.16
775.53	17434.54
775.865	17309.57
776.2	17467.99
776.535	17389.8
776.87	17492.39
777.205	17486.07
777.539	17467.54
777.874	17637.02
778.209	17591.6
778.543	17614.88
778.878	17721.09
779.212	17636.34
779.547	17662.56
779.881	17787.07
780.215	17743.46
780.55	17844.25
780.884	17683.12
781.218	17741.88
781.552	17845.15
781.886	17759.28
782.22	17738.94
782.554	17822.1
782.888	17703.69
783.222	17678.83
783.556	17697.36
783.889	17684.03
784.223	17621.43
784.557	17616.23
784.89	17711.14
785.224	17634.76
785.557	17610.58
785.891	17675.89
786.224	17604.93
786.558	17653.29
786.891	17554.54
787.224	17607.64
787.557	17502.79
787.891	17607.64
788.224	17533.07
788.557	17501.21
788.89	17498.72
789.223	17552.73
789.556	17429.8
789.888	17390.7
790.221	17382.57
790.554	17302.12
790.887	17284.49
791.219	17314.54
791.552	17286.3
791.884	17262.57
792.217	17213.53
792.549	17216.47
792.882	17065.06
793.214	17037.72
793.546	17122.69
793.879	17034.78
794.211	16974.67
794.543	17039.07
794.875	16955.91
795.207	17071.39
795.539	16948.68
795.871	16918.62
796.203	16857.83
796.535	16796.14
796.867	16730.83
797.198	16728.12
797.53	16709.36
797.862	16586.88
798.193	16638.63
798.525	16639.31
798.856	16591.63
799.188	16494.23
799.519	16461.23
799.85	16352.31
800.182	16281.13
800.513	16432.99
800.844	16282.26
801.175	16326.32
801.506	16317.51
801.837	16221.01
802.168	16132.65
802.499	16032.54
802.83	15992.77
803.161	15992.09
803.491	16059.44
803.822	15972.21
804.153	15847.01
804.483	15850.85
804.814	15862.61
805.145	15771.53
805.475	15749.16
805.805	15666.9
806.136	15719.11
806.466	15823.06
806.796	15755.94
807.126	15588.49
807.457	15514.82
807.787	15618.32
808.117	15510.52
808.447	15494.25
808.777	15573.57
809.107	15466.91
809.436	15391.88
809.766	15339
810.096	15293.13
810.426	15276.86
810.755	15262.17
811.085	15221.49
811.414	15240.7
811.744	15166.8
812.073	15179.91
812.403	15155.73
812.732	15005.68
813.061	15136.75
813.39	14957.77
813.719	14976.08
814.049	15032.34
814.378	15009.29
814.707	14956.41
815.036	14909.18
815.365	14837.77
815.693	14613.6
816.022	14798.68
816.351	14768.17
816.68	14682.3
817.008	14710.55
817.337	14586.48
817.665	14607.27
817.994	14604.33
818.322	14612.69
818.651	14524.79
818.979	14460.16
819.307	14542.87
819.636	14539.7
819.964	14376.77
820.292	14439.59
820.62	14461.51
820.948	14391.68
821.276	14394.62
821.604	14328.63
821.932	14371.35
822.259	14345.13
822.587	14390.78
822.915	14330.22
823.243	14540.38
823.57	14346.71
823.898	14285.7
824.225	14323.66
824.553	14294.74
824.88	14399.14
825.207	14409.08
825.535	14412.25
825.862	14431.46
826.189	14334.51
826.516	14391.23
826.843	14464.22
827.17	14491.12
827.497	14563.88
827.824	14452.02
828.151	14532.92
828.478	14526.82
828.805	14501.29
829.131	14467.84
829.458	14435.52
829.785	14318.47
830.111	14378.8
830.438	14436.65
830.764	14441.4
831.09	14446.82
831.417	14344.68
831.743	14405.92
832.069	14371.12
832.395	14327.73
832.722	14396.43
833.048	14266.94
833.374	14358.46
833.7	14270.56
834.026	14358.24
834.351	14401.18
834.677	14320.5
835.003	14336.77
835.329	14295.87
835.654	14335.87
835.98	14235.53
836.306	14226.04
836.631	14187.62
836.956	14258.81
837.282	14172.71
837.607	14232.14
837.932	14170.45
838.258	14122.76
838.583	14108.3
838.908	14067.17
839.233	14102.43
839.558	13959.15
839.883	14033.05
840.208	13915.76
840.533	13957.12
840.858	13955.54
841.182	13953.5
841.507	13898.14
841.832	13796.9
842.156	13833.51
842.481	13830.12
842.805	13752.83
843.13	13727.52
843.454	13749.89
843.778	13604.59
844.103	13699.27
844.427	13596
844.751	13564.59
845.075	13577.24
845.399	13447.08
845.723	13421.99
846.047	13387.42
846.371	13357.81
846.695	13353.29
847.019	13265.84
847.343	13159.4
847.666	13135.67
847.99	13149.23
848.313	13011.83
848.637	13001.44
848.96	12997.14
849.284	12949.01
849.607	12844.61
849.931	12814.78
850.254	12750.14
850.577	12642.13
850.9	12598.51
851.223	12624.95
851.546	12483.49
851.869	12403.04
852.192	12574.1
852.515	12400.78
852.838	12378.63
853.161	12306.99
853.483	12212.31
853.806	12216.15
854.129	12252.76
854.451	12149.26
854.774	12218.18
855.096	12064.74
855.419	12091.63
855.741	12051.63
856.063	12014.35
856.385	11970.73
856.708	11875.82
857.03	11843.95
857.352	11905.2
857.674	11815.25
857.996	11823.62
858.318	11751.08
858.64	11754.24
858.961	11633.34
859.283	11643.73
859.605	11487.58
859.926	11604.64
860.248	11477.18
860.57	11514.25
860.891	11487.35
861.212	11426.11
861.534	11383.4
861.855	11402.38
862.176	11301.82
862.498	11350.41
862.819	11325.55
863.14	11349.96
863.461	11297.98
863.782	11284.65
864.103	11322.16
864.424	11195.16
864.745	11171.66
865.065	11178.89
865.386	11161.71
865.707	11108.83
866.027	11093.47
866.348	11085.56
866.668	11113.35
866.989	11111.77
867.309	10977.54
867.63	11058.21
867.95	11000.13
868.27	10881.04
868.59	10971.21
868.91	10945.67
869.23	10972.34
869.55	10951.55
869.87	10956.07
870.19	10919.68
870.51	10905.9
870.83	10870.42
871.15	10793.59
871.469	10737.09
871.789	10877.88
872.109	10780.25
872.428	10748.16
872.748	10792
873.067	10702.97
873.386	10756.07
873.706	10723.76
874.025	10672.46
874.344	10633.82
874.663	10672.23
874.982	10635.17
875.301	10587.94
875.62	10596.08
875.939	10611.44
876.258	10593.14
876.577	10488.51
876.896	10582.29
877.214	10482.18
877.533	10471.56
877.852	10483.09
878.17	10512.24
878.489	10512.46
878.807	10399.47
879.125	10362.41
879.444	10385.46
879.762	10337.33
880.08	10434.95
880.398	10308.18
880.716	10332.36
881.034	10313.6
881.352	10318.57
881.67	10257.78
881.988	10257.1
882.306	10233.15
882.624	10090.78
882.941	10140.95
883.259	10109.31
883.577	10094.17
883.894	10070.44
884.212	10041.97
884.529	10049.65
884.846	10041.97
885.164	10005.36
885.481	9869.32
885.798	9995.19
886.115	9969.2
886.432	9879.94
886.75	9846.27
887.067	9868.86
887.383	9807.17
887.7	9810.34
888.017	9728.76
888.334	9752.03
888.651	9657.12
888.967	9636.33
889.284	9678.81
889.6	9641.53
889.917	9605.59
890.233	9618.7
890.55	9538.93
890.866	9559.95
891.182	9429.78
891.498	9449.89
891.815	9364.7
892.131	9371.93
892.447	9443.79
892.763	9336.9
893.079	9342.55
893.395	9288.99
893.71	9269.56
894.026	9275.21
894.342	9204.25
894.657	9234.31
894.973	9112.05
895.289	9143.23
895.604	9153.63
895.92	9055.78
896.235	9004.93
896.55	9010.13
896.865	8963.8
897.181	8916.35
897.496	8939.85
897.811	8901.43
898.126	8851.26
898.441	8786.18
898.756	8777.59
899.071	8744.15
899.386	8730.36
899.7	8649.46
900.015	8589.58
900.33	8569.01
900.644	8575.57
900.959	8583.7
901.273	8505.74
901.588	8525.4
901.902	8462.57
902.216	8444.95
902.531	8345.74
902.845	8365.18
903.159	8343.71
903.473	8285.63
903.787	8231.85
904.101	8203.15
904.415	8197.04
904.729	8165.63
905.042	8143.03
905.356	8119.08
905.67	8063.04
905.984	8082.47
906.297	8067.33
906.611	7970.61
906.924	7976.71
907.237	7992.53
907.551	7904.17
907.864	7868.69
908.177	7847
908.491	7822.59
908.804	7793.67
909.117	7740.56
909.43	7743.72
909.743	7687.23
910.056	7646.32
910.368	7637.74
910.681	7613.33
910.994	7542.82
911.307	7576.27
911.619	7489.72
911.932	7505.31
912.244	7445.43
912.557	7393.22
912.869	7378.76
913.181	7287.69
913.494	7347.35
913.806	7265.32
914.118	7259.22
914.43	7223.28
914.742	7184.42
915.054	7160.46
915.366	7124.98
915.678	7131.99
915.99	7088.82
916.302	7008.83
916.613	7010.63
916.925	7045.44
917.236	6909.85
917.548	6907.59
917.859	6949.39
918.171	6859.9
918.482	6834.82
918.794	6826.91
919.105	6812.67
919.416	6704.2
919.727	6719.34
920.038	6711.66
920.349	6627.82
920.66	6603.19
920.971	6606.8
921.282	6627.82
921.593	6546.24
921.903	6483.64
922.214	6468.73
922.525	6520.93
922.835	6453.36
923.146	6437.77
923.456	6436.64
923.767	6393.48
924.077	6363.19
924.387	6313.93
924.697	6317.77
925.008	6216.53
925.318	6269.64
925.628	6263.31
925.938	6263.54
926.248	6184.67
926.558	6140.83
926.867	6113.48
927.177	6114.61
927.487	6079.36
927.796	6059.93
928.106	6048.63
928.416	6055.41
928.725	6029.42
929.034	5963.66
929.344	6013.82
929.653	5867.84
929.962	5845.92
930.271	5854.51
930.581	5767.73
930.89	5791.91
931.199	5776.32
931.508	5767.73
931.817	5774.06
932.125	5721.86
932.434	5760.05
932.743	5660.39
933.051	5616.1
933.36	5615.19
933.669	5588.53
933.977	5528.41
934.286	5539.71
934.594	5571.12
934.902	5540.62
935.21	5504.91
935.519	5499.71
935.827	5438.02
936.135	5400.96
936.443	5379.49
936.751	5398.47
937.059	5340.62
937.367	5346.5
937.674	5299.04
937.982	5297.91
938.29	5240.06
938.597	5304.92
938.905	5194.19
939.213	5214.3
939.52	5129.1
939.827	5224.69
940.135	5160.29
940.442	5091.82
940.749	5162.77
941.056	5123
941.363	4993.06
941.67	5014.08
941.977	4982.89
942.284	4963.46
942.591	4905.61
942.898	4946.28
943.205	4925.94
943.511	4897.7
943.818	4895.89
944.125	4809.79
944.431	4855.89
944.738	4804.14
945.044	4793.29
945.35	4793.52
945.657	4720.53
945.963	4735.21
946.269	4713.97
946.575	4725.05
946.881	4681.2
947.187	4662.67
947.493	4577.48
947.799	4599.4
948.105	4559.63
948.41	4579.74
948.716	4560.3
949.022	4536.12
949.327	4551.72
949.633	4460.42
949.938	4472.17
950.244	4428.56
950.549	4416.8
950.854	4450.48
951.16	4401.44
951.465	4406.64
951.77	4345.85
952.075	4346.98
952.38	4278.73
952.685	4303.81
952.99	4296.36
953.294	4257.03
953.599	4285.28
953.904	4206.64
954.209	4186.3
954.513	4163.93
954.818	4165.74
955.122	4150.82
955.426	4184.04
955.731	4146.76
956.035	4106.98
956.339	4073.54
956.643	4069.24
956.948	4051.16
957.252	4027.21
957.556	4027.44
957.86	3995.35
958.163	3997.38
958.467	3954.44
958.771	3956.25
959.075	3954.22
959.378	3952.86
959.682	3935.24
959.985	3901.34
960.289	3901.79
960.592	3821.11
960.896	3842.36
961.199	3782.7
961.502	3799.42
961.805	3781.79
962.108	3744.73
962.411	3783.83
962.714	3712.87
963.017	3742.47
963.32	3744.73
963.623	3676.03
963.926	3676.03
964.228	3657.05
964.531	3639.88
964.833	3621.57
965.136	3606.43
965.438	3624.06
965.741	3593.32
966.043	3570.27
966.345	3591.97
966.648	3519.43
966.95	3529.82
967.252	3542.25
967.554	3481.69
967.856	3464.97
968.158	3433.55
968.46	3420.9
968.761	3433.1
969.063	3420.67
969.365	3387.68
969.666	3391.97
969.968	3325.76
970.269	3342.03
970.571	3333.22
970.872	3304.29
971.174	3330.05
971.475	3267.46
971.776	3296.61
972.077	3297.51
972.378	3276.95
972.679	3248.7
972.98	3236.5
973.281	3205.99
973.582	3210.96
973.883	3156.95
974.183	3167.57
974.484	3174.35
974.785	3139.1
975.085	3111.53
975.386	3112.88
975.686	3057.74
975.986	3072.66
976.287	3072.89
976.587	3049.84
976.887	3001.47
977.187	3016.84
977.487	3037.86
977.787	2981.36
978.087	2967.35
978.387	2963.96
978.687	2987.46
978.987	2951.31
979.286	2903.4
979.586	2947.24
979.885	2907.01
980.185	2874.25
980.484	2867.69
980.784	2857.3
981.083	2846.45
981.382	2863.4
981.682	2840.58
981.981	2831.54
982.28	2831.54
982.579	2764.19
982.878	2776.62
983.177	2748.6
983.475	2768.94
983.774	2728.04
984.073	2688.49
984.372	2712.44
984.67	2738.2
984.969	2695.72
985.267	2697.53
985.566	2636.06
985.864	2637.64
986.162	2619.56
986.461	2650.75
986.759	2609.85
987.057	2584.31
987.355	2606.91
987.653	2574.59
987.951	2576.85
988.249	2571.66
988.547	2546.35
988.844	2549.28
989.142	2533.69
989.44	2504.54
989.737	2490.08
990.035	2477.87
990.332	2476.06
990.63	2484.43
990.927	2465.9
991.224	2415.5
991.521	2432.45
991.819	2393.13
992.116	2398.55
992.413	2407.37
992.71	2387.93
993.006	2401.04
993.303	2373.92
993.6	2360.14
993.897	2346.12
994.193	2307.26
994.49	2348.16
994.787	2286.92
995.083	2277.2
995.379	2309.52
995.676	2299.12
995.972	2274.94
996.268	2262.06
996.565	2232
996.861	2247.14
997.157	2245.11
997.453	2224.32
997.749	2221.83
998.044	2195.17
998.34	2177.99
998.636	2156.07
998.932	2170.99
999.227	2144.77
999.523	2164.21
999.818	2162.63
1000.114	2097.32
1000.409	2115.4
1000.704	2095.51
1001	2049.86
1001.295	2097.54
1001.59	2045.34
1001.885	2080.6
1002.18	2027.49
1002.475	1999.47
1002.77	2017.55
1003.065	1997.43
1003.359	2011.9
1003.654	1983.42
1003.949	1970.54
1004.243	1949.75
1004.538	1975.29
1004.832	1943.65
1005.127	1933.25
1005.421	1934.16
1005.715	1905.23
1006.009	1909.07
1006.304	1872.24
1006.598	1872.92
1006.892	1839.47
1007.186	1854.61
1007.48	1834.95
1007.773	1863.2
1008.067	1827.72
1008.361	1803.31
1008.655	1808.29
1008.948	1756.08
1009.242	1811.68
1009.535	1770.55
1009.829	1798.12
1010.122	1759.7
1010.415	1743.43
1010.708	1731.68
1011.001	1698.91
1011.295	1706.82
1011.588	1685.13
1011.881	1702.53
1012.173	1650.1
1012.466	1649.42
1012.759	1653.26
1013.052	1669.31
1013.344	1633.83
1013.637	1628.4
1013.93	1648.29
1014.222	1625.47
1014.514	1632.7
1014.807	1575.52
1015.099	1567.16
1015.391	1579.37
1015.683	1573.94
1015.976	1557.22
1016.268	1553.38
1016.56	1550.21
1016.851	1533.04
1017.143	1524
1017.435	1490.78
1017.727	1502.31
1018.018	1523.55
1018.31	1488.75
1018.602	1445.13
1018.893	1489.2
1019.185	1435.87
1019.476	1479.48
1019.767	1449.2
1020.058	1450.78
1020.35	1417.56
1020.641	1438.35
1020.932	1405.81
1021.223	1394.74
1021.514	1384.34
1021.804	1359.48
1022.095	1357
1022.386	1370.33
1022.677	1370.56
1022.967	1338.92
1023.258	1311.8
1023.548	1313.84
1023.839	1295.98
1024.129	1304.34
1024.419	1283.55
1024.709	1295.08
1025	1278.36
1025.29	1286.27
1025.58	1238.81
1025.87	1249.66
1026.16	1239.94
1026.449	1236.55
1026.739	1241.97
1027.029	1195.42
1027.319	1208.75
1027.608	1194.29
1027.898	1203.33
1028.187	1147.74
1028.477	1199.26
1028.766	1171.47
1029.055	1161.75
1029.344	1183.67
1029.634	1164.46
1029.923	1147.74
1030.212	1121.75
1030.501	1134.18
1030.79	1116.78
1031.078	1134.41
1031.367	1113.84
1031.656	1088.3
1031.945	1102.54
1032.233	1093.5
1032.522	1074.97
1032.81	1085.14
1033.099	1097.34
1033.387	1063.22
1033.675	1061.41
1033.963	1032.94
1034.251	1046.5
1034.54	1030.45
1034.828	1016.89
1035.116	1046.5
1035.403	1014.18
1035.691	1029.32
1035.979	979.61
1036.267	966.73
1036.554	983
1036.842	997.46
1037.129	980.06
1037.417	988.42
1037.704	969.89
1037.992	961.3
1038.279	949.78
1038.566	940.06
1038.853	940.06
1039.14	940.06
