Data from hue_34_FLMS001491_00005.txt Node
Date: Tue Feb 07 17:25:07 GMT 2017
User: dcchb
Spectrometer: FLMS00149
Trigger mode: 0
Integration Time (sec): 2.000000E-2
Scans to average: 10
Electric dark correction enabled: true
Nonlinearity correction enabled: false
Boxcar width: 0
XAxis mode: Wavelengths
Number of Pixels in Spectrum: 2048
>>>>>Begin Spectral Data<<<<<
341.393	-14.75
341.776	-14.75
342.16	-14.75
342.543	-61.3
342.927	-66.5
343.31	-61.3
343.693	-83.9
344.077	-55.42
344.46	-52.03
344.843	-81.64
345.226	-68.98
345.61	-14.75
345.993	-27.17
346.376	14.86
346.759	24.58
347.142	9.66
347.525	58.93
347.908	59.15
348.291	75.2
348.674	81.07
349.057	121.75
349.44	136.66
349.823	128.53
350.206	156.55
350.588	204.68
350.971	211.92
351.354	239.94
351.737	261.63
352.119	273.83
352.502	259.6
352.884	269.99
353.267	296.43
353.65	305.02
354.032	309.77
354.414	292.14
354.797	302.99
355.179	332.14
355.562	313.38
355.944	317.9
356.326	341.4
356.709	352.93
357.091	336.21
357.473	352.25
357.855	353.83
358.238	340.73
358.62	344.79
359.002	348.18
359.384	359.03
359.766	332.36
360.148	342.99
360.53	334.4
360.912	353.61
361.294	333.27
361.676	356.54
362.057	359.03
362.439	330.33
362.821	335.98
363.203	351.35
363.584	334.62
363.966	332.14
364.348	346.6
364.729	325.58
365.111	330.56
365.493	326.49
365.874	327.17
366.256	301.86
366.637	318.13
367.019	324.23
367.4	312.03
367.781	316.55
368.163	333.27
368.544	321.52
368.925	309.77
369.306	323.55
369.688	321.07
370.069	314.06
370.45	307.28
370.831	329.2
371.212	327.39
371.593	319.03
371.974	321.52
372.355	313.83
372.736	320.61
373.117	328.97
373.498	306.6
373.879	337.34
374.26	319.26
374.641	309.77
375.021	326.04
375.402	346.38
375.783	336.88
376.163	355.41
376.544	323.1
376.925	325.81
377.305	342.99
377.686	334.17
378.066	324.45
378.447	349.99
378.827	347.5
379.208	347.05
379.588	330.56
379.968	322.19
380.349	345.25
380.729	352.48
381.109	355.41
381.489	343.21
381.87	331.69
382.25	346.15
382.63	328.75
383.01	346.15
383.39	338.01
383.77	348.86
384.15	351.12
384.53	345.25
384.91	345.47
385.29	348.63
385.67	365.36
386.049	357.67
386.429	366.04
386.809	340.05
387.189	355.41
387.568	360.61
387.948	385.47
388.328	380.5
388.707	355.64
389.087	365.36
389.466	367.62
389.846	349.54
390.225	376.43
390.605	387.96
390.984	379.14
391.363	350.22
391.743	360.16
392.122	382.98
392.501	373.27
392.881	383.66
393.26	378.46
393.639	378.46
394.018	398.35
394.397	375.53
394.776	400.61
395.155	383.66
395.534	380.5
395.913	391.35
396.292	383.89
396.671	403.32
397.05	380.5
397.429	394.74
397.808	407.39
398.186	407.39
398.565	406.49
398.944	387.28
399.323	393.83
399.701	382.31
400.08	425.92
400.458	406.49
400.837	405.81
401.215	415.3
401.594	418.92
401.972	402.87
402.351	412.81
402.729	434.51
403.107	425.7
403.486	422.76
403.864	418.92
404.242	419.14
404.62	431.8
404.999	439.93
405.377	442.87
405.755	450.1
406.133	429.31
406.511	432.7
406.889	447.39
407.267	428.63
407.645	434.73
408.023	450.78
408.401	448.52
408.779	451.01
409.156	472.25
409.534	444.45
409.912	456.65
410.29	476.54
410.667	467.05
411.045	484.68
411.422	459.82
411.8	479.48
412.178	471.12
412.555	462.08
412.933	467.28
413.31	464.79
413.687	494.17
414.065	487.84
414.442	505.47
414.819	503.21
415.197	474.96
415.574	506.37
415.951	502.3
416.328	503.66
416.705	539.59
417.082	501.63
417.46	498.24
417.837	528.74
418.214	504.56
418.591	514.05
418.967	527.39
419.344	515.18
419.721	524.68
420.098	533.49
420.475	545.01
420.852	514.73
421.228	548.63
421.605	567.16
421.982	567.16
422.358	535.75
422.735	535.52
423.111	568.06
423.488	547.5
423.864	559.02
424.241	591.11
424.617	580.95
424.994	558.8
425.37	569.19
425.746	576.65
426.123	576.65
426.499	572.36
426.875	596.99
427.251	608.74
427.627	598.57
428.003	586.82
428.379	618.01
428.756	632.7
429.132	618.23
429.507	619.81
429.883	634.5
430.259	653.03
430.635	631.11
431.011	643.54
431.387	662.52
431.763	634.96
432.138	656.65
432.514	660.27
432.89	662.98
433.265	700.72
433.641	693.03
434.016	680.83
434.392	691.22
434.767	694.61
435.143	701.85
435.518	701.39
435.894	720.38
436.269	711.11
436.644	720.15
437.02	742.75
437.395	746.36
437.77	738.91
438.145	757.89
438.52	761.51
438.895	770.54
439.271	780.04
439.646	779.58
440.021	790.21
440.395	790.88
440.77	808.06
441.145	800.83
441.52	790.66
441.895	774.39
442.27	793.37
442.645	805.35
443.019	817.32
443.394	808.74
443.769	813.71
444.143	802.18
444.518	811
444.892	824.55
445.267	842.18
445.641	835.63
446.016	829.07
446.39	825.01
446.764	853.03
447.139	842.86
447.513	846.02
447.887	858.23
448.262	853.93
448.636	881.28
449.01	887.6
449.384	873.37
449.758	878.79
450.132	890.09
450.506	894.16
450.88	917.66
451.254	887.6
451.628	939.13
452.002	942.07
452.376	946.13
452.75	954.49
453.123	941.39
453.497	948.39
453.871	971.44
454.244	987.04
454.618	992.01
454.992	1007.6
455.365	999.92
455.739	1017.09
456.112	999.92
456.486	1007.6
456.859	1038.11
457.232	1090.08
457.606	1053.93
457.979	1082.17
458.352	1075.85
458.725	1076.53
459.099	1114.94
459.472	1110.65
459.845	1105.68
460.218	1152
460.591	1151.78
460.964	1168.73
461.337	1172.12
461.71	1175.96
462.083	1187.03
462.456	1186.35
462.829	1215.96
463.201	1229.74
463.574	1237.65
463.947	1269.29
464.32	1286.24
464.692	1291.21
465.065	1306.35
465.438	1317.65
465.81	1341.6
466.183	1356.07
466.555	1355.61
466.928	1372.11
467.3	1383.64
467.672	1392.9
468.045	1436.97
468.417	1455.72
468.789	1469.28
469.161	1496.18
469.534	1525.55
469.906	1522.84
470.278	1549.96
470.65	1594.25
471.022	1626.79
471.394	1647.58
471.766	1672.89
472.138	1666.34
472.51	1710.18
472.882	1755.6
473.253	1746.34
473.625	1789.95
473.997	1851.42
474.369	1856.62
474.74	1890.52
475.112	1955.37
475.484	1963.73
475.855	1980.68
476.227	2010.06
476.598	2095.03
476.97	2111.53
477.341	2180.23
477.713	2194.46
478.084	2254.12
478.455	2324.85
478.827	2350.62
479.198	2419.31
479.569	2440.56
479.94	2498.41
480.311	2591.29
480.682	2667.22
481.053	2709.93
481.424	2746.09
481.795	2812.3
482.166	2858.17
482.537	2907.44
482.908	3054.1
483.279	3148.79
483.65	3177.71
484.021	3224.94
484.391	3305.17
484.762	3368.22
485.133	3438.72
485.503	3452.73
485.874	3542.45
486.244	3658.83
486.615	3719.17
486.985	3784.93
487.356	3933.63
487.726	3949.22
488.097	4083
488.467	4147.41
488.837	4225.14
489.207	4323.9
489.578	4368.42
489.948	4483.44
490.318	4577.9
490.688	4657.45
491.058	4702.64
491.428	4835.52
491.798	4934.05
492.168	5014.5
492.538	5056.08
492.908	5227.6
493.278	5295.62
493.648	5303.98
494.017	5438.67
494.387	5542.85
494.757	5568.84
495.126	5663.3
495.496	5727.7
495.866	5789.17
496.235	5883.86
496.605	6012.44
496.974	6070.97
497.344	6169.27
497.713	6176.5
498.082	6201.59
498.452	6370.85
498.821	6449.27
499.19	6477.51
499.559	6552.99
499.928	6628.02
500.298	6696.72
500.667	6824.17
501.036	6796.83
501.405	6900.1
501.774	6992.08
502.143	7051.06
502.512	7023.04
502.88	7152.3
503.249	7191.17
503.618	7291.5
503.987	7331.95
504.356	7390.48
504.724	7462.35
505.093	7501.89
505.462	7532.17
505.83	7630.03
506.199	7663.02
506.567	7790.47
506.936	7825.5
507.304	7945.27
507.672	7958.15
508.041	8027.08
508.409	8083.35
508.777	8106.4
509.145	8295.09
509.514	8210.35
509.882	8284.25
510.25	8342.1
510.618	8398.82
510.986	8462.77
511.354	8552.49
511.722	8597.23
512.09	8679.26
512.458	8668.64
512.826	8762.2
513.193	8800.16
513.561	8855.98
513.929	8897.79
514.297	9011.46
514.664	9030.44
515.032	9085.58
515.4	9191.79
515.767	9115.64
516.135	9293.71
516.502	9222.98
516.869	9391.79
517.237	9452.8
517.604	9394.5
517.972	9518.11
518.339	9519.69
518.706	9566.25
519.073	9596.08
519.44	9658.67
519.808	9789.97
520.175	9776.86
520.542	9948.16
520.909	9892.56
521.276	9923.98
521.643	10043.75
522.009	10067.93
522.376	10168.04
522.743	10115.84
523.11	10236.28
523.477	10359.45
523.843	10383.17
524.21	10512.89
524.577	10604.86
524.943	10638.76
525.31	10637.86
525.676	10756.95
526.043	10775.48
526.409	10896.38
526.776	10951.52
527.142	10971.63
527.508	11003.72
527.874	11078.07
528.241	11145.41
528.607	11195.36
528.973	11305.86
529.339	11354.9
529.705	11473.31
530.071	11577.04
530.437	11573.88
530.803	11584.95
531.169	11622.46
531.535	11668.56
531.901	11762.12
532.267	11815.23
532.632	11862.23
532.998	11862.91
533.364	12011.61
533.73	12016.58
534.095	12104.71
534.461	12153.3
534.826	12238.04
535.192	12289.79
535.557	12370.92
535.923	12317.81
536.288	12493.4
536.653	12452.5
537.019	12526.62
537.384	12550.35
537.749	12570.46
538.114	12707.41
538.479	12710.34
538.845	12785.6
539.21	12758.7
539.575	12821.98
539.94	12853.84
540.305	12986.04
540.67	12939.04
541.034	13026.95
541.399	12994.18
541.764	13111.24
542.129	13098.36
542.494	13216.09
542.858	13247.96
543.223	13249.99
543.587	13305.13
543.952	13338.12
544.316	13456.99
544.681	13485.46
545.045	13566.14
545.41	13672.8
545.774	13642.52
546.138	13712.58
546.503	13822.4
546.867	13797.09
547.231	13955.51
547.595	13915.06
547.959	13929.97
548.324	13975.17
548.688	14077.31
549.052	14112.57
549.416	14162.28
549.779	14128.84
550.143	14169.51
550.507	14354.37
550.871	14339.68
551.235	14410.64
551.599	14461.48
551.962	14477.98
552.326	14541.03
552.689	14638.2
553.053	14553.91
553.417	14593.68
553.78	14810.18
554.143	14765.66
554.507	14757.07
554.87	14869.61
555.234	14937.63
555.597	14870.96
555.96	14931.98
556.323	15059.66
556.686	14989.38
557.05	15182.37
557.413	15213.55
557.776	15287.68
558.139	15362.7
558.502	15303.04
558.865	15356.15
559.228	15529.7
559.59	15535.81
559.953	15627.1
560.316	15740.32
560.679	15662.36
561.041	15764.5
561.404	15893.08
561.767	15839.3
562.129	15964.5
562.492	16202.68
562.854	16064.83
563.217	16088.33
563.579	16090.37
563.941	16242.23
564.304	16239.97
564.666	16331.72
565.028	16375.11
565.39	16406.52
565.753	16511.15
566.115	16460.53
566.477	16628.21
566.839	16659.62
567.201	16823.68
567.563	16784.59
567.925	16942.55
568.287	17030.91
568.648	16980.74
569.01	17232.48
569.372	17202.66
569.734	17191.58
570.095	17272.48
570.457	17407.85
570.819	17404.23
571.18	17411.46
571.542	17600.61
571.903	17604.68
572.265	17727.61
572.626	17742.3
572.987	17864.78
573.349	17907.5
573.71	17969.19
574.071	18055.97
574.432	18265.9
574.794	18317.88
575.155	18389.74
575.516	18459.12
575.877	18452.34
576.238	18644.65
576.599	18788.15
576.96	18905.89
577.32	18915.6
577.681	19177.52
578.042	19260.23
578.403	19288.48
578.763	19511.97
579.124	19608.24
579.485	19776.82
579.845	19996.03
580.206	20090.49
580.566	20198.51
580.927	20330.93
581.287	20559.4
581.648	20607.31
582.008	20851.37
582.368	21019.05
582.728	21174.75
583.089	21341.53
583.449	21498.81
583.809	21619.94
584.169	21885.02
584.529	22044.11
584.889	22387.83
585.249	22406.36
585.609	22594.38
585.969	22856.74
586.329	23106.23
586.688	23378.76
587.048	23534.24
587.408	23632.09
587.768	24028.24
588.127	24188.23
588.487	24427.78
588.846	24802.46
589.206	24870.02
589.565	25129.45
589.925	25521.31
590.284	25644.47
590.643	25990.45
591.003	26161.29
591.362	26432.47
591.721	26698
592.08	26918.78
592.44	27143.41
592.799	27632.66
593.158	27660.46
593.517	27916.72
593.876	28333.89
594.235	28284.62
594.593	28632.19
594.952	28858.39
595.311	29056.58
595.67	29467.19
596.029	29785.38
596.387	29993.05
596.746	30311.91
597.104	30474.85
597.463	30691.79
597.822	31024.89
598.18	31167.26
598.538	31402.96
598.897	31776.28
599.255	31802.27
599.613	32341.92
599.972	32396.38
600.33	32612.42
600.688	32740.78
601.046	33166.53
601.404	33420.53
601.762	33261.22
602.12	33766.74
602.478	34000.86
602.836	34231.59
603.194	34213.28
603.552	34542.54
603.91	34458.7
604.268	34918.8
604.625	35081.96
604.983	35193.37
605.341	35369.41
605.698	35599.69
606.056	35875.16
606.413	36029.05
606.771	36362.6
607.128	36513.79
607.485	36462.04
607.843	36781.35
608.2	36988.12
608.557	37349.24
608.914	37214.78
609.272	37524.38
609.629	37755.56
609.986	38029.23
610.343	37963.69
610.7	38287.75
611.057	38280.97
611.414	38416.79
611.771	38587.63
612.127	38797.12
612.484	38951.01
612.841	39176.54
613.198	39149.65
613.554	39354.61
613.911	39665.57
614.267	39753.25
614.624	39714.15
614.98	39839.35
615.337	40209.96
615.693	40184.88
616.05	40194.37
616.406	40500.12
616.762	40572.44
617.118	40668.48
617.475	40676.39
617.831	40868.93
618.187	41035.7
618.543	41129.48
618.899	41503.48
619.255	41291.29
619.611	41264.62
619.967	41608.34
620.323	41711.84
620.678	41571.28
621.034	41634.1
621.39	41603.37
621.746	41682.46
622.101	42230.02
622.457	41999.52
622.812	42060.08
623.168	42181.66
623.523	42143.24
623.879	42411.71
624.234	42171.04
624.589	42527.41
624.945	42469.34
625.3	42537.13
625.655	42606.28
626.01	42660.29
626.365	42739.38
626.72	42761.31
627.075	42693.74
627.43	42703
627.785	42713.85
628.14	42882.21
628.495	42889.89
628.85	42863.9
629.205	42654.64
629.559	43033.39
629.914	42891.7
630.269	43000.62
630.623	42945.93
630.978	42776.22
631.332	42965.59
631.687	43047.85
632.041	43034.07
632.396	43091.69
632.75	43004.69
633.104	43122.43
633.459	42921.07
633.813	43029.55
634.167	43014.63
634.521	42866.61
634.875	43081.3
635.229	43095.53
635.583	42686.73
635.937	42971.02
636.291	42789.55
636.645	42912.26
636.999	42830.23
637.352	43066.16
637.706	42809.44
638.06	43111.35
638.413	42836.56
638.767	42808.08
639.121	42845.6
639.474	42666.62
639.828	42790.91
640.181	42798.82
640.534	42856.9
640.888	42622.78
641.241	42545.04
641.594	42740.51
641.947	42802.66
642.301	42707.3
642.654	42597.47
643.007	42738.25
643.36	42517.24
643.713	42547.98
644.066	42646.96
644.419	42309.79
644.771	42147.76
645.124	41874.55
645.477	41751.84
645.83	41541.45
646.182	41327.67
646.535	41349.36
646.888	41400.89
647.24	41155.92
647.593	41328.57
647.945	41505.52
648.298	41201.12
648.65	41120.67
649.002	41079.32
649.355	41288.12
649.707	41204.74
650.059	41421.68
650.411	41871.61
650.763	41877.49
651.115	42369.68
651.467	42072.74
651.819	42108.21
652.171	41964.49
652.523	42012.17
652.875	41935.56
653.227	41753.65
653.578	42160.87
653.93	42028.22
654.282	41799.75
654.633	41649.02
654.985	41785.06
655.337	41727.21
655.688	41861.67
656.039	41977.6
656.391	41620.54
656.742	41822.12
657.094	41853.98
657.445	41983.47
657.796	41689.47
658.147	41700.09
658.498	41689.92
658.849	41714.78
659.2	41602.47
659.551	41671.39
659.902	41768.11
660.253	41631.39
660.604	41797.71
660.955	41556.59
661.306	41712.29
661.656	41691.5
662.007	41532.41
662.358	41488.8
662.708	41625.06
663.059	41524.05
663.409	41379.42
663.76	41662.58
664.11	41517.5
664.461	41585.06
664.811	41680.43
665.161	41535.12
665.511	41533.99
665.862	41557.49
666.212	41586.87
666.562	41631.39
666.912	41485.86
667.262	41381
667.612	41424.84
667.962	41536.48
668.312	41531.73
668.662	41654.89
669.011	41423.94
669.361	41440.21
669.711	41405.63
670.06	41382.13
670.41	41348.01
670.76	41298.97
671.109	41460.1
671.459	41387.33
671.808	41251.06
672.157	41288.8
672.507	41138.52
672.856	41158.64
673.205	41288.8
673.554	41379.19
673.904	41156.6
674.253	41391.17
674.602	41310.72
674.951	40638.2
675.3	40468.03
675.649	41136.94
675.998	41090.16
676.346	41152.76
676.695	41110.73
677.044	40915.7
677.393	40997.51
677.741	40991.63
678.09	40886.1
678.438	40821.92
678.787	40842.03
679.135	41000.9
679.484	40484.3
679.832	40788.02
680.181	40654.47
680.529	40683.39
680.877	40554.36
681.225	40583.96
681.573	40776.05
681.922	40386.45
682.27	40483.17
682.618	40322.05
682.966	40432.55
683.314	40340.8
683.661	40297.19
684.009	40147.59
684.357	39993.02
684.705	40002.96
685.053	40234.59
685.4	40083.18
685.748	39711.22
686.095	39869.86
686.443	39733.14
686.79	39710.09
687.138	39798.22
687.485	39676.41
687.832	39494.27
688.18	39632.12
688.527	39362.98
688.874	39399.59
689.221	39282.53
689.568	39273.26
689.915	39043.44
690.262	39048.63
690.609	39028.97
690.956	38732.94
691.303	38859.03
691.65	38673.05
691.997	38572.26
692.344	38362.78
692.69	38376.56
693.037	38486.39
693.383	38020.41
693.73	38250.69
694.077	37994.2
694.423	38043.01
694.769	37897.48
695.116	37772.74
695.462	37773.19
695.808	37622.68
696.155	37669.24
696.501	37457.72
696.847	37342.92
697.193	37142.7
697.539	37390.15
697.885	37106.09
698.231	37095.69
698.577	37114.45
698.923	36922.59
699.269	36749.49
699.614	36696.15
699.96	36615.03
700.306	36561.24
700.651	36432.88
700.997	36219.78
701.342	36291.64
701.688	35982.73
702.033	36051.88
702.379	36010.52
702.724	35811.88
703.069	36046.45
703.415	35593.58
703.76	35558.78
704.105	35575.51
704.45	35457.99
704.795	35340.48
705.14	35296.87
705.485	35256.87
705.83	34960.38
706.175	35152.92
706.52	35048.06
706.865	34773.72
707.209	34937.1
707.554	34656.89
707.899	34752.25
708.243	34586.83
708.588	34692.14
708.932	34324.69
709.277	34377.8
709.621	34406.5
709.966	34160.4
710.31	34203.34
710.654	33855.32
710.998	34034.53
711.342	34052.38
711.687	33940.29
712.031	33676.35
712.375	33620.3
712.719	33635.9
713.063	33571.49
713.407	33682.22
713.75	33556.8
714.094	33433.19
714.438	33241.56
714.782	33369.69
715.125	33179.86
715.469	33254.44
715.812	32988.45
716.156	32920.66
716.499	32974.44
716.843	32902.81
717.186	32776.03
717.53	32922.24
717.873	32919.76
718.216	32715.69
718.559	32609.93
718.902	32567.22
719.246	32516.15
719.589	32359.54
719.932	32379.21
720.275	32338.3
720.617	32228.25
720.96	32169.49
721.303	32238.19
721.646	32223.28
721.989	31916.39
722.331	32003.17
722.674	31962.27
723.016	31993.9
723.359	31814.93
723.701	31889.05
724.044	31621.94
724.386	31522.96
724.729	31683.18
725.071	31615.16
725.413	31704.19
725.755	31602.05
726.097	31524.99
726.439	31231.21
726.782	31399.12
727.124	31374.94
727.465	31200.48
727.807	31179.91
728.149	31137.43
728.491	31227.15
728.833	31277.54
729.175	31036.87
729.516	31013.82
729.858	31012.91
730.199	30981.95
730.541	30812.92
730.882	30845.46
731.224	30934.72
731.565	30790.55
731.906	30652.24
732.248	30670.1
732.589	30503.55
732.93	30417.67
733.271	30438.69
733.612	30422.87
733.953	30580.16
734.294	30488.63
734.635	30356.66
734.976	30364.34
735.317	30326.38
735.658	30195.53
735.999	30186.72
736.339	30042.54
736.68	30177.91
737.021	30141.52
737.361	29970
737.702	29994.86
738.042	29988.99
738.383	29880.06
738.723	29913.51
739.063	29727.3
739.404	29801.87
739.744	29624.7
740.084	29548.55
740.424	29646.62
740.764	29608.2
741.104	29668.99
741.444	29550.58
741.784	29438.94
742.124	29562.78
742.464	29388.32
742.804	29386.74
743.143	29368.89
743.483	29265.61
743.823	29116.47
744.162	29126.86
744.502	29186.52
744.841	29140.19
745.181	29143.13
745.52	29037.6
745.86	29059.52
746.199	29046.41
746.538	29140.42
746.877	28901.33
747.216	28972.29
747.556	28831.95
747.895	28837.38
748.234	28779.98
748.573	28699.08
748.911	28736.59
749.25	28660.66
749.589	28542.02
749.928	28645.52
750.267	28558.97
750.605	28573.66
750.944	28441.46
751.283	28363.49
751.621	28412.53
751.96	28227
752.298	28145.87
752.636	28218.86
752.975	28040.56
753.313	27903.62
753.651	28085.53
753.989	27906.33
754.327	27970.73
754.666	27852.32
755.004	27820.91
755.342	27763.06
755.679	27785.65
756.017	27602.83
756.355	27511.08
756.693	27595.15
757.031	27631.53
757.368	27373.01
757.706	27387.25
758.044	27329.39
758.381	27324.2
758.719	27249.62
759.056	27157.87
759.394	26945.9
759.731	26836.98
760.068	26992.45
760.405	26776.87
760.743	26844.44
761.08	26823.64
761.417	26557.44
761.754	26418.91
762.091	26472.92
762.428	26332.81
762.765	26226.82
763.102	26306.82
763.438	26185.24
763.775	26113.38
764.112	26015.76
764.449	26032.93
764.785	25977.34
765.122	25794.97
765.458	25638.82
765.795	25612.83
766.131	25594.98
766.467	25608.08
766.804	25440.63
767.14	25302.78
767.476	25413.51
767.812	25187.08
768.148	25148.89
768.485	25005.16
768.821	24912.51
769.157	24822.12
769.492	24826.41
769.828	24793.42
770.164	24653.76
770.5	24630.93
770.836	24518.85
771.171	24362.24
771.507	24295.35
771.842	24138.07
772.178	24216.26
772.513	24162.25
772.849	24115.47
773.184	23918.64
773.519	24015.36
773.855	23767.91
774.19	23771.97
774.525	23635.25
774.86	23555.71
775.195	23583.5
775.53	23426.9
775.865	23201.37
776.2	23138.09
776.535	23054.7
776.87	22994.82
777.205	22906.23
777.539	22789.17
777.874	22964.54
778.209	22717.76
778.543	22561.16
778.878	22501.72
779.212	22429.41
779.547	22295.85
779.881	22293.37
780.215	22188.74
780.55	22258.12
780.884	22148.06
781.218	22071.68
781.552	21984.68
781.886	21840.73
782.22	21782.65
782.554	21729.54
782.888	21454.29
783.222	21575.42
783.556	21298.14
783.889	21308.99
784.223	21255.88
784.557	21117.58
784.89	21208.65
785.224	21105.83
785.557	20896.12
785.891	20838.04
786.224	20749.68
786.558	20804.37
786.891	20662
787.224	20531.83
787.557	20511.27
787.891	20524.83
788.224	20391.5
788.557	20363.25
788.89	20276.47
789.223	20181.56
789.556	20108.12
789.888	20021.34
790.221	20008.46
790.554	19801.68
790.887	19869.48
791.219	19748.35
791.552	19825.41
791.884	19615.92
792.217	19546.1
792.549	19449.38
792.882	19402.82
793.214	19227.91
793.546	19278.08
793.879	19108.59
794.211	19112.44
794.543	19057.97
794.875	19013.45
795.207	19126.45
795.539	18973.68
795.871	18936.17
796.203	18777.53
796.535	18543.86
796.867	18715.16
797.198	18674.93
797.53	18575.27
797.862	18434.71
798.193	18509.29
798.525	18319.69
798.856	18320.59
799.188	18164.89
799.519	18172.35
799.85	18068.62
800.182	18070.65
800.513	18088.51
800.844	17911.34
801.175	18040.6
801.506	17931.9
801.837	17888.29
802.168	17659.82
802.499	17722.42
802.83	17517.45
803.161	17602.19
803.491	17559.26
803.822	17566.04
804.153	17454.85
804.483	17274.07
804.814	17215.99
805.145	17260.28
805.475	17198.36
805.805	17182.09
806.136	17178.02
806.466	17174.63
806.796	17082.88
807.126	16940.74
807.457	16886.05
807.787	16938.03
808.117	16813.51
808.447	16773.97
808.777	16881.99
809.107	16729.9
809.436	16652.84
809.766	16644.7
810.096	16612.61
810.426	16471.15
810.755	16501.2
811.085	16529
811.414	16398.61
811.744	16238.61
812.073	16213.08
812.403	16226.64
812.732	16174.21
813.061	16156.35
813.39	15970.6
813.719	16062.12
814.049	16077.49
814.378	16051.05
814.707	15928.79
815.036	15995.23
815.365	15901.22
815.693	15714.33
816.022	15748.68
816.351	15732.86
816.68	15607.67
817.008	15647.89
817.337	15514.79
817.665	15448.58
817.994	15597.5
818.322	15489.25
818.651	15394.57
818.979	15402.02
819.307	15447.22
819.636	15441.57
819.964	15248.13
820.292	15383.72
820.62	15308.24
820.948	15222.59
821.276	15265.3
821.604	15174.23
821.932	15190.96
822.259	15242.93
822.587	15211.07
822.915	15162.26
823.243	15171.3
823.57	15110.73
823.898	15182.37
824.225	15058.98
824.553	15092.2
824.88	15097.85
825.207	15205.65
825.535	15195.25
825.862	15139.21
826.189	15110.73
826.516	15177.85
826.843	15098.3
827.17	15082.71
827.497	15202.93
827.824	15222.14
828.151	15249.94
828.478	15127.23
828.805	15293.78
829.131	15217.17
829.458	15145.99
829.785	14977.4
830.111	15069.6
830.438	15172.2
830.764	15061.24
831.09	15122.03
831.417	15070.51
831.743	15124.07
832.069	15032.32
832.395	15048.36
832.722	15096.5
833.048	14935.37
833.374	14989.83
833.7	14950.28
834.026	14908.7
834.351	15002.03
834.677	14922.71
835.003	15029.15
835.329	14967.23
835.654	14862.6
835.98	14866.22
836.306	14868.03
836.631	14830.97
836.956	14837.52
837.282	14828.71
837.607	14694.25
837.932	14734.25
838.258	14693.34
838.583	14707.35
838.908	14572.22
839.233	14597.3
839.558	14574.93
839.883	14536.96
840.208	14487.47
840.533	14533.57
840.858	14528.15
841.182	14467.36
841.507	14452.9
841.832	14325.44
842.156	14334.71
842.481	14346.68
842.805	14381.03
843.13	14303.07
843.454	14317.99
843.778	14172.23
844.103	14179.68
844.427	14111.66
844.751	14157.09
845.075	14137.65
845.399	14045
845.723	14069.63
846.047	13967.26
846.371	13860.6
846.695	13877.09
847.019	13812.01
847.343	13676.87
847.666	13590.32
847.99	13613.82
848.313	13578.12
848.637	13552.81
848.96	13497.67
849.284	13430.78
849.607	13351.91
849.931	13382.64
850.254	13230.78
850.577	13095.42
850.9	13057.68
851.223	13083.89
851.546	13067.85
851.869	12917.8
852.192	13015.65
852.515	12890.68
852.838	12759.61
853.161	12817.23
853.483	12722.32
853.806	12673.51
854.129	12647.52
854.451	12676.45
854.774	12557.58
855.096	12502.89
855.419	12534.53
855.741	12413.63
856.063	12337.25
856.385	12386.51
856.708	12294.54
857.03	12257.02
857.352	12320.75
857.674	12216.8
857.996	12151.94
858.318	12082.34
858.64	12117.14
858.961	12136.35
859.283	12050.25
859.605	12018.16
859.926	12043.92
860.248	12005.96
860.57	11902.23
860.891	11843.93
861.212	11874.66
861.534	11782.01
861.855	11811.38
862.176	11793.53
862.498	11747.43
862.819	11736.81
863.14	11686.19
863.461	11692.52
863.782	11687.09
864.103	11681.22
864.424	11562.35
864.745	11648
865.065	11524.39
865.386	11542.46
865.707	11423.6
866.027	11449.36
866.348	11465.4
866.668	11405.75
866.989	11482.35
867.309	11345.63
867.63	11391.06
867.95	11376.59
868.27	11275.35
868.59	11347.89
868.91	11243.04
869.23	11254.56
869.55	11238.29
869.87	11318.52
870.19	11241.91
870.51	11239.2
870.83	11240.33
871.15	11245.3
871.469	11142.25
871.789	11214.34
872.109	11177.95
872.428	11045.08
872.748	11105.41
873.067	11082.59
873.386	11029.03
873.706	11034.46
874.025	10948.81
874.344	10994.46
874.663	10950.84
874.982	10940.22
875.301	10919.66
875.62	10946.77
875.939	10853.22
876.258	10853.9
876.577	10820.22
876.896	10821.35
877.214	10784.74
877.533	10790.17
877.852	10776.16
878.17	10787.68
878.489	10826.1
878.807	10773.67
879.125	10787.46
879.444	10760.79
879.762	10658.65
880.08	10644.64
880.398	10582.04
880.716	10713.79
881.034	10612.55
881.352	10625.88
881.67	10559.67
881.988	10513.11
882.306	10502.49
882.624	10551.53
882.941	10450.52
883.259	10444.64
883.577	10503.17
883.894	10379.11
884.212	10347.69
884.529	10347.47
884.846	10336.85
885.164	10272.44
885.481	10271.09
885.798	10262.05
886.115	10233.57
886.432	10175.72
886.75	10193.8
887.067	10134.82
887.383	10041.94
887.7	10181.82
888.017	10067.93
888.334	10131.2
888.651	9988.83
888.967	10013.24
889.284	9943.18
889.6	9898.44
889.917	9884.66
890.233	9879.46
890.55	9779.12
890.866	9872.23
891.182	9812.79
891.498	9715.62
891.815	9783.42
892.131	9677.2
892.447	9770.08
892.763	9647.37
893.079	9613.25
893.395	9601.5
893.71	9543.2
894.026	9572.35
894.342	9524.21
894.657	9418.23
894.973	9370.54
895.289	9373.93
895.604	9410.77
895.92	9351.56
896.235	9324.9
896.55	9258.01
896.865	9258.68
897.181	9253.49
897.496	9259.81
897.811	9216.2
898.126	9141.17
898.441	9083.77
898.756	9111.34
899.071	9028.41
899.386	9062.08
899.7	9008.52
900.015	8933.27
900.33	8838.58
900.644	8835.64
900.959	8929.2
901.273	8833.61
901.588	8747.96
901.902	8774.63
902.216	8737.11
902.531	8792.71
902.845	8685.36
903.159	8673.84
903.473	8558.36
903.787	8582.09
904.101	8564.24
904.415	8552.94
904.729	8472.49
905.042	8437.46
905.356	8394.07
905.67	8387.52
905.984	8332.15
906.297	8333.74
906.611	8257.58
906.924	8280.63
907.237	8294.64
907.551	8204.7
907.864	8162.44
908.177	8117.24
908.491	8166.06
908.804	8155.66
909.117	8075.44
909.43	8011.94
909.743	8021.2
910.056	7914.31
910.368	7861.21
910.681	7873.86
910.994	7880.19
911.307	7787.31
911.619	7738.72
911.932	7744.6
912.244	7670.02
912.557	7695.56
912.869	7589.35
913.181	7627.54
913.494	7600.42
913.806	7557.71
914.118	7484.27
914.43	7466.41
914.742	7496.92
915.054	7441.78
915.366	7362.24
915.678	7397.26
915.99	7413.76
916.302	7324.5
916.613	7303.93
916.925	7258.28
917.236	7204.95
917.548	7168.57
917.859	7204.5
918.171	7131.28
918.482	7097.16
918.794	7065.52
919.105	7030.95
919.416	7023.26
919.727	6970.83
920.038	6953.88
920.349	6867.33
920.66	6868.46
920.971	6856.71
921.282	6897.16
921.593	6781.91
921.903	6797.5
922.214	6778.3
922.525	6734
922.835	6710.73
923.146	6635.02
923.456	6618.75
923.767	6623.5
924.077	6586.21
924.387	6552.31
924.697	6557.96
925.008	6465.31
925.318	6414.24
925.628	6455.14
925.938	6454.46
926.248	6364.3
926.558	6352.09
926.867	6346.67
927.177	6293.11
927.487	6291.08
927.796	6268.25
928.106	6213.11
928.416	6247.69
928.725	6185.09
929.034	6128.14
929.344	6132.21
929.653	6072.55
929.962	6073.91
930.271	6049.05
930.581	6007.47
930.89	6025.55
931.199	5986.23
931.508	5911.65
931.817	5956.62
932.125	5919.11
932.434	5883.86
932.743	5788.27
933.051	5796.18
933.36	5819.45
933.669	5712.11
933.977	5736.52
934.286	5742.62
934.594	5776.74
934.902	5642.73
935.21	5608.84
935.519	5633.24
935.827	5593.92
936.135	5560.25
936.443	5501.72
936.751	5551.89
937.059	5494.49
937.367	5414.94
937.674	5509.86
937.982	5423.98
938.29	5392.8
938.597	5442.29
938.905	5339.69
939.213	5295.85
939.52	5332.91
939.827	5325
940.135	5285.91
940.442	5224.44
940.749	5223.76
941.056	5168.17
941.363	5192.58
941.67	5190.54
941.977	5098.11
942.284	5076.65
942.591	5079.13
942.898	5102.86
943.205	5061.51
943.511	5033.48
943.818	5063.99
944.125	5000.04
944.431	4975.63
944.738	4929.08
945.044	4901.96
945.35	4898.57
945.657	4874.62
945.963	4848.4
946.269	4823.32
946.575	4829.42
946.881	4798.91
947.187	4805.69
947.493	4732.93
947.799	4809.53
948.105	4707.39
948.41	4686.15
948.716	4705.36
949.022	4669.43
949.327	4649.54
949.633	4651.35
949.938	4612.03
950.244	4573.83
950.549	4577.45
950.854	4522.31
951.16	4501.07
951.465	4473.27
951.77	4468.98
952.075	4469.2
952.38	4472.37
952.685	4471.01
952.99	4403.67
953.294	4383.56
953.599	4361.64
953.904	4320.73
954.209	4315.99
954.513	4344.01
954.818	4296.55
955.122	4240.51
955.426	4242.77
955.731	4247.52
956.035	4191.47
956.339	4148.76
956.643	4146.73
956.948	4158.7
957.252	4153.28
957.556	4071.02
957.86	4079.38
958.163	4081.42
958.467	4055.43
958.771	4043.9
959.075	4079.84
959.378	4010.46
959.682	4009.78
959.985	3984.7
960.289	3965.04
960.592	3882.55
960.896	3929.11
961.199	3929.33
961.502	3924.13
961.805	3881.88
962.108	3829
962.411	3866.28
962.714	3855.44
963.017	3768.43
963.32	3859.73
963.623	3746.06
963.926	3748.55
964.228	3754.65
964.531	3758.26
964.833	3736.79
965.136	3621.77
965.438	3702.22
965.741	3698.15
966.043	3651.15
966.345	3621.77
966.648	3647.53
966.95	3619.96
967.252	3564.82
967.554	3585.39
967.856	3594.43
968.158	3554.65
968.46	3524.14
968.761	3507.2
969.063	3532.51
969.365	3465.39
969.666	3461.55
969.968	3435.11
970.269	3424.49
970.571	3383.36
970.872	3444.15
971.174	3371.15
971.475	3377.03
971.776	3372.51
972.077	3309.69
972.378	3329.35
972.679	3296.13
972.98	3302.46
973.281	3255.45
973.582	3249.58
973.883	3263.59
974.183	3259.29
974.484	3200.54
974.785	3234.89
975.085	3201.89
975.386	3199.86
975.686	3178.62
975.986	3117.15
976.287	3146.53
976.587	3107.88
976.887	3116.47
977.187	3103.59
977.487	3108.11
977.787	3036.25
978.087	3059.75
978.387	3000.32
978.687	3038.51
978.987	3033.31
979.286	3007.77
979.586	2986.08
979.885	2976.36
980.185	2976.59
980.484	2935.91
980.784	2934.78
981.083	2931.17
981.382	2935.69
981.682	2875.8
981.981	2858.85
982.28	2895.91
982.579	2854.33
982.878	2844.16
983.177	2838.96
983.475	2822.24
983.774	2821.11
984.073	2805.52
984.372	2786.99
984.67	2790.38
984.969	2771.17
985.267	2737.05
985.566	2743.6
985.864	2718.29
986.162	2737.5
986.461	2718.52
986.759	2655.24
987.057	2673.32
987.355	2653.89
987.653	2648.69
987.951	2629.25
988.249	2594
988.547	2617.73
988.844	2593.77
989.142	2594
989.44	2591.74
989.737	2561.23
990.035	2568.92
990.332	2557.62
990.63	2541.8
990.927	2545.87
991.224	2513.78
991.521	2521.46
991.819	2517.62
992.116	2482.36
992.413	2451.86
992.71	2444.17
993.006	2421.8
993.303	2435.36
993.6	2414.8
993.897	2408.47
994.193	2430.84
994.49	2354.01
994.787	2391.52
995.083	2351.29
995.379	2367.11
995.676	2345.64
995.972	2314.23
996.268	2307.23
996.565	2292.99
996.861	2290.73
997.157	2330.73
997.453	2299.54
997.749	2269.26
998.044	2258.42
998.34	2220.22
998.636	2236.95
998.932	2202.37
999.227	2198.08
999.523	2213.22
999.818	2196.72
1000.114	2135.48
1000.409	2170.96
1000.704	2140
1001	2151.98
1001.295	2103.62
1001.59	2107.91
1001.885	2118.31
1002.18	2065.65
1002.475	2066.33
1002.77	2081.92
1003.065	2080.11
1003.359	2030.17
1003.654	2037.4
1003.949	2009.16
1004.243	2020.46
1004.538	2003.96
1004.832	2005.54
1005.127	2003.73
1005.421	1961.02
1005.715	1980
1006.009	1960.8
1006.304	1977.52
1006.598	1901.59
1006.892	1892.55
1007.186	1884.87
1007.48	1906.11
1007.773	1929.84
1008.067	1901.36
1008.361	1881.25
1008.655	1866.11
1008.948	1840.8
1009.242	1832.89
1009.535	1811.87
1009.829	1774.81
1010.122	1819.78
1010.415	1835.83
1010.708	1782.72
1011.001	1773.91
1011.295	1755.38
1011.588	1775.26
1011.881	1758.09
1012.173	1713.57
1012.466	1700.69
1012.759	1717.19
1013.052	1718.09
1013.344	1688.49
1013.637	1690.75
1013.93	1710.63
1014.222	1660.24
1014.514	1629.96
1014.807	1640.58
1015.099	1621.14
1015.391	1601.26
1015.683	1619.34
1015.976	1606.68
1016.268	1586.79
1016.56	1594.48
1016.851	1565.55
1017.143	1582.5
1017.435	1560.81
1017.727	1562.84
1018.018	1546.34
1018.31	1548.38
1018.602	1511.09
1018.893	1526.68
1019.185	1487.14
1019.476	1500.47
1019.767	1475.16
1020.058	1474.48
1020.35	1445.56
1020.641	1466.8
1020.932	1457.76
1021.223	1434.93
1021.514	1442.39
1021.804	1376.4
1022.095	1411.43
1022.386	1388.83
1022.677	1394.71
1022.967	1383.86
1023.258	1358.1
1023.548	1357.87
1023.839	1365.56
1024.129	1356.74
1024.419	1337.31
1024.709	1334.82
1025	1315.39
1025.29	1315.84
1025.58	1305.45
1025.87	1293.69
1026.16	1265.45
1026.449	1285.33
1026.739	1270.19
1027.029	1261.61
1027.319	1268.16
1027.608	1248.95
1027.898	1252.79
1028.187	1245.56
1028.477	1244.2
1028.766	1243.53
1029.055	1209.18
1029.344	1188.16
1029.634	1190.42
1029.923	1170.76
1030.212	1158.56
1030.501	1163.75
1030.79	1160.36
1031.078	1155.17
1031.367	1157.2
1031.656	1135.51
1031.945	1136.64
1032.233	1147.94
1032.522	1150.42
1032.81	1122.85
1033.099	1124.43
1033.387	1100.71
1033.675	1066.13
1033.963	1100.03
1034.251	1098.45
1034.54	1086.92
1034.828	1053.7
1035.116	1043.31
1035.403	1047.37
1035.691	1037.2
1035.979	1027.04
1036.267	1024.55
1036.554	1018
1036.842	1018.22
1037.129	1013.25
1037.417	1022.52
1037.704	995.4
1037.992	982.97
1038.279	976.19
1038.566	972.35
1038.853	972.35
1039.14	972.35
