Data from hue_150_FLMS001491_00058.txt Node
Date: Tue Feb 07 16:54:14 GMT 2017
User: dcchb
Spectrometer: FLMS00149
Trigger mode: 0
Integration Time (sec): 2.000000E-2
Scans to average: 10
Electric dark correction enabled: true
Nonlinearity correction enabled: false
Boxcar width: 0
XAxis mode: Wavelengths
Number of Pixels in Spectrum: 2048
>>>>>Begin Spectral Data<<<<<
341.393	-11.53
341.776	-11.53
342.16	-11.53
342.543	-61.24
342.927	-57.17
343.31	-83.16
343.693	-63.95
344.077	-56.72
344.46	-68.02
344.843	-41.81
345.226	-48.81
345.61	-33.45
345.993	-18.3
346.376	11.3
346.759	9.04
347.142	16.04
347.525	39.1
347.908	67.34
348.291	84.97
348.674	84.52
349.057	101.92
349.44	132.65
349.823	146.44
350.206	178.07
350.588	202.93
350.971	219.88
351.354	226.66
351.737	242.71
352.119	262.37
352.502	256.94
352.884	270.73
353.267	266.89
353.65	296.49
354.032	310.5
354.414	315.25
354.797	317.05
355.179	298.98
355.562	316.6
355.944	323.61
356.326	330.61
356.709	328.58
357.091	328.13
357.473	321.35
357.855	338.07
358.238	351.86
358.62	334
359.002	337.62
359.384	332.65
359.766	323.61
360.148	334.68
360.53	327.9
360.912	327
361.294	332.87
361.676	335.13
362.057	331.74
362.439	329.26
362.821	315.7
363.203	338.07
363.584	324.06
363.966	303.49
364.348	330.39
364.729	328.8
365.111	324.96
365.493	313.89
365.874	318.18
366.256	314.34
366.637	330.84
367.019	305.3
367.4	298.07
367.781	318.64
368.163	320.67
368.544	318.18
368.925	310.95
369.306	295.13
369.688	290.39
370.069	337.39
370.45	305.08
370.831	304.4
371.212	317.96
371.593	310.27
371.974	272.99
372.355	306.66
372.736	317.05
373.117	315.02
373.498	296.04
373.879	299.2
374.26	319.54
374.641	325.87
375.021	313.66
375.402	319.09
375.783	328.8
376.163	331.06
376.544	360.44
376.925	321.35
377.305	318.86
377.686	312.31
378.066	342.59
378.447	324.51
378.827	336.49
379.208	320.67
379.588	319.31
379.968	324.51
380.349	339.88
380.729	325.64
381.109	321.12
381.489	333.78
381.87	337.17
382.25	351.63
382.63	360.89
383.01	348.69
383.39	331.97
383.77	341.46
384.15	320.44
384.53	364.74
384.91	353.44
385.29	329.48
385.67	340.1
386.049	360.22
386.429	344.62
386.809	358.86
387.189	348.47
387.568	346.66
387.948	346.21
388.328	354.34
388.707	377.39
389.087	352.76
389.466	352.99
389.846	352.53
390.225	358.41
390.605	370.16
390.984	344.17
391.363	375.13
391.743	372.87
392.122	379.88
392.501	380.1
392.881	372.42
393.26	370.16
393.639	368.13
394.018	374.23
394.397	364.51
394.776	375.58
395.155	377.84
395.534	354.11
395.913	380.55
396.292	383.94
396.671	397.5
397.05	387.56
397.429	375.58
397.808	391.18
398.186	395.24
398.565	395.02
398.944	377.62
399.323	379.65
399.701	381.23
400.08	387.56
400.458	383.49
400.837	407.9
401.215	395.24
401.594	381.01
401.972	401.35
402.351	402.48
402.729	388.24
403.107	417.16
403.486	410.61
403.864	421.01
404.242	421.01
404.62	402.7
404.999	410.16
405.377	403.15
405.755	414.45
406.133	394.79
406.511	401.12
406.889	439.54
407.267	440.44
407.645	418.97
408.023	431.18
408.401	439.54
408.779	431.63
409.156	428.69
409.534	424.62
409.912	460.1
410.29	432.08
410.667	443.15
411.045	433.66
411.422	445.86
411.8	454.9
412.178	460.55
412.555	482.25
412.933	457.39
413.31	477.95
413.687	491.74
414.065	478.41
414.442	459.42
414.819	474.11
415.197	489.93
415.574	493.77
415.951	503.04
416.328	502.13
416.705	484.28
417.082	508.69
417.46	515.24
417.837	505.98
418.214	487.9
418.591	497.16
418.967	502.81
419.344	524.28
419.721	517.5
420.098	500.1
420.475	525.18
420.852	529.7
421.228	529.25
421.605	509.37
421.982	531.74
422.358	550.04
422.735	527.22
423.111	534
423.488	552.3
423.864	543.04
424.241	562.47
424.617	556.14
424.994	576.93
425.37	576.71
425.746	577.39
426.123	565.18
426.499	575.13
426.875	561.57
427.251	588.23
427.627	588.01
428.003	583.26
428.379	602.24
428.756	598.18
429.132	598.63
429.507	608.8
429.883	628.46
430.259	627.78
430.635	624.39
431.011	638.63
431.387	661
431.763	654.67
432.138	648.8
432.514	647.89
432.89	668.46
433.265	661
433.641	685.63
434.016	671.39
434.392	680.43
434.767	692.41
435.143	713.88
435.518	702.13
435.894	704.16
436.269	732.86
436.644	708.46
437.02	731.73
437.395	721.11
437.77	728.12
438.145	731.51
438.52	758.4
438.895	749.81
439.271	753.43
439.646	779.64
440.021	769.47
440.395	776.93
440.77	778.51
441.145	781
441.52	797.49
441.895	806.76
442.27	788.68
442.645	815.57
443.019	814.67
443.394	812.41
443.769	819.64
444.143	816.93
444.518	831.39
444.892	837.72
445.267	818.28
445.641	857.6
446.016	875.01
446.39	858.73
446.764	884.04
447.139	858.06
447.513	867.32
447.887	868
448.262	864.16
448.636	882.91
449.01	907.09
449.384	888.56
449.758	904.38
450.132	904.38
450.506	901.9
450.88	914.55
451.254	929.69
451.628	929.69
452.002	954.78
452.376	948
452.75	957.49
453.123	947.55
453.497	955.23
453.871	958.39
454.244	988
454.618	981.22
454.992	1008.79
455.365	1014.66
455.739	1037.49
456.112	1047.2
456.486	1059.86
456.859	1082.91
457.232	1092.85
457.606	1074.1
457.979	1070.71
458.352	1121.55
458.725	1130.37
459.099	1131.72
459.472	1145.05
459.845	1205.84
460.218	1192.51
460.591	1176.92
460.964	1174.66
461.337	1219.18
461.71	1234.54
462.083	1239.06
462.456	1257.82
462.829	1267.76
463.201	1276.8
463.574	1323.13
463.947	1327.42
464.32	1355.67
464.692	1355.67
465.065	1376.69
465.438	1404.48
465.81	1411.94
466.183	1426.18
466.555	1454.88
466.928	1458.49
467.3	1508.43
467.672	1511.6
468.045	1544.59
468.417	1550.24
468.789	1561.54
469.161	1608.32
469.534	1634.53
469.906	1678.15
470.278	1668.2
470.65	1712.05
471.022	1741.88
471.394	1772.16
471.766	1811.03
472.138	1847.41
472.51	1877.92
472.882	1918.37
473.253	1963.11
473.625	1979.38
473.997	2018.93
474.369	2084.01
474.74	2083.56
475.112	2162.88
475.484	2214.41
475.855	2275.19
476.227	2303.67
476.598	2387.73
476.97	2424.79
477.341	2479.26
477.713	2543.66
478.084	2593.6
478.455	2683.77
478.827	2728.97
479.198	2827.27
479.569	2827.27
479.94	2959.7
480.311	3049.86
480.682	3156.3
481.053	3223.87
481.424	3257.09
481.795	3361.27
482.166	3426.8
482.537	3531.66
482.908	3641.49
483.279	3754.03
483.65	3834.93
484.021	3924.19
484.391	4023.85
484.762	4106.11
485.133	4225.65
485.503	4287.8
485.874	4451.18
486.244	4530.05
486.615	4692.31
486.985	4808.69
487.356	4913.54
487.726	5043.94
488.097	5144.27
488.467	5215.68
488.837	5425.62
489.207	5552.85
489.578	5689.34
489.948	5758.94
490.318	5900.64
490.688	5965.04
491.058	6197.13
491.428	6347.18
491.798	6403.67
492.168	6566.16
492.538	6626.49
492.908	6753.04
493.278	6923.89
493.648	6993.04
494.017	7155.97
494.387	7293.37
494.757	7376.76
495.126	7497.88
495.496	7626.47
495.866	7762.73
496.235	7822.62
496.605	7974.93
496.974	8095.15
497.344	8295.15
497.713	8305.54
498.082	8452.21
498.452	8538.98
498.821	8630.51
499.19	8677.29
499.559	8856.04
499.928	8985.98
500.298	9048.35
500.667	9173.32
501.036	9187.78
501.405	9406.76
501.774	9341.45
502.143	9518.85
502.512	9570.82
502.88	9665.51
503.249	9697.82
503.618	9745.05
503.987	9880.64
504.356	9936.01
504.724	10020.75
505.093	10073.86
505.462	10073.41
505.83	10231.6
506.199	10345.72
506.567	10428.65
506.936	10449.22
507.304	10566.73
507.672	10649.66
508.041	10681.3
508.409	10792.71
508.777	10888.53
509.145	10920.39
509.514	11006.49
509.882	10973.95
510.25	11037
510.618	11100.5
510.986	11138.46
511.354	11243.32
511.722	11348.4
512.09	11387.95
512.458	11274.05
512.826	11487.83
513.193	11508.85
513.561	11469.3
513.929	11553.59
514.297	11661.16
514.664	11701.16
515.032	11759.24
515.4	11816.41
515.767	11837.2
516.135	11883.53
516.502	11771.67
516.869	11957.65
517.237	11957.88
517.604	11998.55
517.972	12028.38
518.339	12032
518.706	12023.41
519.073	12098.89
519.44	12058.44
519.808	12207.59
520.175	12197.87
520.542	12380.92
520.909	12324.65
521.276	12330.98
521.643	12385.44
522.009	12356.29
522.376	12451.88
522.743	12420.69
523.11	12557.18
523.477	12624.3
523.843	12658.42
524.21	12810.28
524.577	12696.39
524.943	12725.54
525.31	12730.06
525.676	12818.42
526.043	12890.51
526.409	12827.46
526.776	12926.44
527.142	12810.74
527.508	12870.62
527.874	12983.61
528.241	12927.34
528.607	13004.86
528.973	13026.78
529.339	12951.52
529.705	13018.19
530.071	13059.77
530.437	13050.96
530.803	13062.48
531.169	13036.49
531.535	12996.27
531.901	13020
532.267	12963.05
532.632	13022.03
532.998	13012.09
533.364	13025.65
533.73	13009.6
534.095	13063.84
534.461	12978.19
534.826	13020
535.192	12950.17
535.557	12970.96
535.923	12959.66
536.288	12933.22
536.653	12889.83
537.019	12773
537.384	12802.83
537.749	12852.09
538.114	12841.47
538.479	12794.01
538.845	12787.23
539.21	12690.74
539.575	12770.06
539.94	12680.12
540.305	12715.6
540.67	12658.88
541.034	12675.37
541.399	12629.27
541.764	12566.9
542.129	12500.46
542.494	12484.87
542.858	12493
543.223	12497.75
543.587	12506.11
543.952	12377.98
544.316	12365.78
544.681	12346.34
545.045	12286.91
545.41	12340.47
545.774	12312.9
546.138	12256.85
546.503	12166.01
546.867	12163.3
547.231	12171.43
547.595	12121.04
547.959	12162.17
548.324	12063.64
548.688	12028.84
549.052	11996.07
549.416	12024.77
549.779	11898.9
550.143	11904.55
550.507	11910.2
550.871	11926.47
551.235	11854.38
551.599	11925.34
551.962	11890.31
552.326	11775.28
552.689	11822.97
553.053	11747.49
553.417	11718.34
553.78	11760.37
554.143	11710.43
554.507	11673.59
554.87	11665
555.234	11694.38
555.597	11685.12
555.96	11549.98
556.323	11705.91
556.686	11501.39
557.05	11549.98
557.413	11589.53
557.776	11604.67
558.139	11605.57
558.502	11497.1
558.865	11544.33
559.228	11544.33
559.59	11612.35
559.953	11563.31
560.316	11598.11
560.679	11646.7
561.041	11557.44
561.404	11583.2
561.767	11625.46
562.129	11642.41
562.492	11641.95
562.854	11666.36
563.217	11521.96
563.579	11503.88
563.941	11565.35
564.304	11589.75
564.666	11588.4
565.028	11641.95
565.39	11636.76
565.753	11642.18
566.115	11676.76
566.477	11698.22
566.839	11674.27
567.201	11684.21
567.563	11685.79
567.925	11764.44
568.287	11819.58
568.648	11773.93
569.01	11806.47
569.372	11808.73
569.734	11734.15
570.095	11860.71
570.457	11803.31
570.819	11799.01
571.18	11821.61
571.542	11790.88
571.903	11792.68
572.265	11881.04
572.626	11907.26
572.987	11865.9
573.349	11895.51
573.71	11950.19
574.071	11951.55
574.432	11896.86
574.794	12034.71
575.155	11908.39
575.516	11926.47
575.877	12050.76
576.238	12012.79
576.599	12034.26
576.96	11888.27
577.32	11934.38
577.681	11992.23
578.042	11999.46
578.403	11961.04
578.763	11965.79
579.124	11903.87
579.485	12038.55
579.845	11937.99
580.206	11965.79
580.566	11926.92
580.927	11974.15
581.287	12064.54
581.648	11921.27
582.008	11964.43
582.368	11901.83
582.728	11996.75
583.089	11994.26
583.449	12032.68
583.809	11893.02
584.169	12058.21
584.529	11883.08
584.889	12045.78
585.249	11944.54
585.609	11890.53
585.969	12026.12
586.329	11879.24
586.688	11932.34
587.048	11935.05
587.408	11891.66
587.768	11852.8
588.127	11852.57
588.487	11799.69
588.846	11937.09
589.206	11811.21
589.565	11825.23
589.925	11891.21
590.284	11837.65
590.643	11795.17
591.003	11852.57
591.362	11858.22
591.721	11838.33
592.08	11833.36
592.44	11840.82
592.799	11780.26
593.158	11813.47
593.517	11747.04
593.876	11798.11
594.235	11743.42
594.593	11758.79
594.952	11734.83
595.311	11666.13
595.67	11799.24
596.029	11815.73
596.387	11764.21
596.746	11765.11
597.104	11721.27
597.463	11707.71
597.822	11758.33
598.18	11727.6
598.538	11679.24
598.897	11779.13
599.255	11679.24
599.613	11907.03
599.972	11840.59
600.33	11761.95
600.688	11710.43
601.046	11745
601.404	11736.64
601.762	11685.12
602.12	11746.36
602.478	11801.5
602.836	11795.62
603.194	11756.3
603.552	11706.36
603.91	11702.52
604.268	11722.86
604.625	11707.26
604.983	11703.42
605.341	11669.98
605.698	11701.16
606.056	11768.05
606.413	11735.96
606.771	11730.99
607.128	11819.12
607.485	11719.69
607.843	11738.67
608.2	11841.27
608.557	11862.51
608.914	11790.42
609.272	11872
609.629	11791.1
609.986	11888.73
610.343	11821.61
610.7	11966.69
611.057	11843.98
611.414	11886.24
611.771	11817.77
612.127	11923.98
612.484	11933.47
612.841	11964.66
613.198	11861.61
613.554	11850.99
613.911	11902.74
614.267	11961.49
614.624	11874.72
614.98	11976.41
615.337	12016.63
615.693	12008.95
616.05	11977.76
616.406	12032.45
616.762	12003.3
617.118	11923.98
617.475	11987.71
617.831	12001.49
618.187	11921.49
618.543	12033.58
618.899	12080.81
619.255	11981.38
619.611	12094.6
619.967	12055.95
620.323	12095.05
620.678	12083.98
621.034	11999.91
621.39	11990.65
621.746	12077.2
622.101	12115.16
622.457	12022.73
622.812	12181.6
623.168	12170.3
623.523	12087.59
623.879	12156.74
624.234	12055.95
624.589	12147.03
624.945	12144.54
625.3	12094.82
625.655	12120.59
626.01	12057.99
626.365	12129.4
626.72	12070.19
627.075	11958.56
627.43	12045.56
627.785	12046.46
628.14	12006.01
628.495	12037.65
628.85	12010.31
629.205	12033.36
629.559	12049.17
629.914	12005.33
630.269	11909.97
630.623	11924.88
630.978	12072.22
631.332	12034.49
631.687	11988.16
632.041	11976.41
632.396	11999.23
632.75	11919.91
633.104	11911.33
633.459	11880.37
633.813	11834.72
634.167	11940.93
634.521	11919.23
634.875	11862.06
635.229	11849.63
635.583	11820.25
635.937	11778
636.291	11848.73
636.645	11793.81
636.999	11759.24
637.352	11815.28
637.706	11767.15
638.06	11697.55
638.413	11721.95
638.767	11725.57
639.121	11644.89
639.474	11635.63
639.828	11660.94
640.181	11745.91
640.534	11668.62
640.888	11589.07
641.241	11634.72
641.594	11583.88
641.947	11647.15
642.301	11595.85
642.654	11545.46
643.007	11537.55
643.36	11584.55
643.713	11565.57
644.066	11565.57
644.419	11559.02
644.771	11385.92
645.124	11304.34
645.477	11356.31
645.83	11261.62
646.182	11215.07
646.535	11205.81
646.888	11151.35
647.24	11149.76
647.593	11177.79
647.945	11204.23
648.298	11092.82
648.65	11063.44
649.002	11147.96
649.355	11149.54
649.707	11128.75
650.059	11161.97
650.411	11380.72
650.763	11391.34
651.115	11398.34
651.467	11343.88
651.819	11408.74
652.171	11395.86
652.523	11363.77
652.875	11386.59
653.227	11347.05
653.578	11463.43
653.93	11383.2
654.282	11376.2
654.633	11251
654.985	11295.97
655.337	11390.21
655.688	11439.47
656.039	11365.35
656.391	11297.1
656.742	11296.88
657.094	11378.23
657.445	11372.81
657.796	11423.65
658.147	11381.85
658.498	11360.38
658.849	11426.37
659.2	11381.85
659.551	11381.85
659.902	11397.21
660.253	11352.7
660.604	11371.68
660.955	11412.81
661.306	11479.47
661.656	11421.62
662.007	11380.49
662.358	11429.53
662.708	11433.15
663.059	11390.66
663.409	11352.24
663.76	11494.39
664.11	11436.31
664.461	11470.43
664.811	11471.34
665.161	11512.92
665.511	11410.77
665.862	11406.48
666.212	11462.3
666.562	11378.46
666.912	11400.6
667.262	11407.61
667.612	11450.55
667.962	11426.59
668.312	11388.63
668.662	11393.6
669.011	11464.11
669.361	11416.65
669.711	11375.52
670.06	11372.36
670.41	11331.68
670.76	11381.4
671.109	11354.05
671.459	11349.31
671.808	11319.25
672.157	11372.36
672.507	11342.3
672.856	11312.24
673.205	11310.21
673.554	11345.24
673.904	11282.19
674.253	11356.09
674.602	11253.26
674.951	11127.62
675.3	11095.3
675.649	11269.76
675.998	11215.3
676.346	11288.06
676.695	11274.05
677.044	11140.27
677.393	11191.34
677.741	11216.65
678.09	11091.01
678.438	11152.48
678.787	11130.1
679.135	11208.07
679.484	11066.38
679.832	11186.15
680.181	11075.41
680.529	11180.72
680.877	11011.24
681.225	11012.14
681.573	11079.48
681.922	10942.99
682.27	10976.43
682.618	11015.98
682.966	11023.66
683.314	10984.57
683.661	10918.81
684.009	10886.49
684.357	10818.7
684.705	10874.06
685.053	10872.26
685.4	10785.48
685.748	10728.53
686.095	10755.65
686.443	10713.39
686.79	10724.92
687.138	10738.7
687.485	10624.58
687.832	10651.47
688.18	10658.02
688.527	10600.17
688.874	10599.27
689.221	10556.78
689.568	10528.76
689.915	10471.36
690.262	10501.42
690.609	10428.2
690.956	10384.59
691.303	10436.56
691.65	10354.08
691.997	10378.26
692.344	10230.01
692.69	10251.03
693.037	10196.79
693.383	10173.07
693.73	10194.31
694.077	10156.57
694.423	10124.71
694.769	10033.18
695.116	10068.44
695.462	10000.19
695.808	10025.95
696.155	9975.56
696.501	9884.49
696.847	9929.91
697.193	9845.39
697.539	9866.18
697.885	9754.32
698.231	9725.85
698.577	9691.27
698.923	9670.71
699.269	9684.04
699.614	9534.44
699.96	9625.74
700.306	9557.49
700.651	9560.43
700.997	9492.41
701.342	9463.25
701.688	9445.4
702.033	9471.16
702.379	9364.27
702.724	9401.11
703.069	9336.7
703.415	9271.39
703.76	9280.21
704.105	9170.61
704.45	9132.42
704.795	9068.46
705.14	8985.98
705.485	9016.26
705.83	9037.05
706.175	9040.89
706.52	9046.77
706.865	8978.75
707.209	8929.26
707.554	8975.13
707.899	8942.36
708.243	8961.57
708.588	8914.34
708.932	8802.48
709.277	8773.1
709.621	8752.99
709.966	8698.75
710.31	8776.94
710.654	8716.15
710.998	8752.76
711.342	8699.88
711.687	8573.33
712.031	8662.37
712.375	8550.28
712.719	8605.42
713.063	8560.9
713.407	8607.23
713.75	8512.32
714.094	8501.02
714.438	8458.31
714.782	8507.57
715.125	8458.53
715.469	8523.62
715.812	8475.26
716.156	8387.12
716.499	8382.6
716.843	8399.55
717.186	8286.11
717.53	8402.49
717.873	8376.28
718.216	8366.33
718.559	8291.76
718.902	8241.59
719.246	8302.83
719.589	8235.49
719.932	8216.51
720.275	8264.87
720.617	8268.71
720.96	8221.48
721.303	8257.64
721.646	8186.45
721.989	8212.67
722.331	8270.07
722.674	8258.09
723.016	8236.62
723.359	8260.57
723.701	8170.86
724.044	8124.76
724.386	8118.66
724.729	8190.07
725.071	8159.11
725.413	8176.51
725.755	8122.72
726.097	8124.31
726.439	8079.56
726.782	8080.24
727.124	8111.43
727.465	8083.86
727.807	8080.01
728.149	8115.49
728.491	8063.74
728.833	8112.1
729.175	8009.51
729.516	8063.97
729.858	8013.8
730.199	8052.67
730.541	8074.59
730.882	8010.86
731.224	8021.26
731.565	8011.99
731.906	8043.86
732.248	7946.46
732.589	7986.46
732.93	7987.36
733.271	8019
733.612	8019.9
733.953	8020.58
734.294	7920.92
734.635	7994.37
734.976	8016.06
735.317	7897.65
735.658	8019.9
735.999	7957.76
736.339	7962.05
736.68	7978.1
737.021	7989.85
737.361	8003.86
737.702	8049.05
738.042	8027.36
738.383	8040.92
738.723	8027.36
739.063	8042.73
739.404	8042.05
739.744	8041.37
740.084	7997.08
740.424	8014.03
740.764	8087.47
741.104	8153.23
741.444	8084.31
741.784	8075.04
742.124	8184.19
742.464	8147.81
742.804	8144.42
743.143	8170.18
743.483	8213.8
743.823	8224.87
744.162	8221.25
744.502	8273.91
744.841	8282.27
745.181	8316.39
745.52	8367.92
745.86	8273.91
746.199	8357.52
746.538	8457.86
746.877	8474.35
747.216	8450.17
747.556	8508.48
747.895	8566.78
748.234	8623.73
748.573	8629.83
748.911	8682.71
749.25	8759.54
749.589	8830.95
749.928	8873.89
750.267	8863.04
750.605	9028.69
750.944	8998.86
751.283	9096.03
751.621	9198.63
751.96	9286.76
752.298	9414.22
752.636	9437.04
752.975	9557.94
753.313	9564.95
753.651	9753.64
753.989	9773.08
754.327	9786.41
754.666	9983.69
755.004	10060.53
755.342	10217.13
755.679	10327.64
756.017	10427.3
756.355	10561.98
756.693	10630.23
757.031	10837
757.368	10956.32
757.706	11021.86
758.044	11179.37
758.381	11369.19
758.719	11450.55
759.056	11566.48
759.394	11750.88
759.731	11896.86
760.068	12026.35
760.405	12190.64
760.743	12337.3
761.08	12535.26
761.417	12666.56
761.754	12834.24
762.091	12992.43
762.428	13063.39
762.765	13212.99
763.102	13458.86
763.438	13545.86
763.775	13712.86
764.112	13896.13
764.449	13977.49
764.785	14112.62
765.122	14220.64
765.458	14342.67
765.795	14565.04
766.131	14750.8
766.467	14809.1
766.804	14894.07
767.14	15084.8
767.476	15158.02
767.812	15308.75
768.148	15447.73
768.485	15539.25
768.821	15466.94
769.157	15739.7
769.492	15791.68
769.828	15933.37
770.164	15986.25
770.5	16152.12
770.836	16229.18
771.171	16316.63
771.507	16428.49
771.842	16419.68
772.178	16582.16
772.513	16662.39
772.849	16760.92
773.184	16768.15
773.519	16984.19
773.855	16892.44
774.19	17000.91
774.525	17065.99
774.86	17200.23
775.195	17309.38
775.53	17312.31
775.865	17260.56
776.2	17167.23
776.535	17236.38
776.87	17437.73
777.205	17390.96
777.539	17431.41
777.874	17582.81
778.209	17458.07
778.543	17467.79
778.878	17537.17
779.212	17483.38
779.547	17501.01
779.881	17608.58
780.215	17466.43
780.55	17690.38
780.884	17541.01
781.218	17670.72
781.552	17758.4
781.886	17721.34
782.22	17601.57
782.554	17607.67
782.888	17506.66
783.222	17482.93
783.556	17520.44
783.889	17472.31
784.223	17398.19
784.557	17385.53
784.89	17519.54
785.224	17518.41
785.557	17354.57
785.891	17454.46
786.224	17402.71
786.558	17366.55
786.891	17270.51
787.224	17256.72
787.557	17308.02
787.891	17269.38
788.224	17260.11
788.557	17305.08
788.89	17336.95
789.223	17264.86
789.556	17106.67
789.888	17130.85
790.221	17160.9
790.554	17064.41
790.887	17068.7
791.219	17043.39
791.552	16950.51
791.884	16931.53
792.217	16941.93
792.549	17009.04
792.882	16843.85
793.214	16783.97
793.546	16804.76
793.879	16745.77
794.211	16700.8
794.543	16761.37
794.875	16686.11
795.207	16787.81
795.539	16691.09
795.871	16712.78
796.203	16531.54
796.535	16534.71
796.867	16361.83
797.198	16449.96
797.53	16477.08
797.862	16273.92
798.193	16341.72
798.525	16336.07
798.856	16314.37
799.188	16141.95
799.519	16128.84
799.85	16045.23
800.182	16078
800.513	16101.27
800.844	15951.9
801.175	16011.56
801.506	16021.05
801.837	15896.76
802.168	15905.34
802.499	15828.28
802.83	15832.8
803.161	15787.83
803.491	15674.84
803.822	15712.36
804.153	15618.12
804.483	15539.48
804.814	15603.21
805.145	15523.21
805.475	15520.5
805.805	15348.52
806.136	15404.34
806.466	15345.81
806.796	15448.63
807.126	15328.86
807.457	15301.29
807.787	15175.42
808.117	15200.05
808.447	15132.94
808.777	15267.4
809.107	15090.9
809.436	15016.78
809.766	15046.84
810.096	14982.2
810.426	15025.82
810.755	15010.23
811.085	14954.64
811.414	14941.53
811.744	14828.08
812.073	14760.29
812.403	14791.7
812.732	14796.67
813.061	14776.11
813.39	14625.38
813.719	14721.87
814.049	14669.44
814.378	14617.69
814.707	14582.67
815.036	14593.06
815.365	14504.25
815.693	14405.04
816.022	14436.68
816.351	14458.83
816.68	14351.94
817.008	14494.31
817.337	14283.47
817.665	14140.87
817.994	14218.61
818.322	14367.76
818.651	14172.28
818.979	14107.88
819.307	14165.28
819.636	14158.72
819.964	14108.56
820.292	14135.45
820.62	14125.96
820.948	14104.49
821.276	14096.58
821.604	13981.33
821.932	14091.61
822.259	14014.77
822.587	14035.56
822.915	14008.9
823.243	14137.26
823.57	14065.62
823.898	14022.23
824.225	14009.12
824.553	14069.91
824.88	14030.59
825.207	14074.43
825.535	14002.8
825.862	14080.08
826.189	13993.08
826.516	14110.59
826.843	14066.3
827.17	14115.79
827.497	14156.24
827.824	14128.89
828.151	14150.36
828.478	14117.37
828.805	14070.82
829.131	14082.79
829.458	14090.7
829.785	13985.85
830.111	14071.72
830.438	14155.79
830.764	14029.46
831.09	14109.91
831.417	13990.14
831.743	14114.43
832.069	14070.14
832.395	13984.72
832.722	14053.87
833.048	13933.19
833.374	14014.77
833.7	13865.4
834.026	13960.31
834.351	13991.95
834.677	13932.97
835.003	14005.51
835.329	13882.57
835.654	13901.33
835.98	13867.66
836.306	13898.39
836.631	13889.58
836.956	13836.25
837.282	13899.3
837.607	13805.51
837.932	13783.59
838.258	13765.06
838.583	13803.48
838.908	13717.83
839.233	13743.59
839.558	13629.7
839.883	13618.85
840.208	13602.58
840.533	13593.77
840.858	13573.65
841.182	13546.99
841.507	13598.29
841.832	13534.56
842.156	13456.14
842.481	13423.6
842.805	13417.27
843.13	13417.73
843.454	13391.96
843.778	13419.99
844.103	13312.19
844.427	13271.74
844.751	13224.29
845.075	13216.83
845.399	13243.27
845.723	13088.02
846.047	13154.91
846.371	13019.77
846.695	13019.77
847.019	12973.9
847.343	12900.68
847.666	12894.58
847.99	12809.83
848.313	12831.53
848.637	12715.82
848.96	12623.85
849.284	12647.58
849.607	12585.43
849.931	12571.87
850.254	12484.87
850.577	12342.5
850.9	12285.1
851.223	12314.7
851.546	12276.06
851.869	12131.88
852.192	12235.84
852.515	12092.11
852.838	12039.91
853.161	12073.58
853.483	11943.19
853.806	11970.98
854.129	11884.43
854.451	11881.27
854.774	11801.05
855.096	11723.31
855.419	11712.46
855.741	11705
856.063	11632.24
856.385	11598.57
856.708	11634.04
857.03	11571
857.352	11548.85
857.674	11576.19
857.996	11366.93
858.318	11348.4
858.64	11442.64
858.961	11306.6
859.283	11233.15
859.605	11217.11
859.926	11346.59
860.248	11198.58
860.57	11177.56
860.891	11193.83
861.212	11125.58
861.534	11182.3
861.855	11094.62
862.176	11083.55
862.498	11098.47
862.819	11109.76
863.14	11008.52
863.461	11015.98
863.782	10968.98
864.103	10996.32
864.424	10964.01
864.745	10954.06
865.065	10870.67
865.386	10773.5
865.707	10873.39
866.027	10889.21
866.348	10875.42
866.668	10832.03
866.989	10814.18
867.309	10775.76
867.63	10827.29
867.95	10738.02
868.27	10655.54
868.59	10721.98
868.91	10744.12
869.23	10647.63
869.55	10581.42
869.87	10646.5
870.19	10638.14
870.51	10644.24
870.83	10637.91
871.15	10523.34
871.469	10594.3
871.789	10554.52
872.109	10559.04
872.428	10469.78
872.748	10543.45
873.067	10428.43
873.386	10455.77
873.706	10430.91
874.025	10341.2
874.344	10359.05
874.663	10365.83
874.982	10343.23
875.301	10278.83
875.62	10284.7
875.939	10263.23
876.258	10308.43
876.577	10287.41
876.896	10199.73
877.214	10185.27
877.533	10212.39
877.852	10123.8
878.17	10193.4
878.489	10162.9
878.807	10124.03
879.125	10061.43
879.444	10105.95
879.762	10145.27
880.08	10109.79
880.398	9994.09
880.716	10032.5
881.034	9983.69
881.352	10004.03
881.67	9986.86
881.988	9977.14
882.306	9879.06
882.624	9859.63
882.941	9900.08
883.259	9806.75
883.577	9779.86
883.894	9809.46
884.212	9771.04
884.529	9784.83
884.846	9762.68
885.164	9705.28
885.481	9723.59
885.798	9715.9
886.115	9651.95
886.432	9658.73
886.75	9608.56
887.067	9648.33
887.383	9561.78
887.7	9588.45
888.017	9563.36
888.334	9584.15
888.651	9540.77
888.967	9488.11
889.284	9373.76
889.6	9380.09
889.917	9369.25
890.233	9303.94
890.55	9313.65
890.866	9301.45
891.182	9268.68
891.498	9214.45
891.815	9189.36
892.131	9195.69
892.447	9174
892.763	9100.78
893.079	9118.63
893.395	9022.59
893.71	9025.3
894.026	9002.48
894.342	8932.19
894.657	8952.08
894.973	8889.48
895.289	8863.5
895.604	8921.35
895.92	8814.68
896.235	8711.64
896.55	8801.58
896.865	8789.6
897.181	8714.8
897.496	8715.03
897.811	8687
898.126	8615.59
898.441	8647
898.756	8559.55
899.071	8525.43
899.386	8604.97
899.7	8413.56
900.015	8450.85
900.33	8388.71
900.644	8385.99
900.959	8346.67
901.273	8333.57
901.588	8330.85
901.902	8283.4
902.216	8229.61
902.531	8184.87
902.845	8237.07
903.159	8150.07
903.473	8154.59
903.787	8089.28
904.101	8005.89
904.415	8013.35
904.729	7979.23
905.042	7941.49
905.356	7944.65
905.67	7910.98
905.984	7931.09
906.297	7829.17
906.611	7805.67
906.924	7835.95
907.237	7738.1
907.551	7713.92
907.864	7682.06
908.177	7724.77
908.491	7662.4
908.804	7595.96
909.117	7514.15
909.43	7520.03
909.743	7498.11
910.056	7501.05
910.368	7437.77
910.681	7352.8
910.994	7355.51
911.307	7361.16
911.619	7273.93
911.932	7323.2
912.244	7245.23
912.557	7260.15
912.869	7177.89
913.181	7214.27
913.494	7178.79
913.806	7033.94
914.118	7098.12
914.43	7011.57
914.742	7001.85
915.054	6955.3
915.366	6942.87
915.678	6921.4
915.99	6934.28
916.302	6902.64
916.613	6809.31
916.925	6842.08
917.236	6790.1
917.548	6740.16
917.859	6759.82
918.171	6696.32
918.482	6690.9
918.794	6649.77
919.105	6615.42
919.416	6605.02
919.727	6610.9
920.038	6534.07
920.349	6511.24
920.66	6491.58
920.971	6475.54
921.282	6497.68
921.593	6434.86
921.903	6406.84
922.214	6371.13
922.525	6316.9
922.835	6311.7
923.146	6282.09
923.456	6272.6
923.767	6237.35
924.077	6205.71
924.387	6231.02
924.697	6142.89
925.008	6126.39
925.318	6108.99
925.628	6093.85
925.938	6101.31
926.248	6043.46
926.558	5999.62
926.867	6030.8
927.177	6007.53
927.487	5926.4
927.796	5872.39
928.106	5865.83
928.416	5857.02
928.725	5841.43
929.034	5851.82
929.344	5810.24
929.653	5761.66
929.962	5749.23
930.271	5715.78
930.581	5675.33
930.89	5693.18
931.199	5627.65
931.508	5651.6
931.817	5655.9
932.125	5601.43
932.434	5561.89
932.743	5546.52
933.051	5489.35
933.36	5520.31
933.669	5501.55
933.977	5489.57
934.286	5422.46
934.594	5405.51
934.902	5361.67
935.21	5384.27
935.519	5362.57
935.827	5344.27
936.135	5325.06
936.443	5253.2
936.751	5237.6
937.059	5220.88
937.367	5243.48
937.674	5210.03
937.982	5176.14
938.29	5159.19
938.597	5125.74
938.905	5126.87
939.213	5096.36
939.52	5029.25
939.827	5034.22
940.135	5027.44
940.442	5021.34
940.749	5007.78
941.056	4913.77
941.363	4888.46
941.67	4876.03
941.977	4853.66
942.284	4841.23
942.591	4814.79
942.898	4816.82
943.205	4812.3
943.511	4740.44
943.818	4811.17
944.125	4794
944.431	4697.05
944.738	4691.18
945.044	4675.58
945.35	4663.38
945.657	4635.13
945.963	4594.91
946.269	4578.41
946.575	4608.01
946.881	4542.71
947.187	4582.48
947.493	4530.5
947.799	4489.37
948.105	4479.66
948.41	4467.68
948.716	4483.72
949.022	4441.47
949.327	4360.56
949.633	4338.87
949.938	4393.78
950.244	4356.5
950.549	4380.9
950.854	4317.17
951.16	4347.68
951.465	4310.4
951.77	4241.92
952.075	4251.64
952.38	4230.17
952.685	4217.29
952.99	4168.25
953.294	4222.49
953.599	4135.48
953.904	4169.61
954.209	4087.12
954.513	4105.43
954.818	4087.12
955.122	4078.31
955.426	4039.67
955.731	4007.58
956.035	4015.94
956.339	4005.77
956.643	3990.4
956.948	3969.39
957.252	3952.66
957.556	3950.18
957.86	3896.85
958.163	3897.52
958.467	3868.37
958.771	3844.42
959.075	3877.86
959.378	3807.81
959.682	3811.88
959.985	3843.29
960.289	3762.39
960.592	3773.69
960.896	3743.63
961.199	3758.09
961.502	3723.29
961.805	3671.77
962.108	3661.37
962.411	3665.21
962.714	3657.08
963.017	3638.55
963.32	3646.23
963.623	3632.67
963.926	3576.86
964.228	3548.16
964.531	3547.93
964.833	3515.16
965.136	3537.76
965.438	3558.1
965.741	3492.79
966.043	3472.23
966.345	3477.65
966.648	3452.11
966.95	3440.81
967.252	3421.83
967.554	3412.34
967.856	3406.01
968.158	3367.6
968.46	3355.62
968.761	3331.66
969.063	3326.01
969.365	3335.96
969.666	3334.6
969.968	3290.99
970.269	3305.45
970.571	3271.33
970.872	3247.6
971.174	3195.85
971.475	3223.42
971.776	3187.94
972.077	3204.89
972.378	3220.71
972.679	3149.07
972.98	3132.35
973.281	3190.2
973.582	3150.65
973.883	3133.02
974.183	3114.72
974.484	3079.47
974.785	3053.25
975.085	3077.89
975.386	3054.83
975.686	3049.64
975.986	3032.69
976.287	2964.44
976.587	3001.5
976.887	2994.72
977.187	2983.2
977.487	2972.35
977.787	2935.52
978.087	2933.93
978.387	2895.52
978.687	2945.69
978.987	2920.83
979.286	2855.74
979.586	2828.4
979.885	2837.44
980.185	2836.08
980.484	2837.89
980.784	2800.15
981.083	2815.75
981.382	2788.18
981.682	2779.59
981.981	2773.26
982.28	2751.79
982.579	2741.85
982.878	2706.14
983.177	2735.75
983.475	2721.51
983.774	2715.86
984.073	2648.07
984.372	2694.39
984.67	2627.5
984.969	2680.38
985.267	2670.21
985.566	2634.73
985.864	2622.98
986.162	2588.41
986.461	2610.55
986.759	2545.92
987.057	2558.8
987.355	2545.02
987.653	2567.39
987.951	2528.07
988.249	2531.91
988.547	2493.27
988.844	2476.32
989.142	2475.42
989.44	2452.82
989.737	2463.21
990.035	2425.47
990.332	2450.11
990.63	2403.78
990.927	2443.1
991.224	2376.89
991.521	2418.02
991.819	2406.72
992.116	2362.65
992.413	2346.83
992.71	2311.58
993.006	2300.05
993.303	2310
993.6	2322.65
993.897	2298.92
994.193	2310.9
994.49	2279.04
994.787	2286.27
995.083	2276.32
995.379	2238.13
995.676	2261.86
995.972	2253.95
996.268	2222.09
996.565	2183.9
996.861	2210.79
997.157	2196.1
997.453	2182.77
997.749	2170.11
998.044	2157.23
998.34	2172.6
998.636	2122.88
998.932	2136.44
999.227	2115.65
999.523	2096.22
999.818	2058.7
1000.114	2048.76
1000.409	2047.86
1000.704	2041.3
1001	2041.08
1001.295	2074.3
1001.59	2028.42
1001.885	2000.4
1002.18	1989.33
1002.475	1991.81
1002.77	1991.36
1003.065	1986.84
1003.359	1969.21
1003.654	1949.33
1003.949	1961.53
1004.243	1931.93
1004.538	1904.81
1004.832	1918.14
1005.127	1901.42
1005.421	1888.99
1005.715	1898.93
1006.009	1882.21
1006.304	1869.56
1006.598	1815.77
1006.892	1813.96
1007.186	1787.07
1007.48	1801.76
1007.773	1786.62
1008.067	1808.77
1008.361	1774.64
1008.655	1747.07
1008.948	1748.88
1009.242	1745.26
1009.535	1759.05
1009.829	1741.65
1010.122	1738.94
1010.415	1715.89
1010.708	1722.89
1011.001	1720.18
1011.295	1706.4
1011.588	1674.53
1011.881	1639.5
1012.173	1669.56
1012.466	1660.07
1012.759	1618.26
1013.052	1634.08
1013.344	1638.6
1013.637	1625.72
1013.93	1576.68
1014.222	1585.5
1014.514	1596.57
1014.807	1581.2
1015.099	1575.1
1015.391	1556.12
1015.683	1539.17
1015.976	1521.77
1016.268	1523.35
1016.56	1498.04
1016.851	1493.29
1017.143	1496.01
1017.435	1500.53
1017.727	1464.14
1018.018	1442
1018.31	1474.76
1018.602	1455.33
1018.893	1437.02
1019.185	1418.95
1019.476	1441.32
1019.767	1438.61
1020.058	1431.83
1020.35	1404.03
1020.641	1386.18
1020.932	1387.99
1021.223	1373.75
1021.514	1352.51
1021.804	1370.81
1022.095	1350.25
1022.386	1337.14
1022.677	1332.85
1022.967	1323.58
1023.258	1305.95
1023.548	1309.34
1023.839	1319.74
1024.129	1308.89
1024.419	1265.05
1024.709	1258.5
1025	1232.06
1025.29	1230.93
1025.58	1246.97
1025.87	1240.42
1026.16	1255.56
1026.449	1236.58
1026.739	1206.75
1027.029	1187.99
1027.319	1187.99
1027.608	1167.2
1027.898	1196.35
1028.187	1161.33
1028.477	1169.91
1028.766	1169.46
1029.055	1135.56
1029.344	1173.53
1029.634	1155.45
1029.923	1122.46
1030.212	1114.09
1030.501	1106.86
1030.79	1133.3
1031.078	1105.96
1031.367	1100.31
1031.656	1117.26
1031.945	1079.75
1032.233	1072.51
1032.522	1064.38
1032.81	1068.67
1033.099	1054.44
1033.387	1053.08
1033.675	1002.46
1033.963	1039.97
1034.251	1050.82
1034.54	1042.46
1034.828	982.35
1035.116	1011.95
1035.403	1005.85
1035.691	1003.59
1035.979	1003.14
1036.267	1001.33
1036.554	984.38
1036.842	977.6
1037.129	977.83
1037.417	951.16
1037.704	950.03
1037.992	934.66
1038.279	948.45
1038.566	936.92
1038.853	936.92
1039.14	936.92
