Data from hue_38_FLMS001491_00048.txt Node
Date: Tue Feb 07 17:31:34 GMT 2017
User: dcchb
Spectrometer: FLMS00149
Trigger mode: 0
Integration Time (sec): 2.000000E-2
Scans to average: 10
Electric dark correction enabled: true
Nonlinearity correction enabled: false
Boxcar width: 0
XAxis mode: Wavelengths
Number of Pixels in Spectrum: 2048
>>>>>Begin Spectral Data<<<<<
341.393	-18.64
341.776	-18.64
342.16	-18.64
342.543	-68.13
342.927	-66.55
343.31	-90.28
343.693	-70.85
344.077	-66.33
344.46	-71.3
344.843	-59.09
345.226	-27.46
345.61	-25.42
345.993	-23.84
346.376	19.1
346.759	11.86
347.142	13.9
347.525	46.21
347.908	57.29
348.291	63.84
348.674	118.3
349.057	104.07
349.44	128.25
349.823	169.37
350.206	197.4
350.588	205.08
350.971	216.15
351.354	218.41
351.737	244.63
352.119	271.07
352.502	252.76
352.884	281.91
353.267	291.4
353.65	299.09
354.032	328.69
354.414	319.43
354.797	335.7
355.179	319.65
355.562	330.5
355.944	324.85
356.326	335.02
356.709	339.09
357.091	351.29
357.473	361.23
357.855	345.87
358.238	347
358.62	353.1
359.002	386.77
359.384	367.56
359.766	347.67
360.148	342.25
360.53	358.97
360.912	337.05
361.294	341.35
361.676	342.93
362.057	342.25
362.439	336.38
362.821	328.92
363.203	338.86
363.584	320.33
363.966	321.91
364.348	334.79
364.729	318.52
365.111	314
365.493	311.07
365.874	331.18
366.256	318.07
366.637	326.88
367.019	350.16
367.4	321.91
367.781	321.91
368.163	307.68
368.544	316.04
368.925	316.26
369.306	329.14
369.688	333.89
370.069	304.29
370.45	324.17
370.831	327.11
371.212	308.13
371.593	335.02
371.974	318.3
372.355	297.05
372.736	348.35
373.117	337.96
373.498	323.27
373.879	327.34
374.26	333.44
374.641	320.33
375.021	335.25
375.402	321.23
375.783	320.56
376.163	331.18
376.544	319.88
376.925	330.27
377.305	324.17
377.686	322.82
378.066	342.7
378.447	304.74
378.827	337.05
379.208	331.63
379.588	345.41
379.968	330.27
380.349	326.88
380.729	331.86
381.109	346.77
381.489	336.83
381.87	347.9
382.25	346.77
382.63	345.64
383.01	344.06
383.39	360.78
383.77	332.53
384.15	342.25
384.53	342.93
384.91	349.71
385.29	353.55
385.67	365.3
386.049	345.87
386.429	359.88
386.809	357.39
387.189	363.04
387.568	385.64
387.948	366.43
388.328	375.47
388.707	371.18
389.087	363.72
389.466	386.54
389.846	367.79
390.225	358.07
390.605	368.69
390.984	375.7
391.363	396.94
391.743	372.76
392.122	391.74
392.501	370.95
392.881	362.59
393.26	371.85
393.639	389.93
394.018	371.18
394.397	363.04
394.776	379.99
395.155	397.84
395.534	391.74
395.913	384.96
396.292	374.57
396.671	413.21
397.05	401.68
397.429	381.8
397.808	354.45
398.186	398.29
398.565	402.36
398.944	414.57
399.323	398.75
399.701	418.86
400.08	394.9
400.458	388.35
400.837	396.49
401.215	400.1
401.594	426.09
401.972	422.47
402.351	420.67
402.729	413.66
403.107	410.27
403.486	398.52
403.864	424.51
404.242	413.44
404.62	404.17
404.999	416.83
405.377	422.47
405.755	424.28
406.133	415.7
406.511	433.55
406.889	445.75
407.267	445.98
407.645	455.47
408.023	456.15
408.401	430.38
408.779	435.58
409.156	430.84
409.534	455.24
409.912	438.97
410.29	453.89
410.667	467.9
411.045	468.35
411.422	476.71
411.8	457.73
412.178	458.18
412.555	481.68
412.933	441.68
413.31	486.2
413.687	485.3
414.065	479.65
414.442	477.84
414.819	515.81
415.197	505.86
415.574	492.53
415.951	500.44
416.328	485.75
416.705	511.29
417.082	500.21
417.46	503.38
417.837	514.68
418.214	523.94
418.591	499.76
418.967	476.26
419.344	521.91
419.721	526.65
420.098	513.55
420.475	545.18
420.852	513.77
421.228	542.47
421.605	535.01
421.982	539.99
422.358	566.65
422.735	543.83
423.111	555.13
423.488	565.3
423.864	541.12
424.241	574.34
424.617	561.91
424.994	561
425.37	563.71
425.746	580.66
426.123	567.33
426.499	584.5
426.875	566.65
427.251	604.62
427.627	589.48
428.003	598.52
428.379	615.24
428.756	598.97
429.132	621.11
429.507	614.11
429.883	623.37
430.259	628.12
430.635	611.17
431.011	630.15
431.387	638.29
431.763	643.94
432.138	636.71
432.514	664.95
432.89	674.45
433.265	658.4
433.641	673.99
434.016	663.6
434.392	680.55
434.767	682.35
435.143	666.99
435.518	687.1
435.894	677.84
436.269	695.24
436.644	706.99
437.02	706.31
437.395	697.27
437.77	729.59
438.145	720.77
438.52	719.64
438.895	725.97
439.271	722.58
439.646	724.16
440.021	762.58
440.395	758.51
440.77	729.36
441.145	757.16
441.52	756.93
441.895	778.17
442.27	764.16
442.645	779.53
443.019	779.3
443.394	780.21
443.769	779.3
444.143	773.2
444.518	811.39
444.892	812.97
445.267	802.58
445.641	792.41
446.016	787.21
446.39	802.58
446.764	802.35
447.139	848.68
447.513	835.12
447.887	828.79
448.262	844.61
448.636	843.93
449.01	854.33
449.384	850.94
449.758	865.17
450.132	856.81
450.506	871.5
450.88	882.12
451.254	854.33
451.628	885.97
452.002	918.05
452.376	868.79
452.75	917.38
453.123	905.4
453.497	927.32
453.871	930.03
454.244	933.2
454.618	941.33
454.992	941.33
455.365	960.31
455.739	961.22
456.112	990.82
456.486	988.34
456.859	1023.36
457.232	1020.2
457.606	1024.49
457.979	1019.07
458.352	1059.07
458.725	1055.9
459.099	1049.12
459.472	1067.66
459.845	1113.53
460.218	1092.97
460.591	1104.04
460.964	1094.77
461.337	1109.01
461.71	1136.81
462.083	1138.84
462.456	1172.51
462.829	1184.49
463.201	1176.35
463.574	1207.54
463.947	1189.46
464.32	1236.69
464.692	1265.39
465.065	1235.79
465.438	1282.57
465.81	1309.23
466.183	1311.26
466.555	1343.58
466.928	1355.11
467.3	1360.98
467.672	1351.26
468.045	1391.26
468.417	1389.23
468.789	1415.22
469.161	1469.9
469.534	1491.6
469.906	1496.12
470.278	1504.25
470.65	1524.59
471.022	1567.98
471.394	1626.06
471.766	1607.3
472.138	1649.11
472.51	1679.16
472.882	1717.81
473.253	1754.19
473.625	1792.61
473.997	1825.83
474.369	1813.62
474.74	1869.22
475.112	1938.14
475.484	1942.43
475.855	2024.24
476.227	2028.76
476.598	2114.86
476.97	2162.32
477.341	2182.88
477.713	2254.52
478.084	2271.92
478.455	2326.15
478.827	2398.92
479.198	2466.71
479.569	2488.18
479.94	2619.93
480.311	2621.96
480.682	2687.5
481.053	2790.1
481.424	2915.74
481.795	2936.31
482.166	2982.86
482.537	3031.45
482.908	3170.2
483.279	3252.91
483.65	3313.7
484.021	3412.23
484.391	3479.34
484.762	3536.29
485.133	3600.47
485.503	3716.85
485.874	3866
486.244	3929.05
486.615	4011.98
486.985	4120.23
487.356	4221.7
487.726	4289.72
488.097	4427.79
488.467	4487.68
488.837	4590.95
489.207	4708.69
489.578	4797.95
489.948	4907.1
490.318	5053.09
490.688	5065.97
491.058	5236.13
491.428	5329.69
491.798	5405.17
492.168	5573.75
492.538	5616.01
492.908	5754.09
493.278	5911.82
493.648	5911.37
494.017	6079.5
494.387	6238.82
494.757	6298.48
495.126	6367.86
495.496	6447.4
495.866	6585.25
496.235	6701.41
496.605	6774.62
496.974	6924.68
497.344	6960.38
497.713	7076.54
498.082	7145.69
498.452	7290.99
498.821	7381.39
499.19	7468.62
499.559	7535.96
499.928	7671.78
500.298	7756.97
500.667	7834.03
501.036	7917.42
501.405	7982.05
501.774	8067.25
502.143	8136.62
502.512	8219.56
502.88	8308.6
503.249	8371.64
503.618	8474.01
503.987	8586.1
504.356	8647.8
504.724	8769.37
505.093	8871.97
505.462	8891.4
505.83	8961.46
506.199	9037.39
506.567	9221.57
506.936	9224.73
507.304	9382.92
507.672	9360.09
508.041	9431.28
508.409	9533.2
508.777	9649.12
509.145	9713.3
509.514	9727.99
509.882	9833.3
510.25	9875.79
510.618	9966.86
510.986	10028.1
511.354	10126.17
511.722	10287.07
512.09	10367.52
512.458	10341.31
512.826	10435.09
513.193	10404.81
513.561	10547.41
513.929	10668.99
514.297	10688.42
514.664	10751.47
515.032	10929.09
515.4	10924.57
515.767	10957.56
516.135	11090.67
516.502	11047.51
516.869	11214.28
517.237	11280.04
517.604	11307.61
517.972	11349.87
518.339	11504.9
518.706	11560.49
519.073	11553.03
519.44	11644.33
519.808	11783.31
520.175	11812.01
520.542	11881.61
520.909	11994.37
521.276	12020.14
521.643	12104.88
522.009	12159.79
522.376	12292.67
522.743	12348.71
523.11	12453.12
523.477	12509.16
523.843	12635.04
524.21	12741.92
524.577	12727.69
524.943	12898.08
525.31	12893.56
525.676	13147.34
526.043	13099.66
526.409	13117.96
526.776	13331.74
527.142	13358.86
527.508	13407.67
527.874	13546.2
528.241	13613.99
528.607	13649.25
528.973	13797.49
529.339	13790.03
529.705	13940.31
530.071	14004.49
530.437	14061.89
530.803	14179.18
531.169	14264.82
531.535	14267.08
531.901	14339.62
532.267	14346.18
532.632	14439.51
532.998	14573.06
533.364	14628.88
533.73	14646.51
534.095	14782.32
534.461	14839.04
534.826	14857.8
535.192	14957.91
535.557	14949.1
535.923	15058.25
536.288	15137.79
536.653	15197.45
537.019	15155.19
537.384	15258.02
537.749	15348.64
538.114	15439.48
538.479	15459.59
538.845	15648.06
539.21	15513.15
539.575	15706.59
539.94	15756.31
540.305	15818.68
540.67	15850.09
541.034	15883.99
541.399	15937.32
541.764	15962.41
542.129	16125.11
542.494	16118.79
542.858	16128.95
543.223	16186.81
543.587	16272.23
543.952	16309.29
544.316	16376.41
544.681	16439.45
545.045	16463.41
545.41	16599.22
545.774	16707.92
546.138	16757.41
546.503	16729.39
546.867	16732.33
547.231	16917.41
547.595	16873.34
547.959	16971.87
548.324	17005.54
548.688	17123.28
549.052	17192.88
549.416	17217.74
549.779	17170.73
550.143	17292.77
550.507	17328.92
550.871	17523.72
551.235	17395.36
551.599	17605.98
551.962	17608.46
552.326	17671.96
552.689	17775.69
553.053	17655.47
553.417	17791.96
553.78	17991.73
554.143	17962.13
554.507	18068.11
554.87	18069.92
555.234	18289.12
555.597	18147.43
555.96	18168.45
556.323	18427.88
556.686	18411.61
557.05	18588.32
557.413	18545.16
557.776	18646.63
558.139	18681.88
558.502	18720.75
558.865	18738.83
559.228	18981.53
559.59	18933.63
559.953	18938.82
560.316	19224.69
560.679	19226.73
561.041	19291.13
561.404	19318.48
561.767	19504.01
562.129	19410.68
562.492	19760.72
562.854	19646.38
563.217	19694.51
563.579	19744.68
563.941	19852.92
564.304	19853.38
564.666	20042.52
565.028	20061.28
565.39	20097.21
565.753	20209.98
566.115	20227.6
566.477	20337.66
566.839	20364.55
567.201	20501.04
567.563	20577.43
567.925	20715.5
568.287	20766.35
568.648	20786.46
569.01	20849.28
569.372	21080.24
569.734	21055.83
570.095	21164.75
570.457	21213.57
570.819	21287.46
571.18	21324.07
571.542	21536.27
571.903	21638.19
572.265	21642.93
572.626	21794.57
572.987	21768.81
573.349	21836.83
573.71	21919.08
574.071	22000.66
574.432	22140.32
574.794	22428.68
575.155	22386.19
575.516	22428
575.877	22578.05
576.238	22726.07
576.599	22841.09
576.96	22898.27
577.32	22997.93
577.681	23086.74
578.042	23287.41
578.403	23429.33
578.763	23557.46
579.124	23729.66
579.485	23906.15
579.845	24086.49
580.206	24097.11
580.566	24311.34
580.927	24426.36
581.287	24631.1
581.648	24623.65
582.008	24950.64
582.368	24981.6
582.728	25298.43
583.089	25262.05
583.449	25378.43
583.809	25723.28
584.169	25910.62
584.529	25964.4
584.889	26355.13
585.249	26388.12
585.609	26539.08
585.969	26979.52
586.329	27049.35
586.688	27364.82
587.048	27419.51
587.408	27534.98
587.768	27772.94
588.127	27874.41
588.487	28101.07
588.846	28569.53
589.206	28493.83
589.565	28766.59
589.925	29000.71
590.284	29271.21
590.643	29600.01
591.003	29774.02
591.362	29911.87
591.721	29897.41
592.08	30281.12
592.44	30449.03
592.799	30759.76
593.158	30871.17
593.517	31073.19
593.876	31385.5
594.235	31394.32
594.593	31686.29
594.952	31899.39
595.311	32006.96
595.67	32208.31
596.029	32544.34
596.387	32822.75
596.746	32980.04
597.104	32978.68
597.463	33140.48
597.822	33490.08
598.18	33658.66
598.538	33757.64
598.897	34201.47
599.255	33996.06
599.613	34675.13
599.972	34667.9
600.33	34890.5
600.688	34974.33
601.046	35263.82
601.404	35408.67
601.762	35512.85
602.12	35779.06
602.478	35944.03
602.836	36059.5
603.194	36061.99
603.552	36353.28
603.91	36379.5
604.268	36671.01
604.625	36604.8
604.983	36897.45
605.341	36927.28
605.698	37080.72
606.056	37338.79
606.413	37340.15
606.771	37762.06
607.128	37853.13
607.485	37723.64
607.843	37912.11
608.2	38078.43
608.557	38367.69
608.914	38322.72
609.272	38603.84
609.629	38687.91
609.986	39120.21
610.343	38931.07
610.7	39345.07
611.057	39312.75
611.414	39380.32
611.771	39507.1
612.127	39751.38
612.484	39665.06
612.841	39916.58
613.198	39932.4
613.554	39875
613.911	40343.46
614.267	40451.93
614.624	40394.98
614.98	40530.35
615.337	40846.95
615.693	40765.37
616.05	40843.33
616.406	41113.83
616.762	40975.76
617.118	41039.94
617.475	41281.74
617.831	41401.96
618.187	41511.56
618.543	41566.25
618.899	41829.3
619.255	41785
619.611	41696.19
619.967	41990.87
620.323	41992
620.678	41933.7
621.034	41896.86
621.39	41963.3
621.746	42024.77
622.101	42538.2
622.457	42242.17
622.812	42351.09
623.168	42607.58
623.523	42391.77
623.879	42734.81
624.234	42526
624.589	42567.58
624.945	42662.27
625.3	42751.53
625.655	42862.49
626.01	42827.01
626.365	42931.41
626.72	42822.94
627.075	42832.66
627.43	42987.01
627.785	42844.18
628.14	43029.72
628.495	42958.98
628.85	43055.93
629.205	42930.06
629.559	43226.1
629.914	42952.88
630.269	42976.84
630.623	42983.16
630.978	42931.87
631.332	43103.84
631.687	43133.22
632.041	43107.23
632.396	43123.27
632.75	43020
633.104	43178.86
633.459	42993.33
633.813	43007.34
634.167	43021.58
634.521	43107.23
634.875	43186.77
635.229	43172.54
635.583	42997.63
635.937	42963.28
636.291	42982.26
636.645	42951.3
636.999	42841.47
637.352	42980
637.706	42731.42
638.06	43030.85
638.413	42861.36
638.767	42690.52
639.121	42878.31
639.474	42585.43
639.828	42768.48
640.181	42816.84
640.534	42811.64
640.888	42705.88
641.241	42589.28
641.594	42628.37
641.947	42740.46
642.301	42534.81
642.654	42660.01
643.007	42789.72
643.36	42598.31
643.713	42457.3
644.066	42686.67
644.419	42540.01
644.771	42231.77
645.124	41809.41
645.477	41667.27
645.83	41544.11
646.182	41377.1
646.535	41367.61
646.888	41604.89
647.24	41200.39
647.593	41503.65
647.945	41478.57
648.298	41239.71
648.65	41223.89
649.002	41034.51
649.355	41194.96
649.707	41168.75
650.059	41427.72
650.411	41838.79
650.763	41870.42
651.115	42260.7
651.467	42062.74
651.819	42213.92
652.171	41952.68
652.523	41937.77
652.875	41926.92
653.227	41803.53
653.578	42173.92
653.93	41973.25
654.282	41828.39
654.633	41783.87
654.985	41823.42
655.337	41852.8
655.688	41966.47
656.039	41900.71
656.391	41657.1
656.742	41664.1
657.094	41758.79
657.445	41909.29
657.796	41841.05
658.147	41667.27
658.498	41663.2
658.849	41724.44
659.2	41806.92
659.551	41620.04
659.902	41820.93
660.253	41653.71
660.604	41723.54
660.955	41562.18
661.306	41696.64
661.656	41662.29
662.007	41647.15
662.358	41615.06
662.708	41585.46
663.059	41614.61
663.409	41331.68
663.76	41773.25
664.11	41567.61
664.461	41599.25
664.811	41643.09
665.161	41619.58
665.511	41416.43
665.862	41576.42
666.212	41577.32
666.562	41517.44
666.912	41561.73
667.262	41351.79
667.612	41554.73
667.962	41586.59
668.312	41452.36
668.662	41642.86
669.011	41526.03
669.361	41455.75
669.711	41494.39
670.06	41477.89
670.41	41338.91
670.76	41273.38
671.109	41356.09
671.459	41436.31
671.808	41201.06
672.157	41451.45
672.507	41274.73
672.856	41202.87
673.205	41183.21
673.554	41272.25
673.904	41274.06
674.253	41341.85
674.602	41435.86
674.951	40742.77
675.3	40537.35
675.649	41125.13
675.998	41105.92
676.346	41179.37
676.695	41295.07
677.044	41006.49
677.393	41088.75
677.741	41134.4
678.09	40984.8
678.438	40834.52
678.787	41029.09
679.135	41017.34
679.484	40703.45
679.832	40941.64
680.181	40611.47
680.529	40862.54
680.877	40638.59
681.225	40507.52
681.573	40771.92
681.922	40419.62
682.27	40437.24
682.618	40394.08
682.966	40362.67
683.314	40292.84
683.661	40290.13
684.009	40164.48
684.357	39963.58
684.705	40076.57
685.053	40136.91
685.4	39955.67
685.748	39826.18
686.095	39811.5
686.443	39647.66
686.79	39714.1
687.138	39759.75
687.485	39703.48
687.832	39592.52
688.18	39657.6
688.527	39448.57
688.874	39244.96
689.221	39126.77
689.568	39198.18
689.915	39050.84
690.262	39175.35
690.609	39009.93
690.956	38828.02
691.303	38828.24
691.65	38630.06
691.997	38665.31
692.344	38474.13
692.69	38472.1
693.037	38505.77
693.383	38185.55
693.73	38334.7
694.077	38128.38
694.423	38082.05
694.769	37971.54
695.116	37858.1
695.462	37783.3
695.808	37557.32
696.155	37849.74
696.501	37386.02
696.847	37561.61
697.193	37277.55
697.539	37487.04
697.885	37023.77
698.231	37095.63
698.577	37010.89
698.923	37123.43
699.269	36866.04
699.614	36682.31
699.96	36612.48
700.306	36612.94
700.651	36466.27
700.997	36314.19
701.342	36165.72
701.688	36380.4
702.033	36184.25
702.379	36042.56
702.724	35961.88
703.069	36048.2
703.415	35607.31
703.76	35708.55
704.105	35808.66
704.45	35601.89
704.795	35430.82
705.14	35309.92
705.485	35177.72
705.83	35183.82
706.175	35168.91
706.52	34967.78
706.865	34958.06
707.209	34833.32
707.554	34671.74
707.899	34849.59
708.243	34669.26
708.588	34659.77
708.932	34476.49
709.277	34391.3
709.621	34467.91
709.966	34163.28
710.31	34248.93
710.654	34039.67
710.998	34084.87
711.342	34031.76
711.687	33980.46
712.031	33719.23
712.375	33629.96
712.719	33771.43
713.063	33740.24
713.407	33643.52
713.75	33655.05
714.094	33440.14
714.438	33347.48
714.782	33491.66
715.125	33212.12
715.469	33375.28
715.812	33093.71
716.156	33077.66
716.499	32961.51
716.843	33015.52
717.186	32866.14
717.53	32937.78
717.873	32951.79
718.216	32810.55
718.559	32625.7
718.902	32517.68
719.246	32441.52
719.589	32388.19
719.932	32317.68
720.275	32318.81
720.617	32227.51
720.96	32158.14
721.303	32168.76
721.646	32384.57
721.989	31912.72
722.331	32144.35
722.674	31971.7
723.016	31992.94
723.359	31972.15
723.701	32012.83
724.044	31677.92
724.386	31650.58
724.729	31835.89
725.071	31693.74
725.413	31669.56
725.755	31626.63
726.097	31517.02
726.439	31415.33
726.782	31423.02
727.124	31422.56
727.465	31213.3
727.807	31361.1
728.149	31186.19
728.491	31110.93
728.833	31300.31
729.175	31186.64
729.516	30992.07
729.858	30932.86
730.199	30943.48
730.541	30866.65
730.882	30868.23
731.224	30955.46
731.565	30756.59
731.906	30722.02
732.248	30700.77
732.589	30568.57
732.93	30491.29
733.271	30463.72
733.612	30549.59
733.953	30566.99
734.294	30411.97
734.635	30254.01
734.976	30359.31
735.317	30284.74
735.658	30306.43
735.999	30246.55
736.339	30076.16
736.68	30240
737.021	30035.71
737.361	29956.61
737.702	30075.03
738.042	29960
738.383	29936.73
738.723	29883.62
739.063	29870.06
739.404	29744.42
739.744	29701.48
740.084	29652.89
740.424	29699.22
740.764	29669.84
741.104	29738.77
741.444	29542.39
741.784	29467.36
742.124	29453.12
742.464	29459.23
742.804	29435.27
743.143	29310.75
743.483	29368.83
743.823	29146.47
744.162	29232.56
744.502	29227.37
744.841	29079.12
745.181	29235.28
745.52	29014.94
745.86	29120.03
746.199	29082.29
746.538	28927.94
746.877	29079.12
747.216	28958.67
747.556	28877.55
747.895	28841.61
748.234	28772.92
748.573	28700.6
748.911	28724.56
749.25	28705.57
749.589	28552.81
749.928	28492.25
750.267	28527.95
750.605	28433.94
750.944	28375.19
751.283	28307.39
751.621	28348.52
751.96	28174.06
752.298	28126.61
752.636	28222.87
752.975	28070.56
753.313	27887.29
753.651	28162.08
753.989	27824.47
754.327	27801.42
754.666	27779.72
755.004	27841.19
755.342	27828.53
755.679	27708.99
756.017	27508.54
756.355	27491.59
756.693	27680.52
757.031	27455.89
757.368	27290.47
757.706	27308.55
758.044	27319.85
758.381	27271.03
758.719	27117.82
759.056	27306.29
759.394	27012.06
759.731	26855.23
760.068	26811.84
760.405	26784.27
760.743	26700.88
761.08	26671.5
761.417	26583.82
761.754	26591.73
762.091	26408.68
762.428	26432.19
762.765	26177.73
763.102	26218.18
763.438	26124.4
763.775	25970.05
764.112	25872.65
764.449	25984.51
764.785	25875.36
765.122	25707.23
765.458	25579.33
765.795	25582.04
766.131	25495.26
766.467	25375.94
766.804	25423.4
767.14	25290.52
767.476	25149.51
767.812	25120.58
768.148	25135.72
768.485	25003.3
768.821	24804.43
769.157	24870.87
769.492	24649.86
769.828	24725.34
770.164	24509.53
770.5	24517.43
770.836	24353.14
771.171	24160.83
771.507	24191.57
771.842	24126.48
772.178	24063.66
772.513	23966.71
772.849	23972.82
773.184	23832.48
773.519	23933.27
773.855	23766.04
774.19	23570.34
774.525	23539.61
774.86	23504.81
775.195	23465.03
775.53	23336
775.865	23186.85
776.2	23080.64
776.535	22890.13
776.87	22930.36
777.205	22799.29
777.539	22698.27
777.874	22679.52
778.209	22478.62
778.543	22593.42
778.878	22380.32
779.212	22408.56
779.547	22242.47
779.881	22242.24
780.215	22063.49
780.55	22178.51
780.884	22057.61
781.218	21918.63
781.552	21889.93
781.886	21759.31
782.22	21682.48
782.554	21644.06
782.888	21402.04
783.222	21386.22
783.556	21301.7
783.889	21215.37
784.223	21116.85
784.557	21010.63
784.89	21055.38
785.224	20887.47
785.557	20803.18
785.891	20717.08
786.224	20692.22
786.558	20741.94
786.891	20508.95
787.224	20452.46
787.557	20351.67
787.891	20382.85
788.224	20246.36
788.557	20199.81
788.89	20281.61
789.223	20143.99
789.556	20052.47
789.888	19920.27
790.221	19896.99
790.554	19803.43
790.887	19776.32
791.219	19650.44
791.552	19597.56
791.884	19473.73
792.217	19443.44
792.549	19469.88
792.882	19293.84
793.214	19229.89
793.546	19235.09
793.879	19179.72
794.211	19008.88
794.543	19080.29
794.875	18946.51
795.207	18985.15
795.539	18904.25
795.871	18858.6
796.203	18719.85
796.535	18626.52
796.867	18549.91
797.198	18480.98
797.53	18515.33
797.862	18444.6
798.193	18333.64
798.525	18292.06
798.856	18307.43
799.188	18090.48
799.519	17962.8
799.85	17904.73
800.182	18002.13
800.513	17912.41
800.844	17813.43
801.175	17870.83
801.506	17848.91
801.837	17842.81
802.168	17645.07
802.499	17581.57
802.83	17468.58
803.161	17529.14
803.491	17479.65
803.822	17431.97
804.153	17381.58
804.483	17227.23
804.814	17116.27
805.145	17169.61
805.475	17159.21
805.805	17085.99
806.136	17024.3
806.466	16949.5
806.796	17025.65
807.126	16881.7
807.457	16849.84
807.787	16754.47
808.117	16754.25
808.447	16641.48
808.777	16733.23
809.107	16550.41
809.436	16535.27
809.766	16530.75
810.096	16556.29
810.426	16388.83
810.755	16382.51
811.085	16474.93
811.414	16376.18
811.744	16150.65
812.073	16185.45
812.403	16185.22
812.732	16043.53
813.061	16093.02
813.39	16011.44
813.719	15966.47
814.049	16076.98
814.378	15912.46
814.707	15895.74
815.036	15843.54
815.365	15805.57
815.693	15648.74
816.022	15679.47
816.351	15639.25
816.68	15501.4
817.008	15594.96
817.337	15471.57
817.665	15342.31
817.994	15422.76
818.322	15473.83
818.651	15346.38
818.979	15310.67
819.307	15312.25
819.636	15361.97
819.964	15192.26
820.292	15239.94
820.62	15210.11
820.948	15171.24
821.276	15150
821.604	15144.8
821.932	15159.49
822.259	15170.34
822.587	15171.69
822.915	15046.5
823.243	15224.35
823.57	15107.74
823.898	15158.36
824.225	15114.97
824.553	15047.17
824.88	15139.83
825.207	15079.26
825.535	15043.11
825.862	15167.4
826.189	15054.41
826.516	15118.36
826.843	15148.64
827.17	15095.99
827.497	15178.24
827.824	15045.82
828.151	15192.48
828.478	15104.12
828.805	15050.56
829.131	15026.84
829.458	15030.45
829.785	15018.02
830.111	15001.53
830.438	15089.89
830.764	15001.75
831.09	15043.33
831.417	14912.04
831.743	15016.89
832.069	15005.14
832.395	14919.72
832.722	14982.54
833.048	14932.38
833.374	14952.26
833.7	14846.28
834.026	14779.84
834.351	14911.59
834.677	14883.79
835.003	14910.91
835.329	14929.89
835.654	14871.81
835.98	14762.21
836.306	14838.59
836.631	14742.1
836.956	14840.63
837.282	14688.31
837.607	14742.78
837.932	14663.91
838.258	14618.94
838.583	14643.34
838.908	14583.68
839.233	14580.52
839.558	14523.8
839.883	14503.46
840.208	14404.93
840.533	14470.02
840.858	14521.77
841.182	14477.02
841.507	14402.22
841.832	14343.92
842.156	14428.43
842.481	14291.71
842.805	14270.92
843.13	14267.99
843.454	14192.51
843.778	14201.1
844.103	14136.69
844.427	14043.13
844.751	14095.56
845.075	13974.21
845.399	14011.95
845.723	13949.35
846.047	13957.71
846.371	13859.86
846.695	13808.56
847.019	13677.49
847.343	13624.61
847.666	13595.01
847.99	13624.16
848.313	13509.81
848.637	13493.32
848.96	13451.06
849.284	13378.29
849.607	13253.55
849.931	13270.27
850.254	13214
850.577	13137.85
850.9	13086.32
851.223	13060.11
851.546	13018.08
851.869	12880.23
852.192	12941.24
852.515	12839.32
852.838	12768.14
853.161	12783.96
853.483	12700.8
853.806	12632.1
854.129	12602.04
854.451	12572.44
854.774	12533.57
855.096	12496.28
855.419	12411.31
855.741	12396.85
856.063	12285.21
856.385	12313.69
856.708	12271.88
857.03	12268.94
857.352	12167.93
857.674	12183.97
857.996	12097.65
858.318	12052.23
858.64	12096.29
858.961	12052.9
859.283	12029.4
859.605	11909.4
859.926	11893.81
860.248	11863.53
860.57	11802.29
860.891	11801.16
861.212	11698.79
861.534	11695.85
861.855	11643.87
862.176	11688.17
862.498	11696.53
862.819	11681.16
863.14	11638.45
863.461	11625.34
863.782	11560.94
864.103	11528.62
864.424	11497.21
864.745	11567.27
865.065	11521.39
865.386	11404.33
865.707	11422.41
866.027	11516.87
866.348	11383.77
866.668	11392.36
866.989	11355.97
867.309	11369.98
867.63	11369.98
867.95	11340.15
868.27	11255.41
868.59	11262.64
868.91	11248.4
869.23	11236.43
869.55	11065.13
869.87	11176.77
870.19	11208.63
870.51	11233.26
870.83	11192.81
871.15	11100.16
871.469	11107.62
871.789	11164.34
872.109	11106.04
872.428	10999.15
872.748	11050.22
873.067	11073.95
873.386	11036.21
873.706	11016.32
874.025	10922.09
874.344	10916.89
874.663	11000.95
874.982	10877.79
875.301	10942.2
875.62	10822.88
875.939	10791.02
876.258	10835.31
876.577	10842.09
876.896	10819.72
877.214	10792.6
877.533	10776.55
877.852	10777.23
878.17	10805.48
878.489	10746.72
878.807	10713.73
879.125	10646.84
879.444	10613.39
879.762	10621.75
880.08	10661.3
880.398	10594.41
880.716	10579.5
881.034	10531.14
881.352	10530.68
881.67	10496.79
881.988	10494.53
882.306	10451.59
882.624	10452.95
882.941	10391.93
883.259	10352.38
883.577	10308.54
883.894	10321.65
884.212	10299.96
884.529	10309.67
884.846	10299.73
885.164	10295.44
885.481	10165.5
885.798	10216.34
886.115	10126.17
886.432	10148.77
886.75	10092.05
887.067	10113.97
887.383	10045.72
887.7	10125.5
888.017	10062
888.334	10005.95
888.651	9939.51
888.967	9972.96
889.284	9900.64
889.6	9880.76
889.917	9873.53
890.233	9851.15
890.55	9759.86
890.866	9814.54
891.182	9766.41
891.498	9727.31
891.815	9699.29
892.131	9669.24
892.447	9662.91
892.763	9611.16
893.079	9536.59
893.395	9480.32
893.71	9579.75
894.026	9446.87
894.342	9517.38
894.657	9358.74
894.973	9391.73
895.289	9422.92
895.604	9459.75
895.92	9304.05
896.235	9297.27
896.55	9263.37
896.865	9195.13
897.181	9226.99
897.496	9194.45
897.811	9129.36
898.126	9070.61
898.441	9033.77
898.756	9033.77
899.071	9016.6
899.386	9032.19
899.7	8960.56
900.015	8859.54
900.33	8798.75
900.644	8850.5
900.959	8847.79
901.273	8797.4
901.588	8714.23
901.902	8711.52
902.216	8653.67
902.531	8659.77
902.845	8586.78
903.159	8627.46
903.473	8542.71
903.787	8571.41
904.101	8507.01
904.415	8502.04
904.729	8483.51
905.042	8389.72
905.356	8409.84
905.67	8370.97
905.984	8368.71
906.297	8280.12
906.611	8302.04
906.924	8227.24
907.237	8210.52
907.551	8219.56
907.864	8149.73
908.177	8087.36
908.491	8071.77
908.804	8075.83
909.117	8009.17
909.43	7985.44
909.743	7948.15
910.056	7968.49
910.368	7926.91
910.681	7799.91
910.994	7792
911.307	7789.96
911.619	7706.58
911.932	7748.16
912.244	7675.62
912.557	7708.16
912.869	7610.76
913.181	7597.88
913.494	7598.11
913.806	7540.03
914.118	7510.2
914.43	7482.4
914.742	7465.23
915.054	7401.5
915.366	7358.34
915.678	7334.61
915.99	7288.73
916.302	7268.85
916.613	7275.85
916.925	7195.63
917.236	7171
917.548	7195.63
917.859	7099.59
918.171	7100.27
918.482	7084.22
918.794	7094.84
919.105	7047.39
919.416	6968.52
919.727	6953.38
920.038	6919.48
920.349	6860.5
920.66	6899.82
920.971	6860.72
921.282	6773.95
921.593	6793.61
921.903	6732.14
922.214	6706.83
922.525	6724.68
922.835	6701.41
923.146	6574.18
923.456	6584.12
923.767	6573.73
924.077	6598.81
924.387	6581.18
924.697	6508.42
925.008	6488.98
925.318	6502.54
925.628	6458.7
925.938	6425.93
926.248	6348.65
926.558	6283.56
926.867	6275.43
927.177	6250.57
927.487	6188.88
927.796	6232.94
928.106	6190.23
928.416	6142.55
928.725	6177.58
929.034	6130.57
929.344	6133.29
929.653	6140.74
929.962	5999.5
930.271	6025.49
930.581	5938.49
930.89	5953.4
931.199	5909.11
931.508	5908.66
931.817	5879.96
932.125	5837.93
932.434	5880.41
932.743	5806.51
933.051	5786.63
933.36	5723.8
933.669	5720.87
933.977	5748.89
934.286	5704.37
934.594	5712.28
934.902	5636.12
935.21	5600.42
935.519	5588.21
935.827	5602
936.135	5561.55
936.443	5495.11
936.751	5522.45
937.059	5493.3
937.367	5461.21
937.674	5467.31
937.982	5424.6
938.29	5316.81
938.597	5373.53
938.905	5306.19
939.213	5265.06
939.52	5271.84
939.827	5292.18
940.135	5238.85
940.442	5205.85
940.749	5233.87
941.056	5143.71
941.363	5125.63
941.67	5180.99
941.977	5107.55
942.284	5056.7
942.591	5085.18
942.898	5026.65
943.205	5075.01
943.511	5020.77
943.818	4999.08
944.125	4955.69
944.431	4934.9
944.738	4972.41
945.044	4915.69
945.35	4882.24
945.657	4859.87
945.963	4833.88
946.269	4766.32
946.575	4832.75
946.881	4759.54
947.187	4748.24
947.493	4743.72
947.799	4696.94
948.105	4687
948.41	4682.25
948.716	4629.37
949.022	4641.8
949.327	4660.56
949.633	4604.96
949.938	4596.6
950.244	4588.47
950.549	4524.97
950.854	4532.2
951.16	4516.83
951.465	4459.43
951.77	4448.36
952.075	4385.99
952.38	4425.99
952.685	4424.63
952.99	4401.81
953.294	4337.4
953.599	4350.28
953.904	4341.02
954.209	4236.61
954.513	4291.98
954.818	4268.02
955.122	4255.14
955.426	4201.58
955.731	4243.39
956.035	4176.5
956.339	4186.44
956.643	4192.77
956.948	4150.06
957.252	4091.08
957.556	4139.67
957.86	4040.68
958.163	4031.87
958.467	4022.61
958.771	4044.75
959.075	4020.12
959.378	3996.39
959.682	3999.33
959.985	3928.82
960.289	3945.77
960.592	3922.72
960.896	3902.16
961.199	3898.09
961.502	3880.69
961.805	3900.35
962.108	3838.43
962.411	3825.55
962.714	3785.55
963.017	3794.36
963.32	3791.43
963.623	3780.8
963.926	3761.6
964.228	3712.11
964.531	3687.93
964.833	3705.1
965.136	3663.52
965.438	3628.72
965.741	3623.75
966.043	3599.34
966.345	3577.42
966.648	3566.8
966.95	3575.39
967.252	3558.44
967.554	3555.05
967.856	3496.97
968.158	3512.56
968.46	3511.66
968.761	3495.84
969.063	3475.05
969.365	3459.68
969.666	3476.63
969.968	3369.97
970.269	3409.29
970.571	3382.17
970.872	3415.62
971.174	3378.1
971.475	3354.83
971.776	3342.4
972.077	3303.75
972.378	3321.38
972.679	3318.22
972.98	3272.8
973.281	3263.53
973.582	3249.07
973.883	3241.84
974.183	3274.83
974.484	3217.2
974.785	3200.48
975.085	3214.27
975.386	3174.27
975.686	3188.05
975.986	3145.57
976.287	3155.28
976.587	3111.9
976.887	3051.33
977.187	3108.05
977.487	3072.8
977.787	3091.78
978.087	3021.05
978.387	3052.46
978.687	3013.37
978.987	2995.06
979.286	3012.92
979.586	2961.39
979.885	2966.59
980.185	2920.49
980.484	2933.82
980.784	2925.91
981.083	2924.78
981.382	2926.14
981.682	2892.92
981.981	2890.66
982.28	2857.44
982.579	2858.12
982.878	2867.16
983.177	2845.69
983.475	2825.8
983.774	2800.94
984.073	2764.79
984.372	2788.74
984.67	2780.15
984.969	2756.88
985.267	2754.84
985.566	2723.21
985.864	2723.21
986.162	2653.83
986.461	2689.99
986.759	2654.51
987.057	2670.55
987.355	2631.23
987.653	2614.28
987.951	2626.71
988.249	2610.44
988.547	2651.79
988.844	2584.68
989.142	2597.78
989.44	2564.34
989.737	2602.76
990.035	2529.31
990.332	2540.16
990.63	2548.97
990.927	2520.05
991.224	2531.35
991.521	2515.3
991.819	2470.33
992.116	2437.34
992.413	2472.82
992.71	2422.2
993.006	2426.72
993.303	2421.52
993.6	2374.97
993.897	2409.77
994.193	2390.33
994.49	2374.97
994.787	2355.08
995.083	2400.73
995.379	2375.42
995.676	2311.24
995.972	2317.34
996.268	2286.38
996.565	2324.12
996.861	2303.78
997.157	2275.99
997.453	2278.47
997.749	2290.22
998.044	2214.74
998.34	2236.66
998.636	2197.8
998.932	2202.31
999.227	2132.49
999.523	2184.91
999.818	2202.54
1000.114	2165.48
1000.409	2146.95
1000.704	2124.58
1001	2121.87
1001.295	2117.8
1001.59	2100.17
1001.885	2097.46
1002.18	2084.8
1002.475	2087.29
1002.77	2083.45
1003.065	2031.25
1003.359	2031.02
1003.654	2016.11
1003.949	2040.96
1004.243	1990.34
1004.538	1994.18
1004.832	1982.89
1005.127	1967.52
1005.421	1968.87
1005.715	1936.79
1006.009	1950.8
1006.304	1915.09
1006.598	1912.61
1006.892	1912.61
1007.186	1879.39
1007.48	1881.65
1007.773	1890.68
1008.067	1833.96
1008.361	1853.4
1008.655	1825.83
1008.948	1841.87
1009.242	1837.13
1009.535	1832.38
1009.829	1831.03
1010.122	1804.13
1010.415	1799.39
1010.708	1786.96
1011.001	1778.6
1011.295	1732.95
1011.588	1740.18
1011.881	1740.86
1012.173	1754.87
1012.466	1696.11
1012.759	1708.77
1013.052	1688.66
1013.344	1683.68
1013.637	1669.9
1013.93	1676.91
1014.222	1660.18
1014.514	1627.64
1014.807	1616.79
1015.099	1602.33
1015.391	1599.17
1015.683	1635.1
1015.976	1608.21
1016.268	1624.25
1016.56	1572.28
1016.851	1558.72
1017.143	1554.87
1017.435	1560.75
1017.727	1554.65
1018.018	1524.14
1018.31	1525.95
1018.602	1504.25
1018.893	1497.93
1019.185	1482.79
1019.476	1469.45
1019.767	1469.45
1020.058	1461.09
1020.35	1459.74
1020.641	1432.62
1020.932	1430.13
1021.223	1425.84
1021.514	1424.93
1021.804	1397.82
1022.095	1378.16
1022.386	1396.01
1022.677	1385.39
1022.967	1359.85
1023.258	1375.9
1023.548	1359.63
1023.839	1342.45
1024.129	1318.72
1024.419	1320.98
1024.709	1349
1025	1322.11
1025.29	1308.33
1025.58	1309.46
1025.87	1306.52
1026.16	1279.4
1026.449	1280.76
1026.739	1264.71
1027.029	1274.66
1027.319	1243.02
1027.608	1265.39
1027.898	1250.02
1028.187	1214.54
1028.477	1217.26
1028.766	1200.31
1029.055	1196.01
1029.344	1214.54
1029.634	1201.89
1029.923	1169.57
1030.212	1198.27
1030.501	1127.31
1030.79	1170.25
1031.078	1159.86
1031.367	1153.53
1031.656	1099.97
1031.945	1128.67
1032.233	1117.37
1032.522	1092.29
1032.81	1102.91
1033.099	1106.07
1033.387	1086.64
1033.675	1066.3
1033.963	1066.3
1034.251	1074.89
1034.54	1059.29
1034.828	1058.16
1035.116	1061.1
1035.403	1023.14
1035.691	1014.55
1035.979	995.79
1036.267	1026.53
1036.554	1019.07
1036.842	1008.22
1037.129	995.34
1037.417	963.93
1037.704	995.57
1037.992	990.37
1038.279	975.23
1038.566	967.55
1038.853	967.55
1039.14	967.55
