Data from hue_30_FLMS001491_17.txt Node
Date: Mon Feb 06 15:04:50 GMT 2017
User: dcchb
Spectrometer: FLMS00149
Trigger mode: 0
Integration Time (sec): 2.000000E-2
Scans to average: 10
Electric dark correction enabled: true
Nonlinearity correction enabled: false
Boxcar width: 0
XAxis mode: Wavelengths
Number of Pixels in Spectrum: 2048
>>>>>Begin Spectral Data<<<<<
341.393	-21.4
341.776	-21.4
342.16	-21.4
342.543	-51.45
342.927	-62.98
343.31	-66.59
343.693	-65.24
344.077	-55.75
344.46	-47.39
344.843	-53.94
345.226	-44.22
345.61	-42.19
345.993	-11.45
346.376	-11.23
346.759	11.14
347.142	37.36
347.525	33.97
347.908	51.37
348.291	79.39
348.674	67.19
349.057	117.58
349.44	136.56
349.823	134.53
350.206	155.09
350.588	204.13
350.971	202.78
351.354	211.36
351.737	250.01
352.119	244.36
352.502	247.75
352.884	252.49
353.267	284.81
353.65	290.46
354.032	287.29
354.414	322.32
354.797	294.3
355.179	311.47
355.562	336.78
355.944	319.16
356.326	330.91
356.709	331.36
357.091	334.3
357.473	343.79
357.855	351.47
358.238	325.94
358.62	333.62
359.002	349.67
359.384	328.2
359.766	344.69
360.148	330.23
360.53	322.32
360.912	330.68
361.294	334.3
361.676	318.03
362.057	325.26
362.439	305.6
362.821	326.84
363.203	322.55
363.584	328.88
363.966	321.87
364.348	315.99
364.729	320.51
365.111	315.99
365.493	308.54
365.874	306.73
366.256	323.9
366.637	327.52
367.019	319.38
367.4	335.43
367.781	323.23
368.163	345.6
368.544	317.8
368.925	299.27
369.306	307.86
369.688	302.44
370.069	318.93
370.45	315.54
370.831	293.17
371.212	287.29
371.593	296.11
371.974	313.06
372.355	296.11
372.736	328.88
373.117	322.55
373.498	322.32
373.879	314.41
374.26	303.11
374.641	339.27
375.021	314.19
375.402	317.8
375.783	311.25
376.163	332.49
376.544	300.18
376.925	324.13
377.305	336.78
377.686	358.71
378.066	322.32
378.447	330.68
378.827	336.78
379.208	330.68
379.588	334.07
379.968	339.5
380.349	315.09
380.729	341.98
381.109	360.06
381.489	342.21
381.87	340.4
382.25	342.21
382.63	318.25
383.01	361.42
383.39	330.23
383.77	310.34
384.15	344.92
384.53	328.88
384.91	357.58
385.29	341.08
385.67	351.47
386.049	357.8
386.429	338.14
386.809	352.38
387.189	340.63
387.568	344.69
387.948	347.41
388.328	348.08
388.707	356.45
389.087	349.21
389.466	352.83
389.846	359.38
390.225	351.47
390.605	366.84
390.984	368.42
391.363	363.68
391.743	380.4
392.122	370.91
392.501	340.63
392.881	340.85
393.26	388.53
393.639	364.58
394.018	372.94
394.397	388.53
394.776	374.98
395.155	367.07
395.534	377.01
395.913	390.79
396.292	385.15
396.671	374.98
397.05	370.68
397.429	394.18
397.808	351.93
398.186	383.11
398.565	384.69
398.944	377.01
399.323	384.24
399.701	393.28
400.08	371.13
400.458	388.53
400.837	397.35
401.215	399.83
401.594	388.31
401.972	391.02
402.351	395.09
402.729	404.58
403.107	405.94
403.486	394.64
403.864	402.09
404.242	411.81
404.62	415.88
404.999	390.79
405.377	412.04
405.755	441.64
406.133	412.26
406.511	407.52
406.889	423.56
407.267	418.82
407.645	438.7
408.023	424.01
408.401	419.95
408.779	421.98
409.156	427.18
409.534	461.75
409.912	445.93
410.29	438.93
410.667	443.22
411.045	446.16
411.422	436.22
411.8	441.19
412.178	468.98
412.555	443.45
412.933	451.13
413.31	464.69
413.687	462.66
414.065	438.93
414.442	456.33
414.819	478.25
415.197	476.89
415.574	459.95
415.951	482.32
416.328	463.79
416.705	471.24
417.082	501.75
417.46	502.66
417.837	493.39
418.214	472.37
418.591	484.13
418.967	512.6
419.344	505.14
419.721	491.81
420.098	507.4
420.475	499.27
420.852	512.15
421.228	522.99
421.605	516.89
421.982	535.42
422.358	511.7
422.735	548.08
423.111	519.15
423.488	526.16
423.864	535.65
424.241	534.29
424.617	543.79
424.994	552.37
425.37	539.72
425.746	545.14
426.123	537.91
426.499	551.92
426.875	577.23
427.251	565.25
427.627	551.69
428.003	576.33
428.379	588.76
428.756	589.43
429.132	588.08
429.507	582.43
429.883	577.68
430.259	601.86
430.635	602.54
431.011	597.57
431.387	604.35
431.763	616.55
432.138	629.88
432.514	617.68
432.89	647.29
433.265	652.26
433.641	643.22
434.016	631.01
434.392	668.53
434.767	654.52
435.143	672.14
435.518	651.13
435.894	677.34
436.269	689.32
436.644	689.32
437.02	677.79
437.395	706.49
437.77	696.1
438.145	714.18
438.52	711.24
438.895	692.26
439.271	747.62
439.646	721.18
440.021	727.28
440.395	741.52
440.77	737.9
441.145	723.22
441.52	747.85
441.895	729.32
442.27	740.84
442.645	747.17
443.019	749.88
443.394	760.73
443.769	759.15
444.143	768.19
444.518	753.05
444.892	783.1
445.267	786.94
445.641	777.9
446.016	781.07
446.39	768.19
446.764	813.38
447.139	803.44
447.513	804.12
447.887	814.51
448.262	796.66
448.636	826.04
449.01	816.32
449.384	856.09
449.758	833.04
450.132	839.82
450.506	847.05
450.88	846.83
451.254	839.6
451.628	859.71
452.002	864.45
452.376	865.36
452.75	870.1
453.123	860.16
453.497	903.78
453.871	889.09
454.244	901.06
454.618	903.32
454.992	922.31
455.365	932.7
455.739	912.36
456.112	959.37
456.486	951.46
456.859	960.72
457.232	973.6
457.606	971.57
457.979	978.8
458.352	1013.38
458.725	1023.77
459.099	1017.22
459.472	1038.91
459.845	1045.01
460.218	1064
460.591	1061.29
460.964	1058.57
461.337	1089.99
461.71	1129.08
462.083	1136.76
462.456	1125.69
462.829	1130.89
463.201	1139.25
463.574	1155.29
463.947	1143.09
464.32	1177.44
464.692	1197.1
465.065	1192.36
465.438	1192.13
465.81	1253.15
466.183	1255.63
466.555	1293.14
466.928	1274.84
467.3	1274.16
467.672	1306.48
468.045	1335.18
468.417	1356.65
468.789	1347.15
469.161	1360.49
469.534	1377.44
469.906	1424.21
470.278	1457.21
470.65	1423.31
471.022	1492.01
471.394	1513.48
471.766	1506.25
472.138	1519.58
472.51	1564.1
472.882	1607.49
473.253	1581.05
473.625	1629.18
473.997	1647.94
474.369	1697.65
474.74	1715.96
475.112	1741.95
475.484	1740.14
475.855	1794.15
476.227	1833.47
476.598	1869.63
476.97	1878.89
477.341	1928.61
477.713	1949.85
478.084	1976.74
478.455	2049.28
478.827	2063.52
479.198	2130.18
479.569	2154.36
479.94	2199.11
480.311	2219.67
480.682	2309.61
481.053	2381.48
481.424	2395.04
481.795	2456.5
482.166	2490.63
482.537	2476.84
482.908	2579.44
483.279	2640.91
483.65	2645.88
484.021	2698.76
484.391	2799.32
484.762	2842.71
485.133	2855.81
485.503	2915.47
485.874	3009.03
486.244	3028.92
486.615	3085.19
486.985	3167.67
487.356	3217.39
487.726	3294.22
488.097	3325.63
488.467	3373.99
488.837	3448.34
489.207	3476.36
489.578	3562.01
489.948	3637.94
490.318	3716.36
490.688	3697.6
491.058	3798.84
491.428	3827.09
491.798	3907.31
492.168	3984.15
492.538	4002
492.908	4069.34
493.278	4158.38
493.648	4164.03
494.017	4249.45
494.387	4268.43
494.757	4300.3
495.126	4383.23
495.496	4470.01
495.866	4443.57
496.235	4479.73
496.605	4564.7
496.974	4602.89
497.344	4637.91
497.713	4762.43
498.082	4759.04
498.452	4807.18
498.821	4811.24
499.19	4865.03
499.559	4916.55
499.928	4950.45
500.298	4955.87
500.667	4983.89
501.036	4990.9
501.405	5139.6
501.774	5155.42
502.143	5210.56
502.512	5180.27
502.88	5262.08
503.249	5254.62
503.618	5329.2
503.987	5345.01
504.356	5397.67
504.724	5456.88
505.093	5452.36
505.462	5519.02
505.83	5512.47
506.199	5571.68
506.567	5604.22
506.936	5646.93
507.304	5742.52
507.672	5746.36
508.041	5782.07
508.409	5841.27
508.777	5826.36
509.145	5902.97
509.514	5866.36
509.882	5927.82
510.25	5932.57
510.618	5984.09
510.986	5985
511.354	6074.26
511.722	6074.26
512.09	6148.84
512.458	6146.58
512.826	6171.43
513.193	6241.04
513.561	6254.14
513.929	6275.61
514.297	6364.65
514.664	6392.9
515.032	6364.88
515.4	6438.77
515.767	6453.91
516.135	6493.01
516.502	6518.54
516.869	6559.45
517.237	6581.82
517.604	6549.28
517.972	6609.39
518.339	6605.32
518.706	6666.34
519.073	6686.22
519.44	6771.19
519.808	6743.17
520.175	6787.01
520.542	6834.69
520.909	6884.41
521.276	6899.32
521.643	6921.92
522.009	6976.38
522.376	7006.21
522.743	7066.1
523.11	7052.77
523.477	7119.88
523.843	7181.35
524.21	7241.24
524.577	7302.7
524.943	7328.47
525.31	7345.19
525.676	7380.67
526.043	7451.85
526.409	7486.43
526.776	7490.95
527.142	7576.37
527.508	7602.58
527.874	7669.93
528.241	7648.23
528.607	7718.06
528.973	7833.76
529.339	7775.91
529.705	7787.44
530.071	7904.27
530.437	7916.02
530.803	7972.29
531.169	8022.91
531.535	7968
531.901	8071.27
532.267	8070.82
532.632	8146.98
532.998	8209.8
533.364	8178.39
533.73	8269.46
534.095	8240.76
534.461	8279.85
534.826	8364.14
535.192	8386.06
535.557	8419.74
535.923	8478.94
536.288	8483.46
536.653	8512.62
537.019	8598.94
537.384	8580.41
537.749	8586.74
538.114	8646.17
538.479	8639.39
538.845	8709.9
539.21	8674.42
539.575	8776.79
539.94	8776.34
540.305	8862.66
540.67	8900.18
541.034	8821.76
541.399	8948.99
541.764	8986.05
542.129	9004.35
542.494	8975.43
542.858	9089.32
543.223	9132.26
543.587	9127.74
543.952	9146.95
544.316	9148.53
544.681	9224.46
545.045	9335.19
545.41	9321.18
545.774	9372.03
546.138	9388.98
546.503	9425.59
546.867	9410.67
547.231	9525.92
547.595	9517.11
547.959	9599.82
548.324	9526.83
548.688	9613.38
549.052	9712.58
549.416	9673.94
549.779	9750.32
550.143	9739.48
550.507	9816.54
550.871	9727.5
551.235	9864.22
551.599	9879.58
551.962	9933.59
552.326	9914.84
552.689	9947.83
553.053	9994.16
553.417	9955.06
553.78	10120.71
554.143	10089.75
554.507	10113.25
554.87	10124.32
555.234	10220.82
555.597	10204.77
555.96	10230.08
556.323	10244.77
556.686	10327.48
557.05	10370.65
557.413	10343.53
557.776	10369.06
558.139	10524.77
558.502	10427.59
558.865	10502.17
559.228	10529.06
559.59	10564.99
559.953	10616.29
560.316	10708.04
560.679	10717.08
561.041	10802.95
561.404	10775.83
561.767	10863.74
562.129	10861.03
562.492	10902.83
562.854	10967.47
563.217	10894.25
563.579	10986.67
563.941	11031.64
564.304	11089.5
564.666	11143.51
565.028	11184.86
565.39	11168.82
565.753	11297.85
566.115	11348.92
566.477	11306.89
566.839	11384.4
567.201	11402.93
567.563	11430.28
567.925	11496.04
568.287	11499.43
568.648	11515.02
569.01	11588.92
569.372	11629.6
569.734	11615.81
570.095	11721.57
570.457	11751.17
570.819	11806.54
571.18	11822.36
571.542	11944.39
571.903	11957.27
572.265	12016.03
572.626	12148
572.987	12143.93
573.349	12195.23
573.71	12215.57
574.071	12379.41
574.432	12357.03
574.794	12468.67
575.155	12555.9
575.516	12530.81
575.877	12659.17
576.238	12741.2
576.599	12868.21
576.96	12895.78
577.32	12981.88
577.681	13109.78
578.042	13154.3
578.403	13242.21
578.763	13326.73
579.124	13391.36
579.485	13602.2
579.845	13744.57
580.206	13735.53
580.566	13834.96
580.927	13987.05
581.287	14183.88
581.648	14242.63
582.008	14463.42
582.368	14572.34
582.728	14822.73
583.089	14927.36
583.449	15111.31
583.809	15234.7
584.169	15355.6
584.529	15665.42
584.889	15828.58
585.249	15951.97
585.609	16214.11
585.969	16292.98
586.329	16509.92
586.688	16753.98
587.048	16963.47
587.408	17128.43
587.768	17282.55
588.127	17558.25
588.487	17701.75
588.846	18012.93
589.206	18111.23
589.565	18477.32
589.925	18724.1
590.284	18857.2
590.643	19088.61
591.003	19466
591.362	19733.11
591.721	19931.98
592.08	20164.29
592.44	20394.56
592.799	20583.48
593.158	20825.51
593.517	21114.54
593.876	21385.5
594.235	21517.47
594.593	21854.64
594.952	22310.22
595.311	22369.43
595.67	22716.08
596.029	23119.46
596.387	23334.37
596.746	23652.33
597.104	23678.77
597.463	23911.31
597.822	24302.93
598.18	24479.65
598.538	24674.9
598.897	25120.54
599.255	25012.75
599.613	25568.21
599.972	25716
600.33	25854.98
600.688	26177.69
601.046	26356.44
601.404	26699.03
601.762	26848.86
602.12	27174.05
602.478	27387.15
602.836	27565
603.194	27735.39
603.552	28019.22
603.91	28120.69
604.268	28463.05
604.625	28582.14
604.983	28876.37
605.341	28896.26
605.698	29305.74
606.056	29456.47
606.413	29658.27
606.771	29994.76
607.128	30095.78
607.485	30204.7
607.843	30519.72
608.2	30803.1
608.557	30899.37
608.914	31015.3
609.272	31398.34
609.629	31599.69
609.986	31791.33
610.343	31707.49
610.7	32128.72
611.057	32283.06
611.414	32292.78
611.771	32262.95
612.127	32652.32
612.484	32827
612.841	33100.67
613.198	33006.89
613.554	33234.45
613.911	33550.15
614.267	33605.06
614.624	33647.32
614.98	33992.62
615.337	34170.02
615.693	34115.56
616.05	34186.74
616.406	34544.25
616.762	34515.1
617.118	34615.66
617.475	34769.1
617.831	34870.11
618.187	35010.22
618.543	35125.25
618.899	35432.36
619.255	35353.27
619.611	35446.37
619.967	35703.54
620.323	35859.47
620.678	35700.6
621.034	35769.75
621.39	35922.97
621.746	35954.61
622.101	36384.88
622.457	36231.21
622.812	36217.42
623.168	36386.46
623.523	36484.08
623.879	36683.17
624.234	36475.04
624.589	36605.66
624.945	36759.33
625.3	36755.49
625.655	36934.47
626.01	36888.14
626.365	36956.84
626.72	37141.24
627.075	37095.14
627.43	37089.49
627.785	37150.28
628.14	37107.34
628.495	37328.58
628.85	37364.74
629.205	37181.69
629.559	37509.14
629.914	37515.47
630.269	37357.73
630.623	37422.59
630.978	37354.79
631.332	37461.46
631.687	37672.53
632.041	37431.85
632.396	37498.75
632.75	37424.85
633.104	37559.99
633.459	37371.97
633.813	37484.28
634.167	37429.82
634.521	37430.72
634.875	37612.19
635.229	37518.86
635.583	37273.21
635.937	37512.76
636.291	37374.91
636.645	37464.62
636.999	37376.94
637.352	37502.14
637.706	37324.51
638.06	37405.87
638.413	37444.74
638.767	37364.29
639.121	37401.35
639.474	37258.75
639.828	37237.74
640.181	37390.95
640.534	37446.32
640.888	37168.13
641.241	37281.12
641.594	37301.46
641.947	37447.67
642.301	37307.56
642.654	37279.54
643.007	37279.99
643.36	37377.39
643.713	37350.95
644.066	37256.72
644.419	37058.76
644.771	36921.36
645.124	36614.48
645.477	36677.07
645.83	36354.82
646.182	36129.29
646.535	36161.38
646.888	36137.43
647.24	36001.16
647.593	36251.77
647.945	36144.2
648.298	35980.14
648.65	35856.3
649.002	35890.65
649.355	36033.7
649.707	35928.84
650.059	36009.75
650.411	36523.63
650.763	36602.05
651.115	36885.2
651.467	36921.59
651.819	36832.77
652.171	36728.14
652.523	36727.01
652.875	36646.79
653.227	36627.13
653.578	36859.89
653.93	36712.1
654.282	36582.61
654.633	36445.21
654.985	36595.04
655.337	36517.53
655.688	36566.79
656.039	36674.13
656.391	36458.32
656.742	36478.66
657.094	36426.91
657.445	36546.68
657.796	36496.96
658.147	36412.67
658.498	36477.53
658.849	36564.53
659.2	36435.04
659.551	36374.48
659.902	36488.38
660.253	36463.97
660.604	36434.14
660.955	36300.36
661.306	36432.11
661.656	36309.85
662.007	36575.15
662.358	36593.68
662.708	36260.36
663.059	36382.39
663.409	36303.3
663.76	36409.51
664.11	36444.76
664.461	36432.11
664.811	36481.37
665.161	36417.87
665.511	36352.34
665.862	36349.62
666.212	36419
666.562	36388.04
666.912	36341.94
667.262	36206.12
667.612	36218.55
667.962	36288.83
668.312	36149.18
668.662	36394.14
669.011	36251.09
669.361	36222.4
669.711	36220.14
670.06	36131.32
670.41	36234.37
670.76	36059.91
671.109	36363.18
671.459	36163.64
671.808	36058.78
672.157	36141.04
672.507	35903.31
672.856	36087.94
673.205	36040.93
673.554	36102.4
673.904	35937.88
674.253	36247.71
674.602	36150.53
674.951	35588.74
675.3	35411.57
675.649	35983.53
675.998	35946.24
676.346	35908.05
676.695	36092
677.044	35863.53
677.393	35893.36
677.741	35848.62
678.09	35648.62
678.438	35800.49
678.787	35764.1
679.135	35796.42
679.484	35459.7
679.832	35817.66
680.181	35496.09
680.529	35725.01
680.877	35576.76
681.225	35387.39
681.573	35731.11
681.922	35379.71
682.27	35230.56
682.618	35292.02
682.966	35317.11
683.314	35388.74
683.661	35214.06
684.009	35047.51
684.357	34999.38
684.705	35027.4
685.053	35001.86
685.4	34953.5
685.748	34767.74
686.095	34756.44
686.443	34602.1
686.79	34565.94
687.138	34669.89
687.485	34688.2
687.832	34512.84
688.18	34548.31
688.527	34311.48
688.874	34394.42
689.221	34233.97
689.568	34110.81
689.915	34086.41
690.262	34080.76
690.609	34008.44
690.956	33954.43
691.303	33910.37
691.65	33722.35
691.997	33656.36
692.344	33431.96
692.69	33530.04
693.037	33636.02
693.383	33310.16
693.73	33374.56
694.077	33275.81
694.423	33226.09
694.769	33206.2
695.116	32996.94
695.462	33003.27
695.808	32805.99
696.155	32897.96
696.501	32681.25
696.847	32774.12
697.193	32401.03
697.539	32517.41
697.885	32282.16
698.231	32271.09
698.577	32210.3
698.923	32181.82
699.269	32174.59
699.614	32000.36
699.96	31896.86
700.306	32004.43
700.651	31805.34
700.997	31710.2
701.342	31519.69
701.688	31563.08
702.033	31376.42
702.379	31348.62
702.724	31239.48
703.069	31339.36
703.415	31066.15
703.76	31081.74
704.105	31093.26
704.45	31028.63
704.795	30751.13
705.14	30668.87
705.485	30620.06
705.83	30729.43
706.175	30559.49
706.52	30489.66
706.865	30378.25
707.209	30393.17
707.554	30186.17
707.899	30319.05
708.243	30179.39
708.588	30151.14
708.932	29864.82
709.277	29940.53
709.621	29897.36
709.966	29678.16
710.31	29910.7
710.654	29592.06
710.998	29586.64
711.342	29667.99
711.687	29571.95
712.031	29386.87
712.375	29291.28
712.719	29334.44
713.063	29233.65
713.407	29246.31
713.75	29215.12
714.094	29156.59
714.438	29009.93
714.782	29099.87
715.125	28906.2
715.469	28933.1
715.812	28613.1
716.156	28429.38
716.499	28747.34
716.843	28661.24
717.186	28493.11
717.53	28627.57
717.873	28671.86
718.216	28466.44
718.559	28521.58
718.902	28221.25
719.246	28318.2
719.589	28135.83
719.932	28060.12
720.275	28164.08
720.617	28054.02
720.96	28118.88
721.303	28087.92
721.646	27917.75
721.989	27767.02
722.331	27904.87
722.674	27756.63
723.016	27762.5
723.359	27790.98
723.701	27824.88
724.044	27676.18
724.386	27491.1
724.729	27568.16
725.071	27595.73
725.413	27511.89
725.755	27372.46
726.097	27374.94
726.439	27231.9
726.782	27127.04
727.124	27299.47
727.465	27056.76
727.807	27100.37
728.149	27104.44
728.491	27051.56
728.833	27066.25
729.175	26918.46
729.516	26887.27
729.858	26841.85
730.199	26746.71
730.541	26807.95
730.882	26827.84
731.224	26865.8
731.565	26764.11
731.906	26682.08
732.248	26752.36
732.589	26545.36
732.93	26529.09
733.271	26565.25
733.612	26399.15
733.953	26471.01
734.294	26346.95
734.635	26414.29
734.976	26495.42
735.317	26285.48
735.658	26297.46
735.999	26207.97
736.339	26233.28
736.68	26206.61
737.021	26148.31
737.361	26013.62
737.702	26161.19
738.042	25924.13
738.383	26049.1
738.723	26014.08
739.063	25853.85
739.404	25854.53
739.744	25779.73
740.084	25757.13
740.424	25788.55
740.764	25739.05
741.104	25780.41
741.444	25598.72
741.784	25562.79
742.124	25532.73
742.464	25584.48
742.804	25585.84
743.143	25433.75
743.483	25567.76
743.823	25304.04
744.162	25346.3
744.502	25393.3
744.841	25378.39
745.181	25390.36
745.52	25184.04
745.86	25290.93
746.199	25213.19
746.538	25121.9
746.877	25315.34
747.216	25168
747.556	25111.27
747.895	25095
748.234	24959.41
748.573	24954.22
748.911	25003.25
749.25	24955.35
749.589	24736.6
749.928	24857.95
750.267	24851.39
750.605	24660.67
750.944	24601.46
751.283	24505.41
751.621	24660.89
751.96	24479.43
752.298	24490.05
752.636	24532.53
752.975	24352.42
753.313	24283.95
753.651	24375.02
753.989	24317.4
754.327	24221.81
754.666	24123.73
755.004	24098.65
755.342	24099.1
755.679	24075.14
756.017	23878.99
756.355	24088.02
756.693	23924.87
757.031	24008.25
757.368	23811.2
757.706	23840.35
758.044	23716.06
758.381	23833.79
758.719	23629.51
759.056	23610.07
759.394	23437.19
759.731	23496.4
760.068	23495.95
760.405	23323.3
760.743	23217.09
761.08	23265.22
761.417	23175.73
761.754	23139.58
762.091	23064.77
762.428	22990.65
762.765	22800.15
763.102	22973.25
763.438	22700.49
763.775	22665.92
764.112	22710.21
764.449	22647.61
764.785	22487.84
765.122	22446.03
765.458	22324.23
765.795	22291.46
766.131	22274.06
766.467	22250.11
766.804	22171.92
767.14	21947.29
767.476	22091.47
767.812	21823.68
768.148	21969.21
768.485	21779.61
768.821	21678.82
769.157	21710.46
769.492	21550.46
769.828	21548.66
770.164	21329.23
770.5	21322.67
770.836	21274.09
771.171	21178.72
771.507	21067.09
771.842	20999.29
772.178	20981.67
772.513	20918.16
772.849	20829.13
773.184	20707.1
773.519	20776.25
773.855	20694.67
774.19	20526.31
774.525	20529.25
774.86	20535.12
775.195	20435.47
775.53	20281.35
775.865	20321.8
776.2	20158.41
776.535	20057.62
776.87	19893.78
777.205	19863.05
777.539	19818.98
777.874	19834.13
778.209	19696.5
778.543	19748.25
778.878	19590.74
779.212	19601.82
779.547	19414.25
779.881	19544.19
780.215	19303.29
780.55	19365.21
780.884	19229.85
781.218	19083.64
781.552	19175.61
781.886	19027.59
782.22	18931.1
782.554	18821.27
782.888	18705.34
783.222	18586.25
783.556	18561.39
783.889	18485.01
784.223	18472.35
784.557	18291.34
784.89	18407.72
785.224	18311.45
785.557	18101.52
785.891	18128.63
786.224	18011.57
786.558	18096.54
786.891	17899.71
787.224	17903.78
787.557	17779.26
787.891	17769.32
788.224	17710.11
788.557	17755.08
788.89	17667.63
789.223	17611.13
789.556	17485.94
789.888	17468.54
790.221	17365.94
790.554	17217.25
790.887	17218.6
791.219	17102.67
791.552	17081.66
791.884	17010.02
792.217	16970.02
792.549	16915.78
792.882	16764.38
793.214	16790.82
793.546	16757.37
793.879	16617.03
794.211	16600.54
794.543	16631.72
794.875	16526.64
795.207	16526.87
795.539	16462.69
795.871	16450.94
796.203	16358.96
796.535	16184.96
796.867	16168.01
797.198	16153.09
797.53	16125.52
797.862	16066.31
798.193	16000.55
798.525	15973.66
798.856	15944.96
799.188	15824.06
799.519	15701.58
799.85	15657.51
800.182	15716.49
800.513	15688.02
800.844	15536.16
801.175	15688.7
801.506	15660.22
801.837	15537.29
802.168	15441.47
802.499	15370.06
802.83	15304.98
803.161	15261.82
803.491	15269.05
803.822	15253.68
804.153	15090.3
804.483	15074.25
804.814	15028.15
805.145	15037.42
805.475	14921.03
805.805	14936.18
806.136	14996.06
806.466	14812.11
806.796	14763.07
807.126	14754.48
807.457	14697.54
807.787	14719.23
808.117	14611.89
808.447	14573.02
808.777	14619.57
809.107	14475.85
809.436	14485.11
809.766	14441.27
810.096	14387.94
810.426	14248.96
810.755	14279.24
811.085	14245.35
811.414	14278.79
811.744	14148.85
812.073	14138.46
812.403	14092.81
812.732	14034.05
813.061	14063.2
813.39	13967.84
813.719	13949.08
814.049	13985.24
814.378	13962.87
814.707	13752.7
815.036	13814.4
815.365	13752.25
815.693	13626.15
816.022	13696.21
816.351	13592.48
816.68	13524.91
817.008	13564.23
817.337	13440.4
817.665	13452.6
817.994	13494.63
818.322	13392.49
818.651	13318.14
818.979	13341.41
819.307	13364.46
819.636	13284.92
819.964	13231.36
820.292	13281.76
820.62	13260.96
820.948	13179.39
821.276	13272.72
821.604	13214.64
821.932	13283.56
822.259	13265.71
822.587	13207.86
822.915	13233.62
823.243	13242.43
823.57	13186.39
823.898	13202.44
824.225	13095.77
824.553	13208.54
824.88	13136.9
825.207	13259.38
825.535	13095.32
825.862	13273.17
826.189	13113.4
826.516	13155.43
826.843	13193.17
827.17	13208.99
827.497	13167.18
827.824	13164.02
828.151	13197.01
828.478	13157.24
828.805	13184.13
829.131	13062.1
829.458	13147.97
829.785	13081.31
830.111	13084.7
830.438	13264.13
830.764	13060.74
831.09	13123.79
831.417	13012.84
831.743	13041.54
832.069	13060.97
832.395	12997.69
832.722	13008.77
833.048	12980.29
833.374	12982.33
833.7	12946.62
834.026	13011.71
834.351	12954.53
834.677	12948.88
835.003	13042.21
835.329	12937.36
835.654	12891.03
835.98	12902.56
836.306	12897.13
836.631	12814.42
836.956	12895.78
837.282	12908.66
837.607	12883.35
837.932	12824.82
838.258	12809
838.583	12785.72
838.908	12700.53
839.233	12726.06
839.558	12648.1
839.883	12627.31
840.208	12699.62
840.533	12673.18
840.858	12558.16
841.182	12561.77
841.507	12587.54
841.832	12562.45
842.156	12545.5
842.481	12493.3
842.805	12444.94
843.13	12396.13
843.454	12329.69
843.778	12302.35
844.103	12277.71
844.427	12270.71
844.751	12275.23
845.075	12135.34
845.399	12251.73
845.723	12142.12
846.047	12124.05
846.371	12094.89
846.695	12079.08
847.019	11939.64
847.343	11915.92
847.666	11762.7
847.99	11819.42
848.313	11787.33
848.637	11632.53
848.96	11608.58
849.284	11694.23
849.607	11567.9
849.931	11519.32
850.254	11421.92
850.577	11442.93
850.9	11270.06
851.223	11337.17
851.546	11277.29
851.869	11228.25
852.192	11283.84
852.515	11135.6
852.838	11095.15
853.161	11075.49
853.483	11041.14
853.806	11004.3
854.129	10954.81
854.451	10969.27
854.774	10918.2
855.096	10843.63
855.419	10805.44
855.741	10821.03
856.063	10788.26
856.385	10726.57
856.708	10636.18
857.03	10656.29
857.352	10628.72
857.674	10622.39
857.996	10568.15
858.318	10513.47
858.64	10550.98
858.961	10504.88
859.283	10470.3
859.605	10399.57
859.926	10416.29
860.248	10320.25
860.57	10285
860.891	10286.35
861.212	10257.43
861.534	10282.29
861.855	10194.83
862.176	10263.76
862.498	10217.43
862.819	10214.49
863.14	10091.78
863.461	10122.97
863.782	10037.32
864.103	10122.29
864.424	10016.76
864.745	10058.79
865.065	10005.23
865.386	9951.9
865.707	9971.79
866.027	9969.53
866.348	9998.23
866.668	9953.71
866.989	9970.88
867.309	9826.25
867.63	9954.84
867.95	9866.7
868.27	9739.48
868.59	9859.25
868.91	9892.92
869.23	9825.8
869.55	9744.22
869.87	9790.32
870.19	9793.49
870.51	9701.51
870.83	9723.66
871.15	9736.09
871.469	9715.07
871.789	9794.39
872.109	9672.58
872.428	9610.44
872.748	9738.8
873.067	9659.03
873.386	9682.3
873.706	9589.87
874.025	9612.02
874.344	9491.12
874.663	9548.97
874.982	9516.43
875.301	9563.21
875.62	9487.05
875.939	9434.4
876.258	9416.77
876.577	9351.46
876.896	9432.14
877.214	9334.74
877.533	9372.25
877.852	9417.9
878.17	9369.32
878.489	9348.98
878.807	9329.77
879.125	9307.17
879.444	9291.8
879.762	9282.09
880.08	9300.62
880.398	9198.47
880.716	9232.6
881.034	9138.81
881.352	9225.14
881.67	9184.24
881.988	9158.02
882.306	9093.84
882.624	9128.42
882.941	9084.35
883.259	9040.74
883.577	8982.43
883.894	9050.23
884.212	8991.7
884.529	8984.24
884.846	8973.17
885.164	8972.26
885.481	8899.95
885.798	8942.21
886.115	8899.95
886.432	8854.75
886.75	8818.14
887.067	8763.46
887.383	8778.37
887.7	8817.69
888.017	8722.55
888.334	8761.87
888.651	8730.69
888.967	8740.41
889.284	8666.74
889.6	8605.72
889.917	8605.95
890.233	8594.87
890.55	8577.02
890.866	8511.71
891.182	8552.84
891.498	8549.9
891.815	8434.88
892.131	8427.42
892.447	8428.55
892.763	8414.54
893.079	8380.42
893.395	8329.34
893.71	8340.87
894.026	8282.34
894.342	8339.74
894.657	8271.49
894.973	8248.22
895.289	8221.1
895.604	8175.9
895.92	8110.37
896.235	8018.16
896.55	8094.55
896.865	8043.93
897.181	8033.76
897.496	8052.06
897.811	8051.61
898.126	7956.92
898.441	7915.79
898.756	7940.65
899.071	7917.38
899.386	7906.98
899.7	7789.7
900.015	7814.55
900.33	7730.26
900.644	7741.34
900.959	7696.14
901.273	7639.19
901.588	7664.28
901.902	7582.02
902.216	7577.5
902.531	7584.28
902.845	7600.32
903.159	7506.31
903.473	7522.13
903.787	7487.33
904.101	7468.57
904.415	7410.5
904.729	7354
905.042	7349.48
905.356	7312.65
905.67	7281.01
905.984	7271.07
906.297	7268.81
906.611	7222.03
906.924	7162.59
907.237	7205.76
907.551	7171.86
907.864	7137.96
908.177	7074.01
908.491	7068.13
908.804	7034.24
909.117	7008.47
909.43	6969.38
909.743	6898.19
910.056	6911.3
910.368	6891.41
910.681	6863.17
910.994	6834.92
911.307	6798.08
911.619	6752.44
911.932	6754.02
912.244	6712.89
912.557	6732.32
912.869	6626.56
913.181	6581.59
913.494	6616.17
913.806	6580.24
914.118	6556.51
914.43	6470.41
914.742	6515.83
915.054	6490.52
915.366	6419.11
915.678	6409.17
915.99	6397.64
916.302	6321.03
916.613	6328.49
916.925	6318.1
917.236	6341.37
917.548	6265.89
917.859	6285.56
918.171	6197.65
918.482	6176.18
918.794	6123.75
919.105	6171.43
919.416	6131.21
919.727	6120.14
920.038	6062.51
920.349	6019.35
920.66	6008.27
920.971	5952.23
921.282	5964.43
921.593	5940.48
921.903	5900.93
922.214	5883.53
922.525	5856.64
922.835	5892.12
923.146	5770.77
923.456	5799.01
923.767	5778.9
924.077	5763.53
924.387	5734.84
924.697	5671.79
925.008	5683.09
925.318	5664.78
925.628	5640.15
925.938	5595.86
926.248	5573.03
926.558	5551.11
926.867	5468.4
927.177	5547.72
927.487	5490.77
927.796	5439.48
928.106	5442.87
928.416	5454.39
928.725	5424.79
929.034	5376.65
929.344	5341.63
929.653	5325.81
929.962	5276.99
930.271	5261.63
930.581	5288.29
930.89	5230.22
931.199	5203.55
931.508	5166.49
931.817	5176.88
932.125	5131.69
932.434	5171.01
932.743	5111.8
933.051	5052.14
933.36	5108.18
933.669	5064.8
933.977	5014.18
934.286	4992.71
934.594	5001.07
934.902	4943.22
935.21	4930.34
935.519	4922.65
935.827	4884.24
936.135	4845.82
936.443	4808.53
936.751	4791.13
937.059	4819.38
937.367	4777.8
937.674	4740.96
937.982	4767.18
938.29	4675.88
938.597	4705.03
938.905	4677.91
939.213	4640.4
939.52	4634.98
939.827	4592.04
940.135	4592.04
940.442	4588.88
940.749	4527.86
941.056	4583.68
941.363	4508.88
941.67	4513.85
941.977	4475.43
942.284	4459.84
942.591	4495.55
942.898	4422.55
943.205	4429.11
943.511	4397.24
943.818	4377.58
944.125	4387.3
944.431	4336.23
944.738	4309.34
945.044	4284.03
945.35	4251.48
945.657	4240.19
945.963	4223.46
946.269	4233.18
946.575	4206.97
946.881	4153.63
947.187	4128.32
947.493	4145.05
947.799	4124.93
948.105	4094.43
948.41	4123.35
948.716	4086.06
949.022	4062.56
949.327	4061.66
949.633	4048.78
949.938	4029.34
950.244	4003.81
950.549	4005.16
950.854	3983.47
951.16	3924.49
951.465	3943.47
951.77	3917.93
952.075	3878.16
952.38	3883.81
952.685	3865.73
952.99	3857.37
953.294	3838.39
953.599	3832.51
953.904	3795.23
954.209	3815.56
954.513	3785.96
954.818	3747.77
955.122	3730.14
955.426	3706.64
955.731	3695.11
956.035	3664.38
956.339	3718.16
956.643	3667.09
956.948	3639.75
957.252	3635.91
957.556	3685.62
957.86	3628.22
958.163	3608.34
958.467	3571.05
958.771	3536.47
959.075	3521.33
959.378	3522.92
959.682	3546.64
959.985	3503.93
960.289	3467.32
960.592	3483.59
960.896	3467.32
961.199	3442.24
961.502	3407.89
961.805	3429.58
962.108	3374.22
962.411	3391.39
962.714	3359.76
963.017	3334.9
963.32	3342.81
963.623	3338.51
963.926	3313.88
964.228	3322.02
964.531	3277.5
964.833	3267.78
965.136	3235.01
965.438	3202.7
965.741	3209.25
966.043	3194.79
966.345	3221.45
966.648	3161.8
966.95	3145.3
967.252	3184.39
967.554	3137.16
967.856	3141.46
968.158	3100.33
968.46	3070.5
968.761	3089.03
969.063	3089.03
969.365	3024.4
969.666	3057.17
969.968	3021.23
970.269	3002.93
970.571	2975.59
970.872	2981.69
971.174	2945.08
971.475	3013.32
971.776	2955.25
972.077	2969.26
972.378	2942.14
972.679	2882.25
972.98	2905.08
973.281	2901.69
973.582	2859.43
973.883	2827.11
974.183	2883.84
974.484	2858.53
974.785	2829.37
975.085	2809.71
975.386	2808.13
975.686	2810.84
975.986	2795.03
976.287	2734.24
976.587	2737.17
976.887	2717.97
977.187	2759.55
977.487	2731.52
977.787	2707.8
978.087	2689.04
978.387	2707.12
978.687	2676.38
978.987	2628.02
979.286	2637.52
979.586	2607.46
979.885	2620.79
980.185	2631.19
980.484	2594.13
980.784	2599.55
981.083	2575.82
981.382	2564.97
981.682	2581.25
981.981	2567.01
982.28	2486.78
982.579	2535.37
982.878	2494.24
983.177	2511.64
983.475	2513.22
983.774	2516.16
984.073	2454.92
984.372	2445.88
984.67	2450.63
984.969	2471.42
985.267	2468.48
985.566	2430.74
985.864	2422.15
986.162	2383.96
986.461	2363.85
986.759	2355.71
987.057	2368.6
987.355	2376.51
987.653	2325.66
987.951	2333.79
988.249	2326.56
988.547	2293.12
988.844	2281.59
989.142	2317.07
989.44	2329.95
989.737	2246.79
990.035	2244.08
990.332	2239.33
990.63	2247.92
990.927	2227.81
991.224	2202.5
991.521	2223.97
991.819	2199.79
992.116	2173.12
992.413	2146
992.71	2164.08
993.006	2165.44
993.303	2147.81
993.6	2120.69
993.897	2117.53
994.193	2145.78
994.49	2092.67
994.787	2126.34
995.083	2099
995.379	2068.49
995.676	2065.55
995.972	2060.36
996.268	2016.74
996.565	2020.13
996.861	2016.06
997.157	2040.02
997.453	2008.15
997.749	1989.4
998.044	1985.56
998.34	1970.64
998.636	1978.32
998.932	2000.24
999.227	1954.82
999.523	1952.56
999.818	1956.18
1000.114	1938.55
1000.409	1915.95
1000.704	1911.66
1001	1900.59
1001.295	1899.46
1001.59	1866.01
1001.885	1872.79
1002.18	1866.91
1002.475	1839.8
1002.77	1817.2
1003.065	1830.3
1003.359	1794.37
1003.654	1806.8
1003.949	1808.61
1004.243	1770.87
1004.538	1771.55
1004.832	1774.04
1005.127	1737.2
1005.421	1768.39
1005.715	1757.76
1006.009	1730.65
1006.304	1708.27
1006.598	1755.5
1006.892	1727.48
1007.186	1674.38
1007.48	1668.28
1007.773	1685.22
1008.067	1670.99
1008.361	1680.25
1008.655	1631.67
1008.948	1643.42
1009.242	1650.65
1009.535	1614.04
1009.829	1613.36
1010.122	1588.28
1010.415	1557.09
1010.708	1613.14
1011.001	1558.45
1011.295	1547.37
1011.588	1575.85
1011.881	1534.49
1012.173	1529.52
1012.466	1556.41
1012.759	1550.76
1013.052	1548.05
1013.344	1546.7
1013.637	1502.4
1013.93	1480.26
1014.222	1490.88
1014.514	1456.53
1014.807	1478.22
1015.099	1434.84
1015.391	1450.43
1015.683	1450.2
1015.976	1425.57
1016.268	1410.43
1016.56	1406.14
1016.851	1430.54
1017.143	1419.47
1017.435	1391.22
1017.727	1372.01
1018.018	1380.6
1018.31	1395.74
1018.602	1390.09
1018.893	1335.63
1019.185	1338.79
1019.476	1315.29
1019.767	1321.84
1020.058	1294.95
1020.35	1305.8
1020.641	1317.78
1020.932	1301.96
1021.223	1294.27
1021.514	1269.64
1021.804	1242.3
1022.095	1274.61
1022.386	1273.48
1022.677	1234.61
1022.967	1237.33
1023.258	1246.59
1023.548	1218.12
1023.839	1223.99
1024.129	1192.58
1024.419	1191.9
1024.709	1177.89
1025	1167.95
1025.29	1175.86
1025.58	1166.59
1025.87	1178.57
1026.16	1168.63
1026.449	1156.2
1026.739	1140.38
1027.029	1122.3
1027.319	1121.62
1027.608	1123.43
1027.898	1111.68
1028.187	1093.38
1028.477	1080.95
1028.766	1102.64
1029.055	1088.86
1029.344	1073.71
1029.634	1088.63
1029.923	1083.66
1030.212	1076.88
1030.501	1079.14
1030.79	1043.66
1031.078	1026.03
1031.367	1042.98
1031.656	1051.57
1031.945	1017.9
1032.233	1014.51
1032.522	1000.27
1032.81	983.1
1033.099	1018.57
1033.387	990.55
1033.675	967.5
1033.963	963.44
1034.251	961.63
1034.54	983.32
1034.828	972.7
1035.116	941.06
1035.403	946.94
1035.691	926.15
1035.979	924.79
1036.267	936.32
1036.554	937.45
1036.842	912.59
1037.129	906.04
1037.417	901.06
1037.704	890.44
1037.992	892.93
1038.279	891.8
1038.566	892.7
1038.853	892.7
1039.14	892.7
