Data from hue_340_FLMS001491_49.txt Node
Date: Mon Feb 06 15:43:11 GMT 2017
User: dcchb
Spectrometer: FLMS00149
Trigger mode: 0
Integration Time (sec): 2.000000E-2
Scans to average: 10
Electric dark correction enabled: true
Nonlinearity correction enabled: false
Boxcar width: 0
XAxis mode: Wavelengths
Number of Pixels in Spectrum: 2048
>>>>>Begin Spectral Data<<<<<
341.393	-13.33
341.776	-13.33
342.16	-13.33
342.543	-58.53
342.927	-58.53
343.31	-79.09
343.693	-52.43
344.077	-57.85
344.46	-67.79
344.843	-68.02
345.226	-47.91
345.61	-16.04
345.993	-34.8
346.376	-22.37
346.759	-7.46
347.142	44.07
347.525	65.31
347.908	60.56
348.291	67.57
348.674	101.69
349.057	114.57
349.44	130.84
349.823	139.66
350.206	162.71
350.588	209.03
350.971	225.3
351.354	195.93
351.737	241.8
352.119	243.16
352.502	256.72
352.884	277.73
353.267	268.47
353.65	303.04
354.032	296.49
354.414	305.53
354.797	321.8
355.179	317.05
355.562	321.8
355.944	320.22
356.326	333.55
356.709	328.35
357.091	327.67
357.473	323.16
357.855	309.82
358.238	333.32
358.62	346.66
359.002	321.12
359.384	338.07
359.766	335.36
360.148	329.03
360.53	319.54
360.912	327.68
361.294	338.97
361.676	322.48
362.057	328.58
362.439	319.99
362.821	319.77
363.203	320.9
363.584	315.47
363.966	331.06
364.348	320.44
364.729	313.66
365.111	319.09
365.493	319.09
365.874	328.8
366.256	305.3
366.637	310.5
367.019	295.36
367.4	302.59
367.781	313.21
368.163	322.03
368.544	291.52
368.925	306.66
369.306	287.68
369.688	288.13
370.069	290.61
370.45	292.65
370.831	311.18
371.212	283.16
371.593	303.04
371.974	316.6
372.355	312.53
372.736	307.11
373.117	322.93
373.498	335.81
373.879	314.34
374.26	304.62
374.641	294.68
375.021	316.15
375.402	292.2
375.783	333.32
376.163	298.07
376.544	321.12
376.925	311.86
377.305	331.29
377.686	328.8
378.066	305.08
378.447	298.3
378.827	319.77
379.208	335.58
379.588	324.51
379.968	338.3
380.349	300.33
380.729	332.42
381.109	328.8
381.489	329.71
381.87	303.72
382.25	325.64
382.63	333.1
383.01	308.92
383.39	359.54
383.77	320.9
384.15	348.47
384.53	343.72
384.91	327
385.29	321.35
385.67	353.89
386.049	342.82
386.429	331.97
386.809	344.17
387.189	342.82
387.568	358.86
387.948	350.05
388.328	346.88
388.707	324.29
389.087	350.27
389.466	356.37
389.846	323.38
390.225	326.77
390.605	342.82
390.984	342.14
391.363	352.99
391.743	368.58
392.122	338.3
392.501	351.18
392.881	348.24
393.26	323.16
393.639	360.44
394.018	370.16
394.397	357.73
394.776	352.08
395.155	354.79
395.534	379.43
395.913	375.58
396.292	383.04
396.671	382.14
397.05	364.28
397.429	352.99
397.808	368.13
398.186	346.43
398.565	370.84
398.944	373.1
399.323	376.49
399.701	385.75
400.08	394.79
400.458	373.78
400.837	384.4
401.215	367.67
401.594	392.76
401.972	377.39
402.351	404.06
402.729	379.65
403.107	387.33
403.486	388.01
403.864	378.52
404.242	411.06
404.62	407.67
404.999	374.91
405.377	407.45
405.755	414.45
406.133	412.42
406.511	400.89
406.889	419.88
407.267	417.39
407.645	405.87
408.023	405.64
408.401	424.17
408.779	438.18
409.156	434.11
409.534	408.35
409.912	434.11
410.29	439.76
410.667	440.21
411.045	446.77
411.422	448.58
411.8	446.99
412.178	450.61
412.555	462.36
412.933	452.42
413.31	470.27
413.687	458.07
414.065	459.42
414.442	449.03
414.819	474.56
415.197	490.16
415.574	478.41
415.951	477.05
416.328	494
416.705	501
417.082	495.35
417.46	518.18
417.837	509.14
418.214	522.7
418.591	500.33
418.967	517.5
419.344	532.64
419.721	542.81
420.098	534.9
420.475	554.56
420.852	546.43
421.228	564.28
421.605	549.59
421.982	564.5
422.358	559.53
422.735	561.12
423.111	570.83
423.488	585.07
423.864	590.49
424.241	593.43
424.617	574
424.994	605.86
425.37	592.98
425.746	600.21
426.123	592.3
426.499	599.76
426.875	595.69
427.251	611.51
427.627	617.16
428.003	623.49
428.379	645.86
428.756	651.73
429.132	647.44
429.507	637.05
429.883	665.97
430.259	673.2
430.635	658.51
431.011	677.04
431.387	696.7
431.763	694.67
432.138	669.59
432.514	695.8
432.89	711.85
433.265	719.76
433.641	712.07
434.016	705.74
434.392	745.97
434.767	751.39
435.143	726.08
435.518	750.71
435.894	774.22
436.269	785.52
436.644	760.88
437.02	781.45
437.395	765.4
437.77	828
438.145	801.33
438.52	805.63
438.895	810.83
439.271	815.35
439.646	810.6
440.021	829.13
440.395	834.33
440.77	793.43
441.145	812.86
441.52	831.84
441.895	844.95
442.27	841.11
442.645	857.6
443.019	849.02
443.394	829.58
443.769	861.9
444.143	866.87
444.518	873.65
444.892	860.09
445.267	865.74
445.641	871.39
446.016	875.46
446.39	886.08
446.764	900.99
447.139	865.74
447.513	935.34
447.887	918.17
448.262	886.3
448.636	891.05
449.01	917.72
449.384	935.34
449.758	922.91
450.132	958.39
450.506	911.16
450.88	945.29
451.254	919.52
451.628	950.03
452.002	963.59
452.376	941.9
452.75	926.08
453.123	956.59
453.497	984.38
453.871	956.13
454.244	978.28
454.618	984.15
454.992	1002.01
455.365	1006.08
455.739	1025.28
456.112	1021.67
456.486	1036.36
456.859	1025.28
457.232	1040.65
457.606	1032.74
457.979	1088.33
458.352	1058.73
458.725	1092.85
459.099	1116.81
459.472	1103.02
459.845	1112.06
460.218	1135.79
460.591	1127.2
460.964	1099.41
461.337	1116.81
461.71	1163.13
462.083	1175.11
462.456	1158.16
462.829	1168.78
463.201	1201.78
463.574	1198.16
463.947	1213.75
464.32	1229.35
464.692	1247.2
465.065	1220.53
465.438	1240.42
465.81	1270.7
466.183	1284.94
466.555	1277.93
466.928	1295.11
467.3	1291.94
467.672	1320.87
468.045	1352.73
468.417	1338.04
468.789	1347.76
469.161	1388.21
469.534	1402.22
469.906	1407.42
470.278	1391.15
470.65	1433.18
471.022	1444.48
471.394	1478.15
471.766	1476.57
472.138	1492.39
472.51	1529.68
472.882	1544.37
473.253	1575.78
473.625	1549.79
473.997	1587.53
474.369	1613.97
474.74	1628.66
475.112	1634.99
475.484	1624.82
475.855	1697.81
476.227	1726.06
476.598	1718.15
476.97	1731.03
477.341	1786.17
477.713	1795.43
478.084	1822.1
478.455	1844.02
478.827	1853.51
479.198	1888.99
479.569	1918.59
479.94	1950.91
480.311	1960.4
480.682	2025.03
481.053	2084.24
481.424	2065.03
481.795	2094.41
482.166	2145.48
482.537	2151.36
482.908	2201.07
483.279	2195.42
483.65	2245.59
484.021	2290.34
484.391	2332.14
484.762	2293.72
485.133	2351.58
485.503	2395.64
485.874	2435.42
486.244	2442.42
486.615	2472.93
486.985	2498.01
487.356	2556.09
487.726	2547.5
488.097	2616.43
488.467	2607.16
488.837	2670.66
489.207	2678.57
489.578	2744.33
489.948	2766.93
490.318	2782.3
490.688	2791.57
491.058	2783.88
491.428	2851.9
491.798	2916.08
492.168	2963.09
492.538	2949.53
492.908	3006.47
493.278	3015.51
493.648	3003.31
494.017	3067.49
494.387	3069.98
494.757	3069.52
495.126	3139.8
495.496	3164.66
495.866	3148.17
496.235	3237.65
496.605	3197.43
496.974	3277.65
497.344	3255.06
497.713	3294.38
498.082	3300.93
498.452	3340.93
498.821	3338.22
499.19	3350.87
499.559	3393.13
499.928	3388.84
500.298	3429.51
500.667	3449.63
501.036	3460.02
501.405	3478.1
501.774	3447.37
502.143	3526.46
502.512	3537.53
502.88	3560.58
503.249	3550.42
503.618	3595.84
503.987	3608.72
504.356	3589.96
504.724	3629.74
505.093	3615.72
505.462	3660.92
505.83	3620.24
506.199	3694.82
506.567	3696.85
506.936	3687.36
507.304	3748.15
507.672	3740.01
508.041	3770.52
508.409	3788.6
508.777	3864.98
509.145	3793.8
509.514	3798.77
509.882	3806.68
510.25	3821.14
510.618	3842.61
510.986	3829.96
511.354	3914.7
511.722	3912.44
512.09	3948.37
512.458	3913.12
512.826	3970.74
513.193	3964.64
513.561	3917.86
513.929	3937.75
514.297	3994.7
514.664	4050.06
515.032	4010.74
515.4	4041.7
515.767	4054.58
516.135	4110.85
516.502	4036.05
516.869	4083.96
517.237	4121.93
517.604	4129.16
517.972	4134.35
518.339	4140.46
518.706	4159.66
519.073	4138.2
519.44	4160.57
519.808	4228.59
520.175	4159.21
520.542	4225.43
520.909	4238.76
521.276	4197.63
521.643	4251.64
522.009	4262.71
522.376	4282.37
522.743	4260.68
523.11	4293.22
523.477	4343.61
523.843	4340.45
524.21	4400.34
524.577	4447.79
524.943	4427.23
525.31	4485.31
525.676	4504.06
526.043	4475.36
526.409	4509.49
526.776	4527.34
527.142	4545.87
527.508	4548.58
527.874	4597.85
528.241	4662.02
528.607	4661.57
528.973	4651.18
529.339	4707.9
529.705	4696.15
530.071	4719.65
530.437	4815.69
530.803	4768.91
531.169	4835.13
531.535	4828.35
531.901	4835.13
532.267	4853.88
532.632	4860.44
532.998	4883.71
533.364	4923.94
533.73	4917.38
534.095	4990.15
534.461	4972.98
534.826	5018.17
535.192	5026.99
535.557	5056.14
535.923	5031.96
536.288	5050.49
536.653	5101.11
537.019	5055.91
537.384	5133.88
537.749	5118.51
538.114	5144.72
538.479	5154.21
538.845	5196.02
539.21	5171.84
539.575	5238.51
539.94	5299.3
540.305	5293.42
540.67	5285.96
541.034	5305.17
541.399	5355.57
541.764	5315.79
542.129	5362.57
542.494	5386.98
542.858	5455.45
543.223	5415
543.587	5453.19
543.952	5439.86
544.316	5545.39
544.681	5486.41
545.045	5497.03
545.41	5586.75
545.774	5545.62
546.138	5582.23
546.503	5601.89
546.867	5630.13
547.231	5657.93
547.595	5711.94
547.959	5699.29
548.324	5723.01
548.688	5716.23
549.052	5773.63
549.416	5796.91
549.779	5759.62
550.143	5811.15
550.507	5880.98
550.871	5851.37
551.235	5835.55
551.599	5893.63
551.962	5937.47
552.326	5939.28
552.689	5927.53
553.053	5947.87
553.417	5948.77
553.78	6051.14
554.143	5999.39
554.507	6038.71
554.87	6033.51
555.234	6136.34
555.597	6116.9
555.96	6131.14
556.323	6140.18
556.686	6129.1
557.05	6159.84
557.413	6183.79
557.776	6190.8
558.139	6259.95
558.502	6221.98
558.865	6276.67
559.228	6273.96
559.59	6254.07
559.953	6317.57
560.316	6344.24
560.679	6373.39
561.041	6344.47
561.404	6364.8
561.767	6397.57
562.129	6368.87
562.492	6441.19
562.854	6420.4
563.217	6485.93
563.579	6464.24
563.941	6510.79
564.304	6535.42
564.666	6567.28
565.028	6577
565.39	6549.88
565.753	6622.2
566.115	6643.89
566.477	6651.58
566.839	6720.5
567.201	6759.82
567.563	6676.66
567.925	6773.16
568.287	6778.58
568.648	6835.3
569.01	6851.8
569.372	6902.42
569.734	6919.59
570.095	6904.45
570.457	6895.41
570.819	6997.78
571.18	6965.01
571.542	7038.23
571.903	7074.84
572.265	7132.92
572.626	7155.74
572.987	7170.43
573.349	7266.48
573.71	7289.3
574.071	7318.9
574.432	7268.28
574.794	7360.26
575.155	7466.02
575.516	7502.63
575.877	7569.52
576.238	7638.67
576.599	7701.27
576.96	7771.77
577.32	7857.19
577.681	7854.26
578.042	7964.99
578.403	8001.15
578.763	8095.83
579.124	8163.18
579.485	8250.86
579.845	8406.11
580.206	8491.08
580.566	8513.9
580.927	8636.16
581.287	8840.45
581.648	8933.1
582.008	9094.45
582.368	9106.43
582.728	9295.35
583.089	9466.87
583.449	9549.13
583.809	9723.81
584.169	9830.93
584.529	9973.98
584.889	10227.08
585.249	10345.49
585.609	10492.83
585.969	10777.57
586.329	10935.76
586.688	11099.82
587.048	11342.98
587.408	11400.83
587.768	11726.7
588.127	11915.17
588.487	12160.81
588.846	12470.86
589.206	12533.23
589.565	12841.7
589.925	13026.78
590.284	13301.35
590.643	13645.74
591.003	13857.49
591.362	14072.85
591.721	14351.49
592.08	14542.44
592.44	14851.81
592.799	15137.68
593.158	15386.71
593.517	15718.68
593.876	15966.36
594.235	16238.44
594.593	16430.53
594.952	16736.06
595.311	16976.5
595.67	17310.96
596.029	17725.41
596.387	18027.55
596.746	18263.02
597.104	18480.42
597.463	18698.72
597.822	19107.97
598.18	19330.11
598.538	19408.08
598.897	19889.42
599.255	20018.68
599.613	20556.75
599.972	20720.81
600.33	21029.5
600.688	21193.57
601.046	21530.96
601.404	21935.47
601.762	22144.05
602.12	22440.09
602.478	22721.44
602.836	22973.18
603.194	23039.17
603.552	23341.99
603.91	23573.84
604.268	23957.34
604.625	24209.53
604.983	24508.73
605.341	24574.5
605.698	24852.23
606.056	25119.11
606.413	25223.74
606.771	25730.62
607.128	25824.41
607.485	25917.51
607.843	26225.75
608.2	26599.07
608.557	26913.87
608.914	26920.42
609.272	27212.39
609.629	27508.2
609.986	27764.69
610.343	27783.9
610.7	28170.11
611.057	28279.93
611.414	28408.07
611.771	28555.86
612.127	28937.54
612.484	29010.31
612.841	29362.39
613.198	29325.78
613.554	29437.19
613.911	29740.69
614.267	29818.43
614.624	29965.77
614.98	30114.91
615.337	30525.07
615.693	30617.05
616.05	30723.49
616.406	30999.41
616.762	31049.81
617.118	31172.74
617.475	31263.58
617.831	31610.24
618.187	31603.69
618.543	31698.6
618.899	31891.36
619.255	32019.72
619.611	32104.47
619.967	32359.15
620.323	32574.96
620.678	32532.03
621.034	32596.43
621.39	32652.25
621.746	32844.11
622.101	33221.95
622.457	33047.27
622.812	33160.94
623.168	33436.41
623.523	33392.79
623.879	33525.45
624.234	33381.72
624.589	33689.96
624.945	33802.28
625.3	33998.65
625.655	33860.13
626.01	34050.63
626.365	34144.19
626.72	34074.36
627.075	34183.06
627.43	34165.2
627.785	34246.56
628.14	34371.53
628.495	34404.75
628.85	34435.93
629.205	34354.58
629.559	34634.57
629.914	34483.39
630.269	34659.2
630.623	34593.21
630.978	34488.13
631.332	34690.61
631.687	34870.5
632.041	34604.06
632.396	34724.06
632.75	34615.14
633.104	34765.41
633.459	34639.09
633.813	34569.49
634.167	34806.99
634.521	34702.59
634.875	34778.07
635.229	34900.33
635.583	34730.16
635.937	34722.93
636.291	34736.94
636.645	34664.63
636.999	34718.64
637.352	34811.29
637.706	34663.27
638.06	34783.04
638.413	34793.66
638.767	34637.28
639.121	34831.17
639.474	34556.83
639.828	34724.06
640.181	34791.18
640.534	34745.08
640.888	34728.8
641.241	34717.51
641.594	34738.75
641.947	34847.67
642.301	34731.74
642.654	34849.71
643.007	34778.75
643.36	34735.58
643.713	34703.95
644.066	34760.67
644.419	34530.39
644.771	34364.29
645.124	34162.72
645.477	34082.49
645.83	33781.26
646.182	33805.89
646.535	33675.5
646.888	33729.28
647.24	33695.61
647.593	33813.57
647.945	33819.68
648.298	33559.8
648.65	33570.19
649.002	33459.23
649.355	33629.62
649.707	33590.3
650.059	33666.91
650.411	34156.39
650.763	34037.52
651.115	34452.43
651.467	34363.84
651.819	34329.27
652.171	34272.77
652.523	34235.03
652.875	34294.01
653.227	34146.67
653.578	34454.46
653.93	34338.53
654.282	34245.88
654.633	34182.83
654.985	34135.83
655.337	34260.34
655.688	34183.28
656.039	34379.21
656.391	34063.74
656.742	34223.28
657.094	34097.18
657.445	34266.67
657.796	34038.88
658.147	33959.79
658.498	34102.15
658.849	34238.87
659.2	34058.09
659.551	33977.86
659.902	34074.58
660.253	33914.81
660.604	34080.69
660.955	33817.19
661.306	34072.32
661.656	33943.51
662.007	34016.28
662.358	34039.56
662.708	33944.87
663.059	34014.25
663.409	33915.27
663.76	34106.22
664.11	33956.4
664.461	34052.89
664.811	33942.38
665.161	33854.25
665.511	33999.78
665.862	34033.68
666.212	34061.7
666.562	33994.13
666.912	33923.18
667.262	33981.25
667.612	34030.74
667.962	34002.5
668.312	33873.91
668.662	34052.44
669.011	33953.01
669.361	33921.37
669.711	33780.35
670.06	33906.91
670.41	33745.78
670.76	33708.49
671.109	33731.32
671.459	33897.19
671.808	33820.81
672.157	33798.89
672.507	33553.02
672.856	33771.09
673.205	33787.13
673.554	33801.37
673.904	33729.96
674.253	33887.47
674.602	33802.05
674.951	33350.76
675.3	33121.61
675.649	33683.18
675.998	33451.78
676.346	33599.34
676.695	33732.9
677.044	33378.78
677.393	33610.64
677.741	33610.64
678.09	33393.47
678.438	33534.71
678.787	33534.03
679.135	33478.22
679.484	33206.81
679.832	33376.75
680.181	33207.26
680.529	33274.83
680.877	33233.7
681.225	33199.58
681.573	33343.08
681.922	32995.97
682.27	33067.15
682.618	32963.43
682.966	32899.47
683.314	32967.04
683.661	32922.07
684.009	32743.77
684.357	32633.04
684.705	32634.62
685.053	32728.86
685.4	32621.97
685.748	32517.11
686.095	32511.46
686.443	32427.17
686.79	32320.51
687.138	32447.96
687.485	32480.73
687.832	32363.89
688.18	32200.74
688.527	32208.87
688.874	32255.65
689.221	32097.91
689.568	31989.44
689.915	32032.38
690.262	32026.95
690.609	31821.08
690.956	31681.88
691.303	31640.75
691.65	31592.39
691.997	31513.97
692.344	31410.93
692.69	31433.98
693.037	31478.04
693.383	31130.25
693.73	31221.1
694.077	30909.7
694.423	31095
694.769	30918.96
695.116	30915.8
695.462	30766.87
695.808	30653.88
696.155	30782.92
696.501	30611.17
696.847	30658.18
697.193	30347.22
697.539	30459.54
697.885	30251.63
698.231	30132.09
698.577	30306.1
698.923	30147.46
699.269	30024.75
699.614	29763.29
699.96	29888.03
700.306	29794.92
700.651	29700.91
700.997	29685.77
701.342	29435.38
701.688	29480.35
702.033	29442.62
702.379	29447.81
702.724	29291.43
703.069	29393.35
703.415	29083.08
703.76	29031.78
704.105	29025.68
704.45	28886.02
704.795	28861.84
705.14	28648.29
705.485	28749.53
705.83	28548.18
706.175	28754.5
706.52	28533.49
706.865	28523.09
707.209	28332.14
707.554	28331.23
707.899	28428.18
708.243	28257.56
708.588	28181.41
708.932	27907.06
709.277	27957.91
709.621	28003.56
709.966	27848.31
710.31	27905.03
710.654	27671.81
710.998	27619.84
711.342	27659.39
711.687	27558.15
712.031	27513.63
712.375	27297.14
712.719	27476.11
713.063	27391.14
713.407	27486.96
713.75	27225.72
714.094	27134.88
714.438	27026.18
714.782	27256.68
715.125	27022.11
715.469	27108.21
715.812	26902.57
716.156	26849.01
716.499	26853.76
716.843	26892.17
717.186	26657.38
717.53	26768.34
717.873	26855.57
718.216	26649.02
718.559	26568.79
718.902	26463.94
719.246	26591.39
719.589	26440.66
719.932	26335.58
720.275	26328.8
720.617	26245.86
720.96	26190.27
721.303	26200.67
721.646	26114.34
721.989	26091.52
722.331	26097.39
722.674	26037.28
723.016	25998.86
723.359	25931.52
723.701	26123.83
724.044	25938.53
724.386	25731.53
724.729	25869.83
725.071	25709.83
725.413	25627.12
725.755	25654.92
726.097	25585.32
726.439	25480.91
726.782	25455.6
727.124	25606.56
727.465	25416.96
727.807	25378.54
728.149	25386.23
728.491	25338.99
728.833	25389.16
729.175	25273.69
729.516	25180.81
729.858	25118.89
730.199	25201.15
730.541	25061.26
730.882	25052.22
731.224	25141.49
731.565	24998.21
731.906	25022.62
732.248	25071.21
732.589	24719.58
732.93	24687.94
733.271	24777.2
733.612	24713.93
733.953	24822.4
734.294	24645
734.635	24645.91
734.976	24655.62
735.317	24454.5
735.658	24527.26
735.999	24559.35
736.339	24446.81
736.68	24472.8
737.021	24431.67
737.361	24353.94
737.702	24442.3
738.042	24359.59
738.383	24223.09
738.723	24328.63
739.063	24245.24
739.404	24272.81
739.744	24242.53
740.084	24125.47
740.424	24206.82
740.764	24066.26
741.104	24135.41
741.444	23996.21
741.784	24004.34
742.124	23980.84
742.464	23901.52
742.804	23908.98
743.143	23788.75
743.483	23756.44
743.823	23745.14
744.162	23721.41
744.502	23783.33
744.841	23656.33
745.181	23687.06
745.52	23524.35
745.86	23537.01
746.199	23612.49
746.538	23440.97
746.877	23594.18
747.216	23499.04
747.556	23430.12
747.895	23426.95
748.234	23325.71
748.573	23297.24
748.911	23212.27
749.25	23177.92
749.589	23091.6
749.928	23176.34
750.267	23097.47
750.605	23149.45
750.944	22994.42
751.283	23029.9
751.621	23022.9
751.96	22873.07
752.298	22938.61
752.636	22943.8
752.975	22768.89
753.313	22694.77
753.651	22809.57
753.989	22672.85
754.327	22677.37
754.666	22502.69
755.004	22655.9
755.342	22629.69
755.679	22509.69
756.017	22332.75
756.355	22395.57
756.693	22443.03
757.031	22388.79
757.368	22088.01
757.706	22145.63
758.044	22033.54
758.381	22019.31
758.719	21998.97
759.056	21998.29
759.394	21909.93
759.731	21787.68
760.068	21668.36
760.405	21638.75
760.743	21661.8
761.08	21610.51
761.417	21492.32
761.754	21421.81
762.091	21414.35
762.428	21399.66
762.765	21255.03
763.102	21264.53
763.438	21112.89
763.775	21036.96
764.112	21035.38
764.449	21095.26
764.785	21027.7
765.122	20810.98
765.458	20789.74
765.795	20760.81
766.131	20825.22
766.467	20601.27
766.804	20586.8
767.14	20427.49
767.476	20330.99
767.812	20360.82
768.148	20363.31
768.485	20260.03
768.821	20110.43
769.157	20102.3
769.492	20032.69
769.828	19959.02
770.164	19877.67
770.5	19852.59
770.836	19807.39
771.171	19710.22
771.507	19722.19
771.842	19438.36
772.178	19462.54
772.513	19463.44
772.849	19300.51
773.184	19313.84
773.519	19244.24
773.855	19182.09
774.19	19127.86
774.525	18989.56
774.86	19122.89
775.195	19048.76
775.53	18928.09
775.865	18660.98
776.2	18663.24
776.535	18500.76
776.87	18554.77
777.205	18547.08
777.539	18360.42
777.874	18489.91
778.209	18245.4
778.543	18271.61
778.878	18230.48
779.212	18136.92
779.547	17966.31
779.881	18107.55
780.215	17860.1
780.55	17891.28
780.884	17815.35
781.218	17718.63
781.552	17677.73
781.886	17607.22
782.22	17615.58
782.554	17463.27
782.888	17319.54
783.222	17185.31
783.556	17165.88
783.889	17232.54
784.223	17042.94
784.557	16982.38
784.89	17067.12
785.224	16826.68
785.557	16828.94
785.891	16818.54
786.224	16776.73
786.558	16747.81
786.891	16611.99
787.224	16534.93
787.557	16494.48
787.891	16506.46
788.224	16304.2
788.557	16403.41
788.89	16366.58
789.223	16227.37
789.556	16133.59
789.888	16210.2
790.221	16034.83
790.554	16030.99
790.887	15863.31
791.219	15892.46
791.552	15873.71
791.884	15847.94
792.217	15753.94
792.549	15767.27
792.882	15550.33
793.214	15475.53
793.546	15595.97
793.879	15477.11
794.211	15405.92
794.543	15400.95
794.875	15430.1
795.207	15331.57
795.539	15335.64
795.871	15157.12
796.203	15128.64
796.535	15014.52
796.867	14957.12
797.198	14973.84
797.53	14899.72
797.862	14915.09
798.193	14854.75
798.525	14799.38
798.856	14808.42
799.188	14674.64
799.519	14612.95
799.85	14507.19
800.182	14513.97
800.513	14577.47
800.844	14417.47
801.175	14439.17
801.506	14340.64
801.837	14362.56
802.168	14288.66
802.499	14209.34
802.83	14163.24
803.161	14098.39
803.491	14089.8
803.822	14191.72
804.153	14032.63
804.483	13972.97
804.814	13885.06
805.145	13850.71
805.475	13960.31
805.805	13773.42
806.136	13764.38
806.466	13786.3
806.796	13769.58
807.126	13653.88
807.457	13640.32
807.787	13629.92
808.117	13546.31
808.447	13510.61
808.777	13528.91
809.107	13373.21
809.436	13382.02
809.766	13412.08
810.096	13354.9
810.426	13198.52
810.755	13319.88
811.085	13267.22
811.414	13211.4
811.744	13105.64
812.073	13092.99
812.403	13052.31
812.732	12970.73
813.061	12988.36
813.39	12944.07
813.719	12900.68
814.049	12982.71
814.378	12901.36
814.707	12827.46
815.036	12784.07
815.365	12796.73
815.693	12645.32
816.022	12805.99
816.351	12641.25
816.68	12655.94
817.008	12671.31
817.337	12553.79
817.665	12446.9
817.994	12548.14
818.322	12536.39
818.651	12466.11
818.979	12399
819.307	12413.68
819.636	12434.25
819.964	12319.22
820.292	12383.4
820.62	12318.77
820.948	12224.54
821.276	12363.97
821.604	12321.03
821.932	12263.41
822.259	12293.01
822.587	12260.02
822.915	12238.1
823.243	12272.22
823.57	12224.99
823.898	12226.12
824.225	12140.92
824.553	12222.5
824.88	12236.06
825.207	12254.14
825.535	12169.62
825.862	12199.91
826.189	12211.88
826.516	12191.32
826.843	12226.57
827.17	12248.72
827.497	12260.24
827.824	12201.71
828.151	12249.62
828.478	12169.85
828.805	12204.2
829.131	12192.9
829.458	12159.45
829.785	12071.32
830.111	12192
830.438	12146.8
830.764	12135.73
831.09	12135.27
831.417	12097.76
831.743	12189.51
832.069	12149.51
832.395	11998.33
832.722	12095.28
833.048	12075.39
833.374	12065.22
833.7	12028.38
834.026	12058.67
834.351	12096.86
834.677	12008.27
835.003	12068.61
835.329	12044.2
835.654	11961.49
835.98	11946.8
836.306	11923.3
836.631	11900.93
836.956	11918.1
837.282	11936.18
837.607	11853.47
837.932	11842.85
838.258	11879.91
838.583	11822.06
838.908	11767.15
839.233	11801.27
839.558	11758.11
839.883	11771.89
840.208	11671.33
840.533	11712.91
840.858	11684.89
841.182	11655.06
841.507	11768.05
841.832	11578.9
842.156	11593.14
842.481	11537.32
842.805	11597.89
843.13	11575.74
843.454	11582.52
843.778	11470.21
844.103	11434.28
844.427	11373.26
844.751	11425.46
845.075	11355.18
845.399	11319.02
845.723	11304.56
846.047	11278.8
846.371	11207.16
846.695	11203.32
847.019	11082.19
847.343	11164
847.666	10982.54
847.99	10976.43
848.313	10917
848.637	10873.16
848.96	10859.83
849.284	10823.44
849.607	10734.18
849.931	10662.54
850.254	10664.13
850.577	10611.47
850.9	10561.53
851.223	10591.59
851.546	10489.44
851.869	10393.17
852.192	10435.66
852.515	10387.75
852.838	10350.91
853.161	10264.81
853.483	10172.84
853.806	10206.51
854.129	10227.3
854.451	10160.64
854.774	10124.93
855.096	10107.08
855.419	10093.29
855.741	10023.92
856.063	9971.04
856.385	10019.4
856.708	9922.45
857.03	9907.08
857.352	9865.5
857.674	9892.62
857.996	9853.3
858.318	9780.53
858.64	9714.77
858.961	9751.61
859.283	9713.87
859.605	9656.02
859.926	9696.92
860.248	9634.77
860.57	9580.31
860.891	9589.35
861.212	9580.54
861.534	9539.86
861.855	9523.82
862.176	9559.3
862.498	9548.9
862.819	9491.28
863.14	9468.45
863.461	9393.65
863.782	9389.13
864.103	9392.75
864.424	9357.04
864.745	9379.41
865.065	9362.24
865.386	9325.63
865.707	9246.31
866.027	9276.37
866.348	9211.96
866.668	9248.8
866.989	9221.68
867.309	9179.19
867.63	9188.01
867.95	9176.03
868.27	9153.43
868.59	9207.44
868.91	9148.46
869.23	9107.33
869.55	9087.9
869.87	9083.83
870.19	9077.05
870.51	9051.51
870.83	9032.3
871.15	9026.66
871.469	9021.91
871.789	9033.89
872.109	8976.49
872.428	8990.95
872.748	8959.76
873.067	8939.65
873.386	8943.04
873.706	8960.67
874.025	8856.94
874.344	8854.46
874.663	8921.35
874.982	8893.55
875.301	8871.86
875.62	8855.13
875.939	8796.83
876.258	8765.19
876.577	8814.23
876.896	8738.98
877.214	8747.11
877.533	8780.79
877.852	8741.69
878.17	8760.45
878.489	8764.97
878.807	8691.3
879.125	8685.65
879.444	8696.27
879.762	8627.8
880.08	8621.69
880.398	8579.44
880.716	8611.98
881.034	8571.75
881.352	8591.19
881.67	8553.67
881.988	8542.37
882.306	8477.97
882.624	8505.99
882.941	8409.95
883.259	8390.06
883.577	8412.89
883.894	8374.24
884.212	8403.17
884.529	8316.39
884.846	8361.59
885.164	8336.96
885.481	8291.53
885.798	8320.69
886.115	8181.48
886.432	8202.04
886.75	8164.76
887.067	8205.43
887.383	8140.35
887.7	8177.19
888.017	8145.77
888.334	8138.77
888.651	8115.72
888.967	8128.83
889.284	8065.32
889.6	8035.49
889.917	7983.29
890.233	8025.55
890.55	7986
890.866	7943.07
891.182	7979.68
891.498	7925.22
891.815	7872.56
892.131	7885.89
892.447	7823.3
892.763	7865.1
893.079	7820.13
893.395	7750.98
893.71	7769.51
894.026	7681.83
894.342	7753.92
894.657	7621.49
894.973	7652.91
895.289	7638.22
895.604	7639.8
895.92	7613.36
896.235	7538.78
896.55	7505.34
896.865	7564.77
897.181	7501.05
897.496	7441.61
897.811	7411.1
898.126	7404.1
898.441	7313.25
898.756	7354.16
899.071	7322.75
899.386	7314.16
899.7	7254.05
900.015	7193.48
900.33	7193.71
900.644	7174.95
900.959	7213.6
901.273	7206.59
901.588	7167.72
901.902	7074.84
902.216	7073.03
902.531	7075.52
902.845	6980.16
903.159	7007.95
903.473	7000.95
903.787	6976.54
904.101	6854.51
904.415	6843.44
904.729	6847.05
905.042	6805.7
905.356	6784.68
905.67	6777.45
905.984	6773.83
906.297	6813.61
906.611	6683.21
906.924	6701.52
907.237	6651.12
907.551	6606.61
907.864	6598.24
908.177	6570.22
908.491	6566.83
908.804	6551.92
909.117	6515.53
909.43	6457.01
909.743	6458.59
910.056	6457.46
910.368	6466.04
910.681	6373.39
910.994	6382.21
911.307	6335.2
911.619	6225.82
911.932	6286.16
912.244	6246.84
912.557	6264.02
912.869	6216.33
913.181	6209.78
913.494	6145.83
913.806	6118.03
914.118	6110.57
914.43	6057.69
914.742	6123.23
915.054	5990.12
915.366	6004.59
915.678	6011.14
915.99	5985.61
916.302	5914.19
916.613	5938.83
916.925	5904.93
917.236	5882.11
917.548	5819.51
917.859	5851.6
918.171	5816.8
918.482	5781.09
918.794	5747.65
919.105	5755.33
919.416	5663.58
919.727	5733.18
920.038	5654.31
920.349	5619.29
920.66	5613.41
920.971	5597.59
921.282	5556.24
921.593	5546.97
921.903	5515.34
922.214	5536.58
922.525	5419.74
922.835	5439.18
923.146	5433.3
923.456	5318.5
923.767	5370.25
924.077	5394.89
924.387	5363.25
924.697	5329.35
925.008	5247.77
925.318	5244.83
925.628	5323.48
925.938	5271.5
926.248	5222.24
926.558	5158.51
926.867	5156.02
927.177	5114.67
927.487	5121.9
927.796	5104.95
928.106	5112.63
928.416	5022.92
928.725	4998.96
929.034	4975.69
929.344	4969.81
929.653	5039.42
929.962	4934.11
930.271	4869.7
930.581	4897.05
930.89	4851.17
931.199	4858.4
931.508	4866.76
931.817	4868.12
932.125	4797.84
932.434	4760.78
932.743	4726.66
933.051	4770.72
933.36	4717.39
933.669	4677.84
933.977	4660.44
934.286	4674.91
934.594	4626.55
934.902	4584.29
935.21	4584.96
935.519	4573.44
935.827	4612.08
936.135	4551.74
936.443	4531.86
936.751	4485.08
937.059	4538.19
937.367	4487.79
937.674	4460
937.982	4447.11
938.29	4373.44
938.597	4412.54
938.905	4344.52
939.213	4359.66
939.52	4335.03
939.827	4372.09
940.135	4310.17
940.442	4311.53
940.749	4243.73
941.056	4263.16
941.363	4215.48
941.67	4234.92
941.977	4215.26
942.284	4153.56
942.591	4171.64
942.898	4180.68
943.205	4125.32
943.511	4152.89
943.818	4099.55
944.125	4077.18
944.431	4093.45
944.738	4037.41
945.044	4027.69
945.35	4004.19
945.657	3976.17
945.963	3976.39
946.269	3960.57
946.575	3958.54
946.881	3957.86
947.187	3916.96
947.493	3909.28
947.799	3872.21
948.105	3885.1
948.41	3838.54
948.716	3854.59
949.022	3804.87
949.327	3784.08
949.633	3822.72
949.938	3809.17
950.244	3786.12
950.549	3725.55
950.854	3745.89
951.16	3692.11
951.465	3693.46
951.77	3681.71
952.075	3638.32
952.38	3629.28
952.685	3655.95
952.99	3633.35
953.294	3566.69
953.599	3567.14
953.904	3560.58
954.209	3508.83
954.513	3514.94
954.818	3484.2
955.122	3498.21
955.426	3486.69
955.731	3487.37
956.035	3486.46
956.339	3482.39
956.643	3472.9
956.948	3392
957.252	3399.91
957.556	3392.23
957.86	3367.82
958.163	3344.77
958.467	3286.02
958.771	3315.39
959.075	3322.17
959.378	3264.32
959.682	3278.33
959.985	3252.34
960.289	3243.3
960.592	3246.24
960.896	3187.03
961.199	3198.56
961.502	3190.65
961.805	3180.48
962.108	3184.1
962.411	3135.51
962.714	3135.51
963.017	3150.65
963.32	3096.19
963.623	3114.27
963.926	3039.47
964.228	3031.33
964.531	3034.5
964.833	3046.02
965.136	2994.05
965.438	3024.33
965.741	2999.92
966.043	2984.1
966.345	2994.95
966.648	2978
966.95	2956.76
967.252	2918.12
967.554	2957.21
967.856	2942.97
968.158	2900.49
968.46	2840.15
968.761	2858
969.063	2864.78
969.365	2842.86
969.666	2881.51
969.968	2818.68
970.269	2828.63
970.571	2787.5
970.872	2799.93
971.174	2792.69
971.475	2802.64
971.776	2772.81
972.077	2789.98
972.378	2753.6
972.679	2713.83
972.98	2731.45
973.281	2732.13
973.582	2709.99
973.883	2696.65
974.183	2694.39
974.484	2682.42
974.785	2628.86
975.085	2631.57
975.386	2667.27
975.686	2646.03
975.986	2611.68
976.287	2579.14
976.587	2570.55
976.887	2565.81
977.187	2567.84
977.487	2575.3
977.787	2516.54
978.087	2494.4
978.387	2533.94
978.687	2489.65
978.987	2447.39
979.286	2480.84
979.586	2455.53
979.885	2446.94
980.185	2452.36
980.484	2460.73
980.784	2431.57
981.083	2422.31
981.382	2440.39
981.682	2402.42
981.981	2379.15
982.28	2364.91
982.579	2344.57
982.878	2355.42
983.177	2382.08
983.475	2339.83
983.774	2311.58
984.073	2338.47
984.372	2302.09
984.67	2305.02
984.969	2304.12
985.267	2286.04
985.566	2260.51
985.864	2275.65
986.162	2250.34
986.461	2248.75
986.759	2211.69
987.057	2199.72
987.355	2195.42
987.653	2185.25
987.951	2162.43
988.249	2171.24
988.547	2184.35
988.844	2183.22
989.142	2153.84
989.44	2158.59
989.737	2119.04
990.035	2086.27
990.332	2139.83
990.63	2103.9
990.927	2107.06
991.224	2091.24
991.521	2086.5
991.819	2073.17
992.116	2058.7
992.413	2039.04
992.71	2047.18
993.006	2038.14
993.303	2024.35
993.6	2029.1
993.897	2021.87
994.193	2026.61
994.49	1998.14
994.787	1994.07
995.083	1968.54
995.379	1952.27
995.676	1966.05
995.972	1929.67
996.268	1934.64
996.565	1938.03
996.861	1953.39
997.157	1903.23
997.453	1874.08
997.749	1900.52
998.044	1865.71
998.34	1866.39
998.636	1872.72
998.932	1856.9
999.227	1834.08
999.523	1863
999.818	1816
1000.114	1830.23
1000.409	1843.79
1000.704	1764.25
1001	1776.68
1001.295	1764.47
1001.59	1788.43
1001.885	1741.42
1002.18	1735.77
1002.475	1748.43
1002.77	1742.1
1003.065	1704.14
1003.359	1705.72
1003.654	1704.81
1003.949	1674.08
1004.243	1693.29
1004.538	1663.46
1004.832	1668.88
1005.127	1663.23
1005.421	1653.29
1005.715	1612.61
1006.009	1651.48
1006.304	1627.53
1006.598	1607.64
1006.892	1597.25
1007.186	1605.83
1007.48	1601.77
1007.773	1575.55
1008.067	1591.37
1008.361	1579.39
1008.655	1562.44
1008.948	1516.8
1009.242	1520.86
1009.535	1559.96
1009.829	1527.64
1010.122	1505.95
1010.415	1494.65
1010.708	1486.06
1011.001	1491.94
1011.295	1486.97
1011.588	1497.36
1011.881	1456.68
1012.173	1441.32
1012.466	1475.44
1012.759	1451.94
1013.052	1420.3
1013.344	1423.47
1013.637	1412.62
1013.93	1426.18
1014.222	1412.62
1014.514	1400.42
1014.807	1361.77
1015.099	1336.69
1015.391	1377.82
1015.683	1366.29
1015.976	1374.43
1016.268	1310.93
1016.56	1350.7
1016.851	1320.64
1017.143	1342.56
1017.435	1305.5
1017.727	1320.87
1018.018	1311.38
1018.31	1297.37
1018.602	1288.78
1018.893	1298.95
1019.185	1307.08
1019.476	1262.34
1019.767	1269.35
1020.058	1269.35
1020.35	1241.32
1020.641	1224.15
1020.932	1230.93
1021.223	1223.92
1021.514	1213.3
1021.804	1203.81
1022.095	1215.11
1022.386	1207.65
1022.677	1178.95
1022.967	1178.73
1023.258	1140.53
1023.548	1170.36
1023.839	1149.12
1024.129	1139.86
1024.419	1138.73
1024.709	1162.23
1025	1144.15
1025.29	1099.63
1025.58	1074.77
1025.87	1072.06
1026.16	1116.35
1026.449	1089.24
1026.739	1088.78
1027.029	1118.39
1027.319	1068.67
1027.608	1074.77
1027.898	1039.75
1028.187	1046.53
1028.477	1050.37
1028.766	1044.49
1029.055	1024.83
1029.344	1011.95
1029.634	1009.24
1029.923	1016.7
1030.212	991.61
1030.501	1028.67
1030.79	988.22
1031.078	983.25
1031.367	976.25
1031.656	956.36
1031.945	959.97
1032.233	941.9
1032.522	960.2
1032.81	933.08
1033.099	961.1
1033.387	928.79
1033.675	925.63
1033.963	918.17
1034.251	919.98
1034.54	896.93
1034.828	905.96
1035.116	907.55
1035.403	897.38
1035.691	933.53
1035.979	888.79
1036.267	896.02
1036.554	872.07
1036.842	884.72
1037.129	868
1037.417	859.19
1037.704	863.93
1037.992	843.82
1038.279	871.84
1038.566	849.47
1038.853	849.47
1039.14	849.47
