Data from hue_38_FLMS001491_00054.txt Node
Date: Tue Feb 07 17:31:41 GMT 2017
User: dcchb
Spectrometer: FLMS00149
Trigger mode: 0
Integration Time (sec): 2.000000E-2
Scans to average: 10
Electric dark correction enabled: true
Nonlinearity correction enabled: false
Boxcar width: 0
XAxis mode: Wavelengths
Number of Pixels in Spectrum: 2048
>>>>>Begin Spectral Data<<<<<
341.393	-21.78
341.776	-21.78
342.16	-21.78
342.543	-53.87
342.927	-63.59
343.31	-57.71
343.693	-84.15
344.077	-55
344.46	-52.96
344.843	-69.69
345.226	-53.19
345.61	-33.98
345.993	-19.75
346.376	16.41
346.759	27.49
347.142	27.49
347.525	44.43
347.908	57.77
348.291	75.17
348.674	86.69
349.057	90.99
349.44	134.83
349.823	148.61
350.206	183.87
350.588	209.85
350.971	219.12
351.354	239.01
351.737	254.82
352.119	261.15
352.502	266.57
352.884	279.46
353.267	273.35
353.65	315.84
354.032	299.57
354.414	303.41
354.797	323.52
355.179	322.62
355.562	341.38
355.944	314.94
356.326	352.45
356.709	352.67
357.091	333.69
357.473	357.19
357.855	359.68
358.238	333.01
358.62	349.96
359.002	364.65
359.384	352
359.766	357.42
360.148	340.02
360.53	340.7
360.912	342.96
361.294	343.18
361.676	319.91
362.057	337.99
362.439	336.86
362.821	341.38
363.203	349.74
363.584	335.27
363.966	346.12
364.348	305.44
364.729	335.73
365.111	340.7
365.493	355.84
365.874	316.97
366.256	332.34
366.637	326.91
367.019	317.65
367.4	349.74
367.781	313.58
368.163	324.65
368.544	321.49
368.925	312.68
369.306	327.59
369.688	321.26
370.069	313.58
370.45	335.27
370.831	314.94
371.212	323.75
371.593	306.35
371.974	321.04
372.355	298.44
372.736	338.89
373.117	328.49
373.498	311.77
373.879	308.83
374.26	366.23
374.641	321.94
375.021	315.39
375.402	322.39
375.783	316.97
376.163	340.47
376.544	334.14
376.925	342.28
377.305	324.43
377.686	330.53
378.066	339.12
378.447	342.96
378.827	355.16
379.208	346.57
379.588	338.21
379.968	329.4
380.349	363.07
380.729	330.75
381.109	351.09
381.489	328.27
381.87	360.36
382.25	330.53
382.63	343.64
383.01	360.81
383.39	352.67
383.77	359.68
384.15	350.64
384.53	351.32
384.91	357.42
385.29	362.39
385.67	365.78
386.049	354.26
386.429	340.7
386.809	356.06
387.189	361.71
387.568	360.81
387.948	363.52
388.328	358.78
388.707	360.36
389.087	369.85
389.466	380.47
389.846	356.06
390.225	391.54
390.605	384.76
390.984	385.44
391.363	381.37
391.743	378.66
392.122	360.81
392.501	382.05
392.881	394.48
393.26	375.05
393.639	364.2
394.018	380.92
394.397	364.65
394.776	379.11
395.155	402.84
395.534	405.1
395.913	392.45
396.292	407.81
396.671	412.79
397.05	399.45
397.429	391.32
397.808	385.44
398.186	398.32
398.565	395.39
398.944	400.13
399.323	408.49
399.701	398.32
400.08	403.75
400.458	413.24
400.837	399.23
401.215	418.44
401.594	410.98
401.972	414.59
402.351	427.47
402.729	433.35
403.107	434.71
403.486	416.85
403.864	430.86
404.242	440.81
404.62	442.84
404.999	417.98
405.377	416.4
405.755	464.76
406.133	431.77
406.511	451.2
406.889	461.82
407.267	454.82
407.645	447.14
408.023	462.5
408.401	451.43
408.779	441.26
409.156	450.52
409.534	467.02
409.912	439.68
410.29	455.5
410.667	472.67
411.045	471.09
411.422	494.14
411.8	474.25
412.178	497.76
412.555	486.46
412.933	487.36
413.31	504.99
413.687	496.63
414.065	485.1
414.442	497.3
414.819	520.58
415.197	498.21
415.574	515.16
415.951	514.25
416.328	510.86
416.705	509.96
417.082	514.25
417.46	532.1
417.837	527.13
418.214	516.74
418.591	545.44
418.967	520.35
419.344	532.56
419.721	537.98
420.098	560.13
420.475	525.55
420.852	537.3
421.228	548.6
421.605	562.16
421.982	570.07
422.358	571.65
422.735	577.98
423.111	553.57
423.488	568.04
423.864	560.13
424.241	577.98
424.617	574.36
424.994	609.39
425.37	577.53
425.746	586.57
426.123	595.61
426.499	606.23
426.875	617.53
427.251	616.85
427.627	610.07
428.003	617.07
428.379	634.93
428.756	622.05
429.132	645.55
429.507	638.32
429.883	641.25
430.259	656.85
430.635	654.36
431.011	657.98
431.387	654.14
431.763	668.37
432.138	678.54
432.514	657.98
432.89	687.35
433.265	695.04
433.641	702.27
434.016	706.79
434.392	720.57
434.767	733.68
435.143	734.13
435.518	737.97
435.894	733.23
436.269	762.38
436.644	749.73
437.02	725.09
437.395	758.77
437.77	761.25
438.145	793.34
438.52	769.16
438.895	782.95
439.271	786.79
439.646	779.1
440.021	794.47
440.395	811.87
440.77	808.26
441.145	816.62
441.52	826.33
441.895	818.42
442.27	817.97
442.645	821.36
443.019	851.19
443.394	836.28
443.769	841.25
444.143	840.57
444.518	870.63
444.892	837.41
445.267	845.09
445.641	863.17
446.016	876.5
446.39	885.32
446.764	895.26
447.139	914.69
447.513	905.43
447.887	900.23
448.262	904.98
448.636	914.02
449.01	910.4
449.384	894.36
449.758	920.12
450.132	935.71
450.506	938.65
450.88	936.39
451.254	949.72
451.628	947.91
452.002	969.83
452.376	975.93
452.75	973
453.123	990.85
453.497	987.91
453.871	986.78
454.244	1021.58
454.618	993.34
454.992	1000.57
455.365	1044.18
455.739	1060
456.112	1063.84
456.486	1050.51
456.859	1103.62
457.232	1089.83
457.606	1073.56
457.979	1115.59
458.352	1123.95
458.725	1139.77
459.099	1152.43
459.472	1149.72
459.845	1154.46
460.218	1196.27
460.591	1194.01
460.964	1219.09
461.337	1241.24
461.71	1252.54
462.083	1284.63
462.456	1271.29
462.829	1297.06
463.201	1273.33
463.574	1323.27
463.947	1303.61
464.32	1329.6
464.692	1356.72
465.065	1359.2
465.438	1384.51
465.81	1428.13
466.183	1423.83
466.555	1449.14
466.928	1444.62
467.3	1455.47
467.672	1493.66
468.045	1524.17
468.417	1556.94
468.789	1590.83
469.161	1572.76
469.534	1619.08
469.906	1648.01
470.278	1645.52
470.65	1705.41
471.022	1744.73
471.394	1741.79
471.766	1788.79
472.138	1812.07
472.51	1863.14
472.882	1896.36
473.253	1910.37
473.625	1930.94
473.997	1998.51
474.369	2017.94
474.74	2062.23
475.112	2089.13
475.484	2136.36
475.855	2183.59
476.227	2200.99
476.598	2262.23
476.97	2344.71
477.341	2397.37
477.713	2408.67
478.084	2483.24
478.455	2560.3
478.827	2590.58
479.198	2671.94
479.569	2701.77
479.94	2783.8
480.311	2863.57
480.682	2984.47
481.053	3035.32
481.424	3130.45
481.795	3182.66
482.166	3287.96
482.537	3325.93
482.908	3427.85
483.279	3532.7
483.65	3605.24
484.021	3712.59
484.391	3757.78
484.762	3866.71
485.133	3901.96
485.503	4009.98
485.874	4155.29
486.244	4196.19
486.615	4264.44
486.985	4414.94
487.356	4488.61
487.726	4594.6
488.097	4720.02
488.467	4816.51
488.837	4917.98
489.207	5027.35
489.578	5172.43
489.948	5249.27
490.318	5354.35
490.688	5435.93
491.058	5494.23
491.428	5645.64
491.798	5803.6
492.168	5934.67
492.538	5982.13
492.908	6145.97
493.278	6262.8
493.648	6357.26
494.017	6439.75
494.387	6512.29
494.757	6663.69
495.126	6814.43
495.496	6798.38
495.866	6978.04
496.235	7051.48
496.605	7210.35
496.974	7226.17
497.344	7323.56
497.713	7465.71
498.082	7547.29
498.452	7698.92
498.821	7782.31
499.19	7797.68
499.559	7937.11
499.928	7966.49
500.298	8130.1
500.667	8214.61
501.036	8279.7
501.405	8369.41
501.774	8436.3
502.143	8585
502.512	8635.62
502.88	8701.16
503.249	8808.27
503.618	8870.64
503.987	8966.69
504.356	9057.08
504.724	9137.08
505.093	9199.22
505.462	9204.64
505.83	9335.71
506.199	9448.48
506.567	9577.29
506.936	9597.18
507.304	9657.51
507.672	9826.1
508.041	9843.05
508.409	9931.18
508.777	9976.6
509.145	10067
509.514	10154.9
509.882	10265.18
510.25	10256.14
510.618	10414.1
510.986	10472.86
511.354	10501.33
511.722	10592.63
512.09	10773.19
512.458	10727.99
512.826	10930.02
513.193	10856.8
513.561	10969.34
513.929	11076.46
514.297	11198.94
514.664	11250.01
515.032	11259.51
515.4	11362.55
515.767	11381.08
516.135	11441.87
516.502	11367.53
516.869	11660.63
517.237	11664.02
517.604	11672.83
517.972	11783.33
518.339	11906.27
518.706	11902.65
519.073	12002.09
519.44	12109.65
519.808	12224.68
520.175	12206.37
520.542	12388.06
520.909	12410.66
521.276	12368.4
521.643	12551.45
522.009	12626.48
522.376	12692.01
522.743	12659.92
523.11	12882.29
523.477	12937.88
523.843	13062.17
524.21	13141.49
524.577	13249.28
524.943	13316.4
525.31	13403.18
525.676	13510.29
526.043	13598.88
526.409	13622.16
526.776	13835.26
527.142	13755.94
527.508	13937.63
527.874	13990.73
528.241	14044.74
528.607	14040.68
528.973	14228.92
529.339	14228.92
529.705	14347.79
530.071	14540.32
530.437	14502.13
530.803	14622.81
531.169	14707.78
531.535	14724.95
531.901	14699.19
532.267	14707.55
532.632	14894.89
532.998	15016.7
533.364	15129.91
533.73	15129.23
534.095	15300.3
534.461	15343.47
534.826	15406.06
535.192	15382.79
535.557	15592.27
535.923	15599.96
536.288	15661.88
536.653	15689.9
537.019	15580.07
537.384	15736.22
537.749	15827.97
538.114	15801.99
538.479	15848.31
538.845	16032.71
539.21	16077.46
539.575	16145.93
539.94	16159.49
540.305	16249.21
540.67	16307.28
541.034	16369.88
541.399	16511.35
541.764	16489.65
542.129	16514.51
542.494	16475.19
542.858	16560.61
543.223	16657.78
543.587	16805.12
543.952	16850.55
544.316	16853.94
544.681	16884.44
545.045	17038.11
545.41	17141.39
545.774	17201.04
546.138	17204.43
546.503	17319.69
546.867	17362.62
547.231	17472.68
547.595	17427.93
547.959	17563.07
548.324	17623.41
548.688	17576.4
549.052	17643.97
549.416	17719.68
549.779	17721.71
550.143	17776.17
550.507	17968.71
550.871	17901.37
551.235	17881.48
551.599	18178.87
551.962	18120.34
552.326	18141.81
552.689	18245.99
553.053	18215.03
553.417	18324.41
553.78	18625.19
554.143	18506.55
554.507	18600.33
554.87	18596.26
555.234	18796.03
555.597	18703.83
555.96	18787.44
556.323	18904.05
556.686	18834.9
557.05	18972.52
557.413	19015.01
557.776	19088.9
558.139	19224.95
558.502	19288.9
558.865	19332.06
559.228	19523.92
559.59	19479.63
559.953	19647.53
560.316	19738.61
560.679	19741.09
561.041	19889.34
561.404	19946.06
561.767	20039.61
562.129	19890.01
562.492	20184.92
562.854	20174.75
563.217	20128.43
563.579	20252.04
563.941	20382.2
564.304	20455.42
564.666	20553.5
565.028	20560.05
565.39	20556.44
565.753	20769.54
566.115	20874.17
566.477	20964.79
566.839	20832.81
567.201	21108.74
567.563	21117.55
567.925	21132.01
568.287	21251.79
568.648	21358.68
569.01	21570.87
569.372	21534.26
569.734	21560.7
570.095	21709.85
570.457	21835.05
570.819	21925.67
571.18	21865.33
571.542	22185.77
571.903	22150.75
572.265	22179.9
572.626	22242.49
572.987	22372.43
573.349	22461.02
573.71	22662.82
574.071	22669.6
574.432	22786.43
574.794	23001.8
575.155	23066.88
575.516	23003.15
575.877	23193.43
576.238	23302.13
576.599	23335.12
576.96	23612.4
577.32	23626.86
577.681	23762
578.042	23969.68
578.403	24112.05
578.763	24150.92
579.124	24288.09
579.485	24481.98
579.845	24642.43
580.206	24820.05
580.566	24896.66
580.927	24957.68
581.287	25206.48
581.648	25267.05
582.008	25708.39
582.368	25672.46
582.728	25905.22
583.089	25890.31
583.449	26269.73
583.809	26385.21
584.169	26571.65
584.529	26644.41
584.889	27088.92
585.249	27027.23
585.609	27220.67
585.969	27655.91
586.329	27805.06
586.688	27933.42
587.048	28237.59
587.408	28407.53
587.768	28541.76
588.127	28718.71
588.487	29038.02
588.846	29391.91
589.206	29322.08
589.565	29584.9
589.925	29932.69
590.284	30033.93
590.643	30315.05
591.003	30619.45
591.362	30793.46
591.721	30960.01
592.08	31070.96
592.44	31518.18
592.799	31838.17
593.158	31810.15
593.517	32088.56
593.876	32195.45
594.235	32371.95
594.593	32616.46
594.952	32907.52
595.311	33026.84
595.67	33270.45
596.029	33693.72
596.387	33914.05
596.746	34125.57
597.104	34164.89
597.463	34482.62
597.822	34662.73
598.18	34753.35
598.538	34939.34
598.897	35400.34
599.255	35251.19
599.613	35873.77
599.972	35763.49
600.33	36028.12
600.688	36145.86
601.046	36334.1
601.404	36768.21
601.762	36731.38
602.12	37152.84
602.478	37160.97
602.836	37403.45
603.194	37326.84
603.552	37562.77
603.91	37621.3
604.268	37867.39
604.625	38027.84
604.983	38369.75
605.341	38176.54
605.698	38557.77
606.056	38655.62
606.413	38800.02
606.771	39037.08
607.128	39226.23
607.485	39120.47
607.843	39275.94
608.2	39660.34
608.557	40011.07
608.914	39834.57
609.272	40160.44
609.629	40246.31
609.986	40407.21
610.343	40261
610.7	40716.58
611.057	40841.33
611.414	40811.05
611.771	40971.49
612.127	41304.14
612.484	41274.31
612.841	41486.28
613.198	41440.63
613.554	41510.46
613.911	41949.77
614.267	41928.98
614.624	41955.65
614.98	42138.69
615.337	42326.94
615.693	42416.2
616.05	42422.08
616.406	42756.53
616.762	42502.75
617.118	42588.85
617.475	42783.2
617.831	43089.86
618.187	43001.95
618.543	43033.59
618.899	43431.77
619.255	43370.53
619.611	43426.12
619.967	43537.75
620.323	43538.66
620.678	43645.77
621.034	43617.75
621.39	43559.22
621.746	43705.21
622.101	44127.79
622.457	43859.55
622.812	44085.99
623.168	44137.74
623.523	44102.26
623.879	44314.68
624.234	44131.86
624.589	44316.26
624.945	44407.34
625.3	44491.4
625.655	44381.12
626.01	44488.24
626.365	44630.15
626.72	44569.82
627.075	44604.17
627.43	44588.8
627.785	44517.84
628.14	44652.75
628.495	44783.82
628.85	44705.18
629.205	44547.67
629.559	44793.09
629.914	44657.5
630.269	44717.61
630.623	44599.19
630.978	44534.79
631.332	44786.53
631.687	44814.56
632.041	44734.11
632.396	44810.26
632.75	44532.98
633.104	44713.54
633.459	44603.26
633.813	44638.74
634.167	44581.79
634.521	44742.92
634.875	44817.04
635.229	44806.19
635.583	44619.76
635.937	44551.74
636.291	44603.26
636.645	44581.12
636.999	44593.32
637.352	44754.67
637.706	44596.03
638.06	44713.77
638.413	44632.87
638.767	44548.12
639.121	44638.52
639.474	44516.48
639.828	44446.66
640.181	44448.69
640.534	44470.16
640.888	44434.68
641.241	44245.53
641.594	44382.03
641.947	44410.27
642.301	44293.89
642.654	44317.62
643.007	44295.02
643.36	44370.05
643.713	44100.45
644.066	44412.31
644.419	44066.33
644.771	43787.24
645.124	43508.83
645.477	43440.58
645.83	43230.19
646.182	42998.33
646.535	43022.06
646.888	43187.71
647.24	42804.89
647.593	42919.69
647.945	43117.88
648.298	42883.99
648.65	42788.17
649.002	42794.04
649.355	42951.55
649.707	42789.75
650.059	43047.82
650.411	43448.04
650.763	43529.17
651.115	43837.18
651.467	43646.45
651.819	43848.03
652.171	43729.84
652.523	43724.87
652.875	43794.02
653.227	43452.11
653.578	43610.29
653.93	43760.8
654.282	43479.9
654.633	43366.01
654.985	43383.63
655.337	43535.27
655.688	43483.29
656.039	43720.8
656.391	43225.45
656.742	43244.2
657.094	43486.91
657.445	43442.61
657.796	43363.97
658.147	43373.92
658.498	43304.09
658.849	43490.07
659.2	43382.73
659.551	43219.34
659.902	43306.57
660.253	43361.71
660.604	43455.27
660.955	43105.9
661.306	43307.03
661.656	43219.8
662.007	43288.95
662.358	43223.41
662.708	43178.67
663.059	43250.98
663.409	42843.31
663.76	43254.37
664.11	43303.41
664.461	43299.12
664.811	43255.05
665.161	43162.85
665.511	43086.24
665.862	43030.65
666.212	43240.13
666.562	43299.12
666.912	43087.82
667.262	43159.23
667.612	43129.18
667.962	43208.5
668.312	43190.19
668.662	43336.63
669.011	43174.83
669.361	43131.44
669.711	43123.75
670.06	43018.45
670.41	43022.06
670.76	42920.37
671.109	43115.62
671.459	42949.97
671.808	42829.98
672.157	42976.64
672.507	42792.24
672.856	42788.39
673.205	42837.21
673.554	42865.45
673.904	42873.36
674.253	43097.09
674.602	42867.26
674.951	42338.69
675.3	42132.59
675.649	42677.66
675.998	42738
676.346	42645.57
676.695	42883.08
677.044	42562.41
677.393	42616.65
677.741	42617.55
678.09	42547.5
678.438	42444
678.787	42514.96
679.135	42460.49
679.484	42156.55
679.832	42549.98
680.181	42167.85
680.529	42325.13
680.877	42193.83
681.225	42183.66
681.573	42448.06
681.922	42052.14
682.27	42039.94
682.618	42052.59
682.966	41911.13
683.314	41989.55
683.661	41843.56
684.009	41700.97
684.357	41638.82
684.705	41603.12
685.053	41673.85
685.4	41493.74
685.748	41498.03
686.095	41333.97
686.443	41172.62
686.79	41190.02
687.138	41339.85
687.485	41171.94
687.832	41118.16
688.18	41047.42
688.527	40896.02
688.874	40944.38
689.221	40840.42
689.568	40900.76
689.915	40780.31
690.262	40672.29
690.609	40582.35
690.956	40475.46
691.303	40450.15
691.65	40173.77
691.997	40129.93
692.344	39979.43
692.69	39883.61
693.037	39916.61
693.383	39690.85
693.73	39748.02
694.077	39400.24
694.423	39475.71
694.769	39512.55
695.116	39279.11
695.462	39278.43
695.808	39252.67
696.155	39396.17
696.501	39032.34
696.847	38906.46
697.193	38738.56
697.539	38878.89
697.885	38553.03
698.231	38461.05
698.577	38369.3
698.923	38422.63
699.269	38266.93
699.614	38149.19
699.96	38092.7
700.306	37966.83
700.651	37920.73
700.997	37850.45
701.342	37724.12
701.688	37747.4
702.033	37596.67
702.379	37553.28
702.724	37287.07
703.069	37553.96
703.415	37168.66
703.76	37192.61
704.105	37134.53
704.45	37122.1
704.795	36789
705.14	36656.35
705.485	36620.87
705.83	36479.41
706.175	36664.94
706.52	36525.73
706.865	36327.77
707.209	36417.04
707.554	36272.41
707.899	36159.87
708.243	36059.76
708.588	35905.41
708.932	35725.53
709.277	35834.23
709.621	35804.85
709.966	35626.1
710.31	35691.86
710.654	35274.24
710.998	35403.28
711.342	35465.2
711.687	35247.35
712.031	35219.33
712.375	35074.7
712.719	35145.66
713.063	34991.54
713.407	34985.66
713.75	34947.24
714.094	34890.98
714.438	34792.9
714.782	34744.99
715.125	34562.4
715.469	34629.74
715.812	34395.17
716.156	34216.42
716.499	34342.06
716.843	34288.73
717.186	34156.08
717.53	34236.76
717.873	34354.27
718.216	34124.67
718.559	33889.65
718.902	33780.04
719.246	33863.66
719.589	33797.44
719.932	33542.99
720.275	33549.77
720.617	33621.63
720.96	33509.54
721.303	33438.13
721.646	33531.46
721.989	33342.99
722.331	33344.35
722.674	33268.65
723.016	33327.4
723.359	33294.41
723.701	33394.52
724.044	33120.63
724.386	32980.52
724.729	33181.64
725.071	32985.26
725.413	32921.54
725.755	32864.81
726.097	32743.91
726.439	32708.43
726.782	32633.41
727.124	32658.94
727.465	32509.57
727.807	32469.34
728.149	32549.57
728.491	32361.55
728.833	32397.71
729.175	32289.01
729.516	32277.71
729.858	32152.06
730.199	32262.8
730.541	32275.45
730.882	32108.68
731.224	32084.27
731.565	31946.42
731.906	31993.42
732.248	31982.8
732.589	31855.12
732.93	31747.56
733.271	31754.56
733.612	31683.6
733.953	31676.6
734.294	31571.97
734.635	31553.44
734.976	31700.78
735.317	31409.71
735.658	31480.67
735.999	31573.1
736.339	31327.68
736.68	31329.49
737.021	31320.9
737.361	31172.2
737.702	31253.33
738.042	31182.82
738.383	31216.72
738.723	31224.4
739.063	31073.45
739.404	31063.51
739.744	30980.12
740.084	30917.97
740.424	30988.03
740.764	30825.32
741.104	30801.59
741.444	30789.16
741.784	30709.62
742.124	30727.69
742.464	30712.55
742.804	30587.59
743.143	30489.06
743.483	30470.3
743.823	30393.92
744.162	30294.94
744.502	30348.95
744.841	30200.25
745.181	30447.25
745.52	30241.61
745.86	30218.1
746.199	30236.41
746.538	30119.35
746.877	30217.88
747.216	30128.16
747.556	30038.45
747.895	30119.8
748.234	29900.82
748.573	29942.4
748.911	29805.23
749.25	29823.76
749.589	29686.59
749.928	29755.74
750.267	29698.12
750.605	29647.5
750.944	29531.79
751.283	29468.74
751.621	29559.14
751.96	29339.93
752.298	29339.93
752.636	29368.63
752.975	29175.42
753.313	29179.94
753.651	29272.14
753.989	28981.53
754.327	28993.28
754.666	28866.27
755.004	28932.49
755.342	28874.64
755.679	28880.06
756.017	28623.57
756.355	28810.46
756.693	28656.56
757.031	28578.15
757.368	28550.8
757.706	28429.45
758.044	28386.29
758.381	28398.94
758.719	28228.55
759.056	28339.74
759.394	28277.82
759.731	28031.27
760.068	27791.05
760.405	27859.07
760.743	27860.88
761.08	27856.58
761.417	27581.56
761.754	27679.19
762.091	27610.94
762.428	27481.9
762.765	27345.86
763.102	27392.87
763.438	27372.08
763.775	27129.15
764.112	27175.02
764.449	27062.03
764.785	27089.6
765.122	26855.03
765.458	26651.64
765.795	26639.67
766.131	26681.93
766.467	26617.97
766.804	26403.74
767.14	26339.79
767.476	26380.24
767.812	26126.01
768.148	26274.48
768.485	26169.17
768.821	25892.57
769.157	25852.79
769.492	25791.55
769.828	25885.56
770.164	25591.33
770.5	25511.33
770.836	25561.73
771.171	25327.84
771.507	25251.23
771.842	25098.92
772.178	25033.16
772.513	25014.4
772.849	25015.3
773.184	24819.38
773.519	24838.58
773.855	24636.78
774.19	24478.37
774.525	24537.12
774.86	24321.08
775.195	24411.25
775.53	24342.55
775.865	24280.41
776.2	24004.03
776.535	23927.42
776.87	23918.16
777.205	23885.61
777.539	23675.45
777.874	23693.3
778.209	23548.9
778.543	23505.74
778.878	23334.22
779.212	23366.08
779.547	23100.32
779.881	23249.02
780.215	22987.79
780.55	23103.04
780.884	22904.17
781.218	22919.76
781.552	22882.25
781.886	22750.05
782.22	22742.59
782.554	22478.65
782.888	22317.29
783.222	22332.89
783.556	22143.97
783.889	22141.03
784.223	22004.99
784.557	21973.12
784.89	22014.03
785.224	21792.56
785.557	21814.48
785.891	21664.2
786.224	21632.11
786.558	21554.38
786.891	21411.33
787.224	21387.6
787.557	21249.07
787.891	21255.4
788.224	21228.74
788.557	21157.55
788.89	21106.93
789.223	21060.6
789.556	20863.1
789.888	20896.99
790.221	20756.21
790.554	20631.92
790.887	20681.18
791.219	20556.66
791.552	20507.62
791.884	20337.46
792.217	20316.67
792.549	20213.17
792.882	20148.54
793.214	20092.49
793.546	20066.73
793.879	19942.67
794.211	19897.92
794.543	19921.2
794.875	19722.56
795.207	19900.41
795.539	19579.29
795.871	19727.98
796.203	19490.7
796.535	19351.27
796.867	19435.56
797.198	19303.14
797.53	19347.88
797.862	19187.89
798.193	19340.2
798.525	19065.85
798.856	19086.87
799.188	18895.01
799.519	18886.65
799.85	18760.78
800.182	18805.3
800.513	18717.62
800.844	18529.15
801.175	18715.13
801.506	18689.82
801.837	18535.02
802.168	18558.52
802.499	18394.23
802.83	18271.75
803.161	18312.2
803.491	18219.78
803.822	18280.79
804.153	18049.61
804.483	18060.46
804.814	17870.41
805.145	17938.43
805.475	17887.35
805.805	17907.24
806.136	17800.35
806.466	17816.85
806.796	17749.28
807.126	17601.94
807.457	17489.85
807.787	17595.38
808.117	17543.63
808.447	17436.52
808.777	17494.37
809.107	17434.03
809.436	17342.96
809.766	17304.32
810.096	17290.08
810.426	17092.35
810.755	17224.32
811.085	17068.39
811.414	17048.51
811.744	16852.13
812.073	16797.67
812.403	16820.72
812.732	16905.23
813.061	16836.31
813.39	16628.4
813.719	16636.31
814.049	16745.46
814.378	16684.22
814.707	16453.95
815.036	16556.54
815.365	16579.82
815.693	16292.82
816.022	16447.17
816.351	16315.19
816.68	16257.11
817.008	16261.86
817.337	16156.55
817.665	16161.52
817.994	16075.88
818.322	16043.11
818.651	16013.51
818.979	16031.36
819.307	15996.78
819.636	15897.8
819.964	15781.42
820.292	15814.41
820.62	15945.48
820.948	15790.23
821.276	15904.13
821.604	15795.43
821.932	15836.56
822.259	15851.25
822.587	15719.73
822.915	15741.65
823.243	15772.61
823.57	15650.8
823.898	15733.74
824.225	15694.87
824.553	15725.15
824.88	15710.01
825.207	15778.71
825.535	15604.02
825.862	15785.94
826.189	15612.84
826.516	15791.82
826.843	15848.54
827.17	15729.22
827.497	15724.47
827.824	15691.03
828.151	15766.51
828.478	15642.67
828.805	15836.34
829.131	15700.97
829.458	15759.95
829.785	15557.7
830.111	15623.46
830.438	15686.28
830.764	15609.67
831.09	15684.7
831.417	15557.92
831.743	15694.64
832.069	15655.77
832.395	15556.34
832.722	15663.23
833.048	15494.65
833.374	15652.39
833.7	15514.31
834.026	15537.36
834.351	15576.23
834.677	15515.44
835.003	15634.08
835.329	15579.84
835.654	15394.31
835.98	15406.29
836.306	15532.16
836.631	15350.25
836.956	15404.48
837.282	15396.8
837.607	15268.67
837.932	15289
838.258	15290.59
838.583	15314.77
838.908	15180.99
839.233	15267.76
839.558	15168.56
839.883	15137.82
840.208	15137.37
840.533	15019.86
840.858	14996.36
841.182	15066.86
841.507	15095.34
841.832	14969.69
842.156	14989.8
842.481	14962.23
842.805	14851.95
843.13	14811.28
843.454	14804.72
843.778	14696.7
844.103	14704.61
844.427	14623.49
844.751	14694.44
845.075	14549.36
845.399	14571.74
845.723	14492.64
846.047	14557.27
846.371	14388.46
846.695	14427.78
847.019	14323.83
847.343	14391.63
847.666	14197.51
847.99	14150.05
848.313	14111.18
848.637	14016.27
848.96	14023.5
849.284	13992.54
849.607	13845.65
849.931	13778.76
850.254	13746.9
850.577	13655.38
850.9	13528.83
851.223	13576.96
851.546	13487.92
851.869	13381.26
852.192	13542.84
852.515	13349.39
852.838	13231.88
853.161	13280.24
853.483	13170.87
853.806	13152.34
854.129	13136.97
854.451	13086.58
854.774	13005
855.096	12914.15
855.419	12962.06
855.741	12893.14
856.063	12899.92
856.385	12788.51
856.708	12784.89
857.03	12689.98
857.352	12790.31
857.674	12690.66
857.996	12643.2
858.318	12522.98
858.64	12539.92
858.961	12523.65
859.283	12412.02
859.605	12340.16
859.926	12475.29
860.248	12410.89
860.57	12345.81
860.891	12341.74
861.212	12264.9
861.534	12225.81
861.855	12245.92
862.176	12271.68
862.498	12175.19
862.819	12211.35
863.14	12096.09
863.461	12211.12
863.782	12094.29
864.103	12135.87
864.424	12061.97
864.745	12027.4
865.065	12016.55
865.386	11986.72
865.707	11918.47
866.027	11910.34
866.348	11970.45
866.668	11948.98
866.989	11914.18
867.309	11778.81
867.63	11820.85
867.95	11781.98
868.27	11723
868.59	11700.17
868.91	11702.66
869.23	11690.91
869.55	11644.35
869.87	11670.34
870.19	11647.29
870.51	11659.04
870.83	11680.96
871.15	11572.04
871.469	11586.05
871.789	11588.31
872.109	11556.22
872.428	11478.71
872.748	11441.42
873.067	11504.7
873.386	11542.66
873.706	11459.73
874.025	11361.65
874.344	11356.9
874.663	11390.12
874.982	11358.49
875.301	11357.58
875.62	11321.2
875.939	11279.39
876.258	11335.21
876.577	11179.96
876.896	11219.28
877.214	11206.63
877.533	11249.56
877.852	11219.73
878.17	11210.24
878.489	11191.26
878.807	11117.36
879.125	11076.23
879.444	11168.21
879.762	11046.4
880.08	11023.35
880.398	10995.11
880.716	11032.62
881.034	11046.18
881.352	11026.07
881.67	10886.86
881.988	10922.57
882.306	10888.44
882.624	10879.86
882.941	10880.08
883.259	10836.47
883.577	10878.05
883.894	10799.63
884.212	10737.49
884.529	10760.76
884.846	10711.05
885.164	10661.78
885.481	10689.8
885.798	10658.39
886.115	10606.87
886.432	10644.16
886.75	10495.01
887.067	10588.56
887.383	10469.7
887.7	10543.14
888.017	10447.78
888.334	10442.8
888.651	10393.09
888.967	10401.22
889.284	10302.24
889.6	10313.09
889.917	10286.65
890.233	10255.92
890.55	10224.28
890.866	10279.87
891.182	10238.29
891.498	10179.76
891.815	10181.34
892.131	10061.8
892.447	10132.53
892.763	10029.26
893.079	9987.22
893.395	9998.3
893.71	9910.39
894.026	9885.98
894.342	9847.79
894.657	9773.44
894.973	9887.34
895.289	9841.24
895.604	9789.94
895.92	9661.13
896.235	9770.96
896.55	9614.13
896.865	9626.1
897.181	9697.51
897.496	9599.44
897.811	9539.1
898.126	9581.58
898.441	9457.97
898.756	9493
899.071	9433.11
899.386	9339.1
899.7	9394.7
900.015	9375.04
900.33	9263.85
900.644	9200.13
900.959	9229.05
901.273	9133.23
901.588	9166.68
901.902	9123.29
902.216	9093.69
902.531	9093.69
902.845	9040.36
903.159	8915.61
903.473	8951.54
903.787	8882.62
904.101	8817.54
904.415	8876.29
904.729	8823.41
905.042	8706.8
905.356	8751.78
905.67	8702.06
905.984	8669.29
906.297	8727.37
906.611	8620.03
906.924	8618.67
907.237	8551.33
907.551	8560.82
907.864	8484.21
908.177	8479.69
908.491	8456.19
908.804	8391.56
909.117	8328.06
909.43	8305.91
909.743	8200.15
910.056	8300.26
910.368	8196.99
910.681	8163.77
910.994	8180.49
911.307	8102.08
911.619	8025.47
911.932	8109.98
912.244	7989.08
912.557	7970.55
912.869	7960.38
913.181	7879.48
913.494	7840.84
913.806	7840.61
914.118	7844.91
914.43	7765.13
914.742	7730.56
915.054	7739.6
915.366	7641.97
915.678	7645.82
915.99	7658.24
916.302	7525.37
916.613	7557.91
916.925	7569.21
917.236	7517.01
917.548	7473.39
917.859	7428.42
918.171	7382.32
918.482	7334.41
918.794	7311.81
919.105	7254.87
919.416	7199.95
919.727	7234.53
920.038	7199.05
920.349	7164.47
920.66	7121.99
920.971	7166.05
921.282	7097.36
921.593	7070.69
921.903	7011.71
922.214	7002.44
922.525	7001.54
922.835	6842.67
923.146	6860.75
923.456	6850.13
923.767	6815.1
924.077	6821.66
924.387	6809.23
924.697	6758.38
925.008	6739.63
925.318	6710.02
925.628	6696.69
925.938	6619.4
926.248	6603.36
926.558	6619.4
926.867	6554.55
927.177	6517.94
927.487	6575.11
927.796	6439.07
928.106	6449.24
928.416	6376.47
928.725	6403.14
929.034	6335.57
929.344	6342.35
929.653	6377.6
929.962	6274.78
930.271	6270.03
930.581	6236.59
930.89	6205.18
931.199	6125.18
931.508	6187.55
931.817	6163.14
932.125	6139.64
932.434	6064.61
932.743	6092.86
933.051	6012.86
933.36	5982.58
933.669	5912.75
933.977	5925.18
934.286	5915.69
934.594	5960.21
934.902	5831.17
935.21	5807.9
935.519	5844.06
935.827	5794.34
936.135	5776.26
936.443	5735.58
936.751	5762.25
937.059	5682.03
937.367	5639.99
937.674	5648.58
937.982	5626.21
938.29	5577.4
938.597	5594.8
938.905	5536.94
939.213	5470.05
939.52	5501.47
939.827	5459.43
940.135	5487.45
940.442	5402.94
940.749	5428.02
941.056	5418.98
941.363	5371.98
941.67	5325.88
941.977	5292.21
942.284	5261.7
942.591	5310.28
942.898	5253.56
943.205	5222.83
943.511	5205.2
943.818	5229.83
944.125	5164.75
944.431	5110.06
944.738	5170.17
945.044	5116.84
945.35	5030.74
945.657	5061.7
945.963	5001.59
946.269	5048.14
946.575	4954.14
946.881	4960.91
947.187	4995.04
947.493	4923.85
947.799	4890.41
948.105	4857.87
948.41	4839.56
948.716	4782.84
949.022	4855.38
949.327	4812.67
949.633	4795.95
949.938	4769.96
950.244	4776.06
950.549	4734.03
950.854	4694.26
951.16	4684.31
951.465	4641.6
951.77	4647.02
952.075	4627.82
952.38	4610.42
952.685	4590.53
952.99	4543.75
953.294	4590.98
953.599	4516.41
953.904	4499.91
954.209	4457.65
954.513	4471.66
954.818	4444.32
955.122	4416.75
955.426	4389.86
955.731	4450.19
956.035	4333.59
956.339	4351.89
956.643	4324.32
956.948	4282.74
957.252	4307.6
957.556	4261.27
957.86	4233.48
958.163	4243.65
958.467	4225.11
958.771	4163.87
959.075	4186.02
959.378	4142.63
959.682	4148.05
959.985	4129.52
960.289	4068.06
960.592	4073.48
960.896	4044.1
961.199	4067.6
961.502	4031.45
961.805	4008.17
962.108	3933.37
962.411	4001.17
962.714	3982.64
963.017	3937.89
963.32	3950.32
963.623	3896.99
963.926	3943.31
964.228	3864.45
964.531	3873.26
964.833	3873.03
965.136	3778.8
965.438	3758.46
965.741	3783.54
966.043	3750.55
966.345	3786.93
966.648	3769.76
966.95	3756.2
967.252	3733.15
967.554	3703.77
967.856	3759.82
968.158	3626.03
968.46	3654.28
968.761	3630.55
969.063	3635.53
969.365	3592.36
969.666	3570.44
969.968	3549.43
970.269	3543.55
970.571	3578.58
970.872	3540.61
971.174	3507.85
971.475	3487.06
971.776	3473.5
972.077	3450.67
972.378	3424.46
972.679	3427.85
972.98	3419.03
973.281	3393.05
973.582	3414.74
973.883	3358.47
974.183	3347.17
974.484	3322.31
974.785	3308.3
975.085	3328.42
975.386	3308.75
975.686	3283.44
975.986	3287.96
976.287	3283.9
976.587	3240.73
976.887	3218.36
977.187	3215.65
977.487	3198.7
977.787	3168.65
978.087	3170.23
978.387	3142.66
978.687	3156.67
978.987	3102.43
979.286	3088.2
979.586	3080.51
979.885	3111.47
980.185	3047.07
980.484	3031.7
980.784	3055.43
981.083	3080.74
981.382	3001.87
981.682	3016.11
981.981	2968.42
982.28	2991.02
982.579	2965.49
982.878	2952.61
983.177	2944.7
983.475	2936.34
983.774	2888.43
984.073	2909.67
984.372	2860.41
984.67	2883.68
984.969	2870.35
985.267	2882.33
985.566	2815.66
985.864	2814.98
986.162	2791.48
986.461	2777.7
986.759	2784.02
987.057	2773.63
987.355	2774.98
987.653	2765.72
987.951	2728.88
988.249	2735.21
988.547	2712.84
988.844	2696.34
989.142	2694.08
989.44	2673.29
989.737	2694.76
990.035	2634.65
990.332	2631.71
990.63	2641.88
990.927	2613.63
991.224	2615.67
991.521	2571.15
991.819	2556.46
992.116	2543.8
992.413	2539.74
992.71	2507.42
993.006	2540.41
993.303	2508.1
993.6	2499.96
993.897	2475.78
994.193	2473.75
994.49	2449.57
994.787	2475.33
995.083	2454.54
995.379	2426.07
995.676	2420.19
995.972	2399.63
996.268	2395.11
996.565	2400.08
996.861	2356.46
997.157	2347.88
997.453	2364.82
997.749	2320.08
998.044	2317.37
998.34	2318.72
998.636	2275.56
998.932	2308.33
999.227	2282.12
999.523	2268.1
999.818	2275.11
1000.114	2242.34
1000.409	2215
1000.704	2201.89
1001	2178.16
1001.295	2192.4
1001.59	2185.39
1001.885	2188.33
1002.18	2162.12
1002.475	2142.46
1002.77	2135.23
1003.065	2118.05
1003.359	2106.75
1003.654	2104.94
1003.949	2106.53
1004.243	2071.95
1004.538	2088.22
1004.832	2060.88
1005.127	2067.88
1005.421	2062.69
1005.715	2036.92
1006.009	2029.01
1006.304	2021.33
1006.598	1986.3
1006.892	1978.39
1007.186	1987.66
1007.48	1946.53
1007.773	1947.43
1008.067	1935.01
1008.361	1924.16
1008.655	1898.17
1008.948	1911.73
1009.242	1899.75
1009.535	1907.44
1009.829	1860.66
1010.122	1872.41
1010.415	1866.76
1010.708	1821.79
1011.001	1838.06
1011.295	1830.38
1011.588	1819.98
1011.881	1811.62
1012.173	1787.44
1012.466	1777.04
1012.759	1761.45
1013.052	1753.99
1013.344	1768.91
1013.637	1767.33
1013.93	1724.62
1014.222	1711.28
1014.514	1699.98
1014.807	1702.24
1015.099	1692.98
1015.391	1695.01
1015.683	1664.05
1015.976	1640.78
1016.268	1647.33
1016.56	1643.49
1016.851	1620.21
1017.143	1622.92
1017.435	1610.27
1017.727	1608.69
1018.018	1589.03
1018.31	1610.95
1018.602	1596.71
1018.893	1579.53
1019.185	1540.67
1019.476	1534.79
1019.767	1549.71
1020.058	1514.9
1020.35	1485.07
1020.641	1494.79
1020.932	1469.26
1021.223	1479.42
1021.514	1485.75
1021.804	1465.64
1022.095	1444.17
1022.386	1425.64
1022.677	1426.09
1022.967	1440.56
1023.258	1415.7
1023.548	1385.19
1023.839	1407.11
1024.129	1398.97
1024.419	1366.21
1024.709	1368.24
1025	1347.45
1025.29	1368.92
1025.58	1342.93
1025.87	1315.59
1026.16	1307.9
1026.449	1305.64
1026.739	1314.23
1027.029	1306.77
1027.319	1284.4
1027.608	1265.64
1027.898	1261.8
1028.187	1258.64
1028.477	1253.22
1028.766	1237.4
1029.055	1248.47
1029.344	1245.53
1029.634	1227.91
1029.923	1228.58
1030.212	1212.99
1030.501	1169.15
1030.79	1194.91
1031.078	1196.72
1031.367	1184.97
1031.656	1156.95
1031.945	1153.78
1032.233	1149.04
1032.522	1131.18
1032.81	1137.74
1033.099	1128.47
1033.387	1116.04
1033.675	1119.89
1033.963	1116.04
1034.251	1101.13
1034.54	1102.71
1034.828	1080.79
1035.116	1089.6
1035.403	1039.66
1035.691	1066.55
1035.979	1033.11
1036.267	1043.05
1036.554	1048.02
1036.842	1019.1
1037.129	1037.85
1037.417	1009.61
1037.704	1026.33
1037.992	991.08
1038.279	998.31
1038.566	981.36
1038.853	981.36
1039.14	981.36
