Data from hue_170_FLMS001491_00019.txt Node
Date: Tue Feb 07 16:48:20 GMT 2017
User: dcchb
Spectrometer: FLMS00149
Trigger mode: 0
Integration Time (sec): 2.000000E-2
Scans to average: 10
Electric dark correction enabled: true
Nonlinearity correction enabled: false
Boxcar width: 0
XAxis mode: Wavelengths
Number of Pixels in Spectrum: 2048
>>>>>Begin Spectral Data<<<<<
341.393	-3.91
341.776	-3.91
342.16	-3.91
342.543	-54.76
342.927	-87.53
343.31	-72.84
343.693	-69.9
344.077	-45.27
344.46	-58.37
344.843	-51.82
345.226	-40.3
345.61	-33.74
345.993	-14.99
346.376	-12.27
346.759	22.75
347.142	11.45
347.525	42.19
347.908	60.49
348.291	82.41
348.674	74.96
349.057	105.24
349.44	117.44
349.823	133.71
350.206	166.7
350.588	190.21
350.971	215.06
351.354	216.42
351.737	210.77
352.119	255.29
352.502	257.55
352.884	268.62
353.267	286.25
353.65	301.62
354.032	283.31
354.414	302.29
354.797	293.93
355.179	320.15
355.562	305.01
355.944	309.53
356.326	314.5
356.709	349.52
357.091	340.71
357.473	339.13
357.855	331.67
358.238	339.58
358.62	340.49
359.002	336.87
359.384	330.09
359.766	336.42
360.148	330.32
360.53	334.16
360.912	342.75
361.294	354.95
361.676	328.51
362.057	300.03
362.439	332.12
362.821	313.14
363.203	334.61
363.584	313.14
363.966	302.97
364.348	314.5
364.729	319.47
365.111	311.33
365.493	323.31
365.874	326.25
366.256	314.95
366.637	323.99
367.019	289.87
367.4	305.01
367.781	310.2
368.163	304.33
368.544	311.79
368.925	321.05
369.306	324.67
369.688	321.28
370.069	305.46
370.45	307.72
370.831	307.27
371.212	313.82
371.593	308.17
371.974	306.14
372.355	322.63
372.736	312.69
373.117	317.89
373.498	309.07
373.879	321.28
374.26	308.4
374.641	320.6
375.021	323.08
375.402	338
375.783	329.19
376.163	291.45
376.544	326.93
376.925	333.71
377.305	300.26
377.686	330.54
378.066	349.52
378.447	333.93
378.827	330.77
379.208	310.2
379.588	324.44
379.968	351.33
380.349	331.67
380.729	337.55
381.109	344.55
381.489	329.64
381.87	345.01
382.25	336.87
382.63	347.26
383.01	323.99
383.39	344.1
383.77	341.62
384.15	343.2
384.53	339.58
384.91	328.96
385.29	339.13
385.67	322.63
386.049	357.66
386.429	361.28
386.809	337.55
387.189	347.49
387.568	347.72
387.948	356.3
388.328	376.42
388.707	351.56
389.087	326.93
389.466	373.93
389.846	379.13
390.225	355.17
390.605	385.23
390.984	344.1
391.363	368.73
391.743	369.41
392.122	356.08
392.501	362.41
392.881	375.29
393.26	353.59
393.639	362.18
394.018	372.35
394.397	375.06
394.776	381.16
395.155	384.78
395.534	398.56
395.913	390.65
396.292	398.56
396.671	388.39
397.05	394.5
397.429	395.17
397.808	402.63
398.186	378.9
398.565	385.46
398.944	406.47
399.323	416.19
399.701	409.18
400.08	392.01
400.458	401.27
400.837	408.28
401.215	423.65
401.594	412.12
401.972	407.15
402.351	401.27
402.729	431.1
403.107	429.07
403.486	410.31
403.864	412.8
404.242	443.99
404.62	433.36
404.999	401.73
405.377	432.01
405.755	410.31
406.133	429.75
406.511	422.07
406.889	434.27
407.267	460.03
407.645	494.38
408.023	461.84
408.401	446.25
408.779	472.91
409.156	475.17
409.534	490.54
409.912	473.82
410.29	491.22
410.667	488.5
411.045	478.33
411.422	476.75
411.8	523.53
412.178	508.84
412.555	543.87
412.933	505.9
413.31	516.53
413.687	524.66
414.065	546.13
414.442	526.24
414.819	547.94
415.197	545.68
415.574	559.24
415.951	558.33
416.328	538.45
416.705	563.08
417.082	568.5
417.46	561.27
417.837	589.97
418.214	587.26
418.591	574.38
418.967	578.9
419.344	592.23
419.721	600.37
420.098	618.22
420.475	622.74
420.852	610.53
421.228	625.22
421.605	633.36
421.982	645.34
422.358	668.16
422.735	674.26
423.111	649.86
423.488	651.89
423.864	658.22
424.241	707.48
424.617	697.09
424.994	691.44
425.37	692.34
425.746	715.39
426.123	712.23
426.499	700.02
426.875	736.86
427.251	760.59
427.627	744.09
428.003	756.97
428.379	796.52
428.756	784.99
429.132	765.11
429.507	789.06
429.883	786.8
430.259	800.59
430.635	813.69
431.011	801.72
431.387	821.38
431.763	820.47
432.138	809.85
432.514	845.56
432.89	886.01
433.265	876.29
433.641	880.36
434.016	919.23
434.392	932.56
434.767	937.98
435.143	940.02
435.518	933.46
435.894	942.28
436.269	970.75
436.644	996.51
437.02	988.38
437.395	983.63
437.77	1015.95
438.145	1032.44
438.52	1028.6
438.895	1035.38
439.271	1007.59
439.646	1068.6
440.021	1068.15
440.395	1098.88
440.77	1084.19
441.145	1081.26
441.52	1130.97
441.895	1149.96
442.27	1126.23
442.645	1157.41
443.019	1169.16
443.394	1158.99
443.769	1169.39
444.143	1168.71
444.518	1206
444.892	1203.51
445.267	1196.06
445.641	1213.91
446.016	1231.76
446.39	1223.4
446.764	1253.68
447.139	1235.38
447.513	1260.69
447.887	1291.65
448.262	1295.26
448.636	1307.24
449.01	1314.25
449.384	1308.14
449.758	1325.32
450.132	1382.04
450.506	1330.52
450.88	1358.99
451.254	1366.67
451.628	1394.69
452.002	1399.67
452.376	1418.88
452.75	1408.93
453.123	1450.74
453.497	1466.56
453.871	1471.53
454.244	1505.88
454.618	1495.03
454.992	1543.62
455.365	1542.71
455.739	1547.46
456.112	1598.76
456.486	1621.13
456.859	1620.45
457.232	1638.53
457.606	1645.08
457.979	1661.13
458.352	1695.93
458.725	1720.11
459.099	1726.89
459.472	1775.48
459.845	1787.23
460.218	1817.96
460.591	1833.1
460.964	1846.66
461.337	1867.68
461.71	1918.97
462.083	1926.66
462.456	1924.62
462.829	1947.67
463.201	1990.84
463.574	2012.98
463.947	2022.7
464.32	2069.71
464.692	2089.82
465.065	2116.48
465.438	2155.13
465.81	2211.62
466.183	2250.04
466.555	2291.17
466.928	2282.13
467.3	2314.9
467.672	2339.53
468.045	2449.58
468.417	2415.23
468.789	2459.98
469.161	2529.13
469.534	2582.69
469.906	2605.74
470.278	2629.69
470.65	2702.91
471.022	2756.02
471.394	2807.31
471.766	2780.87
472.138	2895.45
472.51	2945.39
472.882	2972.73
473.253	3033.07
473.625	3116.46
473.997	3168.21
474.369	3179.05
474.74	3276.45
475.112	3381.31
475.484	3406.39
475.855	3458.14
476.227	3540.63
476.598	3697.69
476.97	3720.06
477.341	3802.54
477.713	3904.01
478.084	3943.78
478.455	4042.31
478.827	4127.5
479.198	4205.47
479.569	4310.1
479.94	4455.41
480.311	4509.19
480.682	4633.03
481.053	4769.97
481.424	4846.36
481.795	4943.08
482.166	5086.8
482.537	5142.62
482.908	5286.8
483.279	5381.93
483.65	5507.36
484.021	5638.43
484.391	5757.52
484.762	5862.37
485.133	5938.76
485.503	6063.5
485.874	6210.84
486.244	6321.35
486.615	6501.91
486.985	6643.82
487.356	6719.98
487.726	6837.26
488.097	6993.19
488.467	7112.28
488.837	7297.36
489.207	7406.06
489.578	7544.82
489.948	7751.36
490.318	7772.15
490.688	7899.83
491.058	8048.98
491.428	8233.61
491.798	8273.38
492.168	8526.94
492.538	8565.35
492.908	8733.26
493.278	8839.47
493.648	8906.14
494.017	9126.24
494.387	9226.35
494.757	9271.32
495.126	9474.71
495.496	9470.64
495.866	9554.25
496.235	9752.22
496.605	9887.8
496.974	9867.92
497.344	10042.15
497.713	10110.17
498.082	10221.13
498.452	10381.35
498.821	10453.44
499.19	10514.91
499.559	10610.95
499.928	10703.38
500.298	10767.1
500.667	10900.21
501.036	10838.97
501.405	11037.83
501.774	10977.04
502.143	11128.22
502.512	11216.58
502.88	11359.86
503.249	11419.06
503.618	11392.17
503.987	11413.64
504.356	11496.35
504.724	11650.92
505.093	11629.68
505.462	11677.36
505.83	11812.73
506.199	11935.43
506.567	12022.21
506.936	11971.59
507.304	12120.51
507.672	12185.15
508.041	12134.07
508.409	12298.14
508.777	12307.18
509.145	12374.97
509.514	12368.19
509.882	12464.01
510.25	12466.27
510.618	12563.67
510.986	12523.22
511.354	12712.82
511.722	12703.78
512.09	12793.49
512.458	12752.81
512.826	12962.3
513.193	12849.54
513.561	12936.09
513.929	13006.82
514.297	13056.31
514.664	13078.68
515.032	13114.16
515.4	13200.94
515.767	13214.95
516.135	13256.08
516.502	13069.19
516.869	13348.05
517.237	13289.75
517.604	13287.49
517.972	13380.59
518.339	13424.44
518.706	13426.47
519.073	13507.6
519.44	13518.67
519.808	13557.76
520.175	13477.77
520.542	13661.49
520.909	13632.79
521.276	13631.89
521.643	13732.9
522.009	13782.62
522.376	13707.14
522.743	13825.1
523.11	13816.06
523.477	13920.24
523.843	13904.65
524.21	14033.23
524.577	14115.72
524.943	14064.19
525.31	14086.34
525.676	14164.3
526.043	14134.02
526.409	14182.83
526.776	14173.57
527.142	14175.15
527.508	14161.36
527.874	14245.88
528.241	14207.24
528.607	14265.54
528.973	14248.37
529.339	14250.18
529.705	14272.77
530.071	14375.6
530.437	14307.8
530.803	14299.89
531.169	14313
531.535	14294.24
531.901	14276.84
532.267	14287.46
532.632	14287.46
532.998	14348.7
533.364	14253.57
533.73	14193.91
534.095	14302.83
534.461	14242.27
534.826	14245.43
535.192	14210.4
535.557	14204.3
535.923	14095.6
536.288	14190.06
536.653	14078.2
537.019	14080.92
537.384	14035.49
537.749	14050.41
538.114	14021.71
538.479	13965.21
538.845	13938.32
539.21	13856.29
539.575	13859.23
539.94	13866.46
540.305	13883.86
540.67	13810.87
541.034	13715.05
541.399	13753.47
541.764	13708.27
542.129	13675.05
542.494	13675.73
542.858	13488.61
543.223	13501.95
543.587	13628.72
543.952	13470.76
544.316	13539.23
544.681	13367.94
545.045	13378.56
545.41	13386.92
545.774	13335.17
546.138	13324.1
546.503	13222.63
546.867	13207.04
547.231	13233.71
547.595	13261.05
547.959	13184.89
548.324	13046.14
548.688	13092.24
549.052	13052.47
549.416	13004.79
549.779	12934.5
550.143	13000.72
550.507	13000.04
550.871	12887.5
551.235	12828.74
551.599	12916.88
551.962	12831.23
552.326	12742.65
552.689	12792.14
553.053	12627.17
553.417	12750.55
553.78	12736.32
554.143	12706.04
554.507	12628.3
554.87	12625.59
555.234	12656.55
555.597	12620.39
555.96	12587.4
556.323	12576.55
556.686	12532.03
557.05	12589.2
557.413	12569.09
557.776	12463.56
558.139	12507.17
558.502	12565.47
558.865	12490.22
559.228	12532.03
559.59	12453.61
559.953	12461.07
560.316	12548.75
560.679	12471.24
561.041	12486.38
561.404	12445.7
561.767	12506.27
562.129	12348.98
562.492	12497.23
562.854	12461.75
563.217	12398.7
563.579	12384.69
563.941	12425.37
564.304	12429.66
564.666	12490
565.028	12510.11
565.39	12576.77
565.753	12497.23
566.115	12463.78
566.477	12550.79
566.839	12515.08
567.201	12580.16
567.563	12569.09
567.925	12621.07
568.287	12523.67
568.648	12605.47
569.01	12698.13
569.372	12618.58
569.734	12554.63
570.095	12657
570.457	12695.41
570.819	12594.4
571.18	12610.9
571.542	12663.78
571.903	12717.79
572.265	12617
572.626	12712.59
572.987	12662.65
573.349	12688.41
573.71	12711.23
574.071	12830.78
574.432	12725.47
574.794	12844.34
575.155	12772.02
575.516	12734.51
575.877	12780.61
576.238	12845.02
576.599	12750.78
576.96	12810.89
577.32	12837.78
577.681	12870.55
578.042	12895.18
578.403	12755.07
578.763	12735.64
579.124	12769.09
579.485	12804.34
579.845	12843.66
580.206	12786.03
580.566	12760.05
580.927	12731.12
581.287	12779.93
581.648	12765.92
582.008	12838.24
582.368	12798.01
582.728	12781.06
583.089	12791.23
583.449	12721.63
583.809	12788.52
584.169	12689.77
584.529	12737.9
584.889	12802.08
585.249	12719.82
585.609	12674.17
585.969	12781.97
586.329	12652.93
586.688	12711.46
587.048	12628.98
587.408	12710.33
587.768	12614.51
588.127	12591.69
588.487	12607.28
588.846	12657.45
589.206	12555.53
589.565	12578.36
589.925	12600.95
590.284	12579.26
590.643	12577.23
591.003	12552.14
591.362	12605.47
591.721	12514.4
592.08	12609.32
592.44	12591.91
592.799	12583.33
593.158	12462.88
593.517	12492.48
593.876	12526.15
594.235	12428.3
594.593	12475.08
594.952	12511.24
595.311	12475.76
595.67	12476.44
596.029	12562.76
596.387	12539.03
596.746	12497.45
597.104	12454.07
597.463	12332.03
597.822	12502.43
598.18	12436.66
598.538	12394.63
598.897	12525.93
599.255	12337.46
599.613	12568.86
599.972	12395.54
600.33	12429.66
600.688	12391.02
601.046	12424.24
601.404	12439.6
601.762	12490.45
602.12	12458.81
602.478	12420.85
602.836	12440.96
603.194	12416.55
603.552	12464.01
603.91	12317.57
604.268	12425.59
604.625	12407.74
604.983	12492.71
605.341	12337.01
605.698	12470.79
606.056	12430.79
606.413	12395.99
606.771	12459.04
607.128	12469.21
607.485	12339.04
607.843	12356.21
608.2	12471.24
608.557	12513.05
608.914	12390.11
609.272	12528.19
609.629	12586.94
609.986	12623.78
610.343	12524.8
610.7	12655.42
611.057	12516.66
611.414	12566.38
611.771	12489.77
612.127	12593.72
612.484	12611.58
612.841	12600.73
613.198	12527.74
613.554	12502.65
613.911	12612.25
614.267	12619.71
614.624	12628.98
614.98	12638.92
615.337	12679.6
615.693	12640.95
616.05	12625.59
616.406	12684.12
616.762	12657
617.118	12693.61
617.475	12583.55
617.831	12706.26
618.187	12752.14
618.543	12730.89
618.899	12812.02
619.255	12773.6
619.611	12672.14
619.967	12818.58
620.323	12754.17
620.678	12697.45
621.034	12751.01
621.39	12731.12
621.746	12682.53
622.101	12775.64
622.457	12750.33
622.812	12805.24
623.168	12772.93
623.523	12776.54
623.879	12824.9
624.234	12708.97
624.589	12747.62
624.945	12822.64
625.3	12742.65
625.655	12751.01
626.01	12779.25
626.365	12782.19
626.72	12742.87
627.075	12756.2
627.43	12826.48
627.785	12819.48
628.14	12749.2
628.495	12818.8
628.85	12757.56
629.205	12719.37
629.559	12795.75
629.914	12667.17
630.269	12722.31
630.623	12656.32
630.978	12560.28
631.332	12638.92
631.687	12647.28
632.041	12634.17
632.396	12689.54
632.75	12587.85
633.104	12607.96
633.459	12517.11
633.813	12509.2
634.167	12598.47
634.521	12541.75
634.875	12577.45
635.229	12497.45
635.583	12406.83
635.937	12446.16
636.291	12512.37
636.645	12464.46
636.999	12416.55
637.352	12489.77
637.706	12364.12
638.06	12363.9
638.413	12414.52
638.767	12370.23
639.121	12330.9
639.474	12325.26
639.828	12363.45
640.181	12333.39
640.534	12367.51
640.888	12244.81
641.241	12208.42
641.594	12261.08
641.947	12306.72
642.301	12248.19
642.654	12224.47
643.007	12215.65
643.36	12175.43
643.713	12274.41
644.066	12257.01
644.419	12198.03
644.771	12142.89
645.124	11986.28
645.477	11933.85
645.83	11900.18
646.182	11859.05
646.535	11794.87
646.888	11800.52
647.24	11769.11
647.593	11881.42
647.945	11754.65
648.298	11742.9
648.65	11755.1
649.002	11652.5
649.355	11778.6
649.707	11727.76
650.059	11814.99
650.411	11973.63
650.763	11977.92
651.115	12048.2
651.467	12096.79
651.819	12016.34
652.171	12054.08
652.523	11981.31
652.875	11996.68
653.227	12010.46
653.578	12026.51
653.93	12008.65
654.282	12005.49
654.633	12051.59
654.985	12041.42
655.337	12033.51
655.688	11992.38
656.039	12086.17
656.391	12018.14
656.742	11965.49
657.094	12031.48
657.445	12061.99
657.796	12016.79
658.147	12046.62
658.498	12044.36
658.849	12115.99
659.2	12095.43
659.551	12052.72
659.902	12065.83
660.253	12015.43
660.604	12128.42
660.955	12000.07
661.306	12105.6
661.656	11990.57
662.007	12188.76
662.358	12152.83
662.708	12142.89
663.059	12115.99
663.409	12008.88
663.76	12166.16
664.11	12116.45
664.461	12118.93
664.811	12065.83
665.161	12139.05
665.511	12127.97
665.862	12131.14
666.212	12064.02
666.562	12202.55
666.912	12091.59
667.262	12141.53
667.612	12116.45
667.962	12231.7
668.312	12067.41
668.662	12208.87
669.011	12137.46
669.361	12056.34
669.711	12074.19
670.06	12120.29
670.41	12084.81
670.76	12035.55
671.109	12108.99
671.459	12107.18
671.808	12040.06
672.157	12079.16
672.507	11992.61
672.856	12005.72
673.205	12017.01
673.554	12143.34
673.904	11991.25
674.253	12110.12
674.602	12068.31
674.951	11914.19
675.3	11798.49
675.649	11999.39
675.998	11978.15
676.346	11966.62
676.695	11996.9
677.044	11886.17
677.393	11909.45
677.741	11880.07
678.09	11923.01
678.438	11900.63
678.787	11823.57
679.135	11831.93
679.484	11740.86
679.832	11799.17
680.181	11786.74
680.529	11756.23
680.877	11731.6
681.225	11658.83
681.573	11744.93
681.922	11669.45
682.27	11644.59
682.618	11626.74
682.966	11633.07
683.314	11614.99
683.661	11539.51
684.009	11497.71
684.357	11458.16
684.705	11464.03
685.053	11450.93
685.4	11407.54
685.748	11393.98
686.095	11333.42
686.443	11327.32
686.79	11295.9
687.138	11331.16
687.485	11349.46
687.832	11298.84
688.18	11338.16
688.527	11175.68
688.874	11188.11
689.221	11185.4
689.568	11173.87
689.915	11034.67
690.262	11036.02
690.609	11098.85
690.956	11024.27
691.303	10932.3
691.65	10957.38
691.997	10941.34
692.344	10822.92
692.69	10848.46
693.037	10908.34
693.383	10685.07
693.73	10779.53
694.077	10703.38
694.423	10605.07
694.769	10623.15
695.116	10629.93
695.462	10530.73
695.808	10547
696.155	10492.76
696.501	10399.88
696.847	10459.99
697.193	10320.34
697.539	10392.88
697.885	10273.11
698.231	10287.34
698.577	10271.52
698.923	10236.5
699.269	10216.38
699.614	10144.3
699.96	10100.23
700.306	10051.87
700.651	10028.82
700.997	10011.19
701.342	9922.83
701.688	9936.39
702.033	9833.57
702.379	9834.47
702.724	9822.5
703.069	9820.24
703.415	9719
703.76	9732.55
704.105	9785.43
704.45	9705.89
704.795	9637.64
705.14	9549.06
705.485	9525.1
705.83	9542.96
706.175	9590.19
706.52	9509.96
706.865	9458.89
707.209	9436.52
707.554	9361.49
707.899	9357.65
708.243	9316.75
708.588	9239.23
708.932	9265.67
709.277	9186.13
709.621	9236.97
709.966	9167.15
710.31	9153.36
710.654	9120.59
710.998	9133.25
711.342	9098.22
711.687	9118.11
712.031	9117.66
712.375	9039.92
712.719	9007.38
713.063	9001.5
713.407	9043.31
713.75	8973.93
714.094	8939.81
714.438	8949.07
714.782	8903.42
715.125	8929.41
715.469	8863.65
715.812	8860.49
716.156	8817.78
716.499	8787.95
716.843	8845.57
717.186	8757.89
717.53	8818.91
717.873	8795.63
718.216	8815.97
718.559	8724.45
718.902	8638.12
719.246	8704.79
719.589	8764.44
719.932	8710.43
720.275	8689.19
720.617	8642.19
720.96	8662.3
721.303	8665.69
721.646	8625.24
721.989	8580.04
722.331	8620.49
722.674	8623.66
723.016	8647.61
723.359	8587.05
723.701	8561.29
724.044	8521.74
724.386	8460.95
724.729	8576.43
725.071	8559.7
725.413	8507.28
725.755	8514.96
726.097	8479.03
726.439	8429.54
726.782	8486.71
727.124	8484.23
727.465	8483.55
727.807	8403.32
728.149	8448.97
728.491	8467.96
728.833	8461.85
729.175	8457.11
729.516	8421.63
729.858	8435.64
730.199	8435.87
730.541	8436.77
730.882	8389.99
731.224	8390.9
731.565	8361.74
731.906	8394.51
732.248	8412.36
732.589	8306.83
732.93	8377.56
733.271	8330.78
733.612	8384.34
733.953	8424.34
734.294	8349.09
734.635	8381.63
734.976	8389.31
735.317	8355.42
735.658	8378.69
735.999	8381.63
736.339	8340.5
736.68	8476.32
737.021	8448.97
737.361	8427.5
737.702	8450.55
738.042	8471.12
738.383	8422.08
738.723	8475.19
739.063	8480.38
739.404	8444.68
739.744	8562.42
740.084	8524.45
740.424	8455.3
740.764	8497.79
741.104	8556.54
741.444	8518.12
741.784	8533.04
742.124	8570.33
742.464	8553.38
742.804	8589.31
743.143	8586.82
743.483	8691
743.823	8576.2
744.162	8704.11
744.502	8682.41
744.841	8678.12
745.181	8810.32
745.52	8712.24
745.86	8819.36
746.199	8823.2
746.538	8901.39
746.877	8928.73
747.216	8990.65
747.556	8988.62
747.895	9078.11
748.234	9072.01
748.573	9161.04
748.911	9226.13
749.25	9302.51
749.589	9342.06
749.928	9407.82
750.267	9446.46
750.605	9546.35
750.944	9616.85
751.283	9629.28
751.621	9739.79
751.96	9806
752.298	9861.37
752.636	9998.54
752.975	10046.9
753.313	10184.52
753.651	10300.68
753.989	10372.99
754.327	10513.78
754.666	10556.04
755.004	10722.59
755.342	10849.81
755.679	11028.57
756.017	11104.72
756.355	11266.98
756.693	11414.09
757.031	11489.34
757.368	11696.12
757.706	11831.48
758.044	11985.38
758.381	12085.04
758.719	12282.09
759.056	12559.37
759.394	12608.86
759.731	12666.26
760.068	12996.2
760.405	13007.27
760.743	13204.33
761.08	13410.65
761.417	13586.46
761.754	13792.11
762.091	13933.35
762.428	14007.7
762.765	14075.49
763.102	14397.29
763.438	14451.98
763.775	14696.27
764.112	14842.7
764.449	14991.85
764.785	15110.04
765.122	15297.61
765.458	15388.45
765.795	15543.02
766.131	15635
766.467	15855.56
766.804	16027.76
767.14	16182.33
767.476	16275.66
767.812	16339.84
768.148	16559.95
768.485	16635.2
768.821	16768.3
769.157	16921.52
769.492	17045.36
769.828	17203.32
770.164	17264.79
770.5	17379.81
770.836	17418.91
771.171	17650.54
771.507	17666.36
771.842	17637.88
772.178	17833.13
772.513	17894.15
772.849	17972.34
773.184	18065.22
773.519	18175.27
773.855	18131.43
774.19	18230.86
774.525	18348.6
774.86	18412.1
775.195	18440.12
775.53	18514.7
775.865	18534.58
776.2	18573.23
776.535	18502.27
776.87	18645.77
777.205	18656.16
777.539	18626.33
777.874	18739.55
778.209	18749.49
778.543	18755.59
778.878	18749.04
779.212	18884.86
779.547	18843.95
779.881	19022.03
780.215	18805.54
780.55	19065.19
780.884	18941.58
781.218	19040.11
781.552	19071.52
781.886	19046.21
782.22	18884.18
782.554	18961.46
782.888	18814.35
783.222	18802.37
783.556	18747.46
783.889	18896.61
784.223	18724.18
784.557	18757.4
784.89	18804.86
785.224	18694.58
785.557	18794.46
785.891	18766.67
786.224	18673.11
786.558	18731.19
786.891	18585.2
787.224	18673.11
787.557	18533.23
787.891	18614.58
788.224	18582.27
788.557	18716.05
788.89	18523.51
789.223	18612.77
789.556	18523.06
789.888	18478.09
790.221	18457.98
790.554	18331.42
790.887	18422.95
791.219	18404.19
791.552	18336.85
791.884	18280.35
792.217	18334.14
792.549	18163.97
792.882	18184.99
793.214	18157.64
793.546	18222.28
793.879	18083.3
794.211	17956.52
794.543	18031.77
794.875	17973.92
795.207	18029.96
795.539	17899.35
795.871	17934.83
796.203	17781.16
796.535	17761.72
796.867	17819.35
797.198	17707.94
797.53	17660.93
797.862	17599.69
798.193	17655.28
798.525	17511.56
798.856	17559.47
799.188	17376.2
799.519	17371
799.85	17229.76
800.182	17308.63
800.513	17329.19
800.844	17204.67
801.175	17282.41
801.506	17328.51
801.837	17233.37
802.168	17163.09
802.499	17068.41
802.83	17024.79
803.161	17048.52
803.491	16959.94
803.822	17068.86
804.153	16889.43
804.483	16825.93
804.814	16763.1
805.145	16697.12
805.475	16656.67
805.805	16668.87
806.136	16617.57
806.466	16642.2
806.796	16684.46
807.126	16543.22
807.457	16521.98
807.787	16471.36
808.117	16410.8
808.447	16300.74
808.777	16357.92
809.107	16254.42
809.436	16188.2
809.766	16234.98
810.096	16208.32
810.426	16188.88
810.755	16213.97
811.085	16187.53
811.414	16148.88
811.744	15914.54
812.073	15959.74
812.403	15978.27
812.732	15861.66
813.061	15952.96
813.39	15801.32
813.719	15836.58
814.049	15994.99
814.378	15831.38
814.707	15734.43
815.036	15809.23
815.365	15677.03
815.693	15632.51
816.022	15547.77
816.351	15564.04
816.68	15380.99
817.008	15532.85
817.337	15408.56
817.665	15367.21
817.994	15383.48
818.322	15401.33
818.651	15238.4
818.979	15196.37
819.307	15312.75
819.636	15322.92
819.964	15142.36
820.292	15192.98
820.62	15227.55
820.948	15129.02
821.276	15157.27
821.604	15207.21
821.932	15249.02
822.259	15171.28
822.587	15176.48
822.915	15138.51
823.243	15230.72
823.57	15102.58
823.898	15159.76
824.225	15095.35
824.553	15114.79
824.88	15116.82
825.207	15213.99
825.535	15166.31
825.862	15163.15
826.189	15225.07
826.516	15160.89
826.843	15197.5
827.17	15223.94
827.497	15169.47
827.824	15201.56
828.151	15195.46
828.478	15152.75
828.805	15313.2
829.131	15163.82
829.458	15212.86
829.785	15089.02
830.111	15180.55
830.438	15238.4
830.764	15178.29
831.09	15311.84
831.417	15152.07
831.743	15247.21
832.069	15194.33
832.395	15100.1
832.722	15112.53
833.048	15128.57
833.374	15010.61
833.7	15082.24
834.026	15077.27
834.351	15092.41
834.677	15086.31
835.003	15033.88
835.329	15153.2
835.654	15050.61
835.98	14962.47
836.306	15061.91
836.631	14985.52
836.956	14987.33
837.282	14995.02
837.607	14921.57
837.932	14913.44
838.258	14825.3
838.583	14832.76
838.908	14791.4
839.233	14851.74
839.558	14886.54
839.883	14634.35
840.208	14783.72
840.533	14745.08
840.858	14740.56
841.182	14719.99
841.507	14621.69
841.832	14562.94
842.156	14489.27
842.481	14517.97
842.805	14444.97
843.13	14519.1
843.454	14430.51
843.778	14419.21
844.103	14360
844.427	14388.93
844.751	14344.41
845.075	14217.41
845.399	14202.95
845.723	14130.63
846.047	14169.27
846.371	14055.15
846.695	13992.56
847.019	14007.7
847.343	13889.73
847.666	13800.47
847.99	13859.68
848.313	13797.31
848.637	13636.86
848.96	13658.1
849.284	13590.98
849.607	13547.6
849.931	13462.4
850.254	13463.3
850.577	13406.13
850.9	13264.89
851.223	13266.7
851.546	13190.32
851.869	13077.1
852.192	13157.1
852.515	13117.32
852.838	13004.11
853.161	13007.5
853.483	12965.69
853.806	12860.61
854.129	12852.47
854.451	12790.78
854.774	12728.86
855.096	12778.8
855.419	12709.2
855.741	12672.82
856.063	12576.1
856.385	12532.93
856.708	12554.18
857.03	12481.18
857.352	12448.87
857.674	12432.82
857.996	12446.83
858.318	12269.66
858.64	12347.18
858.961	12195.77
859.283	12263.56
859.605	12226.95
859.926	12216.11
860.248	12172.49
860.57	12168.2
860.891	12080.06
861.212	12055.88
861.534	11948.32
861.855	11935.43
862.176	11949.22
862.498	12062.44
862.819	11973.63
863.14	11904.25
863.461	11812.27
863.782	11886.62
864.103	11843.46
864.424	11843.01
864.745	11856.34
865.065	11666.74
865.386	11695.89
865.707	11685.05
866.027	11693.18
866.348	11673.75
866.668	11640.08
866.989	11539.29
867.309	11475.79
867.63	11551.49
867.95	11520.76
868.27	11489.57
868.59	11542.22
868.91	11486.41
869.23	11444.37
869.55	11401.66
869.87	11504.26
870.19	11455.45
870.51	11410.25
870.83	11431.04
871.15	11374.09
871.469	11467.42
871.789	11347.2
872.109	11375.22
872.428	11309.46
872.748	11280.31
873.067	11324.38
873.386	11309.24
873.706	11243.48
874.025	11235.79
874.344	11167.32
874.663	11185.4
874.982	11169.58
875.301	11133.65
875.62	11190.6
875.939	11056.59
876.258	11129.81
876.577	10996.02
876.896	11022.92
877.214	11020.66
877.533	10999.19
877.852	11059.75
878.17	10975.23
878.489	11036.02
878.807	10968.23
879.125	10956.93
879.444	10936.59
879.762	10817.5
880.08	10972.75
880.398	10832.19
880.716	10839.42
881.034	10786.76
881.352	10801.68
881.67	10802.36
881.988	10770.27
882.306	10702.92
882.624	10718.29
882.941	10615.47
883.259	10632.87
883.577	10613.89
883.894	10638.29
884.212	10651.4
884.529	10587
884.846	10531.18
885.164	10562.82
885.481	10498.18
885.798	10514
886.115	10377.51
886.432	10402.59
886.75	10373.89
887.067	10482.14
887.383	10339.32
887.7	10363.95
888.017	10259.55
888.334	10337.28
888.651	10294.12
888.967	10242.82
889.284	10170.96
889.6	10171.64
889.917	10049.83
890.233	10146.78
890.55	9993.56
890.866	10078.31
891.182	9965.54
891.498	10018.2
891.815	9900.01
892.131	9951.98
892.447	9878.99
892.763	9880.12
893.079	9797.86
893.395	9749.28
893.71	9737.75
894.026	9711.31
894.342	9746.79
894.657	9608.94
894.973	9619.11
895.289	9616.4
895.604	9590.64
895.92	9473.35
896.235	9462.05
896.55	9410.98
896.865	9496.85
897.181	9442.84
897.496	9459.34
897.811	9307.93
898.126	9351.32
898.441	9290.98
898.756	9210.99
899.071	9161.5
899.386	9214.38
899.7	9074.72
900.015	9094.15
900.33	8981.61
900.644	9062.52
900.959	9048.73
901.273	8968.73
901.588	8921.05
901.902	8937.32
902.216	8816.87
902.531	8833.14
902.845	8851.67
903.159	8691.23
903.473	8783.88
903.787	8694.16
904.101	8717.44
904.415	8643.54
904.729	8639.93
905.042	8584.11
905.356	8549.31
905.67	8539.37
905.984	8533.72
906.297	8465.7
906.611	8389.77
906.924	8428.86
907.237	8375.08
907.551	8326.72
907.864	8312.48
908.177	8340.05
908.491	8262.09
908.804	8231.58
909.117	8172.6
909.43	8164.23
909.743	8045.37
910.056	8043.79
910.368	8000.4
910.681	7956.78
910.994	7975.09
911.307	7920.63
911.619	7909.1
911.932	7888.76
912.244	7796.33
912.557	7813.06
912.869	7712.72
913.181	7713.85
913.494	7726.05
913.806	7651.93
914.118	7653.51
914.43	7580.75
914.742	7545.49
915.054	7522.44
915.366	7572.39
915.678	7482.44
915.99	7449.68
916.302	7367.42
916.613	7381.66
916.925	7346.85
917.236	7333.52
917.548	7305.27
917.859	7313.41
918.171	7216.46
918.482	7206.52
918.794	7167.42
919.105	7177.37
919.416	7122
919.727	7106.64
920.038	7059.18
920.349	7053.3
920.66	7013.08
920.971	6997.71
921.282	6967.88
921.593	6896.47
921.903	6854.21
922.214	6868.45
922.525	6825.96
922.835	6798.17
923.146	6800.2
923.456	6729.47
923.767	6681.34
924.077	6719.07
924.387	6689.25
924.697	6616.48
925.008	6601.11
925.318	6581
925.628	6574.45
925.938	6548.91
926.248	6491.28
926.558	6460.32
926.867	6449.03
927.177	6426.65
927.487	6428.46
927.796	6345.3
928.106	6367.45
928.416	6328.58
928.725	6287.67
929.034	6271.18
929.344	6256.26
929.653	6266.21
929.962	6165.42
930.271	6166.09
930.581	6088.81
930.89	6142.14
931.199	6050.17
931.508	6087
931.817	5994.57
932.125	6027.79
932.434	6031.64
932.743	5940.56
933.051	5968.59
933.36	5919.32
933.669	5855.37
933.977	5831.87
934.286	5826.22
934.594	5810.85
934.902	5752.77
935.21	5774.01
935.519	5778.76
935.827	5770.85
936.135	5648.82
936.443	5695.6
936.751	5633
937.059	5612.44
937.367	5581.7
937.674	5594.81
937.982	5578.54
938.29	5519.11
938.597	5529.73
938.905	5437.98
939.213	5404.53
939.52	5444.76
939.827	5451.31
940.135	5400.92
940.442	5344.42
940.749	5327.7
941.056	5321.15
941.363	5247.7
941.67	5282.73
941.977	5225.1
942.284	5237.53
942.591	5196.85
942.898	5145.78
943.205	5199.11
943.511	5141.26
943.818	5165.9
944.125	5084.77
944.431	5118.44
944.738	5065.78
945.044	4998.67
945.35	5030.53
945.657	4935.62
945.963	4957.99
946.269	4953.7
946.575	4982.4
946.881	4846.58
947.187	4895.39
947.493	4891.55
947.799	4820.59
948.105	4842.97
948.41	4823.76
948.716	4834.15
949.022	4756.41
949.327	4755.28
949.633	4698.11
949.938	4709.64
950.244	4689.75
950.549	4651.56
950.854	4616.08
951.16	4591
951.465	4616.31
951.77	4608.62
952.075	4588.74
952.38	4562.3
952.685	4535.18
952.99	4511.22
953.294	4449.53
953.599	4449.98
953.904	4471.9
954.209	4414.5
954.513	4414.28
954.818	4367.95
955.122	4389.64
955.426	4382.86
955.731	4386.25
956.035	4313.49
956.339	4307.84
956.643	4257.44
956.948	4234.17
957.252	4247.73
957.556	4220.61
957.86	4201.4
958.163	4166.83
958.467	4168.86
958.771	4162.76
959.075	4137.67
959.378	4106.94
959.682	4062.65
959.985	4077.11
960.289	4071.23
960.592	4038.47
960.896	4042.76
961.199	4023.55
961.502	4002.31
961.805	3995.53
962.108	3943.78
962.411	3935.19
962.714	3913.5
963.017	3899.71
963.32	3920.96
963.623	3880.05
963.926	3881.64
964.228	3818.13
964.531	3800.96
964.833	3814.29
965.136	3782.88
965.438	3751.24
965.741	3735.88
966.043	3717.12
966.345	3707.85
966.648	3689.55
966.95	3710.34
967.252	3659.95
967.554	3627.63
967.856	3589.89
968.158	3563
968.46	3614.75
968.761	3593.51
969.063	3581.76
969.365	3564.58
969.666	3525.26
969.968	3490.46
970.269	3512.83
970.571	3493.4
970.872	3472.83
971.174	3475.77
971.475	3426.96
971.776	3442.32
972.077	3408.88
972.378	3469.67
972.679	3368.88
972.98	3376.34
973.281	3379.28
973.582	3357.36
973.883	3355.1
974.183	3331.59
974.484	3312.84
974.785	3288.43
975.085	3293.4
975.386	3287.75
975.686	3264.02
975.986	3224.93
976.287	3271.03
976.587	3187.87
976.887	3221.99
977.187	3198.94
977.487	3197.36
977.787	3142.22
978.087	3149.9
978.387	3127.53
978.687	3125.04
978.987	3090.92
979.286	3049.34
979.586	3057.7
979.885	3064.93
980.185	3038.49
980.484	3022.45
980.784	2995.56
981.083	3010.47
981.382	3006.86
981.682	2955.33
981.981	2917.37
982.28	2939.29
982.579	2915.11
982.878	2941.55
983.177	2894.77
983.475	2891.6
983.774	2893.41
984.073	2821.78
984.372	2886.18
984.67	2831.49
984.969	2803.92
985.267	2788.78
985.566	2822
985.864	2792.4
986.162	2784.71
986.461	2745.62
986.759	2781.55
987.057	2696.58
987.355	2690.93
987.653	2723.25
987.951	2720.31
988.249	2691.16
988.547	2702.46
988.844	2625.4
989.142	2662.23
989.44	2625.85
989.737	2646.19
990.035	2604.83
990.332	2605.51
990.63	2616.36
990.927	2566.42
991.224	2554.21
991.521	2534.55
991.819	2565.29
992.116	2535.23
992.413	2554.89
992.71	2531.16
993.006	2512.63
993.303	2504.95
993.6	2466.08
993.897	2434.89
994.193	2466.98
994.49	2454.55
994.787	2429.7
995.083	2405.52
995.379	2384.27
995.676	2389.7
995.972	2422.46
996.268	2372.07
996.565	2349.02
996.861	2310.15
997.157	2372.52
997.453	2339.08
997.749	2320.32
998.044	2280.32
998.34	2306.76
998.636	2299.3
998.932	2255.46
999.227	2260.66
999.523	2209.36
999.818	2238.97
1000.114	2170.95
1000.409	2198.06
1000.704	2178.63
1001	2189.7
1001.295	2171.17
1001.59	2164.17
1001.885	2150.38
1002.18	2148.57
1002.475	2105.18
1002.77	2112.64
1003.065	2058.41
1003.359	2083.49
1003.654	2066.54
1003.949	2057.05
1004.243	2053.66
1004.538	2027.67
1004.832	2048.69
1005.127	2020.22
1005.421	2008.24
1005.715	2018.63
1006.009	1979.31
1006.304	2001.23
1006.598	1971.85
1006.892	1952.19
1007.186	1940.22
1007.48	1936.15
1007.773	1915.81
1008.067	1893.89
1008.361	1909.26
1008.655	1921.01
1008.948	1898.64
1009.242	1862.93
1009.535	1851.18
1009.829	1809.83
1010.122	1843.72
1010.415	1861.35
1010.708	1841.01
1011.001	1764.18
1011.295	1791.97
1011.588	1783.61
1011.881	1761.01
1012.173	1751.75
1012.466	1770.28
1012.759	1724.63
1013.052	1745.42
1013.344	1704.97
1013.637	1700.45
1013.93	1709.04
1014.222	1704.74
1014.514	1654.12
1014.807	1679.43
1015.099	1679.89
1015.391	1664.07
1015.683	1667.68
1015.976	1622.49
1016.268	1617.06
1016.56	1636.5
1016.851	1602.6
1017.143	1583.84
1017.435	1587.01
1017.727	1561.92
1018.018	1536.39
1018.31	1534.58
1018.602	1544.07
1018.893	1535.71
1019.185	1532.54
1019.476	1537.74
1019.767	1509.95
1020.058	1485.09
1020.35	1472.89
1020.641	1452.09
1020.932	1488.7
1021.223	1429.04
1021.514	1445.09
1021.804	1403.51
1022.095	1400.34
1022.386	1419.33
1022.677	1420.68
1022.967	1391.31
1023.258	1384.53
1023.548	1385.2
1023.839	1350.4
1024.129	1398.99
1024.419	1349.27
1024.709	1352.89
1025	1338.65
1025.29	1328.71
1025.58	1330.06
1025.87	1318.99
1026.16	1294.13
1026.449	1307.24
1026.739	1262.27
1027.029	1268.82
1027.319	1259.33
1027.608	1278.31
1027.898	1247.35
1028.187	1267.24
1028.477	1227.02
1028.766	1213.23
1029.055	1215.94
1029.344	1200.58
1029.634	1209.16
1029.923	1194.93
1030.212	1205.32
1030.501	1188.82
1030.79	1160.12
1031.078	1172.78
1031.367	1149.28
1031.656	1123.52
1031.945	1124.87
1032.233	1121.26
1032.522	1109.5
1032.81	1126.23
1033.099	1098.66
1033.387	1081.26
1033.675	1089.39
1033.963	1081.03
1034.251	1082.84
1034.54	1099.11
1034.828	1048.94
1035.116	1077.87
1035.403	1059.79
1035.691	1025.89
1035.979	1043.74
1036.267	1027.25
1036.554	1011.43
1036.842	1031.99
1037.129	1013.91
1037.417	990.86
1037.704	1006
1037.992	1008.94
1038.279	989.96
1038.566	970.98
1038.853	970.98
1039.14	970.98
