Data from hue_330_FLMS001491_6.txt Node
Date: Mon Feb 06 15:44:48 GMT 2017
User: dcchb
Spectrometer: FLMS00149
Trigger mode: 0
Integration Time (sec): 2.000000E-2
Scans to average: 10
Electric dark correction enabled: true
Nonlinearity correction enabled: false
Boxcar width: 0
XAxis mode: Wavelengths
Number of Pixels in Spectrum: 2048
>>>>>Begin Spectral Data<<<<<
341.393	-16.74
341.776	-16.74
342.16	-16.74
342.543	-72.55
342.927	-69.62
343.31	-57.41
343.693	-69.62
344.077	-51.54
344.46	-52.44
344.843	-55.61
345.226	-45.89
345.61	-38.88
345.993	-19.45
346.376	-27.81
346.759	0.66
347.142	43.37
347.525	37.5
347.908	51.74
348.291	67.1
348.674	98.97
349.057	119.3
349.44	110.94
349.823	132.64
350.206	149.81
350.588	205.18
350.971	224.61
351.354	218.96
351.737	240.66
352.119	252.63
352.502	258.74
352.884	277.72
353.267	274.1
353.65	286.53
354.032	279.98
354.414	303.93
354.797	312.97
355.179	341.22
355.562	328.34
355.944	330.82
356.326	333.31
356.709	327.66
357.091	355.46
357.473	353.87
357.855	337.83
358.238	325.85
358.62	362.91
359.002	312.29
359.384	334.89
359.766	343.25
360.148	327.21
360.53	335.57
360.912	319.3
361.294	332.41
361.676	329.92
362.057	348
362.439	327.43
362.821	322.92
363.203	331.73
363.584	324.05
363.966	318.4
364.348	331.28
364.729	312.29
365.111	314.1
365.493	325.85
365.874	330.37
366.256	320.88
366.637	328.11
367.019	308.45
367.4	335.34
367.781	323.82
368.163	320.43
368.544	326.53
368.925	303.25
369.306	337.83
369.688	305.51
370.069	325.4
370.45	299.64
370.831	306.64
371.212	323.59
371.593	329.24
371.974	306.87
372.355	315.68
372.736	322.46
373.117	314.33
373.498	322.69
373.879	324.27
374.26	307.55
374.641	298.51
375.021	315.23
375.402	327.21
375.783	321.56
376.163	348
376.544	324.95
376.925	324.05
377.305	316.36
377.686	306.42
378.066	315.46
378.447	326.53
378.827	333.54
379.208	315.91
379.588	332.41
379.968	300.54
380.349	332.63
380.729	329.02
381.109	331.95
381.489	334.44
381.87	338.06
382.25	347.32
382.63	328.79
383.01	304.16
383.39	332.86
383.77	346.19
384.15	345.51
384.53	332.63
384.91	358.62
385.29	343.93
385.67	334.21
386.049	364.5
386.429	346.42
386.809	343.03
387.189	350.03
387.568	341.9
387.948	362.69
388.328	359.98
388.707	343.25
389.087	355.68
389.466	359.75
389.846	356.36
390.225	370.37
390.605	371.28
390.984	358.85
391.363	363.14
391.743	382.57
392.122	362.01
392.501	366.53
392.881	366.98
393.26	372.41
393.639	362.01
394.018	375.57
394.397	381.67
394.776	386.87
395.155	395.46
395.534	374.44
395.913	373.54
396.292	381.44
396.671	378.96
397.05	365.85
397.429	363.37
397.808	374.21
398.186	393.42
398.565	401.33
398.944	398.62
399.323	394.55
399.701	397.49
400.08	398.85
400.458	406.08
400.837	411.73
401.215	385.51
401.594	387.55
401.972	404.72
402.351	413.31
402.729	409.47
403.107	398.85
403.486	416.02
403.864	415.12
404.242	409.01
404.62	415.57
404.999	433.19
405.377	419.18
405.755	446.3
406.133	430.71
406.511	434.55
406.889	437.26
407.267	444.49
407.645	457.37
408.023	444.72
408.401	454.21
408.779	463.25
409.156	479.52
409.534	475
409.912	467.54
410.29	486.75
410.667	471.39
411.045	476.81
411.422	475.23
411.8	487.88
412.178	522.01
412.555	503.48
412.933	497.37
413.31	524.94
413.687	507.09
414.065	493.76
414.442	538.28
414.819	533.08
415.197	524.94
415.574	533.76
415.951	550.93
416.328	559.97
416.705	555
417.082	545.73
417.46	552.51
417.837	553.42
418.214	570.82
418.591	591.38
418.967	611.27
419.344	621.44
419.721	596.13
420.098	608.78
420.475	605.39
420.852	616.47
421.228	630.25
421.605	635
421.982	631.61
422.358	642.45
422.735	629.12
423.111	648.1
423.488	662.79
423.864	651.49
424.241	667.54
424.617	673.87
424.994	687.2
425.37	668.89
425.746	672.06
426.123	699.63
426.499	698.27
426.875	707.09
427.251	717.03
427.627	736.46
428.003	743.47
428.379	717.71
428.756	737.59
429.132	725.62
429.507	766.52
429.883	776.01
430.259	796.35
430.635	781.21
431.011	783.02
431.387	812.17
431.763	812.85
432.138	813.52
432.514	836.35
432.89	844.71
433.265	879.74
433.641	843.58
434.016	871.6
434.392	875.44
434.767	880.19
435.143	899.85
435.518	887.19
435.894	893.97
436.269	941.43
436.644	930.13
437.02	944.14
437.395	928.78
437.77	950.24
438.145	944.37
438.52	960.86
438.895	980.75
439.271	984.37
439.646	1002.22
440.021	1001.77
440.395	1011.94
440.77	1003.8
441.145	1000.64
441.52	995.67
441.895	1023.01
442.27	1025.04
442.645	1005.16
443.019	1030.24
443.394	1054.87
443.769	1034.76
444.143	1052.16
444.518	1060.97
444.892	1050.13
445.267	1051.03
445.641	1039.28
446.016	1066.17
446.39	1095.1
446.764	1091.71
447.139	1081.54
447.513	1055.33
447.887	1095.55
448.262	1094.65
448.636	1082.67
449.01	1120.41
449.384	1133.52
449.758	1119.28
450.132	1104.14
450.506	1131.48
450.88	1127.41
451.254	1113.4
451.628	1128.32
452.002	1175.1
452.376	1175.55
452.75	1162.89
453.123	1164.48
453.497	1186.85
453.871	1189.79
454.244	1202.21
454.618	1208.99
454.992	1239.95
455.365	1229.11
455.739	1233.63
456.112	1254.64
456.486	1256.22
456.859	1268.2
457.232	1278.37
457.606	1286.96
457.979	1310.91
458.352	1322.21
458.725	1328.31
459.099	1322.66
459.472	1332.38
459.845	1374.64
460.218	1356.33
460.591	1387.52
460.964	1396.56
461.337	1430.46
461.71	1418.93
462.083	1429.1
462.456	1420.51
462.829	1423.9
463.201	1442.89
463.574	1450.34
463.947	1441.3
464.32	1488.31
464.692	1527.86
465.065	1502.77
465.438	1537.57
465.81	1532.37
466.183	1554.3
466.555	1531.47
466.928	1594.07
467.3	1595.65
467.672	1590.9
468.045	1624.8
468.417	1617.12
468.789	1636.33
469.161	1669.55
469.534	1679.26
469.906	1694.4
470.278	1702.31
470.65	1701.86
471.022	1717.68
471.394	1756.78
471.766	1782.76
472.138	1787.06
472.51	1839.03
472.882	1861.63
473.253	1887.17
473.625	1881.29
473.997	1896.66
474.369	1939.6
474.74	1952.93
475.112	1953.83
475.484	1984.11
475.855	2011.68
476.227	2052.14
476.598	2064.56
476.97	2083.09
477.341	2128.52
477.713	2150.89
478.084	2150.44
478.455	2202.87
478.827	2215.29
479.198	2262.07
479.569	2264.79
479.94	2322.41
480.311	2350.21
480.682	2403.76
481.053	2422.97
481.424	2476.3
481.795	2467.27
482.166	2515.63
482.537	2544.33
482.908	2581.61
483.279	2595.17
483.65	2632.69
484.021	2684.89
484.391	2678.79
484.762	2694.83
485.133	2738.22
485.503	2772.12
485.874	2803.75
486.244	2813.25
486.615	2869.51
486.985	2913.81
487.356	2987.25
487.726	2981.83
488.097	3019.34
488.467	3014.82
488.837	3079.23
489.207	3124.88
489.578	3140.02
489.948	3157.42
490.318	3182.5
490.688	3231.99
491.058	3234.03
491.428	3316.28
491.798	3312.89
492.168	3345.43
492.538	3335.72
492.908	3396.05
493.278	3424.75
493.648	3427.24
494.017	3481.25
494.387	3503.4
494.757	3547.01
495.126	3584.98
495.496	3573.45
495.866	3579.1
496.235	3635.6
496.605	3715.37
496.974	3683.05
497.344	3693.9
497.713	3725.31
498.082	3725.31
498.452	3783.39
498.821	3748.59
499.19	3753.11
499.559	3827.91
499.928	3829.72
500.298	3828.59
500.667	3853.22
501.036	3874.91
501.405	3905.87
501.774	3923.95
502.143	3956.04
502.512	3993.78
502.88	3933.22
503.249	4022.48
503.618	4011.41
503.987	4008.69
504.356	4067.45
504.724	4048.02
505.093	4041.24
505.462	4053.89
505.83	4114.45
506.199	4114.68
506.567	4151.97
506.936	4129.14
507.304	4174.79
507.672	4201.46
508.041	4213.66
508.409	4259.53
508.777	4256.37
509.145	4268.12
509.514	4217.95
509.882	4304.05
510.25	4267.9
510.618	4334.34
510.986	4321.68
511.354	4368.46
511.722	4377.5
512.09	4386.99
512.458	4384.5
512.826	4446.65
513.193	4422.24
513.561	4447.1
513.929	4486.42
514.297	4484.84
514.664	4482.81
515.032	4499.75
515.4	4567.32
515.767	4516.93
516.135	4557.83
516.502	4575.68
516.869	4646.64
517.237	4610.49
517.604	4583.59
517.972	4652.52
518.339	4614.1
518.706	4676.47
519.073	4643.71
519.44	4659.3
519.808	4718.51
520.175	4717.15
520.542	4762.35
520.909	4774.32
521.276	4784.27
521.643	4749.24
522.009	4829.46
522.376	4802.12
522.743	4839.41
523.11	4916.01
523.477	4938.61
523.843	4961.66
524.21	4944.04
524.577	4977.48
524.943	5005.73
525.31	4994.2
525.676	5042.11
526.043	5074.88
526.409	5100.19
526.776	5116.24
527.142	5113.52
527.508	5163.01
527.874	5194.2
528.241	5204.37
528.607	5238.49
528.973	5314.65
529.339	5249.57
529.705	5293.63
530.071	5364.14
530.437	5351.26
530.803	5368.43
531.169	5464.7
531.535	5396.68
531.901	5461.54
532.267	5495.21
532.632	5487.07
532.998	5508.99
533.364	5522.33
533.73	5565.72
534.095	5607.3
534.461	5619.27
534.826	5671.02
535.192	5664.92
535.557	5741.53
535.923	5692.94
536.288	5732.49
536.653	5754.18
537.019	5740.85
537.384	5735.65
537.749	5840.96
538.114	5824.47
538.479	5880.74
538.845	5915.31
539.21	5864.24
539.575	5929.77
539.94	5980.17
540.305	5965.93
540.67	5998.25
541.034	5997.34
541.399	6017.68
541.764	6047.51
542.129	6037.79
542.494	6096.1
542.858	6116.21
543.223	6153.5
543.587	6219.48
543.952	6173.38
544.316	6261.52
544.681	6244.12
545.045	6229.2
545.41	6305.13
545.774	6301.06
546.138	6347.62
546.503	6349.42
546.867	6342.87
547.231	6359.37
547.595	6437.78
547.959	6428.74
548.324	6454.28
548.688	6481.17
549.052	6510.32
549.416	6489.31
549.779	6524.79
550.143	6558.01
550.507	6605.91
550.871	6626.48
551.235	6641.85
551.599	6668.06
551.962	6665.57
552.326	6724.1
552.689	6730.66
553.053	6700.83
553.417	6760.49
553.78	6842.97
554.143	6781.05
554.507	6838.45
554.87	6860.82
555.234	6950.09
555.597	6828.73
555.96	6936.53
556.323	6964.55
556.686	6921.61
557.05	7023.53
557.413	6974.27
557.776	7013.13
558.139	7056.98
558.502	7044.09
558.865	7092.45
559.228	7127.03
559.59	7174.94
559.953	7118.44
560.316	7195.5
560.679	7217.88
561.041	7270.08
561.404	7302.84
561.767	7312.79
562.129	7255.39
562.492	7397.31
562.854	7343.07
563.217	7364.99
563.579	7379.23
563.941	7449.73
564.304	7451.32
564.666	7517.53
565.028	7552.78
565.39	7496.74
565.753	7588.94
566.115	7533.57
566.477	7589.84
566.839	7628.71
567.201	7677.75
567.563	7696.05
567.925	7735.83
568.287	7729.95
568.648	7776.28
569.01	7873.23
569.372	7831.64
569.734	7825.54
570.095	7896.28
570.457	7938.08
570.819	8007.68
571.18	7978.08
571.542	8087.23
571.903	8124.29
572.265	8087.68
572.626	8156.83
572.987	8174.46
573.349	8250.62
573.71	8339.43
574.071	8330.16
574.432	8414.45
574.794	8457.84
575.155	8474.57
575.516	8501.68
575.877	8627.33
576.238	8631.17
576.599	8730.15
576.96	8790.49
577.32	8824.39
577.681	8903.93
578.042	8972.18
578.403	9061.44
578.763	9153.87
579.124	9267.76
579.485	9367.2
579.845	9517.7
580.206	9544.59
580.566	9661.88
580.927	9772.61
581.287	9937.8
581.648	10055.09
582.008	10209.89
582.368	10197.68
582.728	10451.01
583.089	10611.68
583.449	10721.74
583.809	10822.98
584.169	11018.45
584.529	11233.14
584.889	11424.54
585.249	11480.81
585.609	11704.08
585.969	11938.88
586.329	12123.06
586.688	12314.92
587.048	12589.26
587.408	12728.69
587.768	12979.31
588.127	13175.68
588.487	13472.4
588.846	13738.61
589.206	13865.16
589.565	14144.47
589.925	14506.27
590.284	14684.57
590.643	14938.58
591.003	15235.97
591.362	15567.49
591.721	15804.99
592.08	16001.15
592.44	16330.4
592.799	16603.62
593.158	16797.06
593.517	17145.52
593.876	17412.64
594.235	17669.35
594.593	17950.7
594.952	18295.32
595.311	18538.03
595.67	18994.06
596.029	19265.02
596.387	19570.54
596.746	19928.73
597.104	20158.55
597.463	20354.93
597.822	20630.4
598.18	20989.94
598.538	21181.58
598.897	21510.83
599.255	21648.23
599.613	22311.94
599.972	22461.99
600.33	22739.5
600.688	22938.82
601.046	23305.81
601.404	23687.05
601.762	23923.65
602.12	24363.87
602.478	24529.96
602.836	24724.53
603.194	24840.69
603.552	25230.96
603.91	25367
604.268	25661.68
604.625	25856.71
604.983	26210.14
605.341	26498.27
605.698	26777.59
606.056	27062.78
606.413	27229.33
606.771	27550.67
607.128	27789.54
607.485	27945.69
607.843	28269.07
608.2	28522.17
608.557	28954.48
608.914	28876.74
609.272	29255.26
609.629	29529.83
609.986	29760.33
610.343	29952.87
610.7	30322.58
611.057	30353.31
611.414	30640.31
611.771	30933.86
612.127	31097.93
612.484	31266.51
612.841	31437.35
613.198	31448.88
613.554	31566.61
613.911	31923.21
614.267	32077.33
614.624	32203.88
614.98	32544.89
615.337	32740.14
615.693	32782.4
616.05	32845.9
616.406	33164.99
616.762	33224.87
617.118	33439.78
617.475	33513
617.831	33879.1
618.187	33892.88
618.543	34084.74
618.899	34439.53
619.255	34296.71
619.611	34410.83
619.967	34783.7
620.323	34817.15
620.678	34896.02
621.034	35003.81
621.39	35160.42
621.746	35128.78
622.101	35702.55
622.457	35352.05
622.812	35605.38
623.168	35776.67
623.523	35839.27
623.879	36022.32
624.234	35849.66
624.589	36208.53
624.945	36249.65
625.3	36281.74
625.655	36321.29
626.01	36372.81
626.365	36449.42
626.72	36527.61
627.075	36550.44
627.43	36745.69
627.785	36629.53
628.14	36885.8
628.495	36868.62
628.85	36827.27
629.205	36855.51
629.559	37054.15
629.914	36941.16
630.269	37116.98
630.623	37041.72
630.978	37013.02
631.332	37265.22
631.687	37283.98
632.041	37161.95
632.396	37403.52
632.75	37211.44
633.104	37355.16
633.459	37246.46
633.813	37395.16
634.167	37352.9
634.521	37312.9
634.875	37373.24
635.229	37415.5
635.583	37144.32
635.937	37376.4
636.291	37318.1
636.645	37424.09
636.999	37265.22
637.352	37310.19
637.706	37283.75
638.06	37378.89
638.413	37340.92
638.767	37149.07
639.121	37273.81
639.474	37139.12
639.828	37222.51
640.181	37313.58
640.534	37353.13
640.888	37304.77
641.241	37069.75
641.594	37215.28
641.947	37282.85
642.301	37176.18
642.654	37237.88
643.007	37208.05
643.36	37274.26
643.713	37230.42
644.066	37367.59
644.419	37137.77
644.771	36855.29
645.124	36551.79
645.477	36517.9
645.83	36302.31
646.182	36162.88
646.535	36130.34
646.888	36309.09
647.24	36111.13
647.593	36277
647.945	36120.39
648.298	36057.34
648.65	36072.94
649.002	35919.04
649.355	36182.76
649.707	36010.79
650.059	36237.68
650.411	36614.39
650.763	36676.08
651.115	36995.4
651.467	36990.2
651.819	36839.02
652.171	36874.72
652.523	36710.21
652.875	36780.26
653.227	36603.77
653.578	36898.9
653.93	36868.62
654.282	36582.07
654.633	36610.32
654.985	36670.21
655.337	36562.64
655.688	36637.21
656.039	36740.49
656.391	36611.45
656.742	36547.73
657.094	36541.85
657.445	36606.03
657.796	36531.68
658.147	36564.67
658.498	36552.02
658.849	36721.73
659.2	36540.95
659.551	36493.49
659.902	36511.79
660.253	36620.49
660.604	36628.85
660.955	36472.25
661.306	36581.17
661.656	36599.7
662.007	36586.37
662.358	36550.89
662.708	36553.38
663.059	36454.85
663.409	36330.78
663.76	36548.63
664.11	36603.09
664.461	36523.55
664.811	36621.85
665.161	36417.79
665.511	36336.66
665.862	36521.96
666.212	36493.49
666.562	36544.56
666.912	36405.81
667.262	36502.08
667.612	36413.49
667.962	36586.37
668.312	36393.15
668.662	36594.28
669.011	36528.52
669.361	36371.91
669.711	36264.8
670.06	36272.7
670.41	36273.38
670.76	36270.9
671.109	36366.71
671.459	36219.6
671.808	36202.2
672.157	36381.85
672.507	36108.19
672.856	36149.32
673.205	36188.86
673.554	36176.44
673.904	36077.68
674.253	36320.61
674.602	36238.81
674.951	35647.64
675.3	35642.66
675.649	36150.9
675.998	36118.58
676.346	36042.65
676.695	36174.18
677.044	35885.82
677.393	36007.4
677.741	36042.2
678.09	36019.15
678.438	35862.09
678.787	35990.68
679.135	35943.67
679.484	35550.46
679.832	35827.74
680.181	35739.16
680.529	35752.04
680.877	35696
681.225	35702.32
681.573	35978.25
681.922	35658.71
682.27	35404.48
682.618	35489.67
682.966	35517.92
683.314	35492.84
683.661	35339.85
684.009	35300.07
684.357	35232.51
684.705	35118.38
685.053	35199.74
685.4	35132.85
685.748	35039.29
686.095	34951.38
686.443	34903.7
686.79	34816.47
687.138	34989.8
687.485	34813.53
687.832	34613.77
688.18	34818.28
688.527	34490.38
688.874	34640.43
689.221	34535.57
689.568	34386.88
689.915	34366.31
690.262	34270.95
690.609	34288.35
690.956	34050.16
691.303	34070.05
691.65	33940.11
691.997	33943.27
692.344	33661.7
692.69	33694.69
693.037	33661.47
693.383	33559.1
693.73	33565.21
694.077	33404.98
694.423	33408.6
694.769	33269.85
695.116	33272.78
695.462	33199.11
695.808	32898.1
696.155	33080.92
696.501	32845.45
696.847	32932.91
697.193	32634.38
697.539	32790.99
697.885	32621.5
698.231	32380.83
698.577	32392.81
698.923	32365.69
699.269	32155.52
699.614	31991.91
699.96	32000.95
700.306	32059.93
700.651	31844.12
700.997	31708.76
701.342	31953.5
701.688	31776.33
702.033	31637.8
702.379	31647.97
702.724	31485.71
703.069	31580.62
703.415	31274.64
703.76	31173.4
704.105	31280.07
704.45	31107.19
704.795	31056.57
705.14	31031.94
705.485	30836.01
705.83	30786.3
706.175	30787.65
706.52	30701.33
706.865	30537.04
707.209	30542.23
707.554	30464.95
707.899	30605.28
708.243	30332.07
708.588	30367.55
708.932	30116.26
709.277	30059.08
709.621	30073.55
709.966	29857.05
710.31	29949.71
710.654	29721.24
710.998	29690.73
711.342	29864.29
711.687	29672.2
712.031	29621.35
712.375	29419.78
712.719	29441.7
713.063	29445.77
713.407	29572.77
713.75	29354.69
714.094	29310.63
714.438	29207.81
714.782	29237.41
715.125	29084.19
715.469	29075.15
715.812	28992.44
716.156	28904.99
716.499	28893.46
716.843	28770.53
717.186	28749.06
717.53	28867.93
717.873	28844.65
718.216	28634.71
718.559	28621.38
718.902	28446.92
719.246	28406.47
719.589	28302.07
719.932	28360.82
720.275	28240.37
720.617	28190.43
720.96	28232.92
721.303	28229.75
721.646	28201.05
721.989	28095.07
722.331	28125.35
722.674	27925.35
723.016	27965.8
723.359	27967.39
723.701	27935.07
724.044	27854.39
724.386	27734.17
724.729	27769.43
725.071	27757.9
725.413	27580.96
725.755	27672.25
726.097	27556.78
726.439	27323.79
726.782	27396.55
727.124	27557.68
727.465	27447.4
727.807	27317.23
728.149	27329.66
728.491	27242.89
728.833	27230.46
729.175	27100.29
729.516	27086.51
729.858	27137.58
730.199	27064.36
730.541	27001.99
730.882	26965.15
731.224	27005.38
731.565	26804.7
731.906	26773.75
732.248	26887.41
732.589	26772.16
732.93	26804.93
733.271	26695.56
733.612	26746.18
733.953	26564.94
734.294	26528.78
734.635	26411.27
734.976	26546.63
735.317	26386.18
735.658	26404.72
735.999	26354.55
736.339	26351.61
736.68	26541.21
737.021	26239.97
737.361	26155.68
737.702	26289.01
738.042	26259.86
738.383	26144.84
738.723	26174.21
739.063	25980.77
739.404	26072.97
739.744	25948
740.084	25868.01
740.424	25891.51
740.764	25905.75
741.104	25893.09
741.444	25779.42
741.784	25657.39
742.124	25687.67
742.464	25771.51
742.804	25576.26
743.143	25559.54
743.483	25549.82
743.823	25491.74
744.162	25399.77
744.502	25518.86
744.841	25307.8
745.181	25488.36
745.52	25375.36
745.86	25410.62
746.199	25273.22
746.538	25304.18
746.877	25309.83
747.216	25271.64
747.556	25115.26
747.895	25078.2
748.234	25182.6
748.573	25014.47
748.911	24949.61
749.25	25005.43
749.589	24930.4
749.928	24942.15
750.267	24977.86
750.605	24700.81
750.944	24818.77
751.283	24672.56
751.621	24747.36
751.96	24622.16
752.298	24607.02
752.636	24641.82
752.975	24419.23
753.313	24304.88
753.651	24425.33
753.989	24342.4
754.327	24273.47
754.666	24188.73
755.004	24120.26
755.342	24271.44
755.679	24125.23
756.017	24009.52
756.355	23979.92
756.693	23926.81
757.031	23883.43
757.368	23804.11
757.706	23743.32
758.044	23643.43
758.381	23718.01
758.719	23654.51
759.056	23652.47
759.394	23594.62
759.731	23336.55
760.068	23404.57
760.405	23275.53
760.743	23195.31
761.08	23300.39
761.417	23161.18
761.754	23082.32
762.091	23016.33
762.428	22940.4
762.765	22817.47
763.102	22852.27
763.438	22638.26
763.775	22655.89
764.112	22675.32
764.449	22725.94
764.785	22538.83
765.122	22413.18
765.458	22270.36
765.795	22335.67
766.131	22344.26
766.467	22122.12
766.804	22036.69
767.14	21926.19
767.476	21948.79
767.812	21743.82
768.148	21838.06
768.485	21679.87
768.821	21630.38
769.157	21658.85
769.492	21532.98
769.828	21486.88
770.164	21250.73
770.5	21252.53
770.836	21260.9
771.171	21120.33
771.507	21088.24
771.842	20923.5
772.178	20804.64
772.513	20863.39
772.849	20839.44
773.184	20684.19
773.519	20728.48
773.855	20539.33
774.19	20530.52
774.525	20379.34
774.86	20411.2
775.195	20370.75
775.53	20248.27
775.865	20192.68
776.2	19959.91
776.535	19909.07
776.87	19935.05
777.205	19866.58
777.539	19674.72
777.874	19768.51
778.209	19571.67
778.543	19540.26
778.878	19447.61
779.212	19445.8
779.547	19361.28
779.881	19325.58
780.215	19161.29
780.55	19289.87
780.884	19102.76
781.218	18992.71
781.552	19047.39
781.886	18829.32
782.22	18808.53
782.554	18739.83
782.888	18609.89
783.222	18550.01
783.556	18505.49
783.889	18361.09
784.223	18326.96
784.557	18198.83
784.89	18212.39
785.224	18130.58
785.557	18109.79
785.891	18091.71
786.224	17960.87
786.558	18017.59
786.891	17818.95
787.224	17749.8
787.557	17691.27
787.891	17672.06
788.224	17612.86
788.557	17652.63
788.89	17634.32
789.223	17619.18
789.556	17393.43
789.888	17296.71
790.221	17320.66
790.554	17289.25
790.887	17137.16
791.219	17074.79
791.552	17123.15
791.884	17024.62
792.217	16925.87
792.549	16833.89
792.882	16762.71
793.214	16661.02
793.546	16743.95
793.879	16552.09
794.211	16603.39
794.543	16534.01
794.875	16531.75
795.207	16464.41
795.539	16361.36
795.871	16362.95
796.203	16198.88
796.535	16190.97
796.867	16184.42
797.198	16041.37
797.53	16008.15
797.862	15934.03
798.193	15987.14
798.525	15876.86
798.856	15941.71
799.188	15780.14
799.519	15739.69
799.85	15602.97
800.182	15658.78
800.513	15640.93
800.844	15438
801.175	15472.8
801.506	15470.31
801.837	15420.15
802.168	15365.23
802.499	15263.77
802.83	15253.14
803.161	15219.47
803.491	15193.71
803.822	15131.11
804.153	15070.55
804.483	14984
804.814	14896.32
805.145	14857.22
805.475	14832.82
805.805	14853.83
806.136	14759.6
806.466	14796.66
806.796	14838.92
807.126	14628.75
807.457	14558.25
807.787	14583.11
808.117	14562.99
808.447	14457.01
808.777	14496.33
809.107	14497.23
809.436	14373.17
809.766	14375.43
810.096	14401.42
810.426	14216.56
810.755	14269.67
811.085	14235.77
811.414	14334.98
811.744	14059.96
812.073	13986.96
812.403	14022.89
812.732	13990.58
813.061	13965.49
813.39	13848.89
813.719	13930.24
814.049	13949.22
814.378	13881.2
814.707	13850.02
815.036	13822.22
815.365	13743.35
815.693	13599.4
816.022	13669.46
816.351	13514.21
816.68	13544.04
817.008	13490.25
817.337	13446.64
817.665	13377.26
817.994	13450.71
818.322	13335.23
818.651	13252.29
818.979	13254.1
819.307	13349.24
819.636	13308.11
819.964	13161.67
820.292	13281.9
820.62	13259.07
820.948	13167.1
821.276	13244.61
821.604	13100.21
821.932	13179.75
822.259	13199.41
822.587	13110.38
822.915	13135.91
823.243	13182.69
823.57	13124.39
823.898	13179.75
824.225	13195.57
824.553	13058.63
824.88	13203.48
825.207	13122.35
825.535	13079.42
825.862	13119.64
826.189	13012.75
826.516	13111.73
826.843	13149.02
827.17	13152.18
827.497	13173.2
827.824	13106.99
828.151	13111.73
828.478	13073.99
828.805	13130.49
829.131	13115.35
829.458	13080.09
829.785	13011.17
830.111	13043.48
830.438	13163.71
830.764	13089.59
831.09	13134.33
831.417	13045.97
831.743	13078.51
832.069	13062.24
832.395	13001
832.722	13018.17
833.048	12966.88
833.374	12937.05
833.7	12923.04
834.026	12906.99
834.351	12954.67
834.677	12912.87
835.003	12928.23
835.329	12904.96
835.654	12935.69
835.98	12804.39
836.306	12916.93
836.631	12707.45
836.956	12789.03
837.282	12815.69
837.607	12744.28
837.932	12714.23
838.258	12742.93
838.583	12709.26
838.908	12707.45
839.233	12661.35
839.558	12627.9
839.883	12571.86
840.208	12560.79
840.533	12540.22
840.858	12504.06
841.182	12447.57
841.507	12441.01
841.832	12429.49
842.156	12417.51
842.481	12412.09
842.805	12361.24
843.13	12320.79
843.454	12363.05
843.778	12286.44
844.103	12281.92
844.427	12234.92
844.751	12249.16
845.075	12165.54
845.399	12182.04
845.723	12114.92
846.047	12172.55
846.371	12017.75
846.695	12002.16
847.019	11943.85
847.343	11866.34
847.666	11784.31
847.99	11760.81
848.313	11746.12
848.637	11717.19
848.96	11602.17
849.284	11567.14
849.607	11519.46
849.931	11523.07
850.254	11456.63
850.577	11337.54
850.9	11318.11
851.223	11274.94
851.546	11254.38
851.869	11171.22
852.192	11212.35
852.515	11133.03
852.838	11039.47
853.161	11041.5
853.483	10977.32
853.806	10942.97
854.129	10930.55
854.451	10827.95
854.774	10795.86
855.096	10822.07
855.419	10813.49
855.741	10721.06
856.063	10738.01
856.385	10649.88
856.708	10669.08
857.03	10570.78
857.352	10646.94
857.674	10620.27
857.996	10495.53
858.318	10457.79
858.64	10433.84
858.961	10389.09
859.283	10392.03
859.605	10305.25
859.926	10318.81
860.248	10313.16
860.57	10289.43
860.891	10304.35
861.212	10247.4
861.534	10204.01
861.855	10145.71
862.176	10145.03
862.498	10201.07
862.819	10159.72
863.14	10153.62
863.461	10085.37
863.782	10107.97
864.103	10106.61
864.424	10048.54
864.745	10058.7
865.065	9977.58
865.386	9903.91
865.707	9924.7
866.027	9968.09
866.348	9880.4
866.668	9885.83
866.989	9842.44
867.309	9831.14
867.63	9776.68
867.95	9834.08
868.27	9832.04
868.59	9811.03
868.91	9839.95
869.23	9775.1
869.55	9742.1
869.87	9861.2
870.19	9681.77
870.51	9762.22
870.83	9684.7
871.15	9605.38
871.469	9629.11
871.789	9632.95
872.109	9645.38
872.428	9586.4
872.748	9616.46
873.067	9534.42
873.386	9603.58
873.706	9598.15
874.025	9548.89
874.344	9459.4
874.663	9557.25
874.982	9406.29
875.301	9454.43
875.62	9472.51
875.939	9434.54
876.258	9438.16
876.577	9388.67
876.896	9296.69
877.214	9378.27
877.533	9383.24
877.852	9330.36
878.17	9332.4
878.489	9320.87
878.807	9292.4
879.125	9310.93
879.444	9278.39
879.762	9191.61
880.08	9230.48
880.398	9189.12
880.716	9185.28
881.034	9206.3
881.352	9155.23
881.67	9192.51
881.988	9048.79
882.306	9114.1
882.624	9097.6
882.941	8986.42
883.259	9063.48
883.577	9011.73
883.894	8898.51
884.212	9009.47
884.529	8945.06
884.846	8910.03
885.164	8926.76
885.481	8884.95
885.798	8874.55
886.115	8811.96
886.432	8868.68
886.75	8778.29
887.067	8881.33
887.383	8785.74
887.7	8733.09
888.017	8714.33
888.334	8687.44
888.651	8672.53
888.967	8648.8
889.284	8631.85
889.6	8623.71
889.917	8549.14
890.233	8612.41
890.55	8514.79
890.866	8511.4
891.182	8541.68
891.498	8465.3
891.815	8475.24
892.131	8380.56
892.447	8447.9
892.763	8344.63
893.079	8349.37
893.395	8290.62
893.71	8294.23
894.026	8308.92
894.342	8302.14
894.657	8127
894.973	8194.12
895.289	8185.08
895.604	8126.55
895.92	8053.33
896.235	8061.92
896.55	8068.25
896.865	8016.95
897.181	7983.28
897.496	8059.21
897.811	7964.97
898.126	7912.09
898.441	7919.78
898.756	7863.51
899.071	7884.07
899.386	7809.05
899.7	7833.23
900.015	7759.56
900.33	7772.66
900.644	7744.87
900.959	7682.95
901.273	7583.52
901.588	7652.44
901.902	7614.47
902.216	7583.74
902.531	7520.47
902.845	7523.4
903.159	7504.42
903.473	7403.41
903.787	7378.32
904.101	7377.64
904.415	7403.41
904.729	7326.57
905.042	7308.27
905.356	7260.81
905.67	7273.92
905.984	7291.77
906.297	7215.39
906.611	7170.19
906.924	7159.57
907.237	7123.41
907.551	7118.89
907.864	7035.28
908.177	7088.16
908.491	7003.64
908.804	7020.37
909.117	6934.49
909.43	6941.05
909.743	6943.08
910.056	6893.36
910.368	6894.49
910.681	6827.15
910.994	6821.05
911.307	6794.61
911.619	6718
911.932	6767.27
912.244	6647.95
912.557	6697.21
912.869	6612.24
913.181	6622.18
913.494	6587.38
913.806	6553.49
914.118	6537.22
914.43	6493.37
914.742	6472.81
915.054	6440.72
915.366	6526.59
915.678	6369.31
915.99	6398.24
916.302	6340.61
916.613	6281.63
916.925	6349.88
917.236	6325.92
917.548	6275.98
917.859	6225.58
918.171	6179.48
918.482	6164.8
918.794	6168.64
919.105	6107.4
919.416	6105.81
919.727	6069.2
920.038	6102.2
920.349	6006.83
920.66	5967.06
920.971	5971.58
921.282	5943.56
921.593	5882.32
921.903	5856.56
922.214	5874.63
922.525	5851.36
922.835	5813.84
923.146	5793.28
923.456	5776.78
923.767	5747.86
924.077	5727.29
924.387	5746.73
924.697	5660.63
925.008	5676.45
925.318	5639.39
925.628	5610.91
925.938	5567.3
926.248	5547.86
926.558	5514.64
926.867	5518.03
927.177	5461.31
927.487	5418.83
927.796	5389.9
928.106	5408.88
928.416	5374.31
928.725	5419.96
929.034	5347.19
929.344	5381.54
929.653	5345.83
929.962	5284.59
930.271	5274.2
930.581	5247.53
930.89	5226.74
931.199	5189.91
931.508	5148.1
931.817	5168.66
932.125	5125.73
932.434	5127.31
932.743	5066.52
933.051	5076.01
933.36	5013.87
933.669	5008.89
933.977	4972.96
934.286	4961.89
934.594	4994.66
934.902	4918.5
935.21	4919.63
935.519	4928.22
935.827	4853.64
936.135	4864.26
936.443	4812.29
936.751	4812.06
937.059	4844.15
937.367	4750.6
937.674	4768.45
937.982	4752.4
938.29	4726.87
938.597	4693.65
938.905	4673.54
939.213	4657.72
939.52	4607.55
939.827	4627.89
940.135	4606.64
940.442	4585.63
940.749	4570.49
941.056	4537.95
941.363	4520.54
941.67	4528.23
941.977	4499.75
942.284	4448
942.591	4439.19
942.898	4393.54
943.205	4383.6
943.511	4410.94
943.818	4370.94
944.125	4349.25
944.431	4318.06
944.738	4294.34
945.044	4307.22
945.35	4248.01
945.657	4254.79
945.963	4253.21
946.269	4182.02
946.575	4216.15
946.881	4179.09
947.187	4170.27
947.493	4196.26
947.799	4092.76
948.105	4080.56
948.41	4087.56
948.716	4080.33
949.022	4022.48
949.327	4024.51
949.633	4022.25
949.938	3978.19
950.244	3999.88
950.549	3992.88
950.854	3963.95
951.16	3896.38
951.465	3907.68
951.77	3916.95
952.075	3850.05
952.38	3871.07
952.685	3841.24
952.99	3836.04
953.294	3837.63
953.599	3786.33
953.904	3785.42
954.209	3759.66
954.513	3775.03
954.818	3777.51
955.122	3732.32
955.426	3722.83
955.731	3697.52
956.035	3648.7
956.339	3618.42
956.643	3660.23
956.948	3589.95
957.252	3587.91
957.556	3620.23
957.86	3548.14
958.163	3577.29
958.467	3584.75
958.771	3562.38
959.075	3541.36
959.378	3476.05
959.682	3475.83
959.985	3501.14
960.289	3454.36
960.592	3438.31
960.896	3448.03
961.199	3423.85
961.502	3432.21
961.805	3365.77
962.108	3348.6
962.411	3364.64
962.714	3335.72
963.017	3315.38
963.32	3324.19
963.623	3264.31
963.926	3290.75
964.228	3280.35
964.531	3256.4
964.833	3233.8
965.136	3227.47
965.438	3219.34
965.741	3184.99
966.043	3198.09
966.345	3200.35
966.648	3168.04
966.95	3159.9
967.252	3119.68
967.554	3094.59
967.856	3115.38
968.158	3066.12
968.46	3060.02
968.761	3117.64
969.063	3016.4
969.365	3037.65
969.666	3065.67
969.968	3012.34
970.269	2982.28
970.571	2993.35
970.872	2968.72
971.174	2975.73
971.475	2970.53
971.776	2940.25
972.077	2955.16
972.378	2900.02
972.679	2914.94
972.98	2907.25
973.281	2884.88
973.582	2826.13
973.883	2843.3
974.183	2817.54
974.484	2815.73
974.785	2802.17
975.085	2818.44
975.386	2802.85
975.686	2795.17
975.986	2777.31
976.287	2759.46
976.587	2731.89
976.887	2730.31
977.187	2689.41
977.487	2732.12
977.787	2708.16
978.087	2668.39
978.387	2706.58
978.687	2686.92
978.987	2646.47
979.286	2648.73
979.586	2612.12
979.885	2635.85
980.185	2587.04
980.484	2612.35
980.784	2531.67
981.083	2574.61
981.382	2523.54
981.682	2554.72
981.981	2522.86
982.28	2512.01
982.579	2508.62
982.878	2494.16
983.177	2488.73
983.475	2495.97
983.774	2468.85
984.073	2463.2
984.372	2443.54
984.67	2428.4
984.969	2425.68
985.267	2411
985.566	2413.03
985.864	2415.52
986.162	2369.19
986.461	2407.15
986.759	2350.21
987.057	2314.95
987.355	2376.87
987.653	2338.46
987.951	2315.41
988.249	2267.27
988.547	2314.05
988.844	2277.44
989.142	2306.59
989.44	2268.85
989.737	2247.16
990.035	2278.12
990.332	2235.63
990.63	2223.66
990.927	2244.22
991.224	2228.18
991.521	2170.1
991.819	2205.35
992.116	2193.6
992.413	2139.59
992.71	2137.78
993.006	2178.23
993.303	2188.4
993.6	2174.62
993.897	2138.01
994.193	2129.42
994.49	2090.1
994.787	2096.65
995.083	2075.19
995.379	2067.05
995.676	2076.54
995.972	2048.07
996.268	2076.09
996.565	2039.93
996.861	1995.41
997.157	2023.21
997.453	2032.25
997.749	2019.82
998.044	1979.14
998.34	1992.02
998.636	1970.56
998.932	1955.19
999.227	1927.62
999.523	1932.36
999.818	1946.38
1000.114	1914.06
1000.409	1893.5
1000.704	1865.25
1001	1893.04
1001.295	1848.07
1001.59	1881.74
1001.885	1879.94
1002.18	1844.91
1002.475	1853.72
1002.77	1855.08
1003.065	1811.69
1003.359	1810.11
1003.654	1809.43
1003.949	1824.34
1004.243	1770.56
1004.538	1762.2
1004.832	1790.9
1005.127	1761.97
1005.421	1731.24
1005.715	1734.18
1006.009	1761.3
1006.304	1715.2
1006.598	1698.7
1006.892	1686.04
1007.186	1707.96
1007.48	1671.35
1007.773	1672.71
1008.067	1647.85
1008.361	1656.67
1008.655	1657.12
1008.948	1615.08
1009.242	1644.91
1009.535	1607.18
1009.829	1608.53
1010.122	1591.13
1010.415	1573.5
1010.708	1571.92
1011.001	1554.75
1011.295	1532.83
1011.588	1532.83
1011.881	1526.27
1012.173	1565.59
1012.466	1529.44
1012.759	1523.11
1013.052	1552.94
1013.344	1500.51
1013.637	1523.79
1013.93	1486.5
1014.222	1472.94
1014.514	1455.54
1014.807	1451.7
1015.099	1460.29
1015.391	1487.4
1015.683	1415.32
1015.976	1435.88
1016.268	1448.54
1016.56	1385.49
1016.851	1415.99
1017.143	1430.68
1017.435	1379.84
1017.727	1411.7
1018.018	1360.4
1018.31	1367.41
1018.602	1344.13
1018.893	1363.57
1019.185	1313.17
1019.476	1326.28
1019.767	1312.72
1020.058	1344.58
1020.35	1327.18
1020.641	1261.2
1020.932	1291.48
1021.223	1276.56
1021.514	1271.14
1021.804	1269.11
1022.095	1271.82
1022.386	1240.41
1022.677	1233.17
1022.967	1189.33
1023.258	1232.72
1023.548	1218.48
1023.839	1227.98
1024.129	1207.64
1024.419	1204.47
1024.709	1200.86
1025	1190.01
1025.29	1175.77
1025.58	1139.16
1025.87	1143.46
1026.16	1161.09
1026.449	1122.22
1026.739	1140.07
1027.029	1125.15
1027.319	1131.26
1027.608	1153.18
1027.898	1112.95
1028.187	1088.32
1028.477	1111.37
1028.766	1096.68
1029.055	1086.96
1029.344	1067.98
1029.634	1051.03
1029.923	1065.27
1030.212	1043.12
1030.501	1038.15
1030.79	1036.57
1031.078	1028.89
1031.367	1047.87
1031.656	1011.03
1031.945	1012.39
1032.233	1024.37
1032.522	1021.43
1032.81	993.41
1033.099	978.94
1033.387	984.37
1033.675	962.45
1033.963	961.54
1034.251	950.7
1034.54	940.75
1034.828	961.77
1035.116	952.5
1035.403	941.2
1035.691	920.41
1035.979	944.37
1036.267	918.15
1036.554	920.41
1036.842	917.93
1037.129	933.75
1037.417	918.38
1037.704	908.89
1037.992	898.95
1038.279	870.92
1038.566	881.54
1038.853	881.54
1039.14	881.54
