Data from hue_00_FLMS001491_98.txt Node
Date: Mon Feb 06 15:30:42 GMT 2017
User: dcchb
Spectrometer: FLMS00149
Trigger mode: 0
Integration Time (sec): 2.000000E-2
Scans to average: 10
Electric dark correction enabled: true
Nonlinearity correction enabled: false
Boxcar width: 0
XAxis mode: Wavelengths
Number of Pixels in Spectrum: 2048
>>>>>Begin Spectral Data<<<<<
341.393	-2.61
341.776	-2.61
342.16	-2.61
342.543	-68.6
342.927	-79.9
343.31	-75.38
343.693	-65.44
344.077	-81.03
344.46	-59.33
344.843	-53.01
345.226	-29.5
345.61	-13.46
345.993	-28.37
346.376	-17.75
346.759	10.72
347.142	29.25
347.525	24.28
347.908	68.8
348.291	71.06
348.674	108.34
349.057	110.83
349.44	106.99
349.823	151.06
350.206	158.96
350.588	186.31
350.971	197.83
351.354	219.75
351.737	210.94
352.119	252.07
352.502	264.05
352.884	283.93
353.267	276.25
353.65	305.85
354.032	309.24
354.414	296.59
354.797	309.47
355.179	327.77
355.562	327.32
355.944	331.62
356.326	328.23
356.709	339.07
357.091	337.49
357.473	327.55
357.855	333.65
358.238	332.29
358.62	343.59
359.002	301.56
359.384	321.9
359.766	330.03
360.148	355.8
360.53	342.01
360.912	319.86
361.294	322.8
361.676	346.76
362.057	314.21
362.439	327.55
362.821	316.25
363.203	334.33
363.584	316.7
363.966	314.44
364.348	310.83
364.729	310.83
365.111	331.16
365.493	316.25
365.874	327.77
366.256	314.89
366.637	324.61
367.019	321.45
367.4	310.37
367.781	309.02
368.163	309.47
368.544	321.67
368.925	313.76
369.306	297.04
369.688	302.24
370.069	312.41
370.45	304.27
370.831	307.89
371.212	308.34
371.593	315.12
371.974	317.6
372.355	308.11
372.736	307.21
373.117	312.63
373.498	319.41
373.879	334.78
374.26	306.98
374.641	309.02
375.021	322.8
375.402	315.34
375.783	309.47
376.163	324.61
376.544	328.68
376.925	309.47
377.305	306.08
377.686	322.8
378.066	301.33
378.447	331.62
378.827	317.6
379.208	315.12
379.588	319.41
379.968	312.18
380.349	320.99
380.729	342.24
381.109	367.09
381.489	336.59
381.87	311.73
382.25	328.9
382.63	338.62
383.01	339.3
383.39	330.94
383.77	335.91
384.15	345.17
384.53	347.43
384.91	339.52
385.29	351.05
385.67	322.58
386.049	337.04
386.429	318.51
386.809	349.47
387.189	349.02
387.568	348.11
387.948	364.16
388.328	356.02
388.707	368.22
389.087	357.15
389.466	354.89
389.846	339.07
390.225	344.04
390.605	363.03
390.984	364.84
391.363	351.95
391.743	349.92
392.122	355.12
392.501	375.46
392.881	377.49
393.26	339.3
393.639	360.54
394.018	362.35
394.397	377.04
394.776	373.65
395.155	370.26
395.534	369.35
395.913	374.33
396.292	379.75
396.671	376.13
397.05	396.47
397.429	397.83
397.808	374.33
398.186	368.45
398.565	378.17
398.944	371.84
399.323	388.11
399.701	381.56
400.08	393.08
400.458	391.05
400.837	402.12
401.215	389.92
401.594	382.69
401.972	374.55
402.351	380.65
402.729	395.57
403.107	384.04
403.486	393.31
403.864	379.52
404.242	404.61
404.62	416.59
404.999	403.03
405.377	413.42
405.755	382.24
406.133	400.77
406.511	411.61
406.889	419.97
407.267	415.46
407.645	425.85
408.023	410.48
408.401	424.72
408.779	446.64
409.156	411.39
409.534	425.62
409.912	413.2
410.29	426.53
410.667	435.79
411.045	427.66
411.422	423.36
411.8	448.22
412.178	465.17
412.555	459.75
412.933	464.27
413.31	455.45
413.687	452.97
414.065	448.67
414.442	450.03
414.819	459.52
415.197	458.84
415.574	459.75
415.951	471.05
416.328	451.84
416.705	474.66
417.082	469.47
417.46	476.7
417.837	496.13
418.214	497.49
418.591	504.94
418.967	471.05
419.344	494.32
419.721	496.13
420.098	498.62
420.475	520.54
420.852	525.73
421.228	519.86
421.605	515.34
421.982	508.79
422.358	482.35
422.735	511.5
423.111	526.19
423.488	511.72
423.864	516.24
424.241	542.46
424.617	516.24
424.994	549.46
425.37	540.65
425.746	549.91
426.123	529.8
426.499	550.37
426.875	550.59
427.251	562.34
427.627	570.25
428.003	554.66
428.379	584.72
428.756	569.8
429.132	549.69
429.507	572.97
429.883	609.35
430.259	591.72
430.635	606.41
431.011	614.32
431.387	597.6
431.763	633.53
432.138	633.75
432.514	634.43
432.89	620.87
433.265	627.88
433.641	629.01
434.016	627.43
434.392	634.21
434.767	650.48
435.143	637.82
435.518	671.95
435.894	666.07
436.269	673.75
436.644	690.25
437.02	684.6
437.395	688.22
437.77	709.91
438.145	686.18
438.52	702.68
438.895	709.91
439.271	715.79
439.646	713.53
440.021	703.58
440.395	726.18
440.77	723.24
441.145	728.44
441.52	746.97
441.895	722.57
442.27	739.06
442.645	731.15
443.019	727.76
443.394	741.1
443.769	757.14
444.143	753.53
444.518	756.69
444.892	778.38
445.267	759.63
445.641	755.56
446.016	763.92
446.39	754.88
446.764	788.1
447.139	779.97
447.513	795.56
447.887	784.94
448.262	789.91
448.636	797.59
449.01	773.41
449.384	806.18
449.758	821.55
450.132	825.39
450.506	832.62
450.88	834.2
451.254	857.03
451.628	838.49
452.002	877.36
452.376	861.77
452.75	854.77
453.123	854.09
453.497	875.1
453.871	846.18
454.244	893.41
454.618	896.8
454.992	875.78
455.365	911.71
455.739	918.72
456.112	938.61
456.486	930.02
456.859	929.34
457.232	946.97
457.606	939.96
457.979	966.63
458.352	971.6
458.725	973.63
459.099	984.71
459.472	1016.34
459.845	1001.88
460.218	1004.82
460.591	1009.79
460.964	1015.89
461.337	1044.59
461.71	1079.39
462.083	1061.09
462.456	1064.25
462.829	1066.06
463.201	1081.2
463.574	1079.39
463.947	1104.7
464.32	1112.61
464.692	1120.52
465.065	1138.6
465.438	1156.68
465.81	1157.36
466.183	1173.85
466.555	1189.67
466.928	1214.53
467.3	1212.04
467.672	1220.63
468.045	1247.52
468.417	1245.26
468.789	1266.96
469.161	1293.4
469.534	1300.63
469.906	1310.57
470.278	1335.88
470.65	1351.93
471.022	1367.29
471.394	1415.2
471.766	1355.09
472.138	1442.77
472.51	1441.87
472.882	1466.95
473.253	1480.51
473.625	1487.52
473.997	1547.18
474.369	1531.58
474.74	1549.66
475.112	1559.38
475.484	1581.07
475.855	1648.87
476.227	1655.87
476.598	1699.04
476.97	1686.83
477.341	1719.38
477.713	1782.2
478.084	1793.95
478.455	1824.91
478.827	1861.74
479.198	1865.81
479.569	1908.75
479.94	1949.65
480.311	1939.71
480.682	1987.62
481.053	2040.27
481.424	2095.86
481.795	2089.76
482.166	2115.3
482.537	2134.96
482.908	2209.31
483.279	2242.07
483.65	2291.56
484.021	2298.8
484.391	2370.21
484.762	2369.08
485.133	2388.06
485.503	2432.13
485.874	2468.51
486.244	2513.25
486.615	2588.05
486.985	2627.15
487.356	2622.63
487.726	2661.72
488.097	2730.42
488.467	2742.17
488.837	2804.54
489.207	2817.2
489.578	2826.24
489.948	2906.46
490.318	2941.26
490.688	2950.98
491.058	3008.83
491.428	3056.74
491.798	3096.51
492.168	3087.7
492.538	3125.89
492.908	3183.29
493.278	3236.62
493.648	3237.3
494.017	3282.95
494.387	3320.46
494.757	3365.21
495.126	3386.45
495.496	3383.29
495.866	3414.02
496.235	3509.61
496.605	3509.16
496.974	3529.72
497.344	3562.72
497.713	3556.39
498.082	3590.96
498.452	3620.79
498.821	3688.36
499.19	3675.48
499.559	3744.63
499.928	3757.97
500.298	3748.25
500.667	3796.38
501.036	3770.62
501.405	3839.55
501.774	3843.16
502.143	3864.86
502.512	3878.41
502.88	3968.58
503.249	3921.13
503.618	3934.68
503.987	3986.21
504.356	4004.06
504.724	4030.73
505.093	4001.12
505.462	4080.9
505.83	4084.96
506.199	4081.35
506.567	4136.04
506.936	4142.59
507.304	4131.29
507.672	4144.85
508.041	4200.89
508.409	4246.09
508.777	4238.18
509.145	4279.53
509.514	4265.52
509.882	4334.45
510.25	4306.43
510.618	4380.77
510.986	4362.02
511.354	4388.68
511.722	4449.7
512.09	4393.43
512.458	4440.66
512.826	4491.28
513.193	4479.76
513.561	4485.18
513.929	4514.56
514.297	4569.92
514.664	4583.71
515.032	4577.15
515.4	4591.62
515.767	4626.42
516.135	4638.85
516.502	4602.24
516.869	4640.43
517.237	4684.04
517.604	4651.5
517.972	4729.69
518.339	4748.45
518.706	4783.93
519.073	4753.19
519.44	4819.18
519.808	4826.64
520.175	4823.02
520.542	4892.4
520.909	4899.63
521.276	4900.53
521.643	4898.95
522.009	4957.26
522.376	4972.62
522.743	4999.97
523.11	5028.67
523.477	5060.08
523.843	5091.49
524.21	5134.88
524.577	5144.37
524.943	5177.59
525.31	5216.91
525.676	5281.54
526.043	5196.35
526.409	5282.67
526.776	5336.68
527.142	5386.4
527.508	5362.22
527.874	5416.91
528.241	5437.24
528.607	5443.35
528.973	5442.22
529.339	5466.17
529.705	5524.02
530.071	5557.01
530.437	5599.95
530.803	5586.39
531.169	5623.68
531.535	5587.75
531.901	5637.46
532.267	5714.07
532.632	5688.08
532.998	5745.03
533.364	5803.79
533.73	5768.53
534.095	5830.45
534.461	5838.14
534.826	5906.61
535.192	5922.2
535.557	5923.78
535.923	5905.93
536.288	5955.65
536.653	5988.64
537.019	5972.15
537.384	5979.83
537.749	6058.7
538.114	6049.88
538.479	6079.26
538.845	6120.39
539.21	6103.89
539.575	6148.86
539.94	6149.77
540.305	6210.33
540.67	6124.46
541.034	6241.97
541.399	6295.98
541.764	6279.03
542.129	6345.92
542.494	6306.15
542.858	6370.55
543.223	6377.56
543.587	6436.09
543.952	6436.54
544.316	6482.41
544.681	6483.54
545.045	6495.3
545.41	6528.29
545.774	6569.64
546.138	6586.82
546.503	6591.34
546.867	6603.77
547.231	6697.32
547.595	6642.86
547.959	6656.87
548.324	6740.71
548.688	6705.69
549.052	6735.51
549.416	6768.73
549.779	6808.73
550.143	6834.04
550.507	6938.67
550.871	6902.06
551.235	6909.52
551.599	6969.86
551.962	6960.59
552.326	7032
552.689	7006.69
553.053	6984.1
553.417	7004.21
553.78	7074.72
554.143	7106.35
554.507	7082.4
554.87	7125.34
555.234	7239.68
555.597	7167.59
555.96	7182.28
556.323	7223.19
556.686	7283.75
557.05	7262.05
557.413	7261.6
557.776	7283.3
558.139	7372.79
558.502	7394.03
558.865	7386.57
559.228	7419.34
559.59	7471.77
559.953	7421.37
560.316	7472.22
560.679	7500.47
561.041	7576.17
561.404	7574.59
561.767	7595.38
562.129	7641.03
562.492	7691.87
562.854	7651.65
563.217	7678.77
563.579	7680.8
563.941	7742.95
564.304	7754.47
564.666	7798.99
565.028	7801.93
565.39	7878.54
565.753	7880.34
566.115	7869.04
566.477	7966.22
566.839	7978.19
567.201	8003.73
567.563	7993.34
567.925	8044.86
568.287	8067.01
568.648	8050.06
569.01	8167.57
569.372	8152.2
569.734	8141.58
570.095	8232.65
570.457	8289.6
570.819	8357.85
571.18	8370.5
571.542	8432.87
571.903	8385.64
572.265	8444.17
572.626	8530.04
572.987	8568.91
573.349	8582.47
573.71	8629.7
574.071	8637.16
574.432	8722.81
574.794	8799.42
575.155	8816.82
575.516	8866.98
575.877	8900.2
576.238	8965.51
576.599	9085.06
576.96	9093.65
577.32	9113.98
577.681	9262.23
578.042	9339.74
578.403	9322.57
578.763	9445.73
579.124	9490.24
579.485	9651.14
579.845	9692.5
580.206	9765.04
580.566	9871.7
580.927	9964.58
581.287	10069.21
581.648	10264.24
582.008	10254.52
582.368	10403.44
582.728	10587.84
583.089	10671.46
583.449	10834.39
583.809	10934.27
584.169	11045.91
584.529	11256.3
584.889	11540.81
585.249	11475.05
585.609	11747.36
585.969	11857.41
586.329	12041.36
586.688	12250.4
587.048	12412.2
587.408	12548.24
587.768	12859.2
588.127	13015.58
588.487	13158.85
588.846	13453.08
589.206	13585.96
589.565	13825.72
589.925	14050.8
590.284	14365.37
590.643	14542.32
591.003	14848.07
591.362	15048.74
591.721	15307.72
592.08	15448.73
592.44	15766.46
592.799	15926.69
593.158	16229.28
593.517	16453
593.876	16792.88
594.235	16951.74
594.593	17255.46
594.952	17651.61
595.311	17789.46
595.67	18073.52
596.029	18437.81
596.387	18768.19
596.746	18916.44
597.104	19171.35
597.463	19361.4
597.822	19772.69
598.18	19912.34
598.538	20267.14
598.897	20529.5
599.255	20735.6
599.613	21234.79
599.972	21395.92
600.33	21697.83
600.688	21743.71
601.046	22078.39
601.404	22495.55
601.762	22657.58
602.12	23059.83
602.478	23204.46
602.836	23377.34
603.194	23510.89
603.552	23840.15
603.91	24110.2
604.268	24365.11
604.625	24552.45
604.983	24829.5
605.341	24958.09
605.698	25362.14
606.056	25551.97
606.413	25707.67
606.771	26090.26
607.128	26272.85
607.485	26308.33
607.843	26630.59
608.2	27015.21
608.557	27192.38
608.914	27341.98
609.272	27494.74
609.629	27859.93
609.986	28132.24
610.343	28075.29
610.7	28628.05
611.057	28580.82
611.414	28798.89
611.771	29025.32
612.127	29326.56
612.484	29362.72
612.841	29653.1
613.198	29671.41
613.554	29852.42
613.911	30139.87
614.267	30174.22
614.624	30388.23
614.98	30594.77
615.337	30826.63
615.693	30838.16
616.05	30830.93
616.406	31302.55
616.762	31305.72
617.118	31312.5
617.475	31506.39
617.831	31794.52
618.187	31935.08
618.543	32041.74
618.899	32390.66
619.255	32330.77
619.611	32514.27
619.967	32676.53
620.323	32862.51
620.678	32721.72
621.034	32783.64
621.39	33020.7
621.746	32965.33
622.101	33477.18
622.457	33286.91
622.812	33444.64
623.168	33449.61
623.523	33559.44
623.879	33761.02
624.234	33691.19
624.589	33843.28
624.945	33943.61
625.3	34034.23
625.655	34124.85
626.01	34235.58
626.365	34162.82
626.72	34216.37
627.075	34329.59
627.43	34385.18
627.785	34387.44
628.14	34465.18
628.495	34647.55
628.85	34608.23
629.205	34542.24
629.559	34745.17
629.914	34589.47
630.269	34749.69
630.623	34730.94
630.978	34553.09
631.332	34896.58
631.687	34842.8
632.041	34923.47
632.396	34964.38
632.75	34896.58
633.104	34819.3
633.459	34721.67
633.813	34959.41
634.167	34817.71
634.521	34924.83
634.875	35007.31
635.229	34981.55
635.583	34804.16
635.937	34820.2
636.291	34892.29
636.645	34981.78
636.999	34877.37
637.352	35016.81
637.706	34862.91
638.06	35031.27
638.413	35049.57
638.767	34903.14
639.121	35046.63
639.474	34885.51
639.828	34894.55
640.181	34826.53
640.534	34842.35
640.888	34664.95
641.241	34671.96
641.594	34716.25
641.947	34834.44
642.301	34800.54
642.654	34949.91
643.007	34839.86
643.36	34936.36
643.713	34728.9
644.066	34895.45
644.419	34796.7
644.771	34518.51
645.124	34187.67
645.477	34207.79
645.83	34043.5
646.182	34017.28
646.535	33890.96
646.888	33833.11
647.24	33700.68
647.593	33752.21
647.945	33720.12
648.298	33643.51
648.65	33543.85
649.002	33512.66
649.355	33627.46
649.707	33562.38
650.059	33726.22
650.411	34072.2
650.763	34298.18
651.115	34475.58
651.467	34409.36
651.819	34352.87
652.171	34310.38
652.523	34341.79
652.875	34420.66
653.227	34130.95
653.578	34414.34
653.93	34369.59
654.282	34130.05
654.633	34127.11
654.985	34227.9
655.337	34281.91
655.688	34173.44
656.039	34396.48
656.391	34045.53
656.742	34100.67
657.094	34153.78
657.445	34161.69
657.796	34213.89
658.147	34162.59
658.498	34080.33
658.849	34175.7
659.2	34034.68
659.551	34046.44
659.902	34191.74
660.253	34084.17
660.604	34151.74
660.955	33994.01
661.306	34113.1
661.656	34005.76
662.007	34052.76
662.358	33994.23
662.708	34071.52
663.059	34083.5
663.409	33920.56
663.76	34149.48
664.11	34036.49
664.461	34027
664.811	34015.25
665.161	33942.94
665.511	33907.91
665.862	33906.55
666.212	34052.31
666.562	34131.18
666.912	33980.45
667.262	33927.57
667.612	33948.13
667.962	34005.08
668.312	33908.59
668.662	34119.43
669.011	33977.28
669.361	33927.57
669.711	33861.58
670.06	33758.99
670.41	33671.08
670.76	33672.21
671.109	34017.06
671.459	33799.44
671.808	33765.31
672.157	33925.53
672.507	33613
672.856	33716.5
673.205	33808.02
673.554	33790.4
673.904	33654.58
674.253	33786.56
674.602	33746.56
674.951	33305.21
675.3	33091.88
675.649	33762.83
675.998	33692.09
676.346	33570.06
676.695	33681.93
677.044	33424.08
677.393	33608.71
677.741	33609.84
678.09	33527.35
678.438	33463.85
678.787	33587.24
679.135	33426.79
679.484	33248.72
679.832	33440.12
680.181	33257.98
680.529	33305.66
680.877	33230.64
681.225	33121.04
681.573	33416.4
681.922	33054.6
682.27	32944.54
682.618	33092.34
682.966	32896.18
683.314	33100.92
683.661	32844.66
684.009	32785.9
684.357	32791.33
684.705	32739.8
685.053	32819.12
685.4	32711.56
685.748	32566.47
686.095	32498.68
686.443	32592.46
686.79	32439.02
687.138	32447.83
687.485	32457.1
687.832	32274.05
688.18	32270.66
688.527	32017.79
688.874	32034.74
689.221	32055.98
689.568	32050.33
689.915	31874.97
690.262	31951.58
690.609	31713.62
690.956	31680.4
691.303	31705.25
691.65	31579.61
691.997	31527.18
692.344	31266.4
692.69	31367.41
693.037	31394.08
693.383	31004.48
693.73	31232.05
694.077	31056.91
694.423	30993.86
694.769	30944.37
695.116	30860.3
695.462	30779.18
695.808	30763.81
696.155	30795.9
696.501	30488.34
696.847	30489.92
697.193	30329.92
697.539	30421.45
697.885	30209.25
698.231	30101.23
698.577	30173.77
698.923	30005.41
699.269	29882.25
699.614	29879.77
699.96	29663.27
700.306	29832.08
700.651	29662.6
700.997	29482.26
701.342	29477.29
701.688	29492.43
702.033	29405.43
702.379	29401.36
702.724	29262.83
703.069	29316.16
703.415	28905.1
703.76	29028.94
704.105	29055.15
704.45	29073.91
704.795	28834.37
705.14	28718.21
705.485	28753.02
705.83	28630.53
706.175	28696.97
706.52	28625.11
706.865	28365.45
707.209	28490.2
707.554	28297.43
707.899	28342.18
708.243	28287.72
708.588	28184.67
708.932	27987.39
709.277	27970.89
709.621	28028.51
709.966	27735.19
710.31	27911
710.654	27588.07
710.998	27680.05
711.342	27701.97
711.687	27546.95
712.031	27419.04
712.375	27410.45
712.719	27500.84
713.063	27220.85
713.407	27422.88
713.75	27211.36
714.094	27246.16
714.438	27056.11
714.782	27149.22
715.125	26968.66
715.469	27068.77
715.812	26887.3
716.156	26763.24
716.499	26852.95
716.843	26838.49
717.186	26680.98
717.53	26800.07
717.873	26760.98
718.216	26713.07
718.559	26534.32
718.902	26403.02
719.246	26522.11
719.589	26338.39
719.932	26413.19
720.275	26376.13
720.617	26363.25
720.96	26214.1
721.303	26191.05
721.646	26259.52
721.989	26018.85
722.331	26141.33
722.674	26004.61
723.016	26097.72
723.359	25994.9
723.701	25982.24
724.044	25848.46
724.386	25634
724.729	25859.08
725.071	25765.07
725.413	25651.4
725.755	25667.9
726.097	25599.2
726.439	25365.53
726.782	25504.06
727.124	25536.6
727.465	25433.55
727.807	25335.7
728.149	25389.94
728.491	25302.48
728.833	25282.15
729.175	25215.26
729.516	25174.35
729.858	25157.18
730.199	25083.06
730.541	25046.67
730.882	25032.89
731.224	25134.81
731.565	24953.57
731.906	24917.41
732.248	24913.34
732.589	24768.26
732.93	24798.99
733.271	24729.62
733.612	24779.33
733.953	24676.51
734.294	24647.13
734.635	24737.53
734.976	24707.7
735.317	24447.82
735.658	24572.56
735.999	24566.46
736.339	24389.06
736.68	24553.13
737.021	24411.21
737.361	24225.9
737.702	24467.25
738.042	24262.51
738.383	24267.26
738.723	24248.05
739.063	24274.49
739.404	24212.34
739.744	24220.25
740.084	24078.79
740.424	24201.27
740.764	24013.03
741.104	24112.91
741.444	24062.97
741.784	23905.46
742.124	24040.14
742.464	23894.84
742.804	23888.06
743.143	23764.22
743.483	23788.4
743.823	23648.97
744.162	23717.67
744.502	23726.93
744.841	23580.27
745.181	23690.55
745.52	23555.86
745.86	23547.95
746.199	23567.61
746.538	23537.56
746.877	23578.24
747.216	23471.57
747.556	23454.62
747.895	23487.84
748.234	23314.74
748.573	23342.31
748.911	23211.01
749.25	23263.89
749.589	23251.24
749.928	23203.33
750.267	23230.67
750.605	23103.67
750.944	23070.23
751.283	23003.56
751.621	22969.66
751.96	22812.38
752.298	22905.03
752.636	22785.26
752.975	22696
753.313	22759.73
753.651	22819.61
753.989	22640.41
754.327	22715.66
754.666	22555.89
755.004	22455.1
755.342	22491.03
755.679	22506.85
756.017	22324.94
756.355	22434.31
756.693	22326.74
757.031	22337.59
757.368	22185.5
757.706	22156.8
758.044	22110.7
758.381	22095.79
758.719	22002.68
759.056	22071.38
759.394	21918.17
759.731	21811.73
760.068	21862.8
760.405	21684.95
760.743	21722.92
761.08	21719.98
761.417	21611.51
761.754	21423.26
762.091	21482.47
762.428	21416.71
762.765	21225.98
763.102	21401.57
763.438	21100.34
763.775	21053.56
764.112	21161.12
764.449	21038.87
764.785	21030.51
765.122	20918.19
765.458	20819.21
765.795	20798.65
766.131	20822.83
766.467	20656.05
766.804	20657.41
767.14	20549.16
767.476	20517.98
767.812	20410.18
768.148	20409.96
768.485	20380.35
768.821	20187.14
769.157	20215.39
769.492	20112.56
769.828	20117.31
770.164	19990.99
770.5	19899.01
770.836	19795.51
771.171	19765
771.507	19787.38
771.842	19667.6
772.178	19585.35
772.513	19563.88
772.849	19353.94
773.184	19449.3
773.519	19382.41
773.855	19215.19
774.19	19223.1
774.525	19131.35
774.86	19100.16
775.195	19052.48
775.53	19009.54
775.865	18885.48
776.2	18793.73
776.535	18658.14
776.87	18664.92
777.205	18578.59
777.539	18525.71
777.874	18482.32
778.209	18384.47
778.543	18251.6
778.878	18256.57
779.212	18132.28
779.547	18098.61
779.881	18082.79
780.215	17914.88
780.55	18010.7
780.884	17871.72
781.218	17840.76
781.552	17845.96
781.886	17661.56
782.22	17581.11
782.554	17576.13
782.888	17438.74
783.222	17346.31
783.556	17311.73
783.889	17243.94
784.223	17175.01
784.557	17062.93
784.89	17105.41
785.224	17082.36
785.557	16918.52
785.891	16854.34
786.224	16801.92
786.558	16780.9
786.891	16685.76
787.224	16549.27
787.557	16475.82
787.891	16473.34
788.224	16558.53
788.557	16530.96
788.89	16378.43
789.223	16413.9
789.556	16286.68
789.888	16217.75
790.221	16184.31
790.554	16060.69
790.887	16112.44
791.219	16012.11
791.552	15938.89
791.884	15914.26
792.217	15795.84
792.549	15752.68
792.882	15689.63
793.214	15628.16
793.546	15562.18
793.879	15509.75
794.211	15470.2
794.543	15486.47
794.875	15428.17
795.207	15480.14
795.539	15292.35
795.871	15300.26
796.203	15212.58
796.535	15092.81
796.867	15114.73
797.198	15046.93
797.53	14965.81
797.862	14893.94
798.193	14922.87
798.525	14837.9
798.856	14805.59
799.188	14753.16
799.519	14690.79
799.85	14612.82
800.182	14662.99
800.513	14644.91
800.844	14496.44
801.175	14498.47
801.506	14434.52
801.837	14542.99
802.168	14348.2
802.499	14347.07
802.83	14295.32
803.161	14191.14
803.491	14286.95
803.822	14182.32
804.153	14111.82
804.483	13987.08
804.814	13960.64
805.145	13943.69
805.475	13979.84
805.805	13903.69
806.136	13915.67
806.466	13844.25
806.796	13780.98
807.126	13751.15
807.457	13668.89
807.787	13674.77
808.117	13594.77
808.447	13622.11
808.777	13601.55
809.107	13529.01
809.436	13427.54
809.766	13452.85
810.096	13403.81
810.426	13350.71
810.755	13332.4
811.085	13358.17
811.414	13261.67
811.744	13225.51
812.073	13198.85
812.403	13181.9
812.732	13030.49
813.061	13091.05
813.39	12998.4
813.719	13007.44
814.049	13041.56
814.378	13023.26
814.707	12891.74
815.036	12922.47
815.365	12804.06
815.693	12738.3
816.022	12757.96
816.351	12711.18
816.68	12698.07
817.008	12686.09
817.337	12573.1
817.665	12542.37
817.994	12568.81
818.322	12530.16
818.651	12512.09
818.979	12448.59
819.307	12499.66
819.636	12421.92
819.964	12327.91
820.292	12447.23
820.62	12318.65
820.948	12284.3
821.276	12339.66
821.604	12315.93
821.932	12346.67
822.259	12353.22
822.587	12244.07
822.915	12304.41
823.243	12284.75
823.57	12267.35
823.898	12302.83
824.225	12258.08
824.553	12325.2
824.88	12241.58
825.207	12308.93
825.535	12217.86
825.862	12359.77
826.189	12221.02
826.516	12266.44
826.843	12361.81
827.17	12287.46
827.497	12381.92
827.824	12189.61
828.151	12333.33
828.478	12214.69
828.805	12305.54
829.131	12219.21
829.458	12195.71
829.785	12104.87
830.111	12182.83
830.438	12264.18
830.764	12282.71
831.09	12259.66
831.417	12178.54
831.743	12229.61
832.069	12201.36
832.395	12181.47
832.722	12125.88
833.048	12077.52
833.374	12139.44
833.7	12081.59
834.026	12122.27
834.351	12139.21
834.677	12075.71
835.003	12066.9
835.329	12081.59
835.654	12064.19
835.98	11990.74
836.306	11998.88
836.631	11929.05
836.956	12062.83
837.282	11991.2
837.607	11905.77
837.932	11922.5
838.258	11907.81
838.583	11915.72
838.908	11924.76
839.233	11769.05
839.558	11715.5
839.883	11809.05
840.208	11732.45
840.533	11763.18
840.858	11713.92
841.182	11786.23
841.507	11706.01
841.832	11722.5
842.156	11724.99
842.481	11644.09
842.805	11601.15
843.13	11569.96
843.454	11575.61
843.778	11446.35
844.103	11529.74
844.427	11460.81
844.751	11422.62
845.075	11451.55
845.399	11403.64
845.723	11331.1
846.047	11317.54
846.371	11216.3
846.695	11285.45
847.019	11172.91
847.343	11113.7
847.666	11047.04
847.99	11041.16
848.313	10979.92
848.637	10920.04
848.96	10902.64
849.284	10912.35
849.607	10771.57
849.931	10744.22
850.254	10726.37
850.577	10692.7
850.9	10542.19
851.223	10604.34
851.546	10566.37
851.869	10406.6
852.192	10543.78
852.515	10373.16
852.838	10388.98
853.161	10377.68
853.483	10367.74
853.806	10300.62
854.129	10235.99
854.451	10231.02
854.774	10170.23
855.096	10114.18
855.419	10138.36
855.741	10074.64
856.063	10027.86
856.385	10021.53
856.708	10016.11
857.03	9938.82
857.352	9930.69
857.674	9946.96
857.996	9795.77
858.318	9888.88
858.64	9825.83
858.961	9767.75
859.283	9737.47
859.605	9669.9
859.926	9734.76
860.248	9642.78
860.57	9644.82
860.891	9603.01
861.212	9638.72
861.534	9632.39
861.855	9569.56
862.176	9556.01
862.498	9564.82
862.819	9591.71
863.14	9492.96
863.461	9521.66
863.782	9430.81
864.103	9375.45
864.424	9404.82
864.745	9365.95
865.065	9372.06
865.386	9269.91
865.707	9335.22
866.027	9263.36
866.348	9318.05
866.668	9300.87
866.989	9260.19
867.309	9264.49
867.63	9248.67
867.95	9243.25
868.27	9219.97
868.59	9159.18
868.91	9185.62
869.23	9240.76
869.55	9103.14
869.87	9145.4
870.19	9165.51
870.51	9115.34
870.83	9088.9
871.15	9132.74
871.469	9006.87
871.789	9099.97
872.109	8989.69
872.428	8994.21
872.748	9026.98
873.067	9045.28
873.386	9033.08
873.706	9035.57
874.025	8905.4
874.344	8924.61
874.663	8930.03
874.982	8911.95
875.301	8895.23
875.62	8895.46
875.939	8888
876.258	8872.41
876.577	8812.3
876.896	8863.82
877.214	8781.34
877.533	8716.93
877.852	8802.81
878.17	8739.3
878.489	8755.8
878.807	8724.84
879.125	8634.9
879.444	8664.05
879.762	8684.62
880.08	8660.44
880.398	8677.61
880.716	8686.65
881.034	8559.42
881.352	8603.04
881.67	8578.4
881.988	8600.55
882.306	8554.68
882.624	8554
882.941	8451.18
883.259	8470.38
883.577	8461.57
883.894	8427
884.212	8367.79
884.529	8424.06
884.846	8409.6
885.164	8395.13
885.481	8328.69
885.798	8376.83
886.115	8321.01
886.432	8254.12
886.75	8227.45
887.067	8230.84
887.383	8246.44
887.7	8186.1
888.017	8158.98
888.334	8185.42
888.651	8163.5
888.967	8076.04
889.284	8095.93
889.6	8063.84
889.917	8015.71
890.233	8026.1
890.55	7979.1
890.866	7980
891.182	7952.66
891.498	7994.69
891.815	7871.98
892.131	7967.8
892.447	7858.65
892.763	7888.25
893.079	7846.45
893.395	7790.85
893.71	7796.96
894.026	7740.46
894.342	7739.78
894.657	7674.93
894.973	7724.42
895.289	7644.42
895.604	7575.27
895.92	7661.37
896.235	7585.66
896.55	7584.98
896.865	7533.91
897.181	7517.64
897.496	7538.88
897.811	7539.11
898.126	7486.91
898.441	7441.71
898.756	7381.37
899.071	7377.53
899.386	7357.87
899.7	7273.35
900.015	7287.59
900.33	7227.71
900.644	7180.7
900.959	7254.6
901.273	7205.56
901.588	7135.05
901.902	7156.52
902.216	7100.7
902.531	7054.83
902.845	7045.79
903.159	7008.05
903.473	7013.7
903.787	6982.74
904.101	6944.55
904.415	6882.4
904.729	6889.41
905.042	6799.24
905.356	6814.16
905.67	6843.53
905.984	6845.34
906.297	6806.7
906.611	6736.87
906.924	6745.91
907.237	6755.4
907.551	6737.32
907.864	6650.09
908.177	6610.32
908.491	6607.16
908.804	6576.42
909.117	6556.08
909.43	6541.85
909.743	6449.42
910.056	6486.93
910.368	6476.99
910.681	6386.37
910.994	6413.94
911.307	6364.23
911.619	6359.71
911.932	6308.18
912.244	6279.93
912.557	6289.2
912.869	6281.29
913.181	6240.84
913.494	6185.02
913.806	6121.29
914.118	6175.76
914.43	6079.71
914.742	6101.41
915.054	6095.53
915.366	6035.87
915.678	6027.74
915.99	5945.93
916.302	5985.03
916.613	5965.82
916.925	5879.04
917.236	5888.31
917.548	5848.53
917.859	5882.88
918.171	5802.43
918.482	5775.54
918.794	5725.82
919.105	5752.72
919.416	5766.05
919.727	5660.52
920.038	5682.21
920.349	5631.14
920.66	5597.47
920.971	5592.49
921.282	5597.92
921.593	5580.74
921.903	5566.96
922.214	5517.92
922.525	5462.78
922.835	5502.55
923.146	5411.48
923.456	5414.87
923.767	5423.01
924.077	5378.71
924.387	5421.43
924.697	5289
925.008	5307.3
925.318	5339.17
925.628	5289.9
925.938	5285.61
926.248	5200.19
926.558	5195.44
926.867	5183.01
927.177	5139.4
927.487	5136.69
927.796	5139.85
928.106	5090.13
928.416	5159.96
928.725	5100.53
929.034	5055.11
929.344	5038.38
929.653	4998.39
929.962	4925.17
930.271	4951.16
930.581	4899.63
930.89	4874.1
931.199	4845.17
931.508	4900.76
931.817	4880.65
932.125	4806.07
932.434	4835.45
932.743	4747.77
933.051	4764.72
933.36	4774.44
933.669	4703.48
933.977	4716.81
934.286	4701.67
934.594	4654.44
934.902	4647.89
935.21	4608.79
935.519	4618.06
935.827	4570.83
936.135	4621.67
936.443	4512.75
936.751	4562.24
937.059	4533.99
937.367	4460.55
937.674	4483.82
937.982	4502.58
938.29	4439.76
938.597	4475.01
938.905	4408.12
939.213	4338.06
939.52	4360.89
939.827	4319.08
940.135	4275.47
940.442	4297.61
940.749	4345.52
941.056	4322.02
941.363	4284.28
941.67	4236.82
941.977	4246.31
942.284	4223.72
942.591	4188.01
942.898	4177.16
943.205	4135.81
943.511	4153.44
943.818	4129.03
944.125	4106.21
944.431	4027.56
944.738	4084.96
945.044	4060.33
945.35	4040.22
945.657	3998.86
945.963	3937.85
946.269	3999.54
946.575	3943.27
946.881	3982.82
947.187	3901.24
947.493	3861.24
947.799	3879.09
948.105	3886.55
948.41	3871.18
948.716	3848.13
949.022	3824.41
949.327	3813.56
949.633	3768.81
949.938	3782.6
950.244	3810.17
950.549	3688.59
950.854	3749.6
951.16	3710.74
951.465	3659.66
951.77	3686.78
952.075	3694.69
952.38	3660.57
952.685	3601.59
952.99	3627.35
953.294	3622.38
953.599	3632.09
953.904	3577.41
954.209	3568.82
954.513	3529.05
954.818	3560.23
955.122	3550.06
955.426	3502.38
955.731	3482.95
956.035	3486.56
956.339	3466.67
956.643	3414.25
956.948	3429.61
957.252	3439.56
957.556	3406.34
957.86	3399.56
958.163	3403.17
958.467	3409.05
958.771	3360.46
959.075	3331.31
959.378	3319.33
959.682	3315.94
959.985	3327.92
960.289	3277.3
960.592	3299
960.896	3252.44
961.199	3231.88
961.502	3203.86
961.805	3187.36
962.108	3202.05
962.411	3193.46
962.714	3150.75
963.017	3119.34
963.32	3129.73
963.623	3080.92
963.926	3130.64
964.228	3087.93
964.531	3108.27
964.833	3109.62
965.136	3036.18
965.438	3032.79
965.741	2994.6
966.043	3034.14
966.345	2985.78
966.648	3009.74
966.95	2959.8
967.252	2918.44
967.554	2988.27
967.856	2963.64
968.158	2912.11
968.46	2932.68
968.761	2930.87
969.063	2887.48
969.365	2846.35
969.666	2849.97
969.968	2824.21
970.269	2854.71
970.571	2833.24
970.872	2807.26
971.174	2826.24
971.475	2809.97
971.776	2770.2
972.077	2791.66
972.378	2766.58
972.679	2769.74
972.98	2714.38
973.281	2759.35
973.582	2713.7
973.883	2685.45
974.183	2715.96
974.484	2668.5
974.785	2688.62
975.085	2687.71
975.386	2671.22
975.686	2647.71
975.986	2615.85
976.287	2596.87
976.587	2622.18
976.887	2587.15
977.187	2588.28
977.487	2599.35
977.787	2530.88
978.087	2547.38
978.387	2535.4
978.687	2508.96
978.987	2532.69
979.286	2479.81
979.586	2495.63
979.885	2451.79
980.185	2490.65
980.484	2467.6
980.784	2449.98
981.083	2433.71
981.382	2422.41
981.682	2405.91
981.981	2404.33
982.28	2414.95
982.579	2380.83
982.878	2376.99
983.177	2362.97
983.475	2368.4
983.774	2347.38
984.073	2287.04
984.372	2295.63
984.67	2319.59
984.969	2292.47
985.267	2311.45
985.566	2299.7
985.864	2273.26
986.162	2238.23
986.461	2224.45
986.759	2270.55
987.057	2262.86
987.355	2177.44
987.653	2218.12
987.951	2226.26
988.249	2185.35
988.547	2172.92
988.844	2166.82
989.142	2169.08
989.44	2157.78
989.737	2133.6
990.035	2130.66
990.332	2141.06
990.63	2127.27
990.927	2114.17
991.224	2129.76
991.521	2097.44
991.819	2068.97
992.116	2064
992.413	2090.44
992.71	2055.86
993.006	2038.46
993.303	2048.63
993.6	2035.3
993.897	2026.03
994.193	2020.16
994.49	2013.38
994.787	1980.16
995.083	1970.44
995.379	1977.45
995.676	1954.62
995.972	1975.64
996.268	1933.16
996.565	1981.74
996.861	1941.52
997.157	1915.75
997.453	1915.53
997.749	1898.13
998.044	1877.34
998.34	1908.52
998.636	1881.18
998.932	1861.29
999.227	1860.61
999.523	1837.79
999.818	1820.62
1000.114	1851.35
1000.409	1798.02
1000.704	1811.35
1001	1826.04
1001.295	1784.46
1001.59	1803.22
1001.885	1758.24
1002.18	1754.63
1002.475	1744.23
1002.77	1758.47
1003.065	1752.6
1003.359	1737.45
1003.654	1713.05
1003.949	1717.57
1004.243	1688.42
1004.538	1711.92
1004.832	1685.93
1005.127	1660.17
1005.421	1660.17
1005.715	1659.49
1006.009	1636.89
1006.304	1641.86
1006.598	1615.88
1006.892	1595.76
1007.186	1603.22
1007.48	1594.41
1007.773	1587.18
1008.067	1602.09
1008.361	1607.51
1008.655	1556.44
1008.948	1581.98
1009.242	1547.18
1009.535	1562.09
1009.829	1536.56
1010.122	1537.69
1010.415	1533.62
1010.708	1507.86
1011.001	1517.35
1011.295	1478.25
1011.588	1482.09
1011.881	1497.01
1012.173	1497.46
1012.466	1473.51
1012.759	1461.76
1013.052	1475.31
1013.344	1409.1
1013.637	1427.86
1013.93	1438.71
1014.222	1408.65
1014.514	1414.3
1014.807	1428.54
1015.099	1395.09
1015.391	1373.62
1015.683	1350.12
1015.976	1366.39
1016.268	1374.98
1016.56	1326.84
1016.851	1360.29
1017.143	1345.6
1017.435	1322.78
1017.727	1322.55
1018.018	1339.05
1018.31	1308.77
1018.602	1289.1
1018.893	1291.14
1019.185	1264.02
1019.476	1277.58
1019.767	1259.27
1020.058	1250.01
1020.35	1238.71
1020.641	1209.33
1020.932	1210.69
1021.223	1224.02
1021.514	1239.61
1021.804	1205.72
1022.095	1196.9
1022.386	1180.18
1022.677	1178.6
1022.967	1149.9
1023.258	1177.02
1023.548	1164.59
1023.839	1146.96
1024.129	1121.43
1024.419	1144.02
1024.709	1142.44
1025	1129.79
1025.29	1128.43
1025.58	1094.99
1025.87	1108.77
1026.16	1111.48
1026.449	1091.37
1026.739	1095.44
1027.029	1087.53
1027.319	1109.9
1027.608	1059.05
1027.898	1068.32
1028.187	1088.21
1028.477	1064.7
1028.766	1040.07
1029.055	1059.28
1029.344	1041.65
1029.634	1021.31
1029.923	1003.69
1030.212	1022.44
1030.501	1021.77
1030.79	998.49
1031.078	994.2
1031.367	999.39
1031.656	971.82
1031.945	978.38
1032.233	964.14
1032.522	976.8
1032.81	971.6
1033.099	958.72
1033.387	943.12
1033.675	954.88
1033.963	932.05
1034.251	944.25
1034.54	911.04
1034.828	923.92
1035.116	909.91
1035.403	921.43
1035.691	905.61
1035.979	872.39
1036.267	894.31
1036.554	890.02
1036.842	895.22
1037.129	862.45
1037.417	873.3
1037.704	860.64
1037.992	857.7
1038.279	843.69
1038.566	869
1038.853	869
1039.14	869
