Data from hue_160_FLMS001491_00020.txt Node
Date: Tue Feb 07 16:50:50 GMT 2017
User: dcchb
Spectrometer: FLMS00149
Trigger mode: 0
Integration Time (sec): 2.000000E-2
Scans to average: 10
Electric dark correction enabled: true
Nonlinearity correction enabled: false
Boxcar width: 0
XAxis mode: Wavelengths
Number of Pixels in Spectrum: 2048
>>>>>Begin Spectral Data<<<<<
341.393	-26.75
341.776	-26.75
342.16	-26.75
342.543	-53.42
342.927	-74.21
343.31	-68.33
343.693	-64.49
344.077	-75.56
344.46	-60.87
344.843	-62.23
345.226	-50.03
345.61	-26.3
345.993	-16.36
346.376	-9.58
346.759	18.22
347.142	33.59
347.525	37.2
347.908	74.49
348.291	74.04
348.674	86.01
349.057	110.19
349.44	132.12
349.823	150.65
350.206	160.14
350.588	188.61
350.971	241.72
351.354	235.16
351.737	253.47
352.119	239.68
352.502	278.33
352.884	265.44
353.267	281.49
353.65	283.07
354.032	293.47
354.414	309.29
354.797	332.34
355.179	319.23
355.562	322.84
355.944	323.3
356.326	314.71
356.709	323.3
357.091	313.13
357.473	335.27
357.855	327.36
358.238	337.08
358.62	335.95
359.002	337.53
359.384	349.51
359.766	332.56
360.148	346.35
360.53	329.62
360.912	330.08
361.294	348.15
361.676	324.65
362.057	339.12
362.439	348.38
362.821	348.61
363.203	336.18
363.584	338.89
363.966	322.17
364.348	302.73
364.729	305.9
365.111	319
365.493	321.04
365.874	323.75
366.256	335.73
366.637	318.1
367.019	311.55
367.4	329.62
367.781	332.34
368.163	320.58
368.544	322.39
368.925	316.29
369.306	337.31
369.688	316.29
370.069	312.68
370.45	318.55
370.831	308.83
371.212	332.11
371.593	334.6
371.974	314.94
372.355	324.2
372.736	343.41
373.117	342.96
373.498	320.81
373.879	340.02
374.26	304.31
374.641	311.77
375.021	330.08
375.402	308.61
375.783	330.98
376.163	316.52
376.544	329.85
376.925	336.18
377.305	315.61
377.686	326.23
378.066	324.2
378.447	339.79
378.827	345.89
379.208	330.08
379.588	333.92
379.968	326.46
380.349	318.32
380.729	347.25
381.109	335.05
381.489	352.45
381.87	352.67
382.25	331.43
382.63	329.62
383.01	343.86
383.39	333.47
383.77	331.43
384.15	359
384.53	329.4
384.91	325.33
385.29	353.13
385.67	337.99
386.049	351.09
386.429	360.81
386.809	350.41
387.189	345.44
387.568	330.75
387.948	352
388.328	342.51
388.707	352.9
389.087	377.08
389.466	371.43
389.846	354.93
390.225	365.56
390.605	375.5
390.984	379.79
391.363	372.56
391.743	359
392.122	371.88
392.501	359
392.881	380.47
393.26	350.87
393.639	376.4
394.018	377.76
394.397	394.93
394.776	387.7
395.155	380.24
395.534	386.57
395.913	359
396.292	379.34
396.671	376.63
397.05	384.09
397.429	403.75
397.808	384.09
398.186	389.74
398.565	400.13
398.944	388.61
399.323	389.06
399.701	400.13
400.08	396.06
400.458	373.92
400.837	408.49
401.215	392.9
401.594	408.72
401.972	385.22
402.351	398.55
402.729	385.22
403.107	409.4
403.486	410.53
403.864	403.29
404.242	414.59
404.62	423.41
404.999	427.02
405.377	433.12
405.755	420.24
406.133	407.81
406.511	413.69
406.889	437.42
407.267	426.12
407.645	412.33
408.023	433.35
408.401	435.38
408.779	440.81
409.156	431.77
409.534	441.49
409.912	436.06
410.29	450.75
410.667	461.6
411.045	451.43
411.422	478.32
411.8	463.41
412.178	458.21
412.555	471.99
412.933	467.47
413.31	471.99
413.687	489.85
414.065	477.19
414.442	477.87
414.819	485.33
415.197	487.13
415.574	485.55
415.951	518.32
416.328	499.79
416.705	507.7
417.082	500.69
417.46	488.26
417.837	521.26
418.214	513.12
418.591	509.73
418.967	514.03
419.344	511.09
419.721	540.92
420.098	523.74
420.475	535.95
420.852	536.85
421.228	552.67
421.605	524.87
421.982	567.81
422.358	531.2
422.735	556.74
423.111	589.28
423.488	551.31
423.864	562.16
424.241	577.98
424.617	546.79
424.994	577.53
425.37	549.96
425.746	576.4
426.123	588.83
426.499	583.18
426.875	589.96
427.251	617.3
427.627	623.85
428.003	596.96
428.379	618.43
428.756	623.63
429.132	615.94
429.507	642.61
429.883	649.62
430.259	636.96
430.635	645.55
431.011	642.84
431.387	636.51
431.763	678.09
432.138	662.5
432.514	656.62
432.89	694.59
433.265	694.13
433.641	688.71
434.016	700.24
434.392	713.12
434.767	713.34
435.143	715.38
435.518	732.55
435.894	750.63
436.269	754.02
436.644	727.35
437.02	756.73
437.395	736.62
437.77	767.58
438.145	780.69
438.52	763.96
438.895	761.25
439.271	770.06
439.646	787.69
440.021	806.67
440.395	810.97
440.77	795.15
441.145	811.87
441.52	813.91
441.895	839.22
442.27	811.42
442.645	822.04
443.019	867.92
443.394	850.74
443.769	862.72
444.143	833.57
444.518	869.27
444.892	835.83
445.267	869.27
445.641	884.64
446.016	902.94
446.39	891.64
446.764	878.31
447.139	905.65
447.513	911.3
447.887	910.4
448.262	889.16
448.636	907.24
449.01	926.67
449.384	935.26
449.758	933
450.132	962.38
450.506	932.77
450.88	958.99
451.254	954.69
451.628	998.76
452.002	982.94
452.376	1013.22
452.75	994.69
453.123	992.21
453.497	1023.17
453.871	1019.55
454.244	1049.15
454.618	1081.24
454.992	1061.58
455.365	1038.53
455.739	1092.54
456.112	1101.36
456.486	1101.58
456.859	1087.8
457.232	1112.65
457.606	1161.01
457.979	1127.57
458.352	1183.16
458.725	1198.75
459.099	1207.34
459.472	1227.91
459.845	1229.71
460.218	1231.52
460.591	1238.98
460.964	1254.57
461.337	1285.08
461.71	1304.74
462.083	1325.08
462.456	1300.67
462.829	1327.56
463.201	1349.94
463.574	1379.54
463.947	1404.62
464.32	1409.6
464.692	1442.36
465.065	1432.87
465.438	1434
465.81	1483.49
466.183	1518.97
466.555	1547.45
466.928	1542.7
467.3	1565.3
467.672	1565.98
468.045	1606.43
468.417	1612.3
468.789	1663.83
469.161	1694.79
469.534	1720.32
469.906	1763.26
470.278	1757.61
470.65	1776.37
471.022	1841.9
471.394	1882.35
471.766	1905.18
472.138	1944.5
472.51	1972.74
472.882	2022.01
473.253	2073.31
473.625	2108.79
473.997	2168.45
474.369	2188.11
474.74	2205.96
475.112	2273.3
475.484	2329.12
475.855	2405.28
476.227	2473.52
476.598	2513.3
476.97	2549.68
477.341	2610.24
477.713	2718.49
478.084	2734.31
478.455	2836.9
478.827	2890.69
479.198	3013.62
479.569	3010.01
479.94	3135.65
480.311	3188.53
480.682	3279.38
481.053	3370.45
481.424	3464.68
481.795	3545.58
482.166	3632.81
482.537	3713.26
482.908	3804.11
483.279	3899.02
483.65	3992.13
484.021	4158.9
484.391	4195.51
484.762	4299.69
485.133	4311.89
485.503	4471.89
485.874	4598.66
486.244	4687.02
486.615	4859.22
486.985	4957.07
487.356	5083.62
487.726	5148.71
488.097	5344.86
488.467	5371.98
488.837	5595.25
489.207	5684.51
489.578	5826.65
489.948	5906.65
490.318	6039.76
490.688	6136.25
491.058	6340.99
491.428	6378.5
491.798	6579.18
492.168	6761.77
492.538	6827.76
492.908	6911.6
493.278	7009.22
493.648	7143.46
494.017	7290.8
494.387	7386.39
494.757	7473.17
495.126	7596.55
495.496	7726.49
495.866	7815.08
496.235	7965.81
496.605	8056.2
496.974	8169.64
497.344	8262.07
497.713	8392.46
498.082	8483.76
498.452	8607.6
498.821	8649.63
499.19	8787.48
499.559	8810.76
499.928	8887.82
500.298	9040.58
500.667	9138.66
501.036	9166
501.405	9332.78
501.774	9371.19
502.143	9467.24
502.512	9514.92
502.88	9650.51
503.249	9664.52
503.618	9806.44
503.987	9849.83
504.356	9945.87
504.724	9991.29
505.093	10027
505.462	10063.15
505.83	10159.2
506.199	10161
506.567	10325.29
506.936	10393.77
507.304	10404.16
507.672	10534.55
508.041	10574.55
508.409	10627.43
508.777	10672.85
509.145	10826.52
509.514	10729.35
509.882	10909.23
510.25	10904.26
510.618	10969.57
510.986	10969.57
511.354	11196.23
511.722	11187.42
512.09	11170.24
512.458	11161.88
512.826	11270.58
513.193	11294.53
513.561	11330.01
513.929	11367.07
514.297	11429.9
514.664	11475.77
515.032	11477.13
515.4	11622.21
515.767	11631.7
516.135	11607.75
516.502	11514.19
516.869	11759.61
517.237	11727.29
517.604	11733.62
517.972	11791.24
518.339	11825.14
518.706	11773.39
519.073	11828.98
519.44	11817.01
519.808	12003.67
520.175	11911.01
520.542	12051.58
520.909	12028.53
521.276	11972.03
521.643	12091.8
522.009	12076.21
522.376	12186.04
522.743	12212.7
523.11	12229.42
523.477	12254.28
523.843	12298.35
524.21	12331.34
524.577	12409.53
524.943	12373.38
525.31	12414.73
525.676	12517.33
526.043	12512.58
526.409	12492.47
526.776	12562.3
527.142	12528.17
527.508	12582.64
527.874	12535.4
528.241	12546.25
528.607	12614.27
528.973	12639.13
529.339	12569.98
529.705	12623.31
530.071	12628.96
530.437	12641.62
530.803	12671.45
531.169	12670.32
531.535	12517.1
531.901	12631.67
532.267	12517.33
532.632	12637.1
532.998	12586.7
533.364	12526.82
533.73	12528.17
534.095	12635.06
534.461	12601.62
534.826	12603.2
535.192	12557.1
535.557	12562.97
535.923	12493.82
536.288	12491.79
536.653	12551.9
537.019	12402.08
537.384	12386.26
537.749	12517.55
538.114	12383.09
538.479	12330.21
538.845	12332.92
539.21	12270.55
539.575	12346.94
539.94	12252.7
540.305	12234.4
540.67	12184.68
541.034	12220.84
541.399	12141.06
541.764	12031.24
542.129	12044.34
542.494	12002.09
542.858	12030.79
543.223	11939.26
543.587	12016.1
543.952	11969.32
544.316	11937.91
544.681	11859.26
545.045	11885.25
545.41	11899.49
545.774	11796.67
546.138	11811.13
546.503	11714.86
546.867	11731.81
547.231	11727.52
547.595	11666.95
547.959	11679.83
548.324	11632.15
548.688	11567.97
549.052	11603
549.416	11541.98
549.779	11428.54
550.143	11416.34
550.507	11461.53
550.871	11463.12
551.235	11405.94
551.599	11442.78
551.962	11388.54
552.326	11303.57
552.689	11316.23
553.053	11268.32
553.417	11268.32
553.78	11292.05
554.143	11243.01
554.507	11252.73
554.87	11263.57
555.234	11315.32
555.597	11160.3
555.96	11144.03
556.323	11133.18
556.686	11077.59
557.05	11158.04
557.413	11039.4
557.776	11064.26
558.139	11052.73
558.502	11130.47
558.865	11008.67
559.228	11069
559.59	11033.07
559.953	11091.6
560.316	11121.66
560.679	11072.17
561.041	11088.89
561.404	11070.81
561.767	11095.89
562.129	11051.83
562.492	11180.41
562.854	10997.59
563.217	11078.49
563.579	11092.73
563.941	11099.51
564.304	11182.45
564.666	11214.08
565.028	11124.14
565.39	11092.73
565.753	11180.86
566.115	11173.41
566.477	11208.43
566.839	11205.04
567.201	11293.18
567.563	11188.1
567.925	11293.4
568.287	11261.77
568.648	11251.37
569.01	11341.54
569.372	11290.69
569.734	11235.55
570.095	11304.48
570.457	11332.27
570.819	11345.38
571.18	11309.9
571.542	11388.99
571.903	11334.98
572.265	11379.96
572.626	11314.65
572.987	11428.54
573.349	11362.1
573.71	11359.84
574.071	11398.94
574.432	11374.08
574.794	11451.14
575.155	11499.73
575.516	11341.54
575.877	11404.59
576.238	11389.22
576.599	11444.13
576.96	11422.67
577.32	11477.13
577.681	11481.65
578.042	11440.07
578.403	11440.52
578.763	11407.98
579.124	11457.69
579.485	11510.35
579.845	11583.34
580.206	11452.72
580.566	11458.82
580.927	11446.39
581.287	11558.26
581.648	11438.26
582.008	11461.08
582.368	11443.91
582.728	11502.89
583.089	11412.5
583.449	11443.23
583.809	11441.42
584.169	11497.24
584.529	11357.36
584.889	11470.35
585.249	11287.08
585.609	11389.45
585.969	11433.96
586.329	11423.8
586.688	11433.74
587.048	11403.46
587.408	11312.84
587.768	11392.61
588.127	11327.53
588.487	11421.08
588.846	11449.11
589.206	11318.71
589.565	11306.96
589.925	11387.41
590.284	11293.63
590.643	11286.4
591.003	11348.54
591.362	11361.65
591.721	11333.85
592.08	11251.82
592.44	11326.17
592.799	11317.58
593.158	11272.84
593.517	11241.65
593.876	11218.38
594.235	11253.18
594.593	11267.42
594.952	11301.99
595.311	11266.74
595.67	11288.21
596.029	11375.89
596.387	11339.05
596.746	11229
597.104	11244.14
597.463	11210.69
597.822	11221.99
598.18	11223.35
598.538	11170.92
598.897	11185.16
599.255	11221.09
599.613	11336.11
599.972	11186.06
600.33	11282.56
600.688	11139.96
601.046	11276.23
601.404	11250.24
601.762	11250.47
602.12	11306.96
602.478	11291.37
602.836	11273.29
603.194	11159.4
603.552	11245.72
603.91	11198.49
604.268	11247.53
604.625	11215.89
604.983	11246.85
605.341	11204.59
605.698	11227.42
606.056	11298.6
606.413	11261.09
606.771	11244.14
607.128	11235.33
607.485	11210.69
607.843	11236.68
608.2	11247.53
608.557	11273.74
608.914	11268.09
609.272	11312.39
609.629	11292.95
609.986	11370.92
610.343	11235.78
610.7	11314.19
611.057	11327.3
611.414	11317.58
611.771	11281.65
612.127	11408.43
612.484	11330.24
612.841	11334.31
613.198	11280.07
613.554	11353.52
613.911	11420.86
614.267	11333.4
614.624	11406.62
614.98	11404.81
615.337	11445.72
615.693	11466.05
616.05	11430.12
616.406	11428.54
616.762	11416.34
617.118	11460.18
617.475	11424.47
617.831	11467.41
618.187	11469.67
618.543	11540.85
618.899	11490.46
619.255	11541.31
619.611	11512.38
619.967	11537.01
620.323	11592.83
620.678	11582.21
621.034	11439.16
621.39	11477.81
621.746	11500.86
622.101	11633.06
622.457	11479.16
622.812	11490.91
623.168	11586.73
623.523	11550.57
623.879	11531.82
624.234	11483.91
624.589	11534.08
624.945	11513.51
625.3	11556.67
625.655	11548.54
626.01	11548.99
626.365	11565.49
626.72	11538.14
627.075	11499.05
627.43	11492.49
627.785	11487.52
628.14	11555.77
628.495	11481.42
628.85	11559.16
629.205	11469.22
629.559	11530.01
629.914	11514.64
630.269	11531.36
630.623	11476.68
630.978	11410.91
631.332	11503.34
631.687	11496.34
632.041	11354.87
632.396	11409.56
632.75	11436.68
633.104	11460.4
633.459	11444.59
633.813	11385.6
634.167	11419.5
634.521	11303.57
634.875	11364.36
635.229	11367.53
635.583	11318.94
635.937	11274.42
636.291	11273.97
636.645	11322.78
636.999	11221.54
637.352	11283.01
637.706	11204.82
638.06	11243.69
638.413	11230.35
638.767	11187.19
639.121	11189.23
639.474	11134.31
639.828	11126.85
640.181	11162.33
640.534	11198.26
640.888	11118.94
641.241	11055.22
641.594	11151.71
641.947	11177.25
642.301	11073.52
642.654	11100.64
643.007	11054.54
643.36	11079.4
643.713	11002.56
644.066	11025.61
644.419	11041.21
644.771	10902.68
645.124	10868.78
645.477	10843.02
645.83	10702.91
646.182	10759.63
646.535	10687.54
646.888	10726.64
647.24	10649.8
647.593	10750.14
647.945	10714.89
648.298	10648
648.65	10633.99
649.002	10555.57
649.355	10688.9
649.707	10635.57
650.059	10653.87
650.411	10849.8
650.763	10850.93
651.115	10900.42
651.467	10891.38
651.819	10888.22
652.171	10899.74
652.523	10856.13
652.875	10777.94
653.227	10819.29
653.578	10964.15
653.93	10956.24
654.282	10947.42
654.633	10796.24
654.985	10882.79
655.337	10855.9
655.688	10858.84
656.039	10961.43
656.391	10806.86
656.742	10884.83
657.094	10911.49
657.445	10947.2
657.796	10907.88
658.147	10865.17
658.498	10893.41
658.849	10869.46
659.2	10927.54
659.551	10886.63
659.902	10915.56
660.253	10892.74
660.604	10923.92
660.955	10857.03
661.306	10905.39
661.656	10924.6
662.007	10889.35
662.358	10964.37
662.708	10962.56
663.059	10926.41
663.409	10825.62
663.76	10935.67
664.11	10941.77
664.461	10892.06
664.811	11009.57
665.161	10937.71
665.511	10918.5
665.862	10991.04
666.212	11027.87
666.562	10912.62
666.912	10952.85
667.262	10947.42
667.612	11005.28
667.962	10986.75
668.312	10965.28
668.662	10943.13
669.011	10965.05
669.361	10961.66
669.711	10914.66
670.06	10873.08
670.41	10887.31
670.76	10911.27
671.109	10936.58
671.459	10903.36
671.808	10892.74
672.157	10917.59
672.507	10939.06
672.856	10834.43
673.205	10776.36
673.554	10835.34
673.904	10866.75
674.253	10958.27
674.602	10862.23
674.951	10709.24
675.3	10709.69
675.649	10829.91
675.998	10836.01
676.346	10842.34
676.695	10765.28
677.044	10739.52
677.393	10739.97
677.741	10756.02
678.09	10800.76
678.438	10700.88
678.787	10739.29
679.135	10726.64
679.484	10695.23
679.832	10745.4
680.181	10585.4
680.529	10668.11
680.877	10644.38
681.225	10546.3
681.573	10740.65
681.922	10601.44
682.27	10515.57
682.618	10498.85
682.966	10551.5
683.314	10548.11
683.661	10493.88
684.009	10398.06
684.357	10408.23
684.705	10399.87
685.053	10397.61
685.4	10343.37
685.748	10305.41
686.095	10335.69
686.443	10238.29
686.79	10251.85
687.138	10310.83
687.485	10305.86
687.832	10267.89
688.18	10261.34
688.527	10206.88
688.874	10194.68
689.221	10168.01
689.568	10161
689.915	10046.66
690.262	10055.24
690.609	9983.61
690.956	9961.69
691.303	10003.27
691.65	9908.58
691.997	9953.33
692.344	9819.77
692.69	9858.19
693.037	9864.74
693.383	9747.91
693.73	9749.26
694.077	9690.73
694.423	9700.23
694.769	9684.63
695.116	9649.61
695.462	9587.23
695.808	9596.27
696.155	9519.66
696.501	9542.72
696.847	9518.54
697.193	9493.68
697.539	9411.42
697.885	9310.18
698.231	9229.28
698.577	9301.82
698.923	9322.61
699.269	9235.83
699.614	9219.33
699.96	9163.06
700.306	9147.02
700.651	9138.66
700.997	9115.61
701.342	9091.2
701.688	9027.02
702.033	8949.51
702.379	8944.31
702.724	8970.98
703.069	8960.58
703.415	8864.09
703.76	8893.47
704.105	8840.59
704.45	8866.57
704.795	8698.22
705.14	8761.94
705.485	8805.56
705.83	8710.19
706.175	8723.53
706.52	8650.76
706.865	8662.06
707.209	8629.07
707.554	8581.38
707.899	8582.06
708.243	8530.99
708.588	8522.18
708.932	8468.17
709.277	8406.02
709.621	8409.86
709.966	8382.97
710.31	8469.3
710.654	8344.33
710.998	8374.61
711.342	8362.86
711.687	8318.11
712.031	8301.39
712.375	8257.78
712.719	8267.72
713.063	8267.72
713.407	8324.89
713.75	8194.05
714.094	8218.68
714.438	8162.19
714.782	8126.26
715.125	8119.7
715.469	8142.98
715.812	8110.44
716.156	8078.8
716.499	8091
716.843	8117.44
717.186	7987.73
717.53	8103.88
717.873	8113.15
718.216	8042.19
718.559	8054.62
718.902	7925.81
719.246	8001.96
719.589	7972.59
719.932	7928.97
720.275	7877.45
720.617	7937.56
720.96	7955.19
721.303	7874.51
721.646	7901.4
721.989	7906.15
722.331	7894.85
722.674	7851.46
723.016	7891.01
723.359	7906.6
723.701	7798.35
724.044	7812.59
724.386	7736.89
724.729	7797.9
725.071	7806.94
725.413	7798.81
725.755	7764
726.097	7734.4
726.439	7749.54
726.782	7734.4
727.124	7775.76
727.465	7734.4
727.807	7744.57
728.149	7687.62
728.491	7683.33
728.833	7745.47
729.175	7713.61
729.516	7711.58
729.858	7704.12
730.199	7732.37
730.541	7683.56
730.882	7719.49
731.224	7718.81
731.565	7650.11
731.906	7757.23
732.248	7734.4
732.589	7692.14
732.93	7607.85
733.271	7663.89
733.612	7631.13
733.953	7732.59
734.294	7676.78
734.635	7693.95
734.976	7718.81
735.317	7668.19
735.658	7698.7
735.999	7699.15
736.339	7724.01
736.68	7766.26
737.021	7673.16
737.361	7693.95
737.702	7751.8
738.042	7759.26
738.383	7787.28
738.723	7704.57
739.063	7688.75
739.404	7798.81
739.744	7724.23
740.084	7778.69
740.424	7704.35
740.764	7724.91
741.104	7841.97
741.444	7747.51
741.784	7758.58
742.124	7821.18
742.464	7890.1
742.804	7821.18
743.143	7829.99
743.483	7909.09
743.823	7892.36
744.162	7946.6
744.502	7985.92
744.841	7944.79
745.181	7980.72
745.52	7995.86
745.86	8035.18
746.199	8075.86
746.538	8156.08
746.877	8178.01
747.216	8260.26
747.556	8282.18
747.895	8274.05
748.234	8338
748.573	8373.48
748.911	8482.63
749.25	8511.56
749.589	8536.19
749.928	8625.45
750.267	8640.82
750.605	8703.64
750.944	8742.74
751.283	8819.8
751.621	8922.62
751.96	9013.92
752.298	9081.71
752.636	9189.5
752.975	9252.1
753.313	9269.28
753.651	9416.39
753.989	9509.95
754.327	9588.36
754.666	9652.99
755.004	9876.27
755.342	9964.62
755.679	10034.45
756.017	10123.04
756.355	10310.83
756.693	10409.13
757.031	10597.15
757.368	10666.75
757.706	10751.27
758.044	10963.92
758.381	11051.15
758.719	11193.29
759.056	11364.36
759.394	11604.58
759.731	11571.36
760.068	11779.72
760.405	11897
760.743	11931.8
761.08	12188.97
761.417	12360.95
761.754	12557.33
762.091	12586.93
762.428	12784.44
762.765	12917.77
763.102	13171.55
763.438	13202.28
763.775	13372.22
764.112	13626.68
764.449	13688.14
764.785	13906.22
765.122	13939.44
765.458	14043.16
765.795	14186.89
766.131	14404.96
766.467	14649.47
766.804	14678.63
767.14	14709.81
767.476	14878.17
767.812	15056.24
768.148	15151.38
768.485	15292.85
768.821	15327.2
769.157	15538.94
769.492	15655.77
769.828	15806.05
770.164	15799.5
770.5	15823.91
770.836	16072.04
771.171	16118.14
771.507	16247.17
771.842	16221.86
772.178	16421.4
772.513	16456.88
772.849	16504.11
773.184	16687.84
773.519	16689.19
773.855	16695.3
774.19	16767.38
774.525	16802.86
774.86	17025
775.195	17050.54
775.53	17096.41
775.865	17024.78
776.2	17104.78
776.535	17002.63
776.87	17170.99
777.205	17187.03
777.539	17211.44
777.874	17298.9
778.209	17333.02
778.543	17304.32
778.878	17294.6
779.212	17348.39
779.547	17347.26
779.881	17505.44
780.215	17381.38
780.55	17456.86
780.884	17466.57
781.218	17432.68
781.552	17527.14
781.886	17458.67
782.22	17401.72
782.554	17521.04
782.888	17340.7
783.222	17413.02
783.556	17423.19
783.889	17410.3
784.223	17451.89
784.557	17267.26
784.89	17367.14
785.224	17328.27
785.557	17357.2
785.891	17330.76
786.224	17321.72
786.558	17315.62
786.891	17205.79
787.224	17186.58
787.557	17220.71
787.891	17230.87
788.224	17312.45
788.557	17179.8
788.89	17196.53
789.223	17145
789.556	17100.71
789.888	17185.23
790.221	17057.55
790.554	16876.31
790.887	16989.98
791.219	16959.02
791.552	16887.61
791.884	16802.64
792.217	16800.6
792.549	16811
792.882	16751.11
793.214	16670.89
793.546	16740.49
793.879	16626.82
794.211	16539.82
794.543	16586.6
794.875	16611
795.207	16641.51
795.539	16560.61
795.871	16559.25
796.203	16366.49
796.535	16360.39
796.867	16328.53
797.198	16313.61
797.53	16346.38
797.862	16206.72
798.193	16202.43
798.525	16117.01
798.856	16211.92
799.188	16006.95
799.519	15987.07
799.85	15976.22
800.182	15921.76
800.513	16049.21
800.844	15870.68
801.175	15865.26
801.506	15872.94
801.837	15696.45
802.168	15791.59
802.499	15789.33
802.83	15611.48
803.161	15630.46
803.491	15582.56
803.822	15702.55
804.153	15644.02
804.483	15531.26
804.814	15479.28
805.145	15456.46
805.475	15487.87
805.805	15383.69
806.136	15440.19
806.466	15382.34
806.796	15289.68
807.126	15212.4
807.457	15226.41
807.787	15187.54
808.117	15213.3
808.447	15199.06
808.777	15213.98
809.107	15082.23
809.436	14950.03
809.766	15010.59
810.096	14935.12
810.426	14891.05
810.755	14921.33
811.085	14930.37
811.414	14844.72
811.744	14780.32
812.073	14737.61
812.403	14740.32
812.732	14672.52
813.061	14684.05
813.39	14674.33
813.719	14520.44
814.049	14665.29
814.378	14559.08
814.707	14558.18
815.036	14583.49
815.365	14532.87
815.693	14425.07
816.022	14374.9
816.351	14324.96
816.68	14263.95
817.008	14388.24
817.337	14226.66
817.665	14212.2
817.994	14232.08
818.322	14274.12
818.651	14120
818.979	14165.87
819.307	14223.95
819.636	14141.46
819.964	14060.79
820.292	14133.55
820.62	14104.86
820.948	14016.95
821.276	14063.05
821.604	14006.78
821.932	14104.18
822.259	14047.91
822.587	14006.78
822.915	14002.94
823.243	14098.3
823.57	14038.87
823.898	13960
824.225	13982.15
824.553	13942.83
824.88	13900.34
825.207	14040.45
825.535	13920
825.862	14035.25
826.189	14043.61
826.516	14016.27
826.843	14093.33
827.17	14107.79
827.497	14117.96
827.824	14049.72
828.151	14118.41
828.478	13978.3
828.805	14185.76
829.131	14068.7
829.458	14040
829.785	13947.12
830.111	14062.82
830.438	14098.75
830.764	14124.29
831.09	14075.93
831.417	14024.86
831.743	13977.63
832.069	14006.33
832.395	13993.67
832.722	14074.8
833.048	14011.07
833.374	13890.62
833.7	13884.3
834.026	13955.03
834.351	13950.73
834.677	13918.65
835.003	13930.17
835.329	13868.7
835.654	13963.39
835.98	13805.65
836.306	13863.05
836.631	13849.72
836.956	13852.66
837.282	13823.73
837.607	13703.06
837.932	13720.23
838.258	13731.53
838.583	13781.47
838.908	13649.95
839.233	13706.22
839.558	13636.62
839.883	13600.01
840.208	13517.98
840.533	13585.09
840.858	13518.88
841.182	13664.64
841.507	13570.63
841.832	13506.45
842.156	13466.68
842.481	13466.91
842.805	13367.25
843.13	13345.78
843.454	13327.25
843.778	13384.65
844.103	13242.05
844.427	13256.52
844.751	13211.09
845.075	13155.73
845.399	13188.27
845.723	13129.74
846.047	13120.25
846.371	12996.18
846.695	13037.99
847.019	12965.68
847.343	12835.96
847.666	12793.7
847.99	12753.25
848.313	12784.89
848.637	12656.31
848.96	12676.42
849.284	12615.63
849.607	12610.43
849.931	12512.13
850.254	12439.59
850.577	12287.05
850.9	12281.85
851.223	12297.22
851.546	12145.36
851.869	12130.22
852.192	12209.76
852.515	12035.31
852.838	12075.53
853.161	11998.02
853.483	11964.8
853.806	11836.89
854.129	11876.67
854.451	11765.71
854.774	11843.45
855.096	11733.39
855.419	11766.39
855.741	11646.16
856.063	11666.05
856.385	11679.38
856.708	11576.79
857.03	11585.83
857.352	11511.25
857.674	11564.58
857.996	11441.2
858.318	11363.68
858.64	11419.5
858.961	11254.99
859.283	11305.61
859.605	11234.2
859.926	11299.51
860.248	11194.42
860.57	11156.23
860.891	11257.92
861.212	11141.54
861.534	11101.77
861.855	11104.48
862.176	11078.04
862.498	11066.97
862.819	11080.08
863.14	11012.51
863.461	11012.73
863.782	11019.06
864.103	10911.49
864.424	10943.81
864.745	10961.89
865.065	10836.24
865.386	10892.96
865.707	10840.76
866.027	10767.09
866.348	10771.84
866.668	10826.3
866.989	10776.36
867.309	10687.54
867.63	10740.2
867.95	10739.52
868.27	10630.14
868.59	10646.64
868.91	10714.89
869.23	10627.21
869.55	10560.54
869.87	10688.45
870.19	10597.15
870.51	10691.61
870.83	10622.91
871.15	10575.68
871.469	10516.02
871.789	10544.04
872.109	10489.81
872.428	10521.9
872.748	10463.82
873.067	10440.77
873.386	10423.6
873.706	10404.16
874.025	10374.11
874.344	10374.11
874.663	10350.6
874.982	10313.99
875.301	10315.12
875.62	10322.81
875.939	10307.67
876.258	10266.09
876.577	10273.32
876.896	10201.91
877.214	10268.35
877.533	10255.46
877.852	10168.69
878.17	10241.68
878.489	10239.42
878.807	10133.21
879.125	10118.52
879.444	10145.64
879.762	10086.66
880.08	10076.71
880.398	10055.02
880.716	10056.15
881.034	10005.3
881.352	9954.68
881.67	9906.77
881.988	9956.72
882.306	9923.04
882.624	9909.94
882.941	9822.93
883.259	9768.47
883.577	9816.38
883.894	9822.03
884.212	9804.4
884.529	9702.03
884.846	9786.55
885.164	9708.13
885.481	9760.34
885.798	9718.3
886.115	9643.73
886.432	9658.64
886.75	9550.85
887.067	9622.94
887.383	9588.59
887.7	9544.75
888.017	9579.32
888.334	9568.48
888.651	9512.21
888.967	9503.17
889.284	9414.36
889.6	9439.67
889.917	9361.48
890.233	9393.57
890.55	9338.43
890.866	9310.86
891.182	9272.21
891.498	9225.89
891.815	9203.06
892.131	9191.09
892.447	9123.29
892.763	9157.64
893.079	9087.36
893.395	9028.38
893.71	9057.08
894.026	9020.24
894.342	9003.07
894.657	8893.92
894.973	8902.96
895.289	8949.06
895.604	8891.88
895.92	8807.14
896.235	8796.52
896.55	8866.35
896.865	8723.98
897.181	8850.76
897.496	8681.27
897.811	8626.13
898.126	8651.21
898.441	8596.3
898.756	8590.65
899.071	8498.45
899.386	8563.31
899.7	8410.32
900.015	8440.15
900.33	8361.28
900.644	8367.83
900.959	8383.65
901.273	8357.21
901.588	8286.7
901.902	8261.17
902.216	8235.86
902.531	8178.91
902.845	8140.27
903.159	8082.64
903.473	8058.69
903.787	8124
904.101	8011
904.415	8051.91
904.729	8039.25
905.042	7932.59
905.356	7962.64
905.67	7908.18
905.984	7898.92
906.297	7854.62
906.611	7792.25
906.924	7825.7
907.237	7738.47
907.551	7734.85
907.864	7693.72
908.177	7742.99
908.491	7665.48
908.804	7565.37
909.117	7535.76
909.43	7521.3
909.743	7443.56
910.056	7437.91
910.368	7510.68
910.681	7354.3
910.994	7425.48
911.307	7349.78
911.619	7274.53
911.932	7236.11
912.244	7217.58
912.557	7200.18
912.869	7244.24
913.181	7128.32
913.494	7154.76
913.806	7065.49
914.118	7032.95
914.43	7037.47
914.742	7038.83
915.054	6939.85
915.366	6952.27
915.678	6901.43
915.99	6913.41
916.302	6808.32
916.613	6823.01
916.925	6843.8
917.236	6798.61
917.548	6753.41
917.859	6755.22
918.171	6708.44
918.482	6667.08
918.794	6623.02
919.105	6622.79
919.416	6594.32
919.727	6577.82
920.038	6538.73
920.349	6528.33
920.66	6510.25
920.971	6515
921.282	6468.67
921.593	6399.75
921.903	6357.71
922.214	6342.57
922.525	6338.28
922.835	6319.52
923.146	6286.53
923.456	6237.27
923.767	6221.22
924.077	6266.19
924.387	6218.06
924.697	6165.63
925.008	6145.97
925.318	6074.78
925.628	6090.38
925.938	6052.86
926.248	5998.4
926.558	6044.95
926.867	5962.7
927.177	5965.86
927.487	5966.09
927.796	5936.71
928.106	5945.07
928.416	5785.3
928.725	5857.84
929.034	5803.6
929.344	5793.21
929.653	5764.51
929.962	5739.88
930.271	5720.22
930.581	5701.69
930.89	5636.83
931.199	5623.04
931.508	5651.74
931.817	5632.31
932.125	5611.97
932.434	5601.8
932.743	5529.26
933.051	5514.35
933.36	5490.17
933.669	5423.73
933.977	5453.78
934.286	5444.97
934.594	5426.44
934.902	5383.73
935.21	5333.11
935.519	5338.31
935.827	5296.95
936.135	5318.87
936.443	5284.97
936.751	5228.25
937.059	5239.33
937.367	5247.23
937.674	5253.56
937.982	5147.35
938.29	5154.36
938.597	5150.06
938.905	5078.43
939.213	5059.9
939.52	5038.43
939.827	5038.88
940.135	5019.44
940.442	5004.76
940.749	4995.94
941.056	4957.07
941.363	4930.41
941.67	4899.22
941.977	4899.45
942.284	4871.65
942.591	4852.22
942.898	4793.69
943.205	4806.12
943.511	4770.41
943.818	4763.63
944.125	4758.89
944.431	4743.29
944.738	4710.53
945.044	4689.74
945.35	4649.74
945.657	4658.1
945.963	4611.32
946.269	4581.04
946.575	4600.25
946.881	4586.24
947.187	4560.47
947.493	4543.52
947.799	4514.6
948.105	4480.48
948.41	4437.31
948.716	4457.43
949.022	4419.23
949.327	4398.9
949.633	4367.26
949.938	4394.83
950.244	4373.59
950.549	4343.53
950.854	4340.82
951.16	4316.19
951.465	4281.61
951.77	4272.35
952.075	4212.69
952.38	4246.58
952.685	4226.92
952.99	4199.58
953.294	4192.35
953.599	4167.72
953.904	4177.21
954.209	4132.91
954.513	4127.49
954.818	4050.43
955.122	4065.35
955.426	4025.35
955.731	4000.94
956.035	3989.41
956.339	4016.76
956.643	3993.03
956.948	4002.07
957.252	3937.66
957.556	3956.2
957.86	3937.89
958.163	3878.23
958.467	3878.91
958.771	3856.09
959.075	3872.13
959.378	3802.08
959.682	3826.26
959.985	3807.27
960.289	3789.19
960.592	3782.64
960.896	3758.23
961.199	3768.86
961.502	3672.81
961.805	3668.75
962.108	3658.12
962.411	3686.82
962.714	3677.56
963.017	3617.45
963.32	3646.15
963.623	3616.54
963.926	3582.19
964.228	3566.6
964.531	3559.14
964.833	3579.26
965.136	3533.38
965.438	3519.37
965.741	3534.06
966.043	3481.86
966.345	3475.53
966.648	3466.26
966.95	3420.62
967.252	3468.52
967.554	3404.35
967.856	3393.27
968.158	3356.21
968.46	3380.17
968.761	3359.37
969.063	3337.68
969.365	3352.82
969.666	3319.6
969.968	3297.91
970.269	3272.15
970.571	3289.77
970.872	3243.22
971.174	3234.18
971.475	3195.54
971.776	3248.87
972.077	3208.42
972.378	3179.94
972.679	3167.74
972.98	3181.75
973.281	3144.69
973.582	3139.95
973.883	3120.06
974.183	3099.95
974.484	3070.79
974.785	3055.43
975.085	3059.04
975.386	3050.23
975.686	3038.93
975.986	3028.76
976.287	2986.5
976.587	3009.55
976.887	2986.73
977.187	3000.06
977.487	2968.42
977.787	2961.65
978.087	2923.91
978.387	2907.64
978.687	2919.16
978.987	2885.49
979.286	2904.02
979.586	2858.6
979.885	2878.48
980.185	2879.16
980.484	2822.67
980.784	2806.62
981.083	2819.28
981.382	2793.06
981.682	2780.63
981.981	2770.69
982.28	2749.45
982.579	2739.73
982.878	2735.66
983.177	2701.31
983.475	2673.29
983.774	2686.4
984.073	2678.71
984.372	2658.15
984.67	2637.36
984.969	2635.55
985.267	2624.03
985.566	2646.63
985.864	2608.66
986.162	2613.63
986.461	2569.57
986.759	2594.65
987.057	2539.74
987.355	2552.16
987.653	2547.87
987.951	2484.14
988.249	2525.27
988.547	2542
988.844	2521.66
989.142	2467.87
989.44	2485.95
989.737	2470.58
990.035	2451.83
990.332	2459.06
990.63	2466.74
990.927	2443.47
991.224	2401.89
991.521	2449.79
991.819	2389.68
992.116	2364.82
992.413	2349.46
992.71	2383.58
993.006	2322.79
993.303	2323.47
993.6	2346.75
993.897	2322.79
994.193	2315.11
994.49	2268.78
994.787	2285.73
995.083	2229.01
995.379	2283.7
995.676	2255.22
995.972	2219.52
996.268	2200.99
996.565	2197.6
996.861	2214.77
997.157	2176.81
997.453	2168.67
997.749	2188.11
998.044	2157.37
998.34	2151.72
998.636	2133.64
998.932	2087.09
999.227	2127.54
999.523	2112.85
999.818	2097.71
1000.114	2095.91
1000.409	2058.17
1000.704	2069.24
1001	2038.05
1001.295	2032.86
1001.59	2052.06
1001.885	2017.49
1002.18	1989.24
1002.475	1969.58
1002.77	2008.45
1003.065	1962.58
1003.359	1989.24
1003.654	1961.67
1003.949	1935.68
1004.243	1942.92
1004.538	1938.85
1004.832	1907.44
1005.127	1903.82
1005.421	1907.89
1005.715	1879.87
1006.009	1881.45
1006.304	1852.75
1006.598	1823.14
1006.892	1833.54
1007.186	1803.71
1007.48	1809.59
1007.773	1789.7
1008.067	1813.65
1008.361	1787.66
1008.655	1774.11
1008.948	1760.55
1009.242	1789.25
1009.535	1739.53
1009.829	1718.51
1010.122	1718.51
1010.415	1726.65
1010.708	1697.27
1011.001	1711.28
1011.295	1691.4
1011.588	1654.79
1011.881	1690.04
1012.173	1677.61
1012.466	1646.65
1012.759	1664.05
1013.052	1630.38
1013.344	1595.35
1013.637	1604.62
1013.93	1591.74
1014.222	1595.81
1014.514	1593.09
1014.807	1582.47
1015.099	1540.89
1015.391	1551.29
1015.683	1569.37
1015.976	1523.27
1016.268	1541.57
1016.56	1524.17
1016.851	1493.89
1017.143	1483.27
1017.435	1470.61
1017.727	1476.03
1018.018	1481.01
1018.31	1479.65
1018.602	1464.51
1018.893	1424.51
1019.185	1450.5
1019.476	1441.46
1019.767	1448.24
1020.058	1381.35
1020.35	1394.45
1020.641	1372.08
1020.932	1375.02
1021.223	1370.05
1021.514	1358.3
1021.804	1349.26
1022.095	1346.77
1022.386	1354.46
1022.677	1328.92
1022.967	1332.76
1023.258	1317.85
1023.548	1303.84
1023.839	1283.27
1024.129	1284.63
1024.419	1301.12
1024.709	1260.45
1025	1267.45
1025.29	1260.45
1025.58	1237.62
1025.87	1233.33
1026.16	1221.8
1026.449	1219.77
1026.739	1221.58
1027.029	1204.63
1027.319	1166.89
1027.608	1196.27
1027.898	1187
1028.187	1189.94
1028.477	1180.22
1028.766	1179.77
1029.055	1137.06
1029.344	1142.03
1029.634	1156.04
1029.923	1124.63
1030.212	1115.59
1030.501	1121.02
1030.79	1130.28
1031.078	1095.25
1031.367	1100.9
1031.656	1086.89
1031.945	1065.42
1032.233	1108.36
1032.522	1080.79
1032.81	1068.14
1033.099	1047.12
1033.387	1049.38
1033.675	1043.5
1033.963	1032.66
1034.251	1046.67
1034.54	1038.53
1034.828	1019.78
1035.116	1024.07
1035.403	1013.22
1035.691	1017.06
1035.979	994.47
1036.267	973.22
1036.554	983.17
1036.842	952.43
1037.129	982.26
1037.417	965.31
1037.704	962.83
1037.992	934.58
1038.279	972.55
1038.566	983.62
1038.853	983.62
1039.14	983.62
