Data from hue_310_FLMS001491_18.txt Node
Date: Mon Feb 06 15:48:55 GMT 2017
User: dcchb
Spectrometer: FLMS00149
Trigger mode: 0
Integration Time (sec): 2.000000E-2
Scans to average: 10
Electric dark correction enabled: true
Nonlinearity correction enabled: false
Boxcar width: 0
XAxis mode: Wavelengths
Number of Pixels in Spectrum: 2048
>>>>>Begin Spectral Data<<<<<
341.393	-12.57
341.776	-12.57
342.16	-12.57
342.543	-60.03
342.927	-64.32
343.31	-56.86
343.693	-55.06
344.077	-76.98
344.46	-79.46
344.843	-68.39
345.226	-46.69
345.61	-20.25
345.993	-25.68
346.376	-29.29
346.759	3.02
347.142	29.91
347.525	71.5
347.908	65.17
348.291	88.67
348.674	85.73
349.057	114.66
349.44	130.7
349.823	152.4
350.206	168.44
350.588	196.69
350.971	198.72
351.354	230.59
351.737	233.98
352.119	260.64
352.502	270.59
352.884	290.92
353.267	277.59
353.65	299.51
354.032	313.97
354.414	311.49
354.797	300.64
355.179	306.07
355.562	329.79
355.944	340.19
356.326	326.4
356.709	319.4
357.091	334.99
357.473	338.61
357.855	341.54
358.238	339.96
358.62	343.8
359.002	313.07
359.384	351.26
359.766	349.91
360.148	352.17
360.53	347.87
360.912	352.62
361.294	316.23
361.676	336.35
362.057	332.51
362.439	355.56
362.821	334.77
363.203	321.88
363.584	325.05
363.966	321.43
364.348	335.9
364.729	315.78
365.111	305.84
365.493	314.65
365.874	321.66
366.256	300.42
366.637	330.25
367.019	302
367.4	324.37
367.781	310.81
368.163	299.29
368.544	316.91
368.925	304.71
369.306	317.59
369.688	330.92
370.069	321.88
370.45	317.36
370.831	313.07
371.212	319.62
371.593	332.28
371.974	304.26
372.355	310.59
372.736	327.08
373.117	335.44
373.498	311.04
373.879	330.7
374.26	305.84
374.641	306.29
375.021	314.2
375.402	347.19
375.783	325.73
376.163	324.37
376.544	309.46
376.925	318.27
377.305	322.79
377.686	311.49
378.066	337.03
378.447	329.34
378.827	347.19
379.208	326.4
379.588	322.56
379.968	355.1
380.349	327.76
380.729	342.9
381.109	325.5
381.489	345.16
381.87	340.64
382.25	330.7
382.63	352.17
383.01	334.09
383.39	327.76
383.77	348.1
384.15	324.82
384.53	316.91
384.91	353.52
385.29	348.1
385.67	341.32
386.049	339.06
386.429	351.71
386.809	339.96
387.189	344.26
387.568	344.93
387.948	357.82
388.328	352.62
388.707	351.49
389.087	350.13
389.466	342.67
389.846	372.5
390.225	382.22
390.605	360.75
390.984	369.79
391.363	373.41
391.743	351.71
392.122	368.21
392.501	380.19
392.881	370.47
393.26	378.61
393.639	371.6
394.018	373.18
394.397	387.65
394.776	373.18
395.155	403.46
395.534	372.96
395.913	381.32
396.292	400.98
396.671	391.49
397.05	396.91
397.429	380.41
397.808	381.77
398.186	380.19
398.565	395.33
398.944	410.24
399.323	408.44
399.701	401.88
400.08	424.71
400.458	397.36
400.837	399.4
401.215	405.5
401.594	408.44
401.972	405.72
402.351	406.63
402.729	431.03
403.107	415.44
403.486	421.09
403.864	434.88
404.242	436.46
404.62	435.33
404.999	440.53
405.377	425.84
405.755	456.57
406.133	440.3
406.511	461.77
406.889	443.24
407.267	456.34
407.645	446.17
408.023	478.72
408.401	456.34
408.779	495.44
409.156	469.68
409.534	478.72
409.912	484.14
410.29	487.53
410.667	493.63
411.045	502.9
411.422	513.52
411.8	507.42
412.178	534.31
412.555	497.25
412.933	514.87
413.31	532.5
413.687	563.23
414.065	554.87
414.442	535.66
414.819	557.36
415.197	567.3
415.574	577.7
415.951	578.6
416.328	586.74
416.705	587.87
417.082	611.82
417.46	605.94
417.837	611.59
418.214	644.81
418.591	613.85
418.967	662.44
419.344	660.41
419.721	654.98
420.098	658.15
420.475	665.38
420.852	670.12
421.228	693.85
421.605	698.15
421.982	701.31
422.358	700.63
422.735	710.35
423.111	733.4
423.488	723.23
423.864	738.82
424.241	772.27
424.617	730.69
424.994	744.02
425.37	742.21
425.746	755.77
426.123	770.69
426.499	793.96
426.875	796.9
427.251	805.04
427.627	830.35
428.003	830.57
428.379	867.86
428.756	841.42
429.132	855.66
429.507	867.18
429.883	876.45
430.259	887.52
430.635	893.85
431.011	902.89
431.387	918.25
431.763	929.1
432.138	920.06
432.514	921.42
432.89	946.5
433.265	941.53
433.641	991.25
434.016	975.88
434.392	981.53
434.767	1000.74
435.143	1024.46
435.518	1006.39
435.894	1023.33
436.269	1060.85
436.644	1074.63
437.02	1060.4
437.395	1079.38
437.77	1108.3
438.145	1078.02
438.52	1092.49
438.895	1112.15
439.271	1089.32
439.646	1118.47
440.021	1120.73
440.395	1129.32
440.77	1130.68
441.145	1137.23
441.52	1164.8
441.895	1169.32
442.27	1179.49
442.645	1169.77
443.019	1179.49
443.394	1191.92
443.769	1208.41
444.143	1166.83
444.518	1224.01
444.892	1211.58
445.267	1229.2
445.641	1228.75
446.016	1232.59
446.39	1210.67
446.764	1242.76
447.139	1221.3
447.513	1234.63
447.887	1223.56
448.262	1235.53
448.636	1261.07
449.01	1274.4
449.384	1237.57
449.758	1273.27
450.132	1283.67
450.506	1286.38
450.88	1291.12
451.254	1300.84
451.628	1294.97
452.002	1289.99
452.376	1306.94
452.75	1314.17
453.123	1309.65
453.497	1374.29
453.871	1372.7
454.244	1368.18
454.618	1352.59
454.992	1344
455.365	1350.78
455.739	1386.49
456.112	1380.84
456.486	1421.52
456.859	1438.69
457.232	1435.98
457.606	1427.84
457.979	1448.86
458.352	1470.78
458.725	1466.49
459.099	1484.79
459.472	1500.84
459.845	1532.93
460.218	1525.02
460.591	1522.76
460.964	1510.55
461.337	1539.03
461.71	1541.97
462.083	1592.81
462.456	1586.94
462.829	1577.22
463.201	1577.44
463.574	1609.08
463.947	1594.39
464.32	1673.71
464.692	1656.54
465.065	1654.73
465.438	1659.48
465.81	1682.53
466.183	1694.5
466.555	1703.77
466.928	1733.82
467.3	1716.65
467.672	1778.57
468.045	1769.3
468.417	1792.81
468.789	1765.46
469.161	1793.94
469.534	1820.38
469.906	1832.8
470.278	1867.83
470.65	1886.36
471.022	1890.43
471.394	1926.59
471.766	1941.95
472.138	1931.11
472.51	1923.88
472.882	2019.24
473.253	1996.87
473.625	1986.47
473.997	2025.79
474.369	2044.55
474.74	2056.3
475.112	2114.38
475.484	2092.46
475.855	2106.7
476.227	2169.52
476.598	2196.64
476.97	2191.89
477.341	2237.77
477.713	2264.21
478.084	2270.08
478.455	2303.75
478.827	2295.84
479.198	2353.02
479.569	2344.66
479.94	2387.59
480.311	2427.82
480.682	2504.65
481.053	2507.36
481.424	2551.43
481.795	2524.31
482.166	2551.88
482.537	2586.68
482.908	2590.75
483.279	2649.28
483.65	2699.9
484.021	2673.91
484.391	2725.66
484.762	2743.52
485.133	2748.49
485.503	2794.81
485.874	2813.57
486.244	2826.9
486.615	2830.97
486.985	2894.25
487.356	2938.31
487.726	2923.4
488.097	2991.42
488.467	2963.62
488.837	3032.55
489.207	3058.31
489.578	3110.96
489.948	3118.19
490.318	3152.09
490.688	3195.25
491.058	3197.06
491.428	3214.92
491.798	3243.84
492.168	3312.77
492.538	3298.76
492.908	3328.81
493.278	3385.53
493.648	3388.24
494.017	3381.92
494.387	3384.85
494.757	3405.87
495.126	3420.11
495.496	3439.99
495.866	3494.23
496.235	3506.66
496.605	3528.81
496.974	3544.85
497.344	3566.77
497.713	3586.66
498.082	3593.66
498.452	3607.67
498.821	3635.7
499.19	3628.92
499.559	3677.95
499.928	3648.8
500.298	3732.19
500.667	3702.13
501.036	3725.41
501.405	3746.65
501.774	3764.73
502.143	3774.9
502.512	3779.42
502.88	3794.56
503.249	3788.46
503.618	3795.47
503.987	3831.4
504.356	3887.44
504.724	3871.17
505.093	3892.19
505.462	3889.02
505.83	3893.09
506.199	3908
506.567	3955.23
506.936	3917.72
507.304	3996.59
507.672	3958.4
508.041	4010.6
508.409	4042.92
508.777	3977.38
509.145	4015.35
509.514	4043.14
509.882	4059.19
510.25	4072.75
510.618	4129.24
510.986	4084.27
511.354	4096.02
511.722	4113.42
512.09	4141.44
512.458	4129.02
512.826	4176.25
513.193	4172.18
513.561	4180.77
513.929	4236.36
514.297	4256.92
514.664	4244.94
515.032	4249.46
515.4	4297.15
515.767	4265.51
516.135	4301.44
516.502	4276.58
516.869	4332.85
517.237	4340.31
517.604	4292.4
517.972	4396.58
518.339	4369.46
518.706	4383.7
519.073	4338.05
519.44	4362
519.808	4392.06
520.175	4423.47
520.542	4446.3
520.909	4477.03
521.276	4450.36
521.643	4454.2
522.009	4478.39
522.376	4503.47
522.743	4463.92
523.11	4576.91
523.477	4557.93
523.843	4608.33
524.21	4653.3
524.577	4652.17
524.943	4649.23
525.31	4707.53
525.676	4674.54
526.043	4685.39
526.409	4739.85
526.776	4792.5
527.142	4825.27
527.508	4766.06
527.874	4828.43
528.241	4806.51
528.607	4843.8
528.973	4868.88
529.339	4880.86
529.705	4940.97
530.071	4989.56
530.437	4988.43
530.803	5005.6
531.169	5040.63
531.535	5006.51
531.901	5022.78
532.267	5044.7
532.632	5109.1
532.998	5096
533.364	5159.5
533.73	5124.47
534.095	5173.96
534.461	5234.75
534.826	5196.11
535.192	5218.93
535.557	5291.47
535.923	5276.33
536.288	5329.66
536.653	5350.23
537.019	5314.3
537.384	5345.93
537.749	5368.31
538.114	5382.77
538.479	5404.91
538.845	5416.21
539.21	5446.04
539.575	5481.3
539.94	5467.74
540.305	5534.18
540.67	5549.09
541.034	5567.62
541.399	5580.28
541.764	5595.19
542.129	5661.4
542.494	5640.16
542.858	5655.53
543.223	5717
543.587	5739.14
543.952	5720.16
544.316	5721.29
544.681	5782.76
545.045	5755.64
545.41	5826.15
545.774	5844.68
546.138	5886.48
546.503	5904.11
546.867	5897.56
547.231	5943.66
547.595	5907.05
547.959	5986.59
548.324	6031.79
548.688	6016.88
549.052	6063.88
549.416	6081.51
549.779	6099.13
550.143	6088.51
550.507	6179.36
550.871	6164.44
551.235	6145.23
551.599	6191.79
551.962	6160.6
552.326	6249.41
552.689	6215.51
553.053	6255.29
553.417	6250.99
553.78	6300.26
554.143	6282.86
554.507	6362.4
554.87	6356.75
555.234	6385
555.597	6395.4
555.96	6401.95
556.323	6446.24
556.686	6424.1
557.05	6488.28
557.413	6468.84
557.776	6469.75
558.139	6545.45
558.502	6546.81
558.865	6576.18
559.228	6572.57
559.59	6620.02
559.953	6601.49
560.316	6704.99
560.679	6684.2
561.041	6673.36
561.404	6716.29
561.767	6742.96
562.129	6702.06
562.492	6766.46
562.854	6771.66
563.217	6796.06
563.579	6834.93
563.941	6831.32
564.304	6830.19
564.666	6911.09
565.028	6934.82
565.39	6959.68
565.753	6958.32
566.115	6941.37
566.477	7010.97
566.839	7044.42
567.201	7087.58
567.563	7046
567.925	7159.44
568.287	7158.54
568.648	7145.89
569.01	7218.2
569.372	7249.84
569.734	7215.94
570.095	7326.9
570.457	7329.84
570.819	7373.45
571.18	7406.22
571.542	7399.66
571.903	7426.56
572.265	7457.97
572.626	7530.73
572.987	7586.1
573.349	7559.66
573.71	7683.95
574.071	7718.3
574.432	7738.19
574.794	7828.58
575.155	7846.66
575.516	7846.21
575.877	7929.82
576.238	8013.21
576.599	8103.15
576.96	8098.18
577.32	8206.65
577.681	8332.3
578.042	8344.27
578.403	8419.98
578.763	8474.44
579.124	8622.23
579.485	8719.86
579.845	8820.19
580.206	8930.02
580.566	8981.77
580.927	9130.01
581.287	9299.05
581.648	9407.07
582.008	9568.19
582.368	9655.65
582.728	9769.55
583.089	9908.3
583.449	10090.89
583.809	10273.03
584.169	10426.93
584.529	10623.99
584.889	10826.01
585.249	10837.54
585.609	11105.1
585.969	11307.81
586.329	11563.4
586.688	11742.6
587.048	11921.81
587.408	12178.3
587.768	12400.89
588.127	12607.44
588.487	12798.39
588.846	13221.43
589.206	13329.45
589.565	13508.2
589.925	13893.96
590.284	14106.61
590.643	14401.29
591.003	14614.84
591.362	14959.47
591.721	15188.16
592.08	15458.21
592.44	15857.29
592.799	16005.99
593.158	16283.95
593.517	16561.01
593.876	16986.98
594.235	17113.99
594.593	17562.56
594.952	17852.27
595.311	17993.74
595.67	18496.32
596.029	18831.45
596.387	19132.92
596.746	19425.56
597.104	19525.45
597.463	19897.87
597.822	20270.96
598.18	20400.9
598.538	20850.38
598.897	21190.26
599.255	21350.71
599.613	21941.43
599.972	21981.65
600.33	22193.4
600.688	22530.11
601.046	22885.58
601.404	23228.17
601.762	23457.55
602.12	23882.39
602.478	24142.05
602.836	24367.81
603.194	24594.24
603.552	24815.93
603.91	25042.14
604.268	25390.6
604.625	25584.72
604.983	25882.79
605.341	25999.85
605.698	26447.3
606.056	26813.17
606.413	26956.66
606.771	27340.61
607.128	27460.61
607.485	27576.53
607.843	27811.1
608.2	28232.11
608.557	28546.68
608.914	28593.46
609.272	28869.38
609.629	29134.91
609.986	29469.59
610.343	29566.54
610.7	29938.51
611.057	29988.22
611.414	30148.67
611.771	30410.36
612.127	30713.63
612.484	30749.78
612.841	31109.55
613.198	31152.03
613.554	31188.42
613.911	31678.8
614.267	31713.38
614.624	31918.34
614.98	32102.74
615.337	32424.09
615.693	32505.67
616.05	32483.52
616.406	32895.49
616.762	32862.72
617.118	33138.42
617.475	33278.31
617.831	33473.1
618.187	33500.67
618.543	33773.43
618.899	34003.71
619.255	34040.55
619.611	34162.12
619.967	34422.91
620.323	34537.71
620.678	34526.41
621.034	34484.38
621.39	34674.43
621.746	34741.32
622.101	35221.98
622.457	34939.05
622.812	35186.28
623.168	35447.74
623.523	35516.89
623.879	35621.3
624.234	35481.41
624.589	35670.79
624.945	35813.61
625.3	35835.75
625.655	35990.55
626.01	36025.35
626.365	36160.94
626.72	36254.27
627.075	36285.23
627.43	36321.62
627.785	36259.47
628.14	36391.67
628.495	36614.94
628.85	36668.73
629.205	36467.37
629.559	36765.22
629.914	36656.07
630.269	36801.83
630.623	36656.75
630.978	36571.33
631.332	36817.65
631.687	36928.38
632.041	36916.18
632.396	36725.45
632.75	36788.72
633.104	36921.83
633.459	36847.03
633.813	36874.14
634.167	36775.61
634.521	36761.6
634.875	36821.04
635.229	36878.21
635.583	36805.9
635.937	36877.31
636.291	36893.35
636.645	37029.62
636.999	36866.46
637.352	37068.94
637.706	36784.88
638.06	36978.77
638.413	36929.06
638.767	36967.25
639.121	37021.71
639.474	36758.67
639.828	36712.11
640.181	36980.13
640.534	36994.14
640.888	36902.17
641.241	36670.08
641.594	36944.42
641.947	36742.17
642.301	36767.71
642.654	36905.78
643.007	36739.68
643.36	36874.37
643.713	36797.31
644.066	36963.18
644.419	36711.66
644.771	36556.64
645.124	36128.85
645.477	36145.58
645.83	35972.02
646.182	35783.1
646.535	35737.9
646.888	35795.98
647.24	35601.63
647.593	35666.94
647.945	35847.05
648.298	35577.23
648.65	35585.14
649.002	35534.74
649.355	35734.06
649.707	35551.92
650.059	35677.56
650.411	36154.61
650.763	36157.33
651.115	36630.76
651.467	36503.76
651.819	36419.01
652.171	36407.49
652.523	36272.13
652.875	36447.71
653.227	36288.4
653.578	36451.1
653.93	36369.07
654.282	36334.27
654.633	36137.44
654.985	36264.89
655.337	36231.67
655.688	36369.07
656.039	36299.02
656.391	35951.46
656.742	36223.09
657.094	36208.62
657.445	36371.11
657.796	36122.3
658.147	36197.55
658.498	36148.74
658.849	36263.31
659.2	36110.32
659.551	35953.26
659.902	36160.26
660.253	36146.48
660.604	36152.81
660.955	35939.93
661.306	36122.3
661.656	36000.27
662.007	36000.04
662.358	35988.52
662.708	36111.68
663.059	35961.4
663.409	35793.95
663.76	36090.44
664.11	35955.98
664.461	36077.55
664.811	36094.73
665.161	35920.95
665.511	35976.31
665.862	35958.91
666.212	36139.47
666.562	36098.34
666.912	36050.44
667.262	35919.59
667.612	36045.92
667.962	35980.83
668.312	35905.58
668.662	36057.89
669.011	35913.26
669.361	35918.69
669.711	35846.15
670.06	35798.24
670.41	35843.21
670.76	35761.86
671.109	35905.58
671.459	35829.88
671.808	35725.47
672.157	35898.35
672.507	35588.3
672.856	35681.86
673.205	35862.87
673.554	35760.95
673.904	35593.73
674.253	35826.26
674.602	35758.69
674.951	35219.95
675.3	34995.1
675.649	35631.92
675.998	35507.63
676.346	35537.68
676.695	35585.59
677.044	35475.08
677.393	35501.98
677.741	35629.88
678.09	35508.53
678.438	35484.8
678.787	35513.28
679.135	35625.36
679.484	35265.15
679.832	35397.8
680.181	35116.9
680.529	35393.05
680.877	35247.07
681.225	35223.79
681.573	35384.24
681.922	35049.78
682.27	35052.5
682.618	35124.36
682.966	34971.14
683.314	34944.7
683.661	34940.63
684.009	34743.13
684.357	34748.55
684.705	34682.34
685.053	34693.18
685.4	34654.77
685.748	34460.87
686.095	34466.75
686.443	34358.73
686.79	34310.6
687.138	34332.97
687.485	34266.75
687.832	34223.59
688.18	34326.19
688.527	34008.23
688.874	33921.9
689.221	33958.51
689.568	33832.87
689.915	33842.13
690.262	33831.29
690.609	33701.12
690.956	33596.04
691.303	33530.95
691.65	33425.65
691.997	33337.74
692.344	33100.68
692.69	33221.81
693.037	33247.12
693.383	32932.78
693.73	33161.02
694.077	32874.93
694.423	32888.26
694.769	32854.59
695.116	32801.48
695.462	32716.06
695.808	32445.11
696.155	32739.79
696.501	32320.59
696.847	32406.92
697.193	32102.07
697.539	32295.28
697.885	32020.94
698.231	31990.66
698.577	31885.35
698.923	31950.88
699.269	31784.11
699.614	31539.14
699.96	31655.52
700.306	31651.46
700.651	31577.11
700.997	31358.81
701.342	31408.52
701.688	31314.97
702.033	31148.19
702.379	31092.37
702.724	31094.41
703.069	31160.17
703.415	30805.83
703.76	30722.44
704.105	30809.9
704.45	30794.3
704.795	30502.56
705.14	30498.49
705.485	30451.04
705.83	30227.99
706.175	30408.1
706.52	30217.82
706.865	30044.72
707.209	30172.62
707.554	30052.63
707.899	30112.74
708.243	29822.8
708.588	29853.76
708.932	29712.75
709.277	29654.22
709.621	29650.15
709.966	29494.9
710.31	29572.41
710.654	29460.1
710.998	29356.38
711.342	29335.13
711.687	29345.98
712.031	29070.05
712.375	28981.92
712.719	29100.56
713.063	28977.4
713.407	29015.82
713.75	28910.74
714.094	28973.11
714.438	28682.27
714.782	28803.17
715.125	28566.57
715.469	28629.39
715.812	28402.28
716.156	28418.09
716.499	28428.04
716.843	28451.54
717.186	28318.44
717.53	28423.52
717.873	28390.52
718.216	28371.32
718.559	28135.39
718.902	27987.82
719.246	28019.69
719.589	28101.94
719.932	27935.62
720.275	28003.19
720.617	27771.78
720.96	27774.5
721.303	27762.74
721.646	27719.58
721.989	27564.78
722.331	27781.73
722.674	27678
723.016	27705.34
723.359	27596.87
723.701	27474.16
724.044	27310.55
724.386	27329.31
724.729	27296.54
725.071	27412.92
725.413	27334.28
725.755	27281.4
726.097	27226.94
726.439	27090.22
726.782	27087.96
727.124	27287.73
727.465	26888.87
727.807	26895.65
728.149	26949.88
728.491	26866.27
728.833	26824.46
729.175	26788.08
729.516	26759.83
729.858	26607.52
730.199	26727.29
730.541	26580.4
730.882	26584.92
731.224	26588.09
731.565	26469.45
731.906	26502.21
732.248	26384.7
732.589	26247.98
732.93	26222.45
733.271	26285.95
733.612	26353.29
733.953	26260.41
734.294	26209.79
734.635	26195.55
734.976	26248.89
735.317	25963.7
735.658	26019.29
735.999	26098.61
736.339	25815.45
736.68	26000.08
737.021	25897.71
737.361	25868.56
737.702	25856.13
738.042	25763.25
738.383	25794.43
738.723	25928.22
739.063	25637.38
739.404	25719.86
739.744	25672.4
740.084	25558.51
740.424	25577.94
740.764	25503.59
741.104	25664.72
741.444	25506.53
741.784	25288.46
742.124	25468.57
742.464	25291.62
742.804	25321
743.143	25184.28
743.483	25298.85
743.823	25110.16
744.162	25151.06
744.502	25054.34
744.841	25002.82
745.181	25216.6
745.52	24936.83
745.86	24972.31
746.199	24974.8
746.538	24936.38
746.877	24992.65
747.216	24916.27
747.556	24822.03
747.895	24852.09
748.234	24842.82
748.573	24782.03
748.911	24671.3
749.25	24593.11
749.589	24605.31
749.928	24549.04
750.267	24605.77
750.605	24492.32
750.944	24473.34
751.283	24413.45
751.621	24469.5
751.96	24316.06
752.298	24259.79
752.636	24245.55
752.975	24165.55
753.313	23981.38
753.651	24144.76
753.989	24087.36
754.327	23971.66
754.666	23909.51
755.004	23900.25
755.342	23889.85
755.679	23857.54
756.017	23682.17
756.355	23728.5
756.693	23690.31
757.031	23675.62
757.368	23473.37
757.706	23527.38
758.044	23434.27
758.381	23402.86
758.719	23410.09
759.056	23261.39
759.394	23268.85
759.731	23033.83
760.068	23051.68
760.405	22968.75
760.743	22910.89
761.08	22953.38
761.417	22825.93
761.754	22821.63
762.091	22742.99
762.428	22703.44
762.765	22448.99
763.102	22569.21
763.438	22448.31
763.775	22279.5
764.112	22439.04
764.449	22385.03
764.785	22300.97
765.122	22105.27
765.458	22060.75
765.795	21989.34
766.131	21953.86
766.467	21784.37
766.804	21707.54
767.14	21656.46
767.476	21738.95
767.812	21621.89
768.148	21635.9
768.485	21315.23
768.821	21348.9
769.157	21311.61
769.492	21286.3
769.828	21244.5
770.164	21059.87
770.5	20932.42
770.836	21033.2
771.171	20908.24
771.507	20774.91
771.842	20640.22
772.178	20694.23
772.513	20651.29
772.849	20465.54
773.184	20472.31
773.519	20416.5
773.855	20244.52
774.19	20243.62
774.525	20269.16
774.86	20183.96
775.195	20220.57
775.53	19977.41
775.865	19815.61
776.2	19770.19
776.535	19755.95
776.87	19686.57
777.205	19636.86
777.539	19511.21
777.874	19520.7
778.209	19421.95
778.543	19329.75
778.878	19205
779.212	19192.35
779.547	19103.76
779.881	19148.96
780.215	19041.39
780.55	19070.54
780.884	18923.43
781.218	18900.6
781.552	18848.63
781.886	18779.48
782.22	18601.4
782.554	18506.94
782.888	18382.43
783.222	18358.7
783.556	18315.54
783.889	18204.13
784.223	18175.88
784.557	18089.78
784.89	18115.31
785.224	17976.79
785.557	17946.28
785.891	17921.87
786.224	17846.85
786.558	17883.23
786.891	17701.09
787.224	17556.01
787.557	17509
787.891	17582.45
788.224	17494.54
788.557	17487.08
788.89	17392.4
789.223	17375.45
789.556	17110.82
789.888	17181.33
790.221	17136.81
790.554	16832.41
790.887	17020.2
791.219	16888.23
791.552	16831.73
791.884	16763.03
792.217	16694.79
792.549	16612.08
792.882	16593.09
793.214	16428.35
793.546	16521.23
793.879	16418.64
794.211	16394.68
794.543	16360.33
794.875	16267.45
795.207	16273.56
795.539	16195.59
795.871	16270.39
796.203	16048.93
796.535	15968.48
796.867	15935.03
797.198	15932.1
797.53	15918.99
797.862	15776.17
798.193	15807.58
798.525	15654.14
798.856	15750.63
799.188	15476.97
799.519	15528.94
799.85	15432.22
800.182	15473.35
800.513	15426.12
800.844	15256.86
801.175	15372.56
801.506	15370.53
801.837	15260.02
802.168	15191.1
802.499	15148.39
802.83	15021.16
803.161	15011.67
803.491	14956.3
803.822	15046.47
804.153	14843.76
804.483	14744.56
804.814	14720.6
805.145	14746.36
805.475	14632.47
805.805	14722.64
806.136	14700.26
806.466	14577.33
806.796	14594.28
807.126	14496.88
807.457	14402.64
807.787	14455.75
808.117	14324
808.447	14333.04
808.777	14296.88
809.107	14283.33
809.436	14399.25
809.766	14303.44
810.096	14140.73
810.426	14145.93
810.755	14112.93
811.085	14122.88
811.414	14039.04
811.744	13945.48
812.073	13913.17
812.403	13892.6
812.732	13808.31
813.061	13827.52
813.39	13790.23
813.719	13671.36
814.049	13830
814.378	13706.62
814.707	13606.05
815.036	13607.86
815.365	13494.87
815.693	13463.91
816.022	13475.89
816.351	13456.23
816.68	13246.29
817.008	13366.51
817.337	13314.08
817.665	13215.1
817.994	13246.29
818.322	13230.92
818.651	13145.95
818.979	13119.29
819.307	13226.63
819.636	13110.47
819.964	12994.09
820.292	13122.9
820.62	13024.83
820.948	12982.57
821.276	13100.31
821.604	13017.82
821.932	13095.79
822.259	13010.36
822.587	13049.69
822.915	12995.9
823.243	12985.73
823.57	12978.27
823.898	13044.71
824.225	12978.95
824.553	12981.44
824.88	12931.95
825.207	12977.14
825.535	12903.93
825.862	12946.86
826.189	12856.92
826.516	12928.11
826.843	13000.87
827.17	12976.24
827.497	12956.58
827.824	12929.46
828.151	12913.64
828.478	12947.31
828.805	12946.19
829.131	12900.99
829.458	12946.86
829.785	12857.15
830.111	12876.81
830.438	12925.39
830.764	12950.48
831.09	12856.47
831.417	12819.41
831.743	12956.35
832.069	12882.91
832.395	12780.09
832.722	12863.93
833.048	12838.84
833.374	12870.03
833.7	12757.72
834.026	12818.73
834.351	12836.58
834.677	12842.46
835.003	12805.4
835.329	12848.11
835.654	12731.5
835.98	12783.7
836.306	12670.71
836.631	12681.56
836.956	12651.73
837.282	12748.68
837.607	12629.36
837.932	12538.06
838.258	12585.29
838.583	12583.26
838.908	12579.87
839.233	12596.36
839.558	12527.89
839.883	12441.34
840.208	12332.87
840.533	12380.1
840.858	12425.29
841.182	12387.56
841.507	12362.92
841.832	12245.19
842.156	12187.79
842.481	12256.03
842.805	12261.91
843.13	12236.37
843.454	12218.52
843.778	12180.56
844.103	12171.74
844.427	12075.25
844.751	12063.04
845.075	11959.54
845.399	12028.24
845.723	11975.14
846.047	11985.76
846.371	11919.32
846.695	11802.26
847.019	11774.69
847.343	11668.7
847.666	11679.55
847.99	11640
848.313	11655.15
848.637	11484.3
848.96	11526.11
849.284	11473
849.607	11376.51
849.931	11404.3
850.254	11260.81
850.577	11286.79
850.9	11122.28
851.223	11169.73
851.546	11085.22
851.869	11110.53
852.192	11075.95
852.515	10961.83
852.838	10970.19
853.161	10976.75
853.483	10881.83
853.806	10834.15
854.129	10819.01
854.451	10751.44
854.774	10760.48
855.096	10756.19
855.419	10721.38
855.741	10628.28
856.063	10658.56
856.385	10560.49
856.708	10575.17
857.03	10481.17
857.352	10509.19
857.674	10465.8
857.996	10445.23
858.318	10316.65
858.64	10366.14
858.961	10348.06
859.283	10282.75
859.605	10269.42
859.926	10294.5
860.248	10211.79
860.57	10146.03
860.891	10146.03
861.212	10073.27
861.534	10086.6
861.855	10059.26
862.176	10127.05
862.498	10034.62
862.819	10040.05
863.14	9987.84
863.461	9903.78
863.782	9972.25
864.103	9904.01
864.424	9919.37
864.745	9943.55
865.065	9928.41
865.386	9807.06
865.707	9790.56
866.027	9827.85
866.348	9822.43
866.668	9770.45
866.989	9762.54
867.309	9713.5
867.63	9745.59
867.95	9803.67
868.27	9677.12
868.59	9687.51
868.91	9713.95
869.23	9699.04
869.55	9629.89
869.87	9691.58
870.19	9718.47
870.51	9611.58
870.83	9666.5
871.15	9539.27
871.469	9563.68
871.789	9572.26
872.109	9586.5
872.428	9474.64
872.748	9520.74
873.067	9534.3
873.386	9613.62
873.706	9479.61
874.025	9414.07
874.344	9434.19
874.663	9412.49
874.982	9430.57
875.301	9379.73
875.62	9383.34
875.939	9339.05
876.258	9362.55
876.577	9303.79
876.896	9304.25
877.214	9328.43
877.533	9246.85
877.852	9291.59
878.17	9227.86
878.489	9247.98
878.807	9118.04
879.125	9157.36
879.444	9169.34
879.762	9178.83
880.08	9224.7
880.398	9142.44
880.716	9174.31
881.034	9050.92
881.352	9085.72
881.67	8979.28
881.988	9051.6
882.306	8991.03
882.624	9007.76
882.941	8897.48
883.259	8925.27
883.577	8878.27
883.894	8891.38
884.212	8911.49
884.529	8816.8
884.846	8911.71
885.164	8836.46
885.481	8812.96
885.798	8777.93
886.115	8762.11
886.432	8724.15
886.75	8695.45
887.067	8670.37
887.383	8681.89
887.7	8625.17
888.017	8623.13
888.334	8551.72
888.651	8587.43
888.967	8537.71
889.284	8498.39
889.6	8472.86
889.917	8506.75
890.233	8497.49
890.55	8464.49
890.866	8449.13
891.182	8408
891.498	8420.88
891.815	8386.08
892.131	8327.32
892.447	8294.56
892.763	8255.46
893.079	8229.47
893.395	8210.94
893.71	8196.03
894.026	8123.04
894.342	8137.72
894.657	8134.11
894.973	8032.42
895.289	8073.77
895.604	8041.91
895.92	8039.42
896.235	8010.5
896.55	7965.53
896.865	7972.76
897.181	7924.62
897.496	7954.23
897.811	7884.62
898.126	7872.65
898.441	7827.68
898.756	7769.82
899.071	7760.33
899.386	7745.42
899.7	7726.66
900.015	7663.61
900.33	7606.89
900.644	7571.41
900.959	7618.42
901.273	7591.98
901.588	7544.07
901.902	7527.57
902.216	7485.99
902.531	7455.03
902.845	7435.37
903.159	7380.91
903.473	7325.77
903.787	7307.92
904.101	7295.03
904.415	7312.21
904.729	7221.36
905.042	7255.26
905.356	7197.41
905.67	7240.8
905.984	7167.35
906.297	7136.85
906.611	7092.33
906.924	7074.93
907.237	7038.09
907.551	7062.5
907.864	7071.31
908.177	7001.26
908.491	6921.03
908.804	6947.02
909.117	6883.07
909.43	6862.05
909.743	6834.93
910.056	6841.94
910.368	6835.39
910.681	6768.04
910.994	6706.58
911.307	6733.24
911.619	6649.4
911.932	6679.01
912.244	6642.85
912.557	6586.8
912.869	6574.83
913.181	6564.66
913.494	6556.3
913.806	6462.74
914.118	6460.03
914.43	6406.47
914.742	6442.18
915.054	6343.87
915.366	6378
915.678	6333.7
915.99	6316.75
916.302	6254.84
916.613	6202.18
916.925	6192.24
917.236	6277.66
917.548	6195.4
917.859	6106.59
918.171	6164.67
918.482	6124.22
918.794	6095.52
919.105	6123.99
919.416	6043.32
919.727	5998.57
920.038	6001.06
920.349	5923.09
920.66	5935.97
920.971	5909.53
921.282	5863.89
921.593	5877.9
921.903	5827.95
922.214	5797.67
922.525	5799.48
922.835	5778.69
923.146	5714.28
923.456	5727.17
923.767	5729.2
924.077	5655.53
924.387	5652.59
924.697	5628.86
925.008	5618.24
925.318	5596.77
925.628	5595.42
925.938	5580.28
926.248	5534.18
926.558	5489.21
926.867	5459.15
927.177	5456.89
927.487	5370.34
927.796	5332.37
928.106	5384.12
928.416	5304.8
928.725	5362.66
929.034	5328.31
929.344	5260.96
929.653	5267.06
929.962	5251.02
930.271	5245.82
930.581	5204.47
930.89	5131.93
931.199	5073.62
931.508	5134.19
931.817	5084.7
932.125	5097.35
932.434	5036.56
932.743	5037.01
933.051	4978.03
933.36	5000.41
933.669	4964.25
933.977	4967.41
934.286	4940.75
934.594	4878.6
934.902	4877.92
935.21	4881.54
935.519	4878.83
935.827	4851.48
936.135	4812.84
936.443	4735.78
936.751	4718.83
937.059	4724.48
937.367	4732.16
937.674	4707.76
937.982	4695.78
938.29	4653.07
938.597	4629.12
938.905	4574.43
939.213	4565.61
939.52	4581.21
939.827	4540.76
940.135	4530.81
940.442	4521.77
940.749	4513.86
941.056	4538.95
941.363	4446.52
941.67	4453.98
941.977	4397.48
942.284	4413.08
942.591	4403.13
942.898	4351.38
943.205	4312.74
943.511	4337.15
943.818	4299.18
944.125	4286.3
944.431	4263.93
944.738	4288.79
945.044	4229.35
945.35	4237.94
945.657	4202.01
945.963	4191.16
946.269	4149.35
946.575	4135.57
946.881	4171.5
947.187	4110.71
947.493	4136.47
947.799	4095.12
948.105	4051.05
948.41	4070.94
948.716	4027.32
949.022	4024.61
949.327	4060.54
949.633	3954.56
949.938	3987.55
950.244	4029.58
950.549	3940.77
950.854	3932.64
951.16	3911.62
951.465	3870.94
951.77	3887.67
952.075	3821.91
952.38	3838.4
952.685	3819.65
952.99	3781.45
953.294	3761.57
953.599	3775.35
953.904	3761.79
954.209	3721.34
954.513	3732.19
954.818	3662.59
955.122	3682.47
955.426	3670.27
955.731	3648.8
956.035	3643.15
956.339	3605.64
956.643	3654
956.948	3611.74
957.252	3563.38
957.556	3561.57
957.86	3542.36
958.163	3536.26
958.467	3546.66
958.771	3472.54
959.075	3492.2
959.378	3452.2
959.682	3456.72
959.985	3462.82
960.289	3430.28
960.592	3368.13
960.896	3385.53
961.199	3401.58
961.502	3369.94
961.805	3392.31
962.108	3313.67
962.411	3335.14
962.714	3328.58
963.017	3245.88
963.32	3316.16
963.623	3302.14
963.926	3240.23
964.228	3238.87
964.531	3221.24
964.833	3228.25
965.136	3209.72
965.438	3185.99
965.741	3171.53
966.043	3159.1
966.345	3158.19
966.648	3117.97
966.95	3120.45
967.252	3076.84
967.554	3081.36
967.856	3100.12
968.158	3076.39
968.46	3068.25
968.761	3044.07
969.063	3009.95
969.365	3007.69
969.666	3014.92
969.968	2976.96
970.269	2944.19
970.571	2966.79
970.872	2964.3
971.174	2925.43
971.475	2950.97
971.776	2926.11
972.077	2922.72
972.378	2865.55
972.679	2889.73
972.98	2856.05
973.281	2870.52
973.582	2853.34
973.883	2832.78
974.183	2785.77
974.484	2813.8
974.785	2820.58
975.085	2789.39
975.386	2778.54
975.686	2737.87
975.986	2718.43
976.287	2730.41
976.587	2698.09
976.887	2715.49
977.187	2692.9
977.487	2683.18
977.787	2670.75
978.087	2681.37
978.387	2649.96
978.687	2644.76
978.987	2609.51
979.286	2602.05
979.586	2604.76
979.885	2601.37
980.185	2573.12
980.484	2566.8
980.784	2545.1
981.083	2539.23
981.382	2542.62
981.682	2545.33
981.981	2510.08
982.28	2510.98
982.579	2470.3
982.878	2517.98
983.177	2468.04
983.475	2465.1
983.774	2451.32
984.073	2446.35
984.372	2426.46
984.67	2447.93
984.969	2421.26
985.267	2390.08
985.566	2397.99
985.864	2339.68
986.162	2384.2
986.461	2367.71
986.759	2333.81
987.057	2327.93
987.355	2340.81
987.653	2308.5
987.951	2294.71
988.249	2297.88
988.547	2290.19
988.844	2279.57
989.142	2266.01
989.44	2260.36
989.737	2270.99
990.035	2235.96
990.332	2217.88
990.63	2214.04
990.927	2187.15
991.224	2198.9
991.521	2177.2
991.819	2176.3
992.116	2188.5
992.413	2139.24
992.71	2124.55
993.006	2120.48
993.303	2114.15
993.6	2127.49
993.897	2085.91
994.193	2076.64
994.49	2091.78
994.787	2071.67
995.083	2067.83
995.379	2054.27
995.676	2037.09
995.972	2074.83
996.268	2009.3
996.565	2027.6
996.861	1983.99
997.157	2005.68
997.453	1995.29
997.749	2001.61
998.044	1922.29
998.34	1971.78
998.636	1965.46
998.932	1961.84
999.227	1954.84
999.523	1936.31
999.818	1909.64
1000.114	1901.96
1000.409	1900.6
1000.704	1864.67
1001	1875.52
1001.295	1844.56
1001.59	1849.08
1001.885	1863.31
1002.18	1849.08
1002.475	1839.13
1002.77	1794.39
1003.065	1797.33
1003.359	1777.89
1003.654	1782.86
1003.949	1778.12
1004.243	1771.56
1004.538	1755.52
1004.832	1749.87
1005.127	1743.54
1005.421	1732.02
1005.715	1735.63
1006.009	1719.81
1006.304	1668.29
1006.598	1692.02
1006.892	1680.27
1007.186	1666.03
1007.48	1679.14
1007.773	1646.37
1008.067	1633.49
1008.361	1632.36
1008.655	1628.29
1008.948	1637.33
1009.242	1601.4
1009.535	1625.35
1009.829	1610.89
1010.122	1577.9
1010.415	1591.46
1010.708	1575.86
1011.001	1548.52
1011.295	1558.46
1011.588	1539.25
1011.881	1525.24
1012.173	1524.56
1012.466	1521.85
1012.759	1529.31
1013.052	1496.54
1013.344	1503.77
1013.637	1516.2
1013.93	1496.09
1014.222	1443.44
1014.514	1459.26
1014.807	1458.58
1015.099	1462.42
1015.391	1423.32
1015.683	1417
1015.976	1415.19
1016.268	1425.58
1016.56	1414.06
1016.851	1380.16
1017.143	1367.28
1017.435	1371.57
1017.727	1354.85
1018.018	1363.89
1018.31	1346.49
1018.602	1345.81
1018.893	1334.29
1019.185	1322.76
1019.476	1330.9
1019.767	1318.24
1020.058	1327.73
1020.35	1303.78
1020.641	1302.2
1020.932	1295.64
1021.223	1255.87
1021.514	1247.74
1021.804	1249.77
1022.095	1238.24
1022.386	1241.63
1022.677	1240.05
1022.967	1235.76
1023.258	1231.24
1023.548	1219.26
1023.839	1216.55
1024.129	1183.56
1024.419	1184.23
1024.709	1202.31
1025	1157.79
1025.29	1170.22
1025.58	1177
1025.87	1170.9
1026.16	1162.54
1026.449	1126.61
1026.739	1119.83
1027.029	1127.29
1027.319	1115.76
1027.608	1090
1027.898	1085.25
1028.187	1088.42
1028.477	1097.68
1028.766	1081.64
1029.055	1069.44
1029.344	1075.31
1029.634	1058.81
1029.923	1050.68
1030.212	1040.51
1030.501	1048.19
1030.79	1019.72
1031.078	1021.98
1031.367	1024.46
1031.656	1031.24
1031.945	991.92
1032.233	992.83
1032.522	1013.17
1032.81	1003
1033.099	991.02
1033.387	973.84
1033.675	982.43
1033.963	986.5
1034.251	962.09
1034.54	952.38
1034.828	953.96
1035.116	939.04
1035.403	955.77
1035.691	920.74
1035.979	923
1036.267	940.17
1036.554	929.1
1036.842	924.35
1037.129	894.98
1037.417	877.12
1037.704	917.12
1037.992	910.34
1038.279	876.9
1038.566	871.25
1038.853	871.25
1039.14	871.25
