Data from hue_24_FLMS001491_00011.txt Node
Date: Tue Feb 07 17:11:50 GMT 2017
User: dcchb
Spectrometer: FLMS00149
Trigger mode: 0
Integration Time (sec): 2.000000E-2
Scans to average: 10
Electric dark correction enabled: true
Nonlinearity correction enabled: false
Boxcar width: 0
XAxis mode: Wavelengths
Number of Pixels in Spectrum: 2048
>>>>>Begin Spectral Data<<<<<
341.393	-31.91
341.776	-31.91
342.16	-31.91
342.543	-75.75
342.927	-64
343.31	-81.17
343.693	-86.14
344.077	-72.81
344.46	-52.92
344.843	-50.66
345.226	-47.27
345.61	-23.09
345.993	-27.61
346.376	-17.22
346.759	4.03
347.142	29.56
347.525	25.27
347.908	73.4
348.291	85.15
348.674	118.37
349.057	123.12
349.44	112.95
349.823	126.96
350.206	169.9
350.588	193.17
350.971	204.92
351.354	208.09
351.737	241.99
352.119	252.83
352.502	257.58
352.884	281.53
353.267	281.53
353.65	314.07
354.032	304.36
354.414	315.66
354.797	304.13
355.179	329.67
355.562	297.35
355.944	322.44
356.326	332.6
356.709	334.19
357.091	315.2
357.473	336.45
357.855	331.25
358.238	338.25
358.62	316.79
359.002	338.93
359.384	347.07
359.766	331.25
360.148	343.68
360.53	348.2
360.912	332.15
361.294	310.46
361.676	343.45
362.057	318.37
362.439	349.33
362.821	352.94
363.203	333.73
363.584	337.8
363.966	304.13
364.348	314.53
364.729	321.31
365.111	321.31
365.493	334.64
365.874	316.33
366.256	304.13
366.637	321.53
367.019	316.33
367.4	301.19
367.781	315.88
368.163	301.64
368.544	304.13
368.925	301.42
369.306	332.83
369.688	295.09
370.069	293.28
370.45	304.13
370.831	331.02
371.212	300.74
371.593	309.33
371.974	317.24
372.355	307.97
372.736	317.24
373.117	321.31
373.498	296.67
373.879	297.8
374.26	324.24
374.641	316.11
375.021	307.97
375.402	343.68
375.783	311.36
376.163	296.9
376.544	315.43
376.925	329.89
377.305	342.77
377.686	333.28
378.066	349.55
378.447	335.99
378.827	338.03
379.208	315.88
379.588	334.86
379.968	327.63
380.349	341.19
380.729	330.57
381.109	324.92
381.489	342.77
381.87	345.49
382.25	343.68
382.63	337.12
383.01	369.44
383.39	331.25
383.77	337.35
384.15	349.78
384.53	360.63
384.91	353.39
385.29	328.31
385.67	345.26
386.049	355.2
386.429	355.65
386.809	333.73
387.189	356.56
387.568	347.52
387.948	366.5
388.328	354.07
388.707	368.99
389.087	356.56
389.466	362.21
389.846	365.6
390.225	373.51
390.605	381.42
390.984	382.32
391.363	397.91
391.743	373.28
392.122	346.62
392.501	393.17
392.881	370.34
393.26	387.29
393.639	373.28
394.018	385.71
394.397	391.13
394.776	383.68
395.155	393.17
395.534	386.61
395.913	396.11
396.292	412.6
396.671	418.93
397.05	392.72
397.429	369.44
397.808	387.97
398.186	387.74
398.565	384.13
398.944	396.33
399.323	406.95
399.701	423.22
400.08	395.2
400.458	402.43
400.837	405.82
401.215	409.44
401.594	415.09
401.972	406.05
402.351	420.96
402.729	409.44
403.107	411.92
403.486	406.73
403.864	411.47
404.242	416.67
404.62	423.68
404.999	427.52
405.377	419.38
405.755	429.78
406.133	425.26
406.511	448.53
406.889	424.81
407.267	446.5
407.645	468.65
408.023	454.18
408.401	455.54
408.779	442.21
409.156	441.98
409.534	448.31
409.912	465.71
410.29	458.25
410.667	470.91
411.045	451.92
411.422	481.98
411.8	481.3
412.178	489.89
412.555	472.26
412.933	487.18
413.31	484.92
413.687	482.88
414.065	489.89
414.442	502.32
414.819	515.65
415.197	495.09
415.574	497.35
415.951	534.63
416.328	517.68
416.705	519.04
417.082	519.72
417.46	548.87
417.837	541.19
418.214	529.44
418.591	553.84
418.967	530.79
419.344	536.89
419.721	532.37
420.098	545.71
420.475	542.09
420.852	545.48
421.228	562.88
421.605	557.91
421.982	540.96
422.358	549.77
422.735	575.76
423.111	567.17
423.488	554.97
423.864	584.12
424.241	570.11
424.617	566.04
424.994	596.78
425.37	588.64
425.746	612.6
426.123	616.21
426.499	586.61
426.875	608.98
427.251	599.94
427.627	621.41
428.003	626.38
428.379	626.16
428.756	637.68
429.132	656.44
429.507	651.92
429.883	667.28
430.259	666.83
430.635	633.39
431.011	660.73
431.387	684.01
431.763	672.03
432.138	686.95
432.514	704.57
432.89	717.23
433.265	708.41
433.641	695.76
434.016	726.04
434.392	726.49
434.767	724.91
435.143	714.29
435.518	736.89
435.894	749.99
436.269	766.04
436.644	782.08
437.02	757.23
437.395	773.27
437.77	784.8
438.145	794.96
438.52	788.86
438.895	814.63
439.271	817.56
439.646	829.09
440.021	804.91
440.395	816.43
440.77	813.95
441.145	815.98
441.52	816.66
441.895	821.63
442.27	869.09
442.645	840.39
443.019	836.55
443.394	853.04
443.769	848.07
444.143	861.86
444.518	900.72
444.892	879.26
445.267	871.57
445.641	897.34
446.016	886.94
446.39	913.83
446.764	896.66
447.139	908.63
447.513	899.59
447.887	891.46
448.262	928.75
448.636	925.58
449.01	931.01
449.384	939.14
449.758	942.31
450.132	973.72
450.506	952.7
450.88	956.77
451.254	970.55
451.628	974.4
452.002	966.49
452.376	1004
452.75	1015.98
453.123	1003.55
453.497	1014.17
453.871	1015.98
454.244	1014.85
454.618	1027.73
454.992	1062.08
455.365	1036.54
455.739	1083.77
456.112	1106.82
456.486	1121.74
456.859	1126.71
457.232	1127.61
457.606	1151.79
457.979	1146.82
458.352	1168.74
458.725	1154.05
459.099	1180.27
459.472	1187.95
459.845	1205.12
460.218	1193.15
460.591	1198.34
460.964	1266.14
461.337	1278.79
461.71	1279.02
462.083	1291.45
462.456	1306.36
462.829	1309.98
463.201	1322.63
463.574	1331.67
463.947	1342.52
464.32	1382.75
464.692	1390.2
465.065	1405.8
465.438	1402.63
465.81	1435.85
466.183	1447.15
466.555	1486.25
466.928	1506.13
467.3	1478.11
467.672	1511.78
468.045	1554.04
468.417	1551.1
468.789	1578.45
469.161	1578.45
469.534	1589.07
469.906	1663.64
470.278	1629.97
470.65	1676.07
471.022	1711.1
471.394	1746.13
471.766	1762.85
472.138	1777.31
472.51	1807.59
472.882	1820.47
473.253	1849.17
473.625	1890.76
473.997	1934.6
474.369	1953.35
474.74	1966.69
475.112	1971.43
475.484	2038.77
475.855	2076.74
476.227	2117.19
476.598	2161.71
476.97	2183.4
477.341	2230.63
477.713	2264.98
478.084	2284.19
478.455	2358.09
478.827	2377.3
479.198	2441.25
479.569	2433.11
479.94	2533.9
480.311	2537.74
480.682	2584.97
481.053	2681.02
481.424	2675.82
481.795	2756.27
482.166	2797.62
482.537	2802.6
482.908	2953.78
483.279	2906.55
483.65	3053.66
484.021	3099.99
484.391	3137.95
484.762	3170.72
485.133	3186.09
485.503	3267.89
485.874	3342.24
486.244	3346.54
486.615	3420.21
486.985	3510.37
487.356	3501.79
487.726	3579.3
488.097	3653.19
488.467	3646.42
488.837	3776.81
489.207	3813.19
489.578	3890.93
489.948	3961.66
490.318	4014.99
490.688	4045.95
491.058	4104.93
491.428	4152.84
491.798	4196.01
492.168	4293.18
492.538	4306.06
492.908	4379.73
493.278	4414.76
493.648	4438.26
494.017	4485.26
494.387	4525.26
494.757	4624.24
495.126	4678.48
495.496	4679.16
495.866	4717.8
496.235	4773.39
496.605	4818.14
496.974	4866.5
497.344	4921.18
497.713	4938.81
498.082	4974.97
498.452	5034.4
498.821	5051.35
499.19	5069.43
499.559	5103.78
499.928	5140.84
500.298	5245.47
500.667	5318.01
501.036	5263.1
501.405	5330.21
501.774	5374.73
502.143	5412.24
502.512	5448.85
502.88	5449.31
503.249	5434.84
503.618	5514.84
503.987	5535.86
504.356	5576.53
504.724	5612.01
505.093	5586.48
505.462	5645.23
505.83	5716.64
506.199	5740.6
506.567	5803.19
506.936	5862.18
507.304	5878
507.672	5858.33
508.041	5886.58
508.409	5957.32
508.777	5995.96
509.145	6020.14
509.514	6005.68
509.882	6048.61
510.25	6147.37
510.618	6105.56
510.986	6099.91
511.354	6150.08
511.722	6247.25
512.09	6323.41
512.458	6263.75
512.826	6305.1
513.193	6320.47
513.561	6355.72
513.929	6428.26
514.297	6415.38
514.664	6474.82
515.032	6469.17
515.4	6487.24
515.767	6542.38
516.135	6569.05
516.502	6547.13
516.869	6686.79
517.237	6714.36
517.604	6628.71
517.972	6735.15
518.339	6762.27
518.706	6783.73
519.073	6797.97
519.44	6827.57
519.808	6843.62
520.175	6830.06
520.542	6920
520.909	6982.6
521.276	6934.92
521.643	6991.86
522.009	7054.69
522.376	7096.49
522.743	7148.7
523.11	7238.64
523.477	7242.48
523.843	7325.87
524.21	7344.62
524.577	7459.65
524.943	7392.31
525.31	7503.49
525.676	7518.4
526.043	7595.01
526.409	7628.91
526.776	7663.26
527.142	7715.23
527.508	7734.9
527.874	7798.62
528.241	7791.62
528.607	7845.63
528.973	7929.69
529.339	7919.07
529.705	8009.46
530.071	8046.75
530.437	7995.23
530.803	8144.15
531.169	8144.15
531.535	8129.24
531.901	8177.14
532.267	8223.92
532.632	8231.61
532.998	8289.23
533.364	8280.87
533.73	8349.34
534.095	8432.28
534.461	8468.89
534.826	8597.25
535.192	8506.63
535.557	8628.88
535.923	8636.11
536.288	8650.8
536.653	8639.96
537.019	8700.97
537.384	8730.8
537.749	8738.26
538.114	8793.17
538.479	8844.02
538.845	8893.06
539.21	8892.83
539.575	8911.36
539.94	8926.5
540.305	8975.54
540.67	8999.95
541.034	9014.18
541.399	9072.49
541.764	9106.16
542.129	9116.1
542.494	9197.68
542.858	9194.74
543.223	9193.84
543.587	9255.53
543.952	9349.54
544.316	9373.04
544.681	9276.55
545.045	9372.37
545.41	9461.18
545.774	9458.69
546.138	9530.33
546.503	9547.73
546.867	9540.5
547.231	9682.87
547.595	9650.55
547.959	9684.45
548.324	9682.19
548.688	9685.35
549.052	9763.09
549.416	9830.66
549.779	9811.45
550.143	9851.9
550.507	9881.51
550.871	9956.08
551.235	9963.31
551.599	10048.28
551.962	10050.31
552.326	10083.31
552.689	10153.81
553.053	10137.09
553.417	10100.71
553.78	10230.42
554.143	10227.49
554.507	10256.86
554.87	10275.17
555.234	10397.42
555.597	10363.53
555.96	10447.14
556.323	10437.65
556.686	10492.11
557.05	10546.8
557.413	10548.83
557.776	10609.62
558.139	10615.27
558.502	10701.6
558.865	10662.05
559.228	10735.04
559.59	10716.74
559.953	10732.33
560.316	10906.79
560.679	10941.59
561.041	10996.96
561.404	10874.7
561.767	11106.11
562.129	10987.01
562.492	11143.17
562.854	11029.05
563.217	11089.16
563.579	11139.33
563.941	11190.62
564.304	11288.93
564.666	11349.72
565.028	11400.79
565.39	11362.6
565.753	11453.89
566.115	11444.63
566.477	11512.2
566.839	11556.04
567.201	11616.15
567.563	11625.41
567.925	11761.91
568.287	11697.5
568.648	11752.42
569.01	11772.76
569.372	11870.15
569.734	11872.87
570.095	12003.03
570.457	12018.4
570.819	12056.59
571.18	12134.1
571.542	12165.51
571.903	12226.08
572.265	12238.51
572.626	12226.08
572.987	12288.67
573.349	12400.76
573.71	12556.46
574.071	12498.84
574.432	12549.91
574.794	12706.74
575.155	12659.06
575.516	12753.07
575.877	12877.36
576.238	12930.92
576.599	12971.14
576.96	13047.07
577.32	13066.51
577.681	13219.5
578.042	13377.68
578.403	13399.15
578.763	13488.42
579.124	13643.21
579.485	13757.79
579.845	13894.51
580.206	13873.27
580.566	14038.23
580.927	14127.5
581.287	14353.7
581.648	14386.25
582.008	14642.96
582.368	14644.32
582.728	14891.32
583.089	14964.99
583.449	15246.11
583.809	15272.78
584.169	15572.43
584.529	15670.51
584.889	16009.03
585.249	16080.21
585.609	16205.63
585.969	16536.02
586.329	16692.17
586.688	16846.75
587.048	17105.95
587.408	17370.35
587.768	17517.69
588.127	17772.82
588.487	18011.69
588.846	18429.3
589.206	18473.82
589.565	18860.25
589.925	19113.13
590.284	19353.8
590.643	19565.54
591.003	19857.51
591.362	20293.66
591.721	20422.25
592.08	20679.87
592.44	21063.58
592.799	21275.1
593.158	21675.32
593.517	21953.5
593.876	22295.19
594.235	22563.66
594.593	22791.67
594.952	23100.14
595.311	23411.77
595.67	23763.4
596.029	24196.84
596.387	24458.75
596.746	24785.97
597.104	24956.36
597.463	25335.34
597.822	25624.37
598.18	25922.67
598.538	26268.65
598.897	26675.64
599.255	26727.84
599.613	27413.93
599.972	27498.9
600.33	27775.5
600.688	28160.35
601.046	28391.98
601.404	28821.12
601.762	29113.09
602.12	29410.26
602.478	29812.51
602.836	29982.22
603.194	30118.94
603.552	30535.43
603.91	30660.85
604.268	31072.13
604.625	31253.83
604.983	31659.24
605.341	31789.86
605.698	32171.54
606.056	32543.96
606.413	32750.06
606.771	33123.38
607.128	33232.98
607.485	33398.18
607.843	33754.55
608.2	34103.24
608.557	34374.65
608.914	34434.08
609.272	34791.36
609.629	35190.22
609.986	35343.44
610.343	35399.25
610.7	35927.37
611.057	36042.17
611.414	36306.8
611.771	36404.88
612.127	36733.68
612.484	36871.3
612.841	37159.43
613.198	37170.73
613.554	37456.6
613.911	37789.7
614.267	38010.26
614.624	38042.57
614.98	38333.86
615.337	38574.99
615.693	38709.9
616.05	38864.92
616.406	39095.88
616.762	39140.17
617.118	39353.5
617.475	39591.23
617.831	39914.16
618.187	39957.55
618.543	40180.82
618.899	40388.27
619.255	40597.99
619.611	40675.05
619.967	40799.11
620.323	40957.75
620.678	41037.52
621.034	41020.12
621.39	41060.35
621.746	41082.27
622.101	41603.38
622.457	41499.88
622.812	41567.9
623.168	41733.55
623.523	41994.33
623.879	42049.25
624.234	41912.98
624.589	41937.61
624.945	42187.55
625.3	42395.45
625.655	42366.3
626.01	42435.45
626.365	42594.54
626.72	42520.2
627.075	42640.87
627.43	42674.99
627.785	42671.15
628.14	42759.29
628.495	43083.34
628.85	43027.3
629.205	42958.15
629.559	43302.55
629.914	42886.06
630.269	43201.08
630.623	43022.56
630.978	43095.1
631.332	43306.62
631.687	43363.11
632.041	43210.35
632.396	43323.56
632.75	43232.04
633.104	43300.06
633.459	43173.06
633.813	43246.28
634.167	43380.51
634.521	43294.19
634.875	43561.3
635.229	43454.86
635.583	43359.5
635.937	43458.93
636.291	43331.7
636.645	43418.7
636.999	43238.82
637.352	43590.9
637.706	43218.26
638.06	43594.74
638.413	43343.45
638.767	43341.64
639.121	43325.82
639.474	43177.13
639.828	43281.31
640.181	43429.32
640.534	43347.74
640.888	43331.7
641.241	43147.52
641.594	43250.8
641.947	43306.62
642.301	43208.54
642.654	43340.06
643.007	43318.59
643.36	43184.81
643.713	43201.53
644.066	43368.31
644.419	43063.01
644.771	43015.55
645.124	42563.36
645.477	42586.41
645.83	42298.05
646.182	42292.18
646.535	42061.9
646.888	42175.8
647.24	41920.89
647.593	42166.53
647.945	42098.96
648.298	41948.69
648.65	41857.84
649.002	41724.51
649.355	41937.39
649.707	41975.35
650.059	42235.46
650.411	42554.32
650.763	42637.48
651.115	42924.48
651.467	42730.59
651.819	42857.36
652.171	42769.91
652.523	42643.81
652.875	42836.57
653.227	42594.54
653.578	42789.79
653.93	42911.15
654.282	42695.78
654.633	42553.87
654.985	42609.46
655.337	42765.39
655.688	42766.97
656.039	42882.9
656.391	42489.46
656.742	42529.91
657.094	42788.66
657.445	42801.32
657.796	42589.12
658.147	42552.29
658.498	42463.25
658.849	42682.23
659.2	42478.61
659.551	42430.03
659.902	42569.46
660.253	42594.77
660.604	42604.71
660.955	42376.92
661.306	42631.83
661.656	42528.78
662.007	42503.92
662.358	42493.53
662.708	42540.76
663.059	42496.24
663.409	42222.12
663.76	42549.12
664.11	42481.55
664.461	42458.5
664.811	42440.88
665.161	42496.24
665.511	42227.77
665.862	42493.08
666.212	42537.82
666.562	42504.38
666.912	42459.18
667.262	42347.32
667.612	42381.22
667.962	42437.03
668.312	42467.54
668.662	42679.74
669.011	42353.87
669.361	42380.54
669.711	42263.48
670.06	42331.73
670.41	42313.42
670.76	42168.11
671.109	42275.46
671.459	42154.78
671.808	42262.35
672.157	42231.84
672.507	42022.81
672.856	41967.67
673.205	41941
673.554	42203.59
673.904	42073.65
674.253	42279.3
674.602	42032.52
674.951	41609.26
675.3	41333.56
675.649	41958.85
675.998	41895.13
676.346	42044.5
676.695	42173.54
677.044	41771.51
677.393	41999.53
677.741	42078.17
678.09	41856.03
678.438	41767.67
678.787	41918.4
679.135	41915.01
679.484	41595.7
679.832	41846.54
680.181	41609.94
680.529	41729.26
680.877	41624.63
681.225	41454.46
681.573	41746.66
681.922	41432.09
682.27	41309.61
682.618	41462.82
682.966	41253.11
683.314	41430.96
683.661	41125.66
684.009	41029.61
684.357	40974.47
684.705	40870.75
685.053	40918.2
685.4	40963.63
685.748	40714.59
686.095	40760.24
686.443	40539.91
686.79	40498.78
687.138	40662.84
687.485	40665.33
687.832	40515.28
688.18	40576.07
688.527	40341.27
688.874	40242.29
689.221	40274.15
689.568	40054.27
689.915	40002.07
690.262	39963.43
690.609	39780.83
690.956	39744.9
691.303	39679.59
691.65	39544.68
691.997	39498.81
692.344	39361.41
692.69	39312.37
693.037	39233.05
693.383	38929.1
693.73	39129.78
694.077	39005.49
694.423	38888.88
694.769	38704.48
695.116	38712.61
695.462	38568.89
695.808	38484.6
696.155	38604.82
696.501	38394.2
696.847	38400.08
697.193	38167.77
697.539	38116.02
697.885	37987.21
698.231	37906.98
698.577	37890.26
698.923	37748.8
699.269	37628.35
699.614	37531.17
699.96	37555.35
700.306	37459.09
700.651	37336.6
700.997	37149.26
701.342	37153.11
701.688	37049.83
702.033	36989.49
702.379	36996.72
702.724	36829.95
703.069	36951.98
703.415	36537.3
703.76	36584.76
704.105	36625.89
704.45	36449.39
704.795	36283.52
705.14	36214.6
705.485	36191.1
705.83	35930.09
706.175	36121.49
706.52	36008.5
706.865	35758.11
707.209	35702.07
707.554	35575.75
707.899	35739.58
708.243	35374.85
708.588	35374.39
708.932	35253.04
709.277	35079.71
709.621	35073.84
709.966	34985.93
710.31	35121.75
710.654	34754.07
710.998	34844.24
711.342	34807.18
711.687	34688.76
712.031	34601.08
712.375	34524.25
712.719	34551.59
713.063	34474.53
713.407	34552.04
713.75	34262.33
714.094	34262.33
714.438	34206.06
714.782	34289
715.125	34026.18
715.469	34214.88
715.812	33926.98
716.156	33728.34
716.499	33882.46
716.843	33791.39
717.186	33661.67
717.53	33695.57
717.873	33730.82
718.216	33571.5
718.559	33553.88
718.902	33208.8
719.246	33273.66
719.589	33259.42
719.932	33208.8
720.275	33106.88
720.617	33174
720.96	32997.06
721.303	33011.29
721.646	33185.53
721.989	32799.55
722.331	32901.01
722.674	32792.77
723.016	32759.32
723.359	32792.99
723.701	32702.6
724.044	32587.58
724.386	32391.65
724.729	32482.27
725.071	32387.81
725.413	32406.11
725.755	32379.67
726.097	32273.46
726.439	31984.43
726.782	32152.56
727.124	32193.01
727.465	32033.69
727.807	32060.36
728.149	31948.27
728.491	31896.07
728.833	31901.94
729.175	31866.24
729.516	31774.72
729.858	31802.29
730.199	31739.91
730.541	31776.07
730.882	31685.68
731.224	31719.35
731.565	31537.43
731.906	31372.01
732.248	31564.78
732.589	31420.37
732.93	31316.42
733.271	31225.13
733.612	31337.21
733.953	31307.83
734.294	31195.97
734.635	31085.02
734.976	31211.57
735.317	31000.05
735.658	31000.72
735.999	30939.26
736.339	30866.94
736.68	31018.35
737.021	30907.62
737.361	30787.85
737.702	30795.53
738.042	30685.48
738.383	30606.38
738.723	30709.66
739.063	30677.34
739.404	30697.23
739.744	30670.56
740.084	30367.29
740.424	30474.41
740.764	30387.86
741.104	30487.52
741.444	30260.18
741.784	30227.86
742.124	30193.74
742.464	30286.39
742.804	30198.94
743.143	30111.26
743.483	30069.68
743.823	29938.61
744.162	30022.9
744.502	29991.71
744.841	29895.89
745.181	29991.71
745.52	29911.94
745.86	29802.56
746.199	29722.79
746.538	29752.17
746.877	29824.94
747.216	29693.64
747.556	29714.66
747.895	29629.24
748.234	29593.3
748.573	29503.14
748.911	29580.87
749.25	29533.87
749.589	29364.84
749.928	29353.08
750.267	29493.19
750.605	29329.36
750.944	29324.84
751.283	29222.92
751.621	29163.48
751.96	28985.86
752.298	29191.96
752.636	29106.31
752.975	28975.47
753.313	29024.73
753.651	28920.1
753.989	28788.81
754.327	28805.53
754.666	28615.7
755.004	28534.12
755.342	28707.23
755.679	28581.13
756.017	28438.76
756.355	28578.87
756.693	28370.29
757.031	28521.02
757.368	28290.51
757.706	28288.71
758.044	28168.26
758.381	28199.89
758.719	28006.68
759.056	28106.56
759.394	28007.58
759.731	27765.56
760.068	27714.94
760.405	27564.66
760.743	27631.1
761.08	27721.94
761.417	27450.31
761.754	27463.87
762.091	27394.49
762.428	27308.17
762.765	27190.66
763.102	27188.4
763.438	27062.52
763.775	26969.87
764.112	27046.48
764.449	27041.28
764.785	26790.44
765.122	26735.53
765.458	26585.93
765.795	26604.91
766.131	26609.2
766.467	26498.7
766.804	26383.44
767.14	26334.18
767.476	26190
767.812	26016.22
768.148	26079.27
768.485	25930.12
768.821	25730.13
769.157	25819.17
769.492	25567.19
769.828	25703.24
770.164	25404.49
770.5	25298.5
770.836	25364.71
771.171	25142.35
771.507	25221.22
771.842	24981.67
772.178	24948.23
772.513	24848.8
772.849	24910.94
773.184	24652.42
773.519	24616.26
773.855	24514.79
774.19	24616.49
774.525	24428.69
774.86	24393.21
775.195	24344.63
775.53	24180.79
775.865	24131.53
776.2	23934.92
776.535	23801.82
776.87	23810.63
777.205	23612.44
777.539	23530.64
777.874	23647.7
778.209	23420.58
778.543	23293.58
778.878	23246.58
779.212	23207.93
779.547	23052.01
779.881	23191.89
780.215	22931.33
780.55	22996.42
780.884	22764.56
781.218	22848.62
781.552	22763.2
781.886	22637.33
782.22	22516.65
782.554	22458.58
782.888	22246.6
783.222	22261.75
783.556	22104.24
783.889	22044.58
784.223	21917.35
784.557	21805.03
784.89	21857.69
785.224	21823.11
785.557	21583.12
785.891	21615.21
786.224	21611.14
786.558	21499.05
786.891	21230.59
787.224	21234.43
787.557	21282.79
787.891	21262
788.224	21023.59
788.557	21094.32
788.89	21083.47
789.223	20938.62
789.556	20866.75
789.888	20720.09
790.221	20681.9
790.554	20500.89
790.887	20580.89
791.219	20463.83
791.552	20406.43
791.884	20298.86
792.217	20259.31
792.549	20127.79
792.882	19986.55
793.214	20007.12
793.546	20015.02
793.879	19789.95
794.211	19741.13
794.543	19881.02
794.875	19627.46
795.207	19842.6
795.539	19672.66
795.871	19611.42
796.203	19400.8
796.535	19306.34
796.867	19344.08
797.198	19167.59
797.53	19184.31
797.862	19016.41
798.193	19167.59
798.525	18921.04
798.856	19004.43
799.188	18823.64
799.519	18775.96
799.85	18694.16
800.182	18620.26
800.513	18686.7
800.844	18532.8
801.175	18571.9
801.506	18639.47
801.837	18350.21
802.168	18428.85
802.499	18298.69
802.83	18269.99
803.161	18289.19
803.491	18139.59
803.822	18258.91
804.153	18122.87
804.483	17961.75
804.814	17890.79
805.145	17768.3
805.475	17926.04
805.805	17754.07
806.136	17742.32
806.466	17713.62
806.796	17763.33
807.126	17567.86
807.457	17507.52
807.787	17527.18
808.117	17455.09
808.447	17413.51
808.777	17422.78
809.107	17201.99
809.436	17303.91
809.766	17198.83
810.096	17176.91
810.426	17089
810.755	17146.85
811.085	17039.96
811.414	17093.07
811.744	16813.98
812.073	16850.59
812.403	16876.35
812.732	16779.86
813.061	16679.75
813.39	16704.15
813.719	16574.21
814.049	16622.8
814.378	16538.05
814.707	16538.51
815.036	16472.74
815.365	16296.48
815.693	16215.35
816.022	16230.72
816.351	16264.61
816.68	16184.84
817.008	16252.64
817.337	16043.38
817.665	16026.2
817.994	16011.97
818.322	16025.52
818.651	15980.78
818.979	15839.99
819.307	15955.47
819.636	15875.7
819.964	15811.52
820.292	15901.23
820.62	15804.51
820.948	15761.58
821.276	15781.01
821.604	15805.64
821.932	15777.85
822.259	15776.94
822.587	15726.55
822.915	15672.54
823.243	15668.25
823.57	15657.85
823.898	15735.59
824.225	15617.17
824.553	15588.25
824.88	15640.45
825.207	15688.58
825.535	15630.73
825.862	15711.63
826.189	15611.3
826.516	15621.47
826.843	15660.56
827.17	15736.72
827.497	15652.65
827.824	15720.67
828.151	15689.04
828.478	15666.66
828.805	15754.57
829.131	15609.72
829.458	15661.69
829.785	15513.9
830.111	15688.36
830.438	15689.49
830.764	15652.2
831.09	15653.33
831.417	15584.41
831.743	15600.68
832.069	15484.3
832.395	15574.92
832.722	15528.36
833.048	15449.49
833.374	15540.11
833.7	15457.63
834.026	15432.55
834.351	15505.99
834.677	15458.76
835.003	15476.39
835.329	15457.63
835.654	15421.7
835.98	15340.35
836.306	15387.58
836.631	15404.07
836.956	15365.88
837.282	15283.4
837.607	15270.52
837.932	15288.37
838.258	15254.7
838.583	15204.98
838.908	15173.57
839.233	15125.66
839.558	15053.35
839.883	14990.98
840.208	15003.18
840.533	15101.26
840.858	15027.36
841.182	14951.43
841.507	14911.2
841.832	14933.35
842.156	14847.7
842.481	14859.91
842.805	14774.48
843.13	14794.82
843.454	14762.73
843.778	14678.22
844.103	14740.81
844.427	14623.3
844.751	14579.46
845.075	14536.52
845.399	14581.27
845.723	14492.91
846.047	14412.01
846.371	14399.13
846.695	14362.07
847.019	14233.48
847.343	14193.71
847.666	14100.15
847.99	14088.17
848.313	14087.27
848.637	13899.25
848.96	13946.48
849.284	13828.75
849.607	13765.02
849.931	13755.08
850.254	13664.46
850.577	13601.63
850.9	13485.93
851.223	13471.24
851.546	13432.82
851.869	13391.24
852.192	13446.16
852.515	13236.9
852.838	13170.23
853.161	13158.93
853.483	13178.14
853.806	13119.61
854.129	13107.18
854.451	12974.98
854.774	12895.89
855.096	12935.21
855.419	12892.27
855.741	12872.39
856.063	12754.88
856.385	12836.91
856.708	12783.12
857.03	12717.36
857.352	12655.44
857.674	12738.15
857.996	12540.19
858.318	12494.54
858.64	12560.08
858.961	12442.12
859.283	12423.13
859.605	12407.32
859.926	12393.53
860.248	12287.54
860.57	12333.42
860.891	12252.06
861.212	12171.39
861.534	12187.21
861.855	12235.79
862.176	12200.77
862.498	12207.77
862.819	12108.79
863.14	12187.89
863.461	12069.24
863.782	12051.17
864.103	12061.79
864.424	11927.33
864.745	12017.72
865.065	11968.68
865.386	11896.37
865.707	11903.6
866.027	11840.32
866.348	11819.99
866.668	11842.58
866.989	11799.87
867.309	11750.84
867.63	11850.49
867.95	11792.42
868.27	11659.09
868.59	11737.95
868.91	11650.05
869.23	11695.24
869.55	11620.9
869.87	11600.33
870.19	11576.15
870.51	11627.22
870.83	11585.19
871.15	11542.48
871.469	11520.78
871.789	11591.74
872.109	11503.16
872.428	11444.18
872.748	11537.28
873.067	11440.33
873.386	11437.62
873.706	11390.62
874.025	11323.95
874.344	11330.96
874.663	11338.87
874.982	11278.76
875.301	11250.51
875.62	11295.25
875.939	11257.29
876.258	11225.2
876.577	11213
876.896	11225.2
877.214	11158.53
877.533	11214.35
877.852	11152.66
878.17	11180.68
878.489	11179.32
878.807	11105.2
879.125	11066.11
879.444	11078.54
879.762	10994.02
880.08	11009.61
880.398	11049.16
880.716	10993.11
881.034	10961.03
881.352	10931.42
881.67	10917.18
881.988	10940.01
882.306	10891.65
882.624	10808.26
882.941	10755.38
883.259	10728.49
883.577	10780.01
883.894	10695.95
884.212	10653.24
884.529	10650.75
884.846	10651.88
885.164	10644.42
885.481	10599.45
885.798	10593.8
886.115	10553.35
886.432	10647.59
886.75	10567.59
887.067	10517.87
887.383	10473.58
887.7	10558.55
888.017	10434.03
888.334	10400.59
888.651	10417.99
888.967	10338.22
889.284	10280.14
889.6	10208.73
889.917	10237.43
890.233	10295.05
890.55	10222.06
890.866	10171.89
891.182	10111.33
891.498	10102.52
891.815	10140.26
892.131	10091.9
892.447	10010.54
892.763	9978
893.079	9892.58
893.395	9885.35
893.71	9900.49
894.026	9908.4
894.342	9789.76
894.657	9850.77
894.973	9781.4
895.289	9812.58
895.604	9753.15
895.92	9666.82
896.235	9639.48
896.55	9629.31
896.865	9610.78
897.181	9598.58
897.496	9616.43
897.811	9519.03
898.126	9454.62
898.441	9431.12
898.756	9407.85
899.071	9273.16
899.386	9352.48
899.7	9270.45
900.015	9200.39
900.33	9161.07
900.644	9186.61
900.959	9131.69
901.273	9110.68
901.588	9107.29
901.902	9091.92
902.216	8986.84
902.531	9053.05
902.845	8966.05
903.159	8929.21
903.473	8915.66
903.787	8798.6
904.101	8828.2
904.415	8815.55
904.729	8811.25
905.042	8714.76
905.356	8718.15
905.67	8746.17
905.984	8637.92
906.297	8624.59
906.611	8616.91
906.924	8586.17
907.237	8475.22
907.551	8496.46
907.864	8430.24
908.177	8395.67
908.491	8411.49
908.804	8357.48
909.117	8365.16
909.43	8277.03
909.743	8258.27
910.056	8218.05
910.368	8131.95
910.681	8152.06
910.994	8104.15
911.307	8105.96
911.619	8046.07
911.932	8061.44
912.244	7971.73
912.557	7962.01
912.869	7946.19
913.181	7877.94
913.494	7884.27
913.806	7764.73
914.118	7816.7
914.43	7772.86
914.742	7738.74
915.054	7673.2
915.366	7609.93
915.678	7624.39
915.99	7632.75
916.302	7526.54
916.613	7556.37
916.925	7480.44
917.236	7451.29
917.548	7406.54
917.859	7463.49
918.171	7386.43
918.482	7388.24
918.794	7340.78
919.105	7297.17
919.416	7311.18
919.727	7249.26
920.038	7221.46
920.349	7169.26
920.66	7088.58
920.971	7112.09
921.282	7117.96
921.593	7036.61
921.903	7018.08
922.214	6963.39
922.525	6982.6
922.835	6943.96
923.146	6885.2
923.456	6873.45
923.767	6824.41
924.077	6815.6
924.387	6813.79
924.697	6760.91
925.008	6736.5
925.318	6687.69
925.628	6654.25
925.938	6691.76
926.248	6599.56
926.558	6644.3
926.867	6550.29
927.177	6495.83
927.487	6456.74
927.796	6441.6
928.106	6467.13
928.416	6377.87
928.725	6393.24
929.034	6346.68
929.344	6330.64
929.653	6348.94
929.962	6272.11
930.271	6201.83
930.581	6161.6
930.89	6168.61
931.199	6188.95
931.508	6160.25
931.817	6135.16
932.125	6064.2
932.434	6091.77
932.743	6000.03
933.051	5970.65
933.36	5922.29
933.669	5948.05
933.977	5933.81
934.286	5887.49
934.594	5871.89
934.902	5843.42
935.21	5848.39
935.519	5815.17
935.827	5782.86
936.135	5766.59
936.443	5730.65
936.751	5695.85
937.059	5717.1
937.367	5665.8
937.674	5700.37
937.982	5662.18
938.29	5572.92
938.597	5597.78
938.905	5546.25
939.213	5509.42
939.52	5492.47
939.827	5482.53
940.135	5471.23
940.442	5403.88
940.749	5412.7
941.056	5393.04
941.363	5351.23
941.67	5328.41
941.977	5307.39
942.284	5253.15
942.591	5253.83
942.898	5195.08
943.205	5197.34
943.511	5194.4
943.818	5208.41
944.125	5122.53
944.431	5182.42
944.738	5134.29
945.044	5046.15
945.35	5007.51
945.657	5047.06
945.963	4978.36
946.269	4940.62
946.575	4970.45
946.881	4911.01
947.187	4894.07
947.493	4901.52
947.799	4844.35
948.105	4844.58
948.41	4825.59
948.716	4831.92
949.022	4779.72
949.327	4782.43
949.633	4748.31
949.938	4713.05
950.244	4718.03
950.549	4713.05
950.854	4651.13
951.16	4657.01
951.465	4607.97
951.77	4593.96
952.075	4616.56
952.38	4537.92
952.685	4558.71
952.99	4455.21
953.294	4524.58
953.599	4467.41
953.904	4443.91
954.209	4426.51
954.513	4413.85
954.818	4440.07
955.122	4386.06
955.426	4356.91
955.731	4323.46
956.035	4333.4
956.339	4337.7
956.643	4287.75
956.948	4284.14
957.252	4255.89
957.556	4223.8
957.86	4206.17
958.163	4243.91
958.467	4228.55
958.771	4235.33
959.075	4156.46
959.378	4142
959.682	4107.65
959.985	4114.2
960.289	4055.22
960.592	4076.46
960.896	4030.36
961.199	4015.22
961.502	4035.56
961.805	3961.89
962.108	3984.26
962.411	3989.68
962.714	3924.37
963.017	3883.7
963.32	3923.7
963.623	3863.58
963.926	3873.98
964.228	3890.48
964.531	3867.88
964.833	3836.24
965.136	3799.18
965.438	3776.58
965.741	3749.46
966.043	3742.23
966.345	3723.25
966.648	3741.33
966.95	3685.06
967.252	3670.6
967.554	3690.71
967.856	3658.17
968.158	3622.01
968.46	3637.83
968.761	3610.71
969.063	3593.99
969.365	3606.87
969.666	3590.82
969.968	3508.79
970.269	3538.85
970.571	3529.81
970.872	3510.37
971.174	3509.92
971.475	3465.18
971.776	3451.84
972.077	3448.68
972.378	3427.89
972.679	3376.82
972.98	3396.25
973.281	3383.6
973.582	3347.21
973.883	3317.84
974.183	3327.1
974.484	3311.96
974.785	3292.53
975.085	3281
975.386	3305.41
975.686	3289.14
975.986	3223.83
976.287	3247.1
976.587	3256.37
976.887	3197.61
977.187	3202.81
977.487	3188.57
977.787	3162.13
978.087	3149.48
978.387	3172.3
978.687	3128.46
978.987	3137.05
979.286	3108.35
979.586	3107.9
979.885	3065.41
980.185	3048.47
980.484	3043.49
980.784	3026.54
981.083	3011.63
981.382	2973.21
981.682	3037.84
981.981	3004.17
982.28	2927.34
982.579	2941.35
982.878	2947.9
983.177	2907.45
983.475	2926.21
983.774	2871.52
984.073	2864.29
984.372	2886.66
984.67	2857.06
984.969	2842.59
985.267	2831.97
985.566	2828.81
985.864	2779.55
986.162	2801.24
986.461	2780.45
986.759	2770.96
987.057	2710.85
987.355	2721.02
987.653	2713.56
987.951	2702.71
988.249	2718.76
988.547	2692.32
988.844	2654.35
989.142	2673.33
989.44	2633.11
989.737	2620.68
990.035	2593.79
990.332	2618.87
990.63	2610.06
990.927	2565.77
991.224	2571.42
991.521	2559.21
991.819	2542.04
992.116	2545.43
992.413	2538.65
992.71	2493.23
993.006	2503.62
993.303	2489.61
993.6	2481.47
993.897	2490.74
994.193	2471.53
994.49	2471.08
994.787	2445.77
995.083	2440.8
995.379	2423.17
995.676	2405.77
995.972	2407.35
996.268	2394.02
996.565	2351.76
996.861	2343.85
997.157	2336.17
997.453	2327.81
997.749	2327.81
998.044	2314.02
998.34	2295.49
998.636	2311.76
998.932	2278.77
999.227	2240.12
999.523	2243.51
999.818	2223.18
1000.114	2224.31
1000.409	2214.59
1000.704	2185.89
1001	2214.36
1001.295	2180.69
1001.59	2161.93
1001.885	2187.7
1002.18	2145.89
1002.475	2162.84
1002.77	2134.59
1003.065	2121.03
1003.359	2098.89
1003.654	2086.91
1003.949	2070.64
1004.243	2049.17
1004.538	2039.9
1004.832	2070.41
1005.127	2018.89
1005.421	2032.67
1005.715	2029.28
1006.009	1991.09
1006.304	1967.14
1006.598	1983.86
1006.892	1973.92
1007.186	1972.34
1007.48	1959
1007.773	1934.6
1008.067	1932.34
1008.361	1906.12
1008.655	1930.98
1008.948	1896.18
1009.242	1889.63
1009.535	1879.91
1009.829	1891.89
1010.122	1842.17
1010.415	1824.99
1010.708	1850.98
1011.001	1820.7
1011.295	1787.48
1011.588	1784.09
1011.881	1793.58
1012.173	1749.74
1012.466	1780.25
1012.759	1756.07
1013.052	1726.47
1013.344	1757.88
1013.637	1724.21
1013.93	1726.24
1014.222	1718.56
1014.514	1689.4
1014.807	1699.12
1015.099	1681.95
1015.391	1666.58
1015.683	1633.81
1015.976	1673.81
1016.268	1672.68
1016.56	1601.95
1016.851	1620.71
1017.143	1601.27
1017.435	1589.07
1017.727	1576.64
1018.018	1561.72
1018.31	1550.88
1018.602	1558.79
1018.893	1555.62
1019.185	1535.06
1019.476	1519.01
1019.767	1500.48
1020.058	1500.03
1020.35	1469.3
1020.641	1465.91
1020.932	1464.1
1021.223	1442.41
1021.514	1447.83
1021.804	1410.54
1022.095	1458.45
1022.386	1427.49
1022.677	1399.69
1022.967	1418.23
1023.258	1391.11
1023.548	1368.28
1023.839	1376.64
1024.129	1368.06
1024.419	1354.5
1024.709	1332.35
1025	1336.87
1025.29	1354.5
1025.58	1332.58
1025.87	1318.57
1026.16	1309.53
1026.449	1317.44
1026.739	1302.75
1027.029	1285.35
1027.319	1279.02
1027.608	1239.7
1027.898	1264.78
1028.187	1272.24
1028.477	1240.6
1028.766	1225.91
1029.055	1239.47
1029.344	1224.11
1029.634	1218.46
1029.923	1212.13
1030.212	1186.59
1030.501	1191.11
1030.79	1152.92
1031.078	1142.3
1031.367	1177.55
1031.656	1175.29
1031.945	1157.44
1032.233	1145.69
1032.522	1160.61
1032.81	1133.04
1033.099	1111.11
1033.387	1107.27
1033.675	1090.78
1033.963	1129.87
1034.251	1085.58
1034.54	1074.96
1034.828	1059.59
1035.116	1063.21
1035.403	1060.27
1035.691	1044.9
1035.979	1039.48
1036.267	1054.85
1036.554	1030.66
1036.842	1023.21
1037.129	1011.23
1037.417	998.12
1037.704	1006.26
1037.992	1007.84
1038.279	1021.4
1038.566	984.79
1038.853	984.79
1039.14	984.79
