Data from hue_340_FLMS001491_73.txt Node
Date: Mon Feb 06 15:43:34 GMT 2017
User: dcchb
Spectrometer: FLMS00149
Trigger mode: 0
Integration Time (sec): 2.000000E-2
Scans to average: 10
Electric dark correction enabled: true
Nonlinearity correction enabled: false
Boxcar width: 0
XAxis mode: Wavelengths
Number of Pixels in Spectrum: 2048
>>>>>Begin Spectral Data<<<<<
341.393	-37.32
341.776	-37.32
342.16	-37.32
342.543	-52
342.927	-49.07
343.31	-71.66
343.693	-71.66
344.077	-58.11
344.46	-74.6
344.843	-48.84
345.226	-36.64
345.61	-24.43
345.993	-28.5
346.376	-8.84
346.759	27.32
347.142	21.21
347.525	32.29
347.908	68.44
348.291	88.56
348.674	79.52
349.057	105.96
349.44	135.11
349.823	148.44
350.206	184.15
350.588	178.05
350.971	202.23
351.354	221.66
351.737	242.68
352.119	260.53
352.502	263.02
352.884	278.16
353.267	292.17
353.65	305.27
354.032	306.4
354.414	305.05
354.797	315.22
355.179	351.37
355.562	311.38
355.944	320.42
356.326	311.83
356.709	319.06
357.091	341.88
357.473	326.74
357.855	335.78
358.238	346.4
358.62	349.79
359.002	341.21
359.384	340.3
359.766	323.58
360.148	328.1
360.53	361.09
360.912	340.08
361.294	358.61
361.676	323.13
362.057	328.32
362.439	331.04
362.821	332.84
363.203	354.76
363.584	319.74
363.966	329
364.348	318.83
364.729	330.58
365.111	325.84
365.493	313.86
365.874	317.7
366.256	333.52
366.637	312.73
367.019	314.99
367.4	320.87
367.781	322
368.163	319.96
368.544	318.16
368.925	295.11
369.306	313.41
369.688	295.78
370.069	299.62
370.45	303.69
370.831	298.72
371.212	317.03
371.593	320.19
371.974	341.21
372.355	338.27
372.736	323.35
373.117	326.74
373.498	334.88
373.879	306.4
374.26	316.12
374.641	318.16
375.021	311.6
375.402	335.78
375.783	335.78
376.163	332.84
376.544	324.93
376.925	332.17
377.305	331.04
377.686	332.39
378.066	332.39
378.447	331.71
378.827	324.26
379.208	331.94
379.588	334.2
379.968	310.25
380.349	348.89
380.729	337.59
381.109	342.56
381.489	322.22
381.87	350.92
382.25	358.61
382.63	333.3
383.01	345.73
383.39	351.37
383.77	358.15
384.15	343.01
384.53	336.69
384.91	340.3
385.29	346.63
385.67	315.44
386.049	358.61
386.429	348.66
386.809	356.35
387.189	344.37
387.568	340.75
387.948	356.35
388.328	336.23
388.707	324.26
389.087	358.61
389.466	355.89
389.846	353.86
390.225	362.67
390.605	339.62
390.984	356.35
391.363	362.67
391.743	364.71
392.122	371.49
392.501	379.17
392.881	371.71
393.26	370.36
393.639	365.61
394.018	382.79
394.397	371.71
394.776	395.67
395.155	400.19
395.534	385.27
395.913	399.28
396.292	371.04
396.671	393.63
397.05	406.51
397.429	395.89
397.808	397.02
398.186	401.09
398.565	379.17
398.944	384.59
399.323	379.4
399.701	390.02
400.08	396.12
400.458	420.53
400.837	415.55
401.215	406.06
401.594	420.07
401.972	413.52
402.351	420.53
402.729	409.9
403.107	396.12
403.486	422.33
403.864	420.75
404.242	411.26
404.62	419.62
404.999	431.82
405.377	427.98
405.755	439.28
406.133	410.58
406.511	441.54
406.889	437.47
407.267	424.59
407.645	458.72
408.023	455.55
408.401	428.66
408.779	461.43
409.156	449
409.534	472.28
409.912	456.46
410.29	461.65
410.667	455.1
411.045	460.3
411.422	483.35
411.8	492.61
412.178	467.76
412.555	474.76
412.933	486.74
413.31	499.17
413.687	516.12
414.065	505.5
414.442	517.02
414.819	535.55
415.197	515.21
415.574	540.07
415.951	529.68
416.328	539.62
416.705	545.49
417.082	532.84
417.46	555.21
417.837	546.62
418.214	561.31
418.591	577.13
418.967	563.12
419.344	555.66
419.721	586.62
420.098	574.42
420.475	571.93
420.852	558.6
421.228	582.56
421.605	606.74
421.982	595.44
422.358	597.7
422.735	613.06
423.111	628.66
423.488	616.23
423.864	628.2
424.241	616.9
424.617	606.96
424.994	635.89
425.37	650.35
425.746	638.37
426.123	667.3
426.499	645.83
426.875	652.84
427.251	668.65
427.627	658.71
428.003	694.64
428.379	721.76
428.756	682.89
429.132	710.46
429.507	697.35
429.883	712.72
430.259	726.51
430.635	761.76
431.011	727.18
431.387	756.79
431.763	752.95
432.138	768.09
432.514	781.87
432.89	766.28
433.265	764.25
433.641	780.06
434.016	795.21
434.392	797.01
434.767	818.03
435.143	805.37
435.518	832.04
435.894	834.53
436.269	816.45
436.644	845.37
437.02	849.44
437.395	851.02
437.77	862.32
438.145	879.04
438.52	850.8
438.895	876.11
439.271	912.94
439.646	891.7
440.021	907.74
440.395	877.46
440.77	915.88
441.145	915.88
441.52	893.73
441.895	922.43
442.27	930.12
442.645	941.64
443.019	940.06
443.394	942.09
443.769	943.9
444.143	934.41
444.518	988.65
444.892	957.01
445.267	970.34
445.641	945.71
446.016	968.76
446.39	993.62
446.764	992.71
447.139	973.73
447.513	1003.34
447.887	989.1
448.262	983
448.636	1026.61
449.01	1000.85
449.384	1009.66
449.758	1001.98
450.132	1055.09
450.506	1032.49
450.88	1044.46
451.254	1051.24
451.628	1062.32
452.002	1058.93
452.376	1078.14
452.75	1066.61
453.123	1077.91
453.497	1086.72
453.871	1075.65
454.244	1095.99
454.618	1114.74
454.992	1122.2
455.365	1125.82
455.739	1139.15
456.112	1149.77
456.486	1157.68
456.859	1182.54
457.232	1168.75
457.606	1189.09
457.979	1209.66
458.352	1175.99
458.725	1228.19
459.099	1208.08
459.472	1256.66
459.845	1246.04
460.218	1301.63
460.591	1276.55
460.964	1264.8
461.337	1328.3
461.71	1312.03
462.083	1334.17
462.456	1319.26
462.829	1341.41
463.201	1397.9
463.574	1363.55
463.947	1374.85
464.32	1398.81
464.692	1406.71
465.065	1414.17
465.438	1421.4
465.81	1451.46
466.183	1443.55
466.555	1487.39
466.928	1505.69
467.3	1514.28
467.672	1475.41
468.045	1547.73
468.417	1537.11
468.789	1562.42
469.161	1561.29
469.534	1583.21
469.906	1611
470.278	1632.7
470.65	1622.98
471.022	1665.46
471.394	1699.36
471.766	1698.91
472.138	1702.07
472.51	1764.45
472.882	1773.26
473.253	1796.99
473.625	1811.45
473.997	1844.44
474.369	1866.59
474.74	1852.13
475.112	1898.23
475.484	1938.68
475.855	1979.81
476.227	1992.24
476.598	2022.29
476.97	2049.41
477.341	2087.6
477.713	2119.69
478.084	2108.62
478.455	2174.83
478.827	2161.72
479.198	2243.75
479.569	2243.75
479.94	2313.58
480.311	2345.67
480.682	2359.23
481.053	2382.06
481.424	2448.27
481.795	2438.33
482.166	2479.23
482.537	2491.66
482.908	2562.16
483.279	2606.91
483.65	2639.68
484.021	2695.27
484.391	2694.14
484.762	2708.6
485.133	2776.4
485.503	2808.49
485.874	2838.09
486.244	2874.02
486.615	2935.94
486.985	2950.85
487.356	3015.94
487.726	3020.23
488.097	3116.27
488.467	3059.1
488.837	3159.89
489.207	3188.36
489.578	3223.39
489.948	3251.86
490.318	3290.73
490.688	3322.37
491.058	3347.68
491.428	3387.68
491.798	3421.12
492.168	3506.55
492.538	3503.16
492.908	3519.2
493.278	3582.02
493.648	3549.26
494.017	3642.14
494.387	3678.97
494.757	3677.16
495.126	3732.08
495.496	3751.29
495.866	3759.19
496.235	3836.71
496.605	3842.81
496.974	3876.03
497.344	3869.02
497.713	3919.64
498.082	3956.25
498.452	3997.83
498.821	3970.04
499.19	4025.18
499.559	4035.35
499.928	4048
500.298	4056.59
500.667	4123.48
501.036	4116.02
501.405	4138.17
501.774	4133.2
502.143	4150.82
502.512	4184.95
502.88	4230.82
503.249	4231.27
503.618	4258.39
503.987	4273.08
504.356	4340.42
504.724	4316.92
505.093	4340.87
505.462	4358.5
505.83	4350.59
506.199	4405.96
506.567	4432.4
506.936	4463.81
507.304	4463.36
507.672	4512.4
508.041	4523.47
508.409	4531.15
508.777	4570.25
509.145	4577.7
509.514	4564.15
509.882	4616.57
510.25	4666.97
510.618	4655.44
510.986	4667.42
511.354	4712.16
511.722	4707.42
512.09	4761.65
512.458	4726.85
512.826	4765.27
513.193	4789.9
513.561	4821.54
513.929	4837.58
514.297	4875.32
514.664	4848.88
515.032	4860.18
515.4	4902.44
515.767	4942.67
516.135	4951.25
516.502	4934.08
516.869	5012.72
517.237	5016.79
517.604	4983.8
517.972	5026.96
518.339	5018.37
518.706	5055.66
519.073	5055.43
519.44	5123.9
519.808	5111.7
520.175	5077.58
520.542	5147.18
520.909	5197.58
521.276	5126.39
521.643	5210
522.009	5225.6
522.376	5278.03
522.743	5272.83
523.11	5357.57
523.477	5331.81
523.843	5347.85
524.21	5398.47
524.577	5453.39
524.943	5451.58
525.31	5472.37
525.676	5528.87
526.043	5534.97
526.409	5572.93
526.776	5605.25
527.142	5653.16
527.508	5688.64
527.874	5673.49
528.241	5684.79
528.607	5744.23
528.973	5776.99
529.339	5742.19
529.705	5795.07
530.071	5789.2
530.437	5872.59
530.803	5939.7
531.169	5934.73
531.535	5949.19
531.901	5984.45
532.267	6007.72
532.632	6063.09
532.998	6048.4
533.364	6126.59
533.73	6115.07
534.095	6157.32
534.461	6155.97
534.826	6228.96
535.192	6236.87
535.557	6246.59
535.923	6234.38
536.288	6327.94
536.653	6320.26
537.019	6312.12
537.384	6379.47
537.749	6400.93
538.114	6409.29
538.479	6437.09
538.845	6527.26
539.21	6493.81
539.575	6506.69
539.94	6467.6
540.305	6541.04
540.67	6553.47
541.034	6610.19
541.399	6669.63
541.764	6642.51
542.129	6706.24
542.494	6701.72
542.858	6722.51
543.223	6815.16
543.587	6848.83
543.952	6817.42
544.316	6862.84
544.681	6826.01
545.045	6922.73
545.41	6918.21
545.774	6978.55
546.138	6971.99
546.503	6974.03
546.867	6999.34
547.231	7029.84
547.595	7087.24
547.959	7073.23
548.324	7101.93
548.688	7138.54
549.052	7204.53
549.416	7209.05
549.779	7195.26
550.143	7277.75
550.507	7275.26
550.871	7313.68
551.235	7301.93
551.599	7317.97
551.962	7355.26
552.326	7410.62
552.689	7379.44
553.053	7384.64
553.417	7420.57
553.78	7478.87
554.143	7440.68
554.507	7490.17
554.87	7509.38
555.234	7619.21
555.597	7529.49
555.96	7573.33
556.323	7657.4
556.686	7665.98
557.05	7695.36
557.413	7647.68
557.776	7747.79
558.139	7803.61
558.502	7769.94
558.865	7804.06
559.228	7875.7
559.59	7878.41
559.953	7920.67
560.316	7981
560.679	7954.56
561.041	8034.56
561.404	8053.09
561.767	8075.69
562.129	8055.35
562.492	8119.98
562.854	8076.82
563.217	8116.37
563.579	8182.81
563.941	8228.23
564.304	8266.65
564.666	8334.22
565.028	8301.67
565.39	8378.28
565.753	8379.86
566.115	8376.02
566.477	8390.94
566.839	8374.21
567.201	8530.59
567.563	8442.24
567.925	8561.55
568.287	8544.83
568.648	8610.59
569.01	8619.41
569.372	8671.16
569.734	8694.43
570.095	8739.18
570.457	8812.85
570.819	8832.96
571.18	8882.9
571.542	8896.91
571.903	8918.61
572.265	8982.11
572.626	9088.09
572.987	8996.57
573.349	9052.39
573.71	9182.56
574.071	9227.53
574.432	9267.52
574.794	9349.1
575.155	9337.58
575.516	9414.19
575.877	9489.21
576.238	9531.7
576.599	9594.52
576.96	9678.81
577.32	9743.67
577.681	9851.24
578.042	9969.43
578.403	9974.62
578.763	10067.28
579.124	10194.96
579.485	10315.18
579.845	10350.21
580.206	10416.65
580.566	10540.26
580.927	10665.68
581.287	10791.33
581.648	10913.13
582.008	11068.16
582.368	11158.55
582.728	11382.05
583.089	11463.4
583.449	11589.95
583.809	11761.92
584.169	11888.25
584.529	12144.74
584.889	12342.92
585.249	12411.4
585.609	12670.83
585.969	12842.57
586.329	13069.46
586.688	13219.06
587.048	13468.54
587.408	13640.52
587.768	13837.8
588.127	14097
588.487	14235.98
588.846	14557.33
589.206	14691.11
589.565	14962.29
589.925	15228.72
590.284	15523.86
590.643	15784.64
591.003	16037.74
591.362	16371.29
591.721	16514.57
592.08	16740.77
592.44	17200.65
592.799	17415.79
593.158	17655.78
593.517	17944.81
593.876	18231.58
594.235	18517
594.593	18762.87
594.952	19058.45
595.311	19243.99
595.67	19622.05
596.029	19883.06
596.387	20299.78
596.746	20613.67
597.104	20690.28
597.463	21016.82
597.822	21410.26
598.18	21606.86
598.538	21865.39
598.897	22339.27
599.255	22361.42
599.613	23000.5
599.972	23067.16
600.33	23347.15
600.688	23618.79
601.046	23934.03
601.404	24289.73
601.762	24554.35
602.12	24835.25
602.478	25118.41
602.836	25350.94
603.194	25448.12
603.552	25856.47
603.91	25947.54
604.268	26351.37
604.625	26535.32
604.983	26797.91
605.341	26923.78
605.698	27334.17
606.056	27549.53
606.413	27819.13
606.771	28112
607.128	28284.65
607.485	28462.73
607.843	28808.03
608.2	28991.3
608.557	29303.16
608.914	29341.57
609.272	29613.88
609.629	29983.82
609.986	30095.9
610.343	30261.55
610.7	30676
611.057	30782.44
611.414	30904.92
611.771	31181.98
612.127	31432.14
612.484	31597.78
612.841	31879.13
613.198	31945.12
613.554	32101.95
613.911	32387.82
614.267	32482.73
614.624	32616.52
614.98	32706.23
615.337	33100.12
615.693	33099.67
616.05	33215.6
616.406	33509.83
616.762	33515.7
617.118	33734.9
617.475	33935.8
617.831	34102.58
618.187	34213.76
618.543	34443.13
618.899	34745.27
619.255	34734.2
619.611	34901.43
619.967	35079.5
620.323	35196.33
620.678	35069.11
621.034	35180.97
621.39	35299.61
621.746	35300.96
622.101	35783.21
622.457	35603.78
622.812	35797.67
623.168	35935.3
623.523	36023.43
623.879	36158.57
624.234	35957.22
624.589	36302.97
624.945	36225.01
625.3	36441.73
625.655	36484.21
626.01	36601.72
626.365	36691.21
626.72	36589.29
627.075	36871.54
627.43	36788.16
627.785	36797.42
628.14	36999
628.495	37067.02
628.85	37069.51
629.205	37088.49
629.559	37289.39
629.914	37140.46
630.269	37185.89
630.623	37170.97
630.978	37153.12
631.332	37419.33
631.687	37423.39
632.041	37386.33
632.396	37525.99
632.75	37440.34
633.104	37471.53
633.459	37221.59
633.813	37335.26
634.167	37436.28
634.521	37383.17
634.875	37464.3
635.229	37460.46
635.583	37140.92
635.937	37283.06
636.291	37361.25
636.645	37315.15
636.999	37296.62
637.352	37440.8
637.706	37241.93
638.06	37554.92
638.413	37319.67
638.767	37378.42
639.121	37560.79
639.474	37377.29
639.828	37325.54
640.181	37395.15
640.534	37440.57
640.888	37257.07
641.241	37190.63
641.594	37408.93
641.947	37377.97
642.301	37280.57
642.654	37349.72
643.007	37284.19
643.36	37402.38
643.713	37319.67
644.066	37382.27
644.419	37187.02
644.771	36943.63
645.124	36662.51
645.477	36581.61
645.83	36362.18
646.182	36319.92
646.535	36334.38
646.888	36264.33
647.24	36025.92
647.593	36255.29
647.945	36319.69
648.298	36150.43
648.65	36098.68
649.002	36129.42
649.355	36154.95
649.707	36172.35
650.059	36179.81
650.411	36598.33
650.763	36607.14
651.115	36934.82
651.467	37003.07
651.819	36949.96
652.171	36839.91
652.523	36667.48
652.875	36703.41
653.227	36658.67
653.578	36960.13
653.93	36833.35
654.282	36713.58
654.633	36666.8
654.985	36850.3
655.337	36756.97
655.688	36697.99
656.039	36812.34
656.391	36479.24
656.742	36552.23
657.094	36555.39
657.445	36751.55
657.796	36520.37
658.147	36745.22
658.498	36589.74
658.849	36615.73
659.2	36668.16
659.551	36484.21
659.902	36622.74
660.253	36569.63
660.604	36648.27
660.955	36488.96
661.306	36600.37
661.656	36570.08
662.007	36576.41
662.358	36550.42
662.708	36479.24
663.059	36552.68
663.409	36377.77
663.76	36467.71
664.11	36443.08
664.461	36466.58
664.811	36594.94
665.161	36436.3
665.511	36386.59
665.862	36452.8
666.212	36546.36
666.562	36568.05
666.912	36387.49
667.262	36443.99
667.612	36395.62
667.962	36467.71
668.312	36377.77
668.662	36535.06
669.011	36477.66
669.361	36380.03
669.711	36294.84
670.06	36294.84
670.41	36286.48
670.76	36222.07
671.109	36352.46
671.459	36419.13
671.808	36386.13
672.157	36426.36
672.507	36153.82
672.856	36107.5
673.205	36072.7
673.554	36285.35
673.904	36090.55
674.253	36269.98
674.602	36111.34
674.951	35696.43
675.3	35505.25
675.649	36085.12
675.998	36010.1
676.346	36096.88
676.695	36179.36
677.044	35939.82
677.393	35990.21
677.741	36110.43
678.09	36032.02
678.438	35816.88
678.787	35959.93
679.135	35910.21
679.484	35795.64
679.832	35911.12
680.181	35666.38
680.529	35728.07
680.877	35647.17
681.225	35679.94
681.573	35757.9
681.922	35582.09
682.27	35543.44
682.618	35501.41
682.966	35405.59
683.314	35351.36
683.661	35384.35
684.009	35191.36
684.357	35169.89
684.705	35186.62
685.053	35140.29
685.4	35144.13
685.748	34984.36
686.095	34957.02
686.443	34764.26
686.79	34810.13
687.138	34823.46
687.485	34801.32
687.832	34638.38
688.18	34661.89
688.527	34406.75
688.874	34517.03
689.221	34486.75
689.568	34377.82
689.915	34267.55
690.262	34354.1
690.609	34024.16
690.956	34096.7
691.303	34071.84
691.65	33892.87
691.997	33964.5
692.344	33686.54
692.69	33577.85
693.037	33585.98
693.383	33477.74
693.73	33402.71
694.077	33229.61
694.423	33412.65
694.769	33261.7
695.116	33070.74
695.462	33122.26
695.808	33040.23
696.155	32962.27
696.501	32768.6
696.847	32831.42
697.193	32474.6
697.539	32705.1
697.885	32419.23
698.231	32435.96
698.577	32513.47
698.923	32321.61
699.269	32216.3
699.614	32090.2
699.96	32049.52
700.306	32063.31
700.651	31961.84
700.997	31782.19
701.342	31646.82
701.688	31744
702.033	31567.5
702.379	31580.16
702.724	31473.72
703.069	31555.53
703.415	31118.7
703.76	31247.06
704.105	31172.71
704.45	31180.62
704.795	30954.64
705.14	30929.1
705.485	30828.09
705.83	30737.02
706.175	30813.62
706.52	30754.42
706.865	30440.75
707.209	30478.49
707.554	30450.24
707.899	30471.71
708.243	30282.11
708.588	30341.55
708.932	30056.36
709.277	30041.22
709.621	30043.93
709.966	29928.45
710.31	29998.73
710.654	29707.89
710.998	29781.79
711.342	29809.13
711.687	29609.59
712.031	29571.17
712.375	29464.51
712.719	29474.9
713.063	29486.2
713.407	29465.19
713.75	29444.4
714.094	29346.54
714.438	29239.65
714.782	29123.05
715.125	29004.41
715.469	29026.78
715.812	28874.01
716.156	28756.96
716.499	28945.65
716.843	28872.43
717.186	28656.62
717.53	28791.08
717.873	28833.11
718.216	28696.84
718.559	28483.06
718.902	28366.01
719.246	28434.25
719.589	28405.55
719.932	28288.72
720.275	28346.8
720.617	28219.34
720.96	28201.49
721.303	28224.99
721.646	28134.37
721.989	27952.68
722.331	28073.36
722.674	27958.56
723.016	27977.09
723.359	27906.58
723.701	27879.24
724.044	27742.75
724.386	27588.17
724.729	27700.03
725.071	27674.72
725.413	27551.34
725.755	27588.4
726.097	27454.84
726.439	27374.39
726.782	27239.93
727.124	27494.16
727.465	27324.9
727.807	27210.33
728.149	27311.34
728.491	27190.22
728.833	27291.23
729.175	27118.81
729.516	27097.79
729.858	27155.64
730.199	27137.79
730.541	26967.85
730.882	27039.26
731.224	27053.5
731.565	26847.4
731.906	26871.81
732.248	26874.97
732.589	26751.13
732.93	26664.81
733.271	26683.56
733.612	26728.08
733.953	26648.99
734.294	26554.75
734.635	26551.14
734.976	26493.06
735.317	26450.58
735.658	26417.13
735.999	26458.94
736.339	26270.47
736.68	26351.82
737.021	26317.7
737.361	26065.73
737.702	26378.04
738.042	26267.53
738.383	26119.28
738.723	26209.23
739.063	26140.53
739.404	26114.77
739.744	26063.92
740.084	25902.57
740.424	25996.58
740.764	25946.63
741.104	25984.37
741.444	25802.68
741.784	25769.69
742.124	25867.99
742.464	25788.67
742.804	25720.2
743.143	25567.89
743.483	25645.63
743.823	25439.53
744.162	25468.91
744.502	25503.71
744.841	25343.49
745.181	25468.68
745.52	25328.57
745.86	25341.9
746.199	25248.8
746.538	25374.22
746.877	25352.53
747.216	25328.8
747.556	25162.93
747.895	25244.73
748.234	25114.57
748.573	25132.87
748.911	25180.33
749.25	25036.83
749.589	24897.62
749.928	24879.77
750.267	24910.73
750.605	24836.38
750.944	24828.47
751.283	24651.53
751.621	24822.37
751.96	24560.23
752.298	24713.67
752.636	24630.96
752.975	24476.39
753.313	24391.87
753.651	24439.78
753.989	24298.09
754.327	24316.39
754.666	24214.93
755.004	24332.21
755.342	24273.91
755.679	24128.15
756.017	24122.95
756.355	24127.02
756.693	24051.77
757.031	24042.05
757.368	23879.12
757.706	23861.94
758.044	23717.99
758.381	23762.28
758.719	23666.92
759.056	23715.51
759.394	23582.4
759.731	23378.11
760.068	23511.44
760.405	23253.37
760.743	23240.49
761.08	23259.93
761.417	23154.39
761.754	23094.51
762.091	23064.9
762.428	23052.25
762.765	22896.09
763.102	22933.15
763.438	22807.96
763.775	22622.2
764.112	22754.18
764.449	22643.9
764.785	22582.2
765.122	22480.74
765.458	22435.99
765.795	22487.29
766.131	22265.83
766.467	22297.46
766.804	22163.91
767.14	22062.22
767.476	22038.94
767.812	21875.1
768.148	21935.89
768.485	21832.39
768.821	21738.16
769.157	21676.69
769.492	21657.93
769.828	21576.81
770.164	21407.77
770.5	21306.3
770.836	21322.12
771.171	21193.54
771.507	21183.6
771.842	21055.69
772.178	20985.86
772.513	20921
772.849	20923.72
773.184	20794
773.519	20784.74
773.855	20673.1
774.19	20553.33
774.525	20528.47
774.86	20474.91
775.195	20383.16
775.53	20399.66
775.865	20205.99
776.2	20174.36
776.535	19897.98
776.87	19999.45
777.205	20008.94
777.539	19903.63
777.874	19928.49
778.209	19726.23
778.543	19642.39
778.878	19486.24
779.212	19625.9
779.547	19376.41
779.881	19350.88
780.215	19265.45
780.55	19330.31
780.884	19132.8
781.218	19109.75
781.552	19050.54
781.886	19023.65
782.22	18898.23
782.554	18867.5
782.888	18636.32
783.222	18613.72
783.556	18595.19
783.889	18517.9
784.223	18298.7
784.557	18314.97
784.89	18354.52
785.224	18272.03
785.557	18091.02
785.891	18204.69
786.224	17954.53
786.558	18045.6
786.891	17846.96
787.224	17872.27
787.557	17722.67
787.891	17851.25
788.224	17708.66
788.557	17724.03
788.89	17671.37
789.223	17637.25
789.556	17442.22
789.888	17390.25
790.221	17375.79
790.554	17272.96
790.887	17218.73
791.219	17273.64
791.552	17193.64
791.884	17086.98
792.217	16980.54
792.549	16993.88
792.882	16866.65
793.214	16769.93
793.546	16789.81
793.879	16651.96
794.211	16620.78
794.543	16660.78
794.875	16496.04
795.207	16573.77
795.539	16484.96
795.871	16462.36
796.203	16322.25
796.535	16201.13
796.867	16164.29
797.198	16077.29
797.53	16134.01
797.862	15991.19
798.193	16075.71
798.525	15842.72
798.856	15879.1
799.188	15878.65
799.519	15794.58
799.85	15682.72
800.182	15712.33
800.513	15670.07
800.844	15503.97
801.175	15527.7
801.506	15502.84
801.837	15448.38
802.168	15476.17
802.499	15388.49
802.83	15347.36
803.161	15190.31
803.491	15262.17
803.822	15287.71
804.153	15186.69
804.483	15040.93
804.814	15009.97
805.145	14965.45
805.475	14967.49
805.805	14994.15
806.136	14899.47
806.466	14874.61
806.796	14807.94
807.126	14654.73
807.457	14729.98
807.787	14661.51
808.117	14684.56
808.447	14526.82
808.777	14607.05
809.107	14544.67
809.436	14508.52
809.766	14443.89
810.096	14384
810.426	14284.12
810.755	14340.61
811.085	14360.27
811.414	14320.5
811.744	14143.1
812.073	14148.98
812.403	14115.08
812.732	14002.99
813.061	14108.08
813.39	13929.1
813.719	13878.7
814.049	14037.12
814.378	13955.54
814.707	13914.63
815.036	13787.18
815.365	13775.88
815.693	13614.3
816.022	13708.31
816.351	13649.56
816.68	13574.53
817.008	13592.38
817.337	13476.91
817.665	13435.32
817.994	13493.63
818.322	13466.51
818.651	13316.01
818.979	13430.58
819.307	13480.97
819.636	13297.93
819.964	13242.11
820.292	13281.66
820.62	13323.24
820.948	13202.79
821.276	13287.31
821.604	13245.05
821.932	13230.58
822.259	13293.18
822.587	13222
822.915	13179.96
823.243	13254.99
823.57	13186.74
823.898	13207.76
824.225	13190.81
824.553	13113.3
824.88	13153.07
825.207	13168.21
825.535	13107.88
825.862	13152.17
826.189	13147.87
826.516	13197.36
826.843	13217.25
827.17	13116.91
827.497	13251.15
827.824	13166.18
828.151	13256.12
828.478	13186.29
828.805	13207.31
829.131	13178.61
829.458	13134.09
829.785	13014.77
830.111	13095.22
830.438	13084.6
830.764	13096.58
831.09	13091.83
831.417	13024.71
831.743	13124.37
832.069	13175.22
832.395	13072.17
832.722	13104.26
833.048	13003.02
833.374	12990.36
833.7	12983.59
834.026	12990.36
834.351	12992.4
834.677	12956.47
835.003	12989.46
835.329	12967.77
835.654	12943.59
835.98	12849.35
836.306	12900.2
836.631	12825.62
836.956	12876.47
837.282	12849.13
837.607	12829.69
837.932	12756.25
838.258	12796.7
838.583	12751.5
838.908	12684.61
839.233	12707.21
839.558	12712.41
839.883	12625.85
840.208	12636.93
840.533	12645.06
840.858	12594.44
841.182	12620.66
841.507	12618.62
841.832	12509.93
842.156	12475.58
842.481	12451.85
842.805	12497.04
843.13	12351.29
843.454	12353.77
843.778	12381.12
844.103	12278.07
844.427	12303.83
844.751	12319.65
845.075	12219.76
845.399	12208.46
845.723	12108.13
846.047	12182.02
846.371	12081.46
846.695	12096.6
847.019	12081.91
847.343	11924.86
847.666	11849.6
847.99	11786.55
848.313	11755.59
848.637	11713.79
848.96	11682.83
849.284	11648.93
849.607	11572.55
849.931	11570.97
850.254	11446.9
850.577	11385.89
850.9	11420.01
851.223	11395.38
851.546	11247.81
851.869	11291.43
852.192	11219.56
852.515	11163.52
852.838	11127.36
853.161	11130.75
853.483	11069.96
853.806	11109.51
854.129	10984.77
854.451	10857.77
854.774	10836.52
855.096	10874.04
855.419	10766.47
855.741	10779.58
856.063	10715.4
856.385	10725.11
856.708	10704.55
857.03	10660.26
857.352	10613.48
857.674	10529.41
857.996	10532.12
858.318	10516.31
858.64	10508.4
858.961	10479.47
859.283	10491.9
859.605	10367.83
859.926	10464.33
860.248	10331.23
860.57	10272.24
860.891	10361.96
861.212	10281.28
861.534	10292.36
861.855	10215.75
862.176	10221.17
862.498	10253.71
862.819	10262.75
863.14	10163.77
863.461	10102.98
863.782	10013.27
864.103	10115.86
864.424	10065.24
864.745	10060.5
865.065	10058.24
865.386	9989.77
865.707	9980.5
866.027	10020.73
866.348	9982.99
866.668	9985.7
866.989	9953.83
867.309	9869.77
867.63	9924.46
867.95	9861.18
868.27	9849.88
868.59	9930.33
868.91	9829.09
869.23	9881.29
869.55	9787.51
869.87	9762.43
870.19	9754.74
870.51	9764.46
870.83	9702.77
871.15	9681.98
871.469	9684.91
871.789	9725.59
872.109	9677.68
872.428	9720.85
872.748	9668.87
873.067	9618.25
873.386	9650.34
873.706	9646.5
874.025	9587.06
874.344	9610.79
874.663	9494.19
874.982	9539.61
875.301	9518.37
875.62	9524.24
875.939	9509.33
876.258	9487.86
876.577	9432.04
876.896	9447.18
877.214	9407.63
877.533	9401.31
877.852	9435.2
878.17	9399.95
878.489	9396.79
878.807	9342.32
879.125	9302.1
879.444	9366.28
879.762	9297.13
880.08	9302.1
880.398	9212.38
880.716	9250.12
881.034	9286.51
881.352	9187.75
881.67	9174.87
881.988	9191.59
882.306	9178.26
882.624	9122.67
882.941	9083.57
883.259	9171.48
883.577	9036.57
883.894	9063.91
884.212	9039.96
884.529	9082.22
884.846	8928.32
885.164	8990.47
885.481	8931.26
885.798	8948.21
886.115	8879.06
886.432	8880.42
886.75	8880.19
887.067	8867.54
887.383	8820.76
887.7	8904.14
888.017	8765.17
888.334	8788.67
888.651	8705.51
888.967	8713.41
889.284	8683.59
889.6	8659.41
889.917	8576.92
890.233	8548.9
890.55	8586.19
890.866	8656.69
891.182	8562.46
891.498	8542.12
891.815	8464.38
892.131	8423.48
892.447	8472.97
892.763	8412.41
893.079	8390.03
893.395	8412.18
893.71	8391.84
894.026	8344.39
894.342	8326.08
894.657	8280.88
894.973	8242.24
895.289	8190.94
895.604	8216.03
895.92	8194.33
896.235	8125.63
896.55	8098.29
896.865	8038.18
897.181	8047.67
897.496	8044.51
897.811	8014
898.126	7926.09
898.441	7935.36
898.756	7940.78
899.071	7889.71
899.386	7887.22
899.7	7805.87
900.015	7835.7
900.33	7784.85
900.644	7721.12
900.959	7719.54
901.273	7684.06
901.588	7630.28
901.902	7627.34
902.216	7605.2
902.531	7547.12
902.845	7591.18
903.159	7512.77
903.473	7483.84
903.787	7464.41
904.101	7399.78
904.415	7407.23
904.729	7394.81
905.042	7346.22
905.356	7363.62
905.67	7332.66
905.984	7253.79
906.297	7283.62
906.611	7214.92
906.924	7252.44
907.237	7178.31
907.551	7188.71
907.864	7079.11
908.177	7090.41
908.491	7087.69
908.804	7077.75
909.117	6959.56
909.43	6944.87
909.743	6867.59
910.056	6929.28
910.368	6891.09
910.681	6898.1
910.994	6854.48
911.307	6751.66
911.619	6772.68
911.932	6806.8
912.244	6718.67
912.557	6680.7
912.869	6671.21
913.181	6670.98
913.494	6655.84
913.806	6659.68
914.118	6600.02
914.43	6553.47
914.742	6495.39
915.054	6493.59
915.366	6500.37
915.678	6438.22
915.99	6454.72
916.302	6351.44
916.613	6322.07
916.925	6375.4
917.236	6378.56
917.548	6306.92
917.859	6307.83
918.171	6254.04
918.482	6172.24
918.794	6164.1
919.105	6174.72
919.416	6127.04
919.727	6072.58
920.038	6064.22
920.349	6007.5
920.66	6036.65
920.971	6073.94
921.282	6016.31
921.593	6000.04
921.903	5935.41
922.214	5943.54
922.525	5913.26
922.835	5933.38
923.146	5855.41
923.456	5800.05
923.767	5780.84
924.077	5732.25
924.387	5773.15
924.697	5691.35
925.008	5702.65
925.318	5658.13
925.628	5673.49
925.938	5636.66
926.248	5563.22
926.558	5564.35
926.867	5562.54
927.177	5547.62
927.487	5523.67
927.796	5445.48
928.106	5459.94
928.416	5420.85
928.725	5426.95
929.034	5338.14
929.344	5357.57
929.653	5342.88
929.962	5323.22
930.271	5243.45
930.581	5275.09
930.89	5255.65
931.199	5221.3
931.508	5203
931.817	5192.83
932.125	5174.3
932.434	5159.84
932.743	5099.05
933.051	5099.5
933.36	5084.81
933.669	5044.36
933.977	5009.78
934.286	5011.82
934.594	4985.6
934.902	4964.81
935.21	4933.4
935.519	4944.47
935.827	4936.11
936.135	4919.16
936.443	4855.44
936.751	4829.68
937.059	4802.78
937.367	4787.64
937.674	4767.98
937.982	4763.69
938.29	4760.3
938.597	4721.2
938.905	4720.75
939.213	4699.28
939.52	4617.93
939.827	4666.29
940.135	4607.31
940.442	4594.2
940.749	4531.15
941.056	4561.43
941.363	4579.74
941.67	4530.25
941.977	4497.71
942.284	4504.26
942.591	4471.04
942.898	4483.7
943.205	4458.16
943.511	4383.81
943.818	4391.49
944.125	4370.48
944.431	4396.01
944.738	4330.93
945.044	4321.89
945.35	4307.43
945.657	4279.18
945.963	4279.63
946.269	4190.37
946.575	4199.41
946.881	4204.38
947.187	4184.04
947.493	4151.73
947.799	4193.53
948.105	4096.59
948.41	4120.54
948.716	4072.18
949.022	4071.28
949.327	4089.81
949.633	4023.37
949.938	4011.62
950.244	4035.12
950.549	3990.38
950.854	3959.64
951.16	3965.07
951.465	3951.05
951.77	3946.76
952.075	3866.54
952.38	3936.82
952.685	3873.54
952.99	3837.16
953.294	3864.5
953.599	3805.75
953.904	3773.43
954.209	3792.64
954.513	3794.67
954.818	3752.42
955.122	3743.15
955.426	3730.72
955.731	3752.64
956.035	3695.24
956.339	3715.13
956.643	3665.86
956.948	3670.38
957.252	3595.81
957.556	3632.42
957.86	3608.01
958.163	3613.89
958.467	3590.61
958.771	3537.05
959.075	3561.69
959.378	3521.69
959.682	3542.48
959.985	3485.98
960.289	3505.42
960.592	3486.43
960.896	3450.73
961.199	3516.04
961.502	3426.1
961.805	3384.97
962.108	3400.33
962.411	3389.49
962.714	3390.17
963.017	3359.21
963.32	3363.95
963.623	3368.47
963.926	3330.51
964.228	3301.58
964.531	3302.03
964.833	3271.3
965.136	3248.93
965.438	3203.5
965.741	3233.56
966.043	3205.54
966.345	3194.92
966.648	3190.17
966.95	3191.3
967.252	3143.39
967.554	3168.25
967.856	3113.79
968.158	3149.95
968.46	3102.49
968.761	3072.43
969.063	3070.63
969.365	3060.91
969.666	3051.64
969.968	3066.78
970.269	2996.96
970.571	3048.71
970.872	3018.2
971.174	3003.28
971.475	2984.3
971.776	2968.26
972.077	2940.46
972.378	2946.11
972.679	2929.61
972.98	2921.02
973.281	2903.85
973.582	2908.6
973.883	2901.59
974.183	2851.65
974.484	2863.4
974.785	2827.24
975.085	2808.26
975.386	2800.58
975.686	2803.29
975.986	2769.16
976.287	2741.59
976.587	2734.14
976.887	2774.36
977.187	2743.18
977.487	2700.69
977.787	2693.69
978.087	2723.74
978.387	2657.3
978.687	2656.17
978.987	2670.86
979.286	2664.53
979.586	2648.49
979.885	2636.51
980.185	2646.91
980.484	2633.12
980.784	2619.79
981.083	2563.97
981.382	2583.18
981.682	2593.35
981.981	2568.04
982.28	2554.48
982.579	2503.63
982.878	2521.71
983.177	2519.68
983.475	2524.43
983.774	2503.18
984.073	2459.12
984.372	2449.85
984.67	2440.59
984.969	2448.27
985.267	2476.74
985.566	2417.08
985.864	2398.55
986.162	2392.68
986.461	2369.63
986.759	2385.45
987.057	2382.73
987.355	2356.52
987.653	2344.09
987.951	2375.73
988.249	2318.78
988.547	2321.27
988.844	2295.73
989.142	2313.81
989.44	2289.4
989.737	2268.84
990.035	2266.13
990.332	2291.89
990.63	2248.05
990.927	2244.43
991.224	2265
991.521	2197.43
991.819	2213.02
992.116	2193.81
992.413	2188.84
992.71	2201.5
993.006	2201.95
993.303	2150.88
993.6	2144.1
993.897	2168.95
994.193	2146.58
994.49	2108.16
994.787	2098.67
995.083	2095.96
995.379	2103.87
995.676	2112.01
995.972	2083.76
996.268	2059.35
996.565	2046.25
996.861	2019.58
997.157	2054.61
997.453	2017.09
997.749	1994.72
998.044	1974.61
998.34	1993.37
998.636	2005.12
998.932	1994.04
999.227	1980.26
999.523	1951.56
999.818	1940.71
1000.114	1943.88
1000.409	1901.84
1000.704	1919.24
1001	1883.09
1001.295	1880.37
1001.59	1878.79
1001.885	1924.67
1002.18	1882.18
1002.475	1844.44
1002.77	1864.1
1003.065	1827.04
1003.359	1838.12
1003.654	1831.11
1003.949	1791.79
1004.243	1811.45
1004.538	1783.43
1004.832	1785.91
1005.127	1753.6
1005.421	1740.94
1005.715	1780.72
1006.009	1757.44
1006.304	1750.43
1006.598	1728.97
1006.892	1730.55
1007.186	1700.94
1007.48	1703.2
1007.773	1660.27
1008.067	1707.27
1008.361	1677.22
1008.655	1658.69
1008.948	1625.69
1009.242	1638.8
1009.535	1646.03
1009.829	1603.55
1010.122	1632.02
1010.415	1605.35
1010.708	1580.5
1011.001	1583.43
1011.295	1557.44
1011.588	1575.98
1011.881	1577.33
1012.173	1522.87
1012.466	1544.11
1012.759	1549.76
1013.052	1530.55
1013.344	1526.94
1013.637	1509.31
1013.93	1477.45
1014.222	1498.01
1014.514	1478.35
1014.807	1503.89
1015.099	1450.56
1015.391	1465.47
1015.683	1434.96
1015.976	1444.91
1016.268	1401.52
1016.56	1415.08
1016.851	1416.88
1017.143	1434.06
1017.435	1400.84
1017.727	1392.93
1018.018	1380.27
1018.31	1392.7
1018.602	1372.82
1018.893	1362.42
1019.185	1351.35
1019.476	1384.34
1019.767	1320.16
1020.058	1322.65
1020.35	1323.1
1020.641	1310.22
1020.932	1291.01
1021.223	1325.81
1021.514	1278.13
1021.804	1253.95
1022.095	1295.08
1022.386	1254.85
1022.677	1265.7
1022.967	1241.07
1023.258	1217.57
1023.548	1245.59
1023.839	1230.9
1024.129	1214.86
1024.419	1230.22
1024.709	1210.34
1025	1198.81
1025.29	1192.03
1025.58	1184.35
1025.87	1158.59
1026.16	1149.09
1026.449	1159.94
1026.739	1175.31
1027.029	1157.91
1027.319	1153.84
1027.608	1119.49
1027.898	1132.15
1028.187	1109.1
1028.477	1106.84
1028.766	1084.46
1029.055	1096.44
1029.344	1090.79
1029.634	1089.89
1029.923	1067.74
1030.212	1061.86
1030.501	1050.79
1030.79	1059.83
1031.078	1037.01
1031.367	1028.87
1031.656	1056.89
1031.945	1030.23
1032.233	1048.08
1032.522	1031.81
1032.81	1020.96
1033.099	1015.54
1033.387	1004.01
1033.675	995.88
1033.963	959.72
1034.251	991.58
1034.54	968.99
1034.828	955.43
1035.116	991.81
1035.403	945.48
1035.691	932.15
1035.979	933.28
1036.267	950.23
1036.554	919.72
1036.842	900.97
1037.129	944.81
1037.417	918.82
1037.704	889.21
1037.992	913.17
1038.279	905.26
1038.566	910.91
1038.853	910.91
1039.14	910.91
