Data from hue_270_FLMS001491_00019.txt Node
Date: Tue Feb 07 15:56:51 GMT 2017
User: dcchb
Spectrometer: FLMS00149
Trigger mode: 0
Integration Time (sec): 2.000000E-2
Scans to average: 10
Electric dark correction enabled: true
Nonlinearity correction enabled: false
Boxcar width: 0
XAxis mode: Wavelengths
Number of Pixels in Spectrum: 2048
>>>>>Begin Spectral Data<<<<<
341.393	-7.17
341.776	-7.17
342.16	-7.17
342.543	-58.47
342.927	-72.71
343.31	-77.91
343.693	-78.81
344.077	-66.16
344.46	-64.12
344.843	-63.9
345.226	-48.98
345.61	-31.58
345.993	-5.59
346.376	-6.95
346.759	20.62
347.142	27.85
347.525	50.45
347.908	49.55
348.291	88.64
348.674	89.77
349.057	117.12
349.44	128.41
349.823	157.34
350.206	150.56
350.588	193.95
350.971	194.85
351.354	228.53
351.737	220.62
352.119	249.32
352.502	261.29
352.884	279.82
353.267	261.97
353.65	290.9
354.032	285.02
354.414	304.91
354.797	319.37
355.179	326.83
355.562	295.42
355.944	302.65
356.326	324.34
356.709	339.93
357.091	323.44
357.473	351.69
357.855	344.68
358.238	329.99
358.62	338.8
359.002	315.75
359.384	352.36
359.766	343.55
360.148	347.84
360.53	324.12
360.912	348.07
361.294	354.17
361.676	322.99
362.057	329.54
362.439	320.05
362.821	321.63
363.203	315.75
363.584	303.78
363.966	304.91
364.348	312.14
364.729	329.54
365.111	317.34
365.493	315.75
365.874	330.44
366.256	333.61
366.637	314.62
367.019	297.9
367.4	305.36
367.781	314.62
368.163	317.34
368.544	296.32
368.925	311.91
369.306	308.52
369.688	326.15
370.069	307.85
370.45	319.37
370.831	300.61
371.212	327.51
371.593	303.78
371.974	311.23
372.355	318.92
372.736	304
373.117	306.26
373.498	318.24
373.879	305.81
374.26	324.34
374.641	305.81
375.021	312.36
375.402	316.21
375.783	333.16
376.163	318.92
376.544	325.25
376.925	322.53
377.305	332.48
377.686	319.6
378.066	298.13
378.447	318.47
378.827	340.61
379.208	326.83
379.588	327.73
379.968	337.67
380.349	325.92
380.729	346.49
381.109	336.32
381.489	351.46
381.87	337.67
382.25	335.64
382.63	331.12
383.01	350.33
383.39	337.22
383.77	333.38
384.15	338.13
384.53	347.62
384.91	353.72
385.29	344.91
385.67	356.43
386.049	340.39
386.429	360.05
386.809	356.43
387.189	360.27
387.568	359.82
387.948	345.36
388.328	374.28
388.707	353.27
389.087	364.79
389.466	349.65
389.846	353.04
390.225	346.26
390.605	351.69
390.984	365.47
391.363	354.62
391.743	368.86
392.122	378.13
392.501	358.24
392.881	372.25
393.26	386.26
393.639	368.18
394.018	371.57
394.397	399.14
394.776	404.11
395.155	391.68
395.534	408.86
395.913	403.66
396.292	391.91
396.671	402.53
397.05	382.87
397.429	396.2
397.808	389.65
398.186	406.83
398.565	412.02
398.944	410.44
399.323	404.57
399.701	421.74
400.08	409.76
400.458	400.72
400.837	422.42
401.215	419.03
401.594	416.99
401.972	407.96
402.351	411.8
402.729	419.93
403.107	443.43
403.486	442.08
403.864	431.68
404.242	446.82
404.62	468.74
404.999	455.41
405.377	458.58
405.755	443.43
406.133	463.32
406.511	479.82
406.889	468.07
407.267	484.34
407.645	481.63
408.023	470.55
408.401	472.81
408.779	491.34
409.156	501.74
409.534	492.7
409.912	512.81
410.29	520.95
410.667	529.08
411.045	488.18
411.422	519.36
411.8	544
412.178	539.03
412.555	579.02
412.933	555.75
413.31	565.92
413.687	541.29
414.065	575.18
414.442	580.83
414.819	591.45
415.197	612.92
415.574	604.33
415.951	609.98
416.328	624.67
416.705	632.81
417.082	614.73
417.46	624.45
417.837	668.74
418.214	643.66
418.591	665.35
418.967	668.51
419.344	686.59
419.721	702.41
420.098	689.53
420.475	710.55
420.852	696.76
421.228	716.65
421.605	702.86
421.982	714.16
422.358	728.85
422.735	732.47
423.111	756.42
423.488	747.16
423.864	793.03
424.241	766.82
424.617	789.41
424.994	799.81
425.37	818.57
425.746	827.61
426.123	853.37
426.499	830.54
426.875	861.5
427.251	869.64
427.627	892.01
428.003	889.75
428.379	902.63
428.756	895.17
429.132	899.02
429.507	929.07
429.883	922.29
430.259	938.79
430.635	938.11
431.011	952.35
431.387	964.55
431.763	982.63
432.138	1012.23
432.514	1014.49
432.89	1024.21
433.265	1052.91
433.641	1047.26
434.016	1050.42
434.392	1104.21
434.767	1115.06
435.143	1141.04
435.518	1136.07
435.894	1153.7
436.269	1188.27
436.644	1234.6
437.02	1195.73
437.395	1220.36
437.77	1259.23
438.145	1281.15
438.52	1262.17
438.895	1290.19
439.271	1286.8
439.646	1312.34
440.021	1352.79
440.395	1376.29
440.77	1341.49
441.145	1367.03
441.52	1381.94
441.895	1393.47
442.27	1404.54
442.645	1404.77
443.019	1446.12
443.394	1437.76
443.769	1473.46
444.143	1440.47
444.518	1455.39
444.892	1494.48
445.267	1480.47
445.641	1472.79
446.016	1520.02
446.39	1519.79
446.764	1550.75
447.139	1544.42
447.513	1541.26
447.887	1565.89
448.262	1580.13
448.636	1551.88
449.01	1595.04
449.384	1595.95
449.758	1595.04
450.132	1637.75
450.506	1648.15
450.88	1658.77
451.254	1647.02
451.628	1643.4
452.002	1714.59
452.376	1683.18
452.75	1717.3
453.123	1702.61
453.497	1734.7
453.871	1784.87
454.244	1778.99
454.618	1780.12
454.992	1815.15
455.365	1779.22
455.739	1836.84
456.112	1866.22
456.486	1880.01
456.859	1915.49
457.232	1915.94
457.606	1916.16
457.979	1939.89
458.352	1925.43
458.725	1989.16
459.099	1986.22
459.472	2019.89
459.845	2055.14
460.218	2041.58
460.591	2055.37
460.964	2051.08
461.337	2148.25
461.71	2162.94
462.083	2148.25
462.456	2145.31
462.829	2195.7
463.201	2200.45
463.574	2195.7
463.947	2219.21
464.32	2255.14
464.692	2279.54
465.065	2326.55
465.438	2334.68
465.81	2369.49
466.183	2377.62
466.555	2408.35
466.928	2419.43
467.3	2464.17
467.672	2464.4
468.045	2493.32
468.417	2507.11
468.789	2543.27
469.161	2524.96
469.534	2609.48
469.906	2625.75
470.278	2637.95
470.65	2654.9
471.022	2711.4
471.394	2748.46
471.766	2739.42
472.138	2799.76
472.51	2830.49
472.882	2878.62
473.253	2892.18
473.625	2913.2
473.997	3018.06
474.369	3018.06
474.74	3025.29
475.112	3068
475.484	3097.38
475.855	3171.72
476.227	3188.67
476.598	3257.15
476.97	3292.63
477.341	3296.92
477.713	3359.97
478.084	3377.14
478.455	3449.68
478.827	3475.22
479.198	3530.81
479.569	3566.97
479.94	3620.53
480.311	3642.45
480.682	3695.78
481.053	3801.76
481.424	3786.62
481.795	3836.57
482.166	3882.44
482.537	3902.78
482.908	4006.05
483.279	4028.88
483.65	4043.34
484.021	4166.95
484.391	4175.54
484.762	4193.84
485.133	4216.44
485.503	4248.98
485.874	4337.12
486.244	4368.08
486.615	4456.21
486.985	4447.62
487.356	4501.86
487.726	4628.18
488.097	4657.56
488.467	4638.8
488.837	4705.24
489.207	4747.73
489.578	4801.96
489.948	4875.86
490.318	4922.86
490.688	4877.89
491.058	4948.4
491.428	5032.92
491.798	5074.95
492.168	5159.92
492.538	5111.33
492.908	5241.27
493.278	5269.97
493.648	5236.08
494.017	5267.49
494.387	5320.14
494.757	5397.88
495.126	5413.25
495.496	5378.67
495.866	5410.08
496.235	5483.3
496.605	5526.92
496.974	5573.7
497.344	5598.55
497.713	5616.86
498.082	5624.32
498.452	5654.15
498.821	5669.29
499.19	5707.03
499.559	5768.49
499.928	5789.96
500.298	5744.76
500.667	5849.85
501.036	5795.84
501.405	5840.35
501.774	5820.24
502.143	5911.54
502.512	5904.76
502.88	5936.85
503.249	5953.8
503.618	5991.76
503.987	5971.2
504.356	6023.63
504.724	6044.87
505.093	6044.42
505.462	6085.55
505.83	6062.5
506.199	6147.01
506.567	6189.95
506.936	6159.67
507.304	6274.02
507.672	6263.17
508.041	6244.64
508.409	6293.68
508.777	6290.29
509.145	6344.52
509.514	6312.66
509.882	6350.62
510.25	6305.2
510.618	6383.17
510.986	6402.37
511.354	6401.24
511.722	6445.08
512.09	6511.75
512.458	6452.32
512.826	6486.67
513.193	6471.52
513.561	6525.76
513.929	6514.01
514.297	6582.26
514.664	6583.61
515.032	6571.41
515.4	6625.19
515.767	6622.48
516.135	6696.6
516.502	6603.27
516.869	6691.63
517.237	6651.86
517.604	6642.37
517.972	6690.05
518.339	6768.47
518.706	6729.6
519.073	6717.17
519.44	6728.02
519.808	6782.48
520.175	6740.44
520.542	6815.47
520.909	6802.82
521.276	6763.04
521.643	6853.66
522.009	6894.79
522.376	6882.81
522.743	6891.4
523.11	6930.72
523.477	7021.57
523.843	6914
524.21	6987.22
524.577	7040.32
524.943	7046.88
525.31	7083.03
525.676	7161
526.043	7130.26
526.409	7108.34
526.776	7170.72
527.142	7137.72
527.508	7185.4
527.874	7255.23
528.241	7287.55
528.607	7229.7
528.973	7335.23
529.339	7265.63
529.705	7356.25
530.071	7394.66
530.437	7385.4
530.803	7332.29
531.169	7442.12
531.535	7398.05
531.901	7407.09
532.267	7473.08
532.632	7488.22
532.998	7460.88
533.364	7509.24
533.73	7558.5
534.095	7522.57
534.461	7521.89
534.826	7570.03
535.192	7559.63
535.557	7577.71
535.923	7567.09
536.288	7584.49
536.653	7591.5
537.019	7624.49
537.384	7529.35
537.749	7607.31
538.114	7567.77
538.479	7665.17
538.845	7601.89
539.21	7610.48
539.575	7607.77
539.94	7609.35
540.305	7674.88
540.67	7574.09
541.034	7657.48
541.399	7643.47
541.764	7697.48
542.129	7685.28
542.494	7740.64
542.858	7725.05
543.223	7730.25
543.587	7706.52
543.952	7664.04
544.316	7710.81
544.681	7713.75
545.045	7724.37
545.41	7795.78
545.774	7789.91
546.138	7763.02
546.503	7757.59
546.867	7809.34
547.231	7775.22
547.595	7798.5
547.959	7789.68
548.324	7777.93
548.688	7824.03
549.052	7823.13
549.416	7833.07
549.779	7862.22
550.143	7830.36
550.507	7855.9
550.871	7849.57
551.235	7854.77
551.599	7899.51
551.962	7842.34
552.326	7913.29
552.689	7951.71
553.053	7905.39
553.417	7920.98
553.78	7968.66
554.143	7907.65
554.507	8004.37
554.87	8014.08
555.234	7953.07
555.597	8018.38
555.96	7934.76
556.323	8013.18
556.686	8027.87
557.05	8074.65
557.413	8070.58
557.776	8014.76
558.139	8046.62
558.502	8107.41
558.865	8131.59
559.228	8198.48
559.59	8198.26
559.953	8114.42
560.316	8219.95
560.679	8233.51
561.041	8153.51
561.404	8277.58
561.767	8335.66
562.129	8239.61
562.492	8388.99
562.854	8337.46
563.217	8410.23
563.579	8378.82
563.941	8441.87
564.304	8493.17
564.666	8459.72
565.028	8452.72
565.39	8479.61
565.753	8510.79
566.115	8610.68
566.477	8577.01
566.839	8609.55
567.201	8731.35
567.563	8662.65
567.925	8684.8
568.287	8732.93
568.648	8739.04
569.01	8739.26
569.372	8792.14
569.734	8886.83
570.095	8872.59
570.457	8862.65
570.819	8860.61
571.18	8927.73
571.542	8944.45
571.903	9054.06
572.265	9008.63
572.626	9090.66
572.987	9091.57
573.349	9072.59
573.71	9067.16
574.071	9174.96
574.432	9120.27
574.794	9215.18
575.155	9214.05
575.516	9231.45
575.877	9242.75
576.238	9259.93
576.599	9321.17
576.96	9407.27
577.32	9322.52
577.681	9404.78
578.042	9485.68
578.403	9454.05
578.763	9476.19
579.124	9562.06
579.485	9570.65
579.845	9564.32
580.206	9611.78
580.566	9603.42
580.927	9651.55
581.287	9687.49
581.648	9676.86
582.008	9755.28
582.368	9755.73
582.728	9771.1
583.089	9801.83
583.449	9849.06
583.809	9861.27
584.169	9863.3
584.529	9870.53
584.889	9983.3
585.249	9946.91
585.609	9899.68
585.969	10033.69
586.329	9977.42
586.688	10028.04
587.048	10022.62
587.408	10126.12
587.768	10090.41
588.127	10131.09
588.487	10157.08
588.846	10187.13
589.206	10160.69
589.565	10178.77
589.925	10294.48
590.284	10268.94
590.643	10276.4
591.003	10280.69
591.362	10404.3
591.721	10395.72
592.08	10347.13
592.44	10388.48
592.799	10321.37
593.158	10363.85
593.517	10481.59
593.876	10471.19
594.235	10488.37
594.593	10500.35
594.952	10525.43
595.311	10494.02
595.67	10515.71
596.029	10603.39
596.387	10648.82
596.746	10726.33
597.104	10553.9
597.463	10561.81
597.822	10694.46
598.18	10658.76
598.538	10641.36
598.897	10797.06
599.255	10652.43
599.613	10844.29
599.972	10742.6
600.33	10802.71
600.688	10783.5
601.046	10866.44
601.404	10869.6
601.762	10873.44
602.12	10888.36
602.478	10804.29
602.836	10829.83
603.194	10859.88
603.552	10915.25
603.91	10871.18
604.268	10858.08
604.625	10876.83
604.983	10934.46
605.341	10893.78
605.698	10986.43
606.056	10999.77
606.413	10943.27
606.771	10980.33
607.128	10992.54
607.485	10988.02
607.843	10972.42
608.2	11037.05
608.557	11013.1
608.914	11087.45
609.272	11070.73
609.629	11148.01
609.986	11155.47
610.343	11099.43
610.7	11144.17
611.057	11179.65
611.414	11154.11
611.771	11207.45
612.127	11192.76
612.484	11221.68
612.841	11235.69
613.198	11194.11
613.554	11261.23
613.911	11339.42
614.267	11229.59
614.624	11235.47
614.98	11256.48
615.337	11278.63
615.693	11275.24
616.05	11318.63
616.406	11407.67
616.762	11277.95
617.118	11334.9
617.475	11287.9
617.831	11358.85
618.187	11306.43
618.543	11323.6
618.899	11362.92
619.255	11351.4
619.611	11349.14
619.967	11453.54
620.323	11469.13
620.678	11354.79
621.034	11368.12
621.39	11418.97
621.746	11355.24
622.101	11484.5
622.457	11395.24
622.812	11445.63
623.168	11518.85
623.523	11487.44
623.879	11493.54
624.234	11430.72
624.589	11457.16
624.945	11406.99
625.3	11461.68
625.655	11436.82
626.01	11415.58
626.365	11466.65
626.72	11486.99
627.075	11429.36
627.43	11503.03
627.785	11420.32
628.14	11439.76
628.495	11498.51
628.85	11401.56
629.205	11429.13
629.559	11482.01
629.914	11379.19
630.269	11385.52
630.623	11345.07
630.978	11318.85
631.332	11373.09
631.687	11354.56
632.041	11282.7
632.396	11345.07
632.75	11370.15
633.104	11311.85
633.459	11276.37
633.813	11209.03
634.167	11255.58
634.521	11253.77
634.875	11260.78
635.229	11211.97
635.583	11168.12
635.937	11196.37
636.291	11193.21
636.645	11157.28
636.999	11168.58
637.352	11227.33
637.706	11120.67
638.06	11140.55
638.413	11105.53
638.767	11098.07
639.121	11152.76
639.474	11048.58
639.828	11020.56
640.181	11015.59
640.534	11048.35
640.888	11068.69
641.241	11016.49
641.594	10990.95
641.947	11014
642.301	10992.08
642.654	10905.08
643.007	11015.36
643.36	10997.73
643.713	10985.08
644.066	10941.69
644.419	10931.07
644.771	10818.76
645.124	10741.47
645.477	10796.83
645.83	10657.63
646.182	10684.97
646.535	10632.32
646.888	10607.01
647.24	10480.01
647.593	10558.87
647.945	10566.56
648.298	10561.13
648.65	10594.13
649.002	10564.07
649.355	10559.1
649.707	10520.23
650.059	10514.81
650.411	10779.66
650.763	10796.38
651.115	10812.43
651.467	10734.92
651.819	10803.61
652.171	10864.4
652.523	10702.37
652.875	10737.63
653.227	10720
653.578	10861.24
653.93	10771.98
654.282	10729.04
654.633	10781.02
654.985	10773.11
655.337	10755.03
655.688	10717.97
656.039	10819.66
656.391	10722.71
656.742	10763.62
657.094	10723.84
657.445	10754.12
657.796	10814.91
658.147	10752.54
658.498	10793.67
658.849	10776.72
659.2	10826.66
659.551	10809.04
659.902	10851.07
660.253	10765.65
660.604	10845.2
660.955	10804.74
661.306	10827.79
661.656	10742.6
662.007	10836.16
662.358	10829.6
662.708	10792.99
663.059	10814.69
663.409	10689.49
663.76	10830.73
664.11	10789.38
664.461	10833.9
664.811	10856.49
665.161	10808.36
665.511	10768.59
665.862	10769.94
666.212	10839.55
666.562	10835.03
666.912	10781.92
667.262	10799.09
667.612	10775.82
667.962	10801.35
668.312	10746.21
668.662	10772.65
669.011	10816.95
669.361	10740.34
669.711	10743.73
670.06	10738.98
670.41	10708.48
670.76	10705.31
671.109	10773.33
671.459	10718.42
671.808	10700.57
672.157	10708.93
672.507	10630.96
672.856	10665.31
673.205	10702.15
673.554	10713.45
673.904	10653.56
674.253	10748.93
674.602	10754.12
674.951	10529.05
675.3	10426.22
675.649	10688.81
675.998	10607.01
676.346	10664.86
676.695	10683.17
677.044	10623.73
677.393	10651.3
677.741	10589.61
678.09	10558.42
678.438	10599.33
678.787	10521.14
679.135	10539.21
679.484	10487.92
679.832	10527.24
680.181	10388.94
680.529	10484.07
680.877	10394.13
681.225	10389.84
681.573	10433
681.922	10404.75
682.27	10368.82
682.618	10331.54
682.966	10327.69
683.314	10386.68
683.661	10323.4
684.009	10285.21
684.357	10246.11
684.705	10236.4
685.053	10240.01
685.4	10212.44
685.748	10150.75
686.095	10221.93
686.443	10148.94
686.79	10102.84
687.138	10117.76
687.485	10146.23
687.832	10096.06
688.18	10105.1
688.527	10035.95
688.874	10015.39
689.221	9932.22
689.568	9924.32
689.915	9920.7
690.262	9836.63
690.609	9871.44
690.956	9842.06
691.303	9795.28
691.65	9691.33
691.997	9670.99
692.344	9655.85
692.69	9689.07
693.037	9706.92
693.383	9605.68
693.73	9546.7
694.077	9564.1
694.423	9498.34
694.769	9485.46
695.116	9486.59
695.462	9446.36
695.808	9482.97
696.155	9466.25
696.501	9343.54
696.847	9308.29
697.193	9273.26
697.539	9290.66
697.885	9217.44
698.231	9186.03
698.577	9176.09
698.923	9155.97
699.269	9082.3
699.614	9066.03
699.96	8981.97
700.306	8990.33
700.651	9005.47
700.997	8926.15
701.342	8962.76
701.688	8845.7
702.033	8847.28
702.379	8845.02
702.724	8864
703.069	8826.72
703.415	8716.66
703.76	8766.61
704.105	8685.03
704.45	8682.77
704.795	8610.23
705.14	8554.63
705.485	8607.06
705.83	8586.27
706.175	8565.26
706.52	8513.5
706.865	8485.26
707.209	8489.32
707.554	8432.6
707.899	8442.32
708.243	8377.01
708.588	8405.26
708.932	8342.66
709.277	8286.39
709.621	8371.36
709.966	8264.25
710.31	8202.78
710.654	8232.61
710.998	8244.13
711.342	8203.23
711.687	8203.23
712.031	8105.83
712.375	8069.22
712.719	8172.95
713.063	8151.25
713.407	8091.37
713.75	8054.08
714.094	8078.26
714.438	8067.64
714.782	8069.67
715.125	7981.54
715.469	8022.67
715.812	7919.85
716.156	7979.96
716.499	7896.8
716.843	7921.66
717.186	7894.76
717.53	7911.71
717.873	7947.64
718.216	7892.05
718.559	7939.28
718.902	7803.02
719.246	7822
719.589	7826.97
719.932	7790.59
720.275	7812.51
720.617	7805.95
720.96	7789
721.303	7771.83
721.646	7789.23
721.989	7719.18
722.331	7780.64
722.674	7712.17
723.016	7732.73
723.359	7763.47
723.701	7729.57
724.044	7690.7
724.386	7679.63
724.729	7705.62
725.071	7691.83
725.413	7723.24
725.755	7640.76
726.097	7690.93
726.439	7582.46
726.782	7611.83
727.124	7671.72
727.465	7617.03
727.807	7636.24
728.149	7636.92
728.491	7631.49
728.833	7608.67
729.175	7596.47
729.516	7537.03
729.858	7587.65
730.199	7557.37
730.541	7554.89
730.882	7543.59
731.224	7516.7
731.565	7556.69
731.906	7590.37
732.248	7544.04
732.589	7542.46
732.93	7542.91
733.271	7497.71
733.612	7578.84
733.953	7547.88
734.294	7586.52
734.635	7527.54
734.976	7519.41
735.317	7567.99
735.658	7576.58
735.999	7597.82
736.339	7507.43
736.68	7520.31
737.021	7528.67
737.361	7532.06
737.702	7540.65
738.042	7528.9
738.383	7591.27
738.723	7551.72
739.063	7539.07
739.404	7664.49
739.744	7587.2
740.084	7611.16
740.424	7602.79
740.764	7631.49
741.104	7677.14
741.444	7563.47
741.784	7650.93
742.124	7635.11
742.464	7568.45
742.804	7660.65
743.143	7680.31
743.483	7694.32
743.823	7649.8
744.162	7712.4
744.502	7725.73
744.841	7719.63
745.181	7805.73
745.52	7784.26
745.86	7900.19
746.199	7894.09
746.538	7885.5
746.877	7984.25
747.216	8013.41
747.556	8022.9
747.895	8019.73
748.234	8042.56
748.573	8102.22
748.911	8098.6
749.25	8222.89
749.589	8211.14
749.928	8280.29
750.267	8425.6
750.605	8469.66
750.944	8528.19
751.283	8519.83
751.621	8608.42
751.96	8622.2
752.298	8771.8
752.636	8870.33
752.975	8901.07
753.313	8950.78
753.651	9121.62
753.989	9184.67
754.327	9289.53
754.666	9383.99
755.004	9446.81
755.342	9589.41
755.679	9721.38
756.017	9763.42
756.355	9901.72
756.693	9997.76
757.031	10178.09
757.368	10330.41
757.706	10447.69
758.044	10532.43
758.381	10734.69
758.719	10802.48
759.056	11052.65
759.394	11193.21
759.731	11265.3
760.068	11313.21
760.405	11532.63
760.743	11705.29
761.08	11864.83
761.417	11931.04
761.754	12012.85
762.091	12262.78
762.428	12390.92
762.765	12515.89
763.102	12750.46
763.438	12795.65
763.775	13005.14
764.112	13160.84
764.449	13301.85
764.785	13458.23
765.122	13497.1
765.458	13801.5
765.795	13945
766.131	13984.1
766.467	14181.6
766.804	14322.84
767.14	14413.46
767.476	14550.18
767.812	14574.36
768.148	14784.75
768.485	14861.59
768.821	15044.18
769.157	15192.43
769.492	15294.12
769.828	15363.72
770.164	15370.73
770.5	15573.66
770.836	15657.05
771.171	15723.03
771.507	15846.19
771.842	15942.46
772.178	16071.95
772.513	16137.26
772.849	16222
773.184	16198.27
773.519	16358.95
773.855	16447.31
774.19	16439.17
774.525	16560.3
774.86	16684.82
775.195	16730.01
775.53	16697.92
775.865	16780.86
776.2	16733.18
776.535	16704.02
776.87	16872.16
777.205	16848.2
777.539	16844.81
777.874	16957.35
778.209	16958.93
778.543	17010.68
778.878	16925.49
779.212	17087.52
779.547	17019.5
779.881	17218.81
780.215	17058.14
780.55	17236.21
780.884	17139.49
781.218	17169.32
781.552	17256.33
781.886	17195.54
782.22	17166.61
782.554	17175.65
782.888	17132.71
783.222	17084.81
783.556	17085.48
783.889	17133.17
784.223	17039.38
784.557	17025.6
784.89	17175.2
785.224	17054.98
785.557	17011.36
785.891	17075.99
786.224	17029.67
786.558	17072.15
786.891	16968.2
787.224	16943.57
787.557	16939.05
787.891	16987.63
788.224	17035.99
788.557	17006.84
788.89	16990.34
789.223	17005.49
789.556	16943.11
789.888	16896.34
790.221	16790.35
790.554	16726.62
790.887	16713.74
791.219	16768.66
791.552	16791.48
791.884	16697.47
792.217	16751.48
792.549	16607.98
792.882	16481.88
793.214	16597.59
793.546	16631.26
793.879	16439.4
794.211	16380.19
794.543	16469.23
794.875	16424.94
795.207	16477.59
795.539	16410.92
795.871	16437.82
796.203	16307.65
796.535	16225.62
796.867	16184.26
797.198	16195.11
797.53	16228.1
797.862	16135.9
798.193	16132.29
798.525	16129.12
798.856	16129.8
799.188	15950.15
799.519	15993.08
799.85	15863.37
800.182	15872.86
800.513	15988.34
800.844	15810.71
801.175	15843.93
801.506	15835.35
801.837	15716.71
802.168	15724.61
802.499	15655.69
802.83	15633.77
803.161	15593.32
803.491	15575.92
803.822	15552.42
804.153	15505.41
804.483	15464.73
804.814	15368.69
805.145	15412.31
805.475	15305.64
805.805	15333.21
806.136	15308.58
806.466	15339.54
806.796	15248.7
807.126	15166.66
807.457	15179.09
807.787	15164.86
808.117	15126.89
808.447	15123.05
808.777	15069.04
809.107	14977.06
809.436	15017.74
809.766	14982.71
810.096	14870.17
810.426	14900
810.755	14881.47
811.085	14864.98
811.414	14803.74
811.744	14666.56
812.073	14643.29
812.403	14794.47
812.732	14585.66
813.061	14636.96
813.39	14575.04
813.719	14511.09
814.049	14614.14
814.378	14501.14
814.707	14422.95
815.036	14481.94
815.365	14432.45
815.693	14351.54
816.022	14345.67
816.351	14283.97
816.68	14219.12
817.008	14211.43
817.337	14149.29
817.665	14179.12
817.994	14201.94
818.322	14138.89
818.651	14039.24
818.979	14041.27
819.307	14156.07
819.636	14112.68
819.964	13955.17
820.292	14054.6
820.62	14055.28
820.948	13990.42
821.276	14006.02
821.604	13929.18
821.932	14020.7
822.259	13951.78
822.587	13997.2
822.915	13996.75
823.243	13962.63
823.57	13986.13
823.898	14017.54
824.225	13971.89
824.553	13949.75
824.88	13933.25
825.207	13987.26
825.535	13886.92
825.862	14011.44
826.189	13879.01
826.516	14048.27
826.843	14037.65
827.17	14077.43
827.497	14073.36
827.824	14064.09
828.151	14113.81
828.478	14095.05
828.805	14042.85
829.131	14030.2
829.458	13997.65
829.785	13972.12
830.111	13931.22
830.438	14009.86
830.764	14077.43
831.09	14063.64
831.417	13947.71
831.743	14052.12
832.069	13992
832.395	13951.1
832.722	14007.15
833.048	13948.39
833.374	13925.11
833.7	13960.14
834.026	13935.74
834.351	13864.78
834.677	13910.65
835.003	13885.79
835.329	13946.36
835.654	13852.12
835.98	13829.52
836.306	13886.02
836.631	13782.29
836.956	13912.46
837.282	13782.07
837.607	13741.84
837.932	13703.88
838.258	13800.15
838.583	13650.77
838.908	13646.03
839.233	13613.26
839.558	13611.9
839.883	13544.56
840.208	13507.95
840.533	13526.03
840.858	13561.51
841.182	13580.94
841.507	13481.74
841.832	13464.11
842.156	13435.64
842.481	13371.91
842.805	13393.15
843.13	13339.82
843.454	13343.89
843.778	13267.96
844.103	13308.63
844.427	13251.46
844.751	13239.48
845.075	13167.62
845.399	13151.58
845.723	13043.78
846.047	13104.12
846.371	12903.67
846.695	12958.59
847.019	12879.27
847.343	12742.55
847.666	12748.42
847.99	12725.6
848.313	12691.25
848.637	12662.1
848.96	12601.31
849.284	12565.15
849.607	12523.34
849.931	12418.49
850.254	12381.43
850.577	12374.19
850.9	12210.13
851.223	12178.95
851.546	12172.84
851.869	12049.23
852.192	12091.26
852.515	11959.29
852.838	12014.88
853.161	11930.59
853.483	11922
853.806	11854.66
854.129	11842.46
854.451	11803.59
854.774	11780.76
855.096	11697.6
855.419	11684.27
855.741	11701.22
856.063	11649.24
856.385	11585.06
856.708	11622.12
857.03	11535.57
857.352	11570.83
857.674	11528.57
857.996	11475.23
858.318	11350.49
858.64	11343.94
858.961	11296.71
859.283	11345.52
859.605	11273.88
859.926	11275.01
860.248	11233.21
860.57	11150.95
860.891	11263.49
861.212	11139.88
861.534	11028.24
861.855	11045.64
862.176	11077.28
862.498	11011.97
862.819	11134.45
863.14	10970.84
863.461	11021.24
863.782	10982.59
864.103	11002.25
864.424	10892.43
864.745	10951.86
865.065	10930.84
865.386	10815.59
865.707	10808.36
866.027	10845.2
866.348	10785.99
866.668	10873.22
866.989	10685.65
867.309	10717.97
867.63	10733.11
867.95	10734.24
868.27	10649.27
868.59	10583.73
868.91	10616.5
869.23	10647.46
869.55	10599.33
869.87	10642.04
870.19	10608.14
870.51	10596.39
870.83	10593.9
871.15	10517.75
871.469	10458.31
871.789	10517.52
872.109	10511.64
872.428	10378.77
872.748	10491.53
873.067	10501.48
873.386	10484.75
873.706	10427.35
874.025	10393.23
874.344	10336.96
874.663	10358.88
874.982	10282.27
875.301	10341.71
875.62	10316.62
875.939	10309.39
876.258	10309.62
876.577	10214.03
876.896	10228.04
877.214	10237.75
877.533	10218.54
877.852	10170.18
878.17	10169.51
878.489	10183.74
878.807	10109.4
879.125	10134.93
879.444	10086.34
879.762	10016.97
880.08	10061.26
880.398	10028.72
880.716	10048.38
881.034	9963.64
881.352	10022.62
881.67	9945.11
881.988	9942.39
882.306	9881.38
882.624	9882.28
882.941	9836.86
883.259	9857.65
883.577	9798.89
883.894	9806.58
884.212	9752.79
884.529	9747.82
884.846	9792.12
885.164	9757.31
885.481	9625.34
885.798	9657.66
886.115	9668.5
886.432	9622.4
886.75	9576.3
887.067	9575.17
887.383	9500.82
887.7	9552.35
888.017	9506.02
888.334	9557.32
888.651	9441.16
888.967	9433.25
889.284	9397.32
889.6	9395.74
889.917	9404.55
890.233	9309.19
890.55	9280.26
890.866	9320.72
891.182	9222.19
891.498	9248.85
891.815	9245.24
892.131	9147.16
892.447	9144.9
892.763	9101.74
893.079	9114.39
893.395	9037.56
893.71	8970.89
894.026	9030.78
894.342	8969.99
894.657	8832.59
894.973	8811.8
895.289	8914.4
895.604	8886.83
895.92	8767.51
896.235	8733.61
896.55	8774.06
896.865	8723.89
897.181	8665.82
897.496	8673.27
897.811	8726.61
898.126	8632.6
898.441	8587.4
898.756	8553.73
899.071	8522.09
899.386	8491.81
899.7	8415.2
900.015	8403.45
900.33	8310.8
900.644	8370.01
900.959	8381.53
901.273	8339.27
901.588	8298.37
901.902	8249.33
902.216	8184.47
902.531	8181.76
902.845	8179.95
903.159	8142.89
903.473	8108.32
903.787	8035.55
904.101	8008.66
904.415	7989.68
904.729	7950.36
905.042	7920.3
905.356	7887.53
905.67	7859.28
905.984	7857.93
906.297	7843.01
906.611	7796.46
906.924	7764.37
907.237	7699.29
907.551	7737.93
907.864	7629.69
908.177	7654.32
908.491	7619.29
908.804	7560.99
909.117	7564.15
909.43	7463.14
909.743	7543.81
910.056	7517.82
910.368	7358.51
910.681	7417.71
910.994	7341.11
911.307	7313.31
911.619	7250.49
911.932	7242.35
912.244	7209.58
912.557	7202.13
912.869	7198.29
913.181	7121.68
913.494	7125.07
913.806	7062.7
914.118	7016.14
914.43	6972.98
914.742	7015.24
915.054	6974.79
915.366	6970.27
915.678	6854.79
915.99	6893.43
916.302	6858.18
916.613	6856.6
916.925	6833.78
917.236	6797.17
917.548	6722.82
917.859	6735.02
918.171	6695.7
918.482	6628.81
918.794	6595.59
919.105	6648.92
919.416	6583.61
919.727	6524.63
920.038	6563.5
920.349	6508.81
920.66	6459.32
920.971	6502.48
921.282	6460.45
921.593	6420
921.903	6364.63
922.214	6340.91
922.525	6302.94
922.835	6311.53
923.146	6258.2
923.456	6228.82
923.767	6184.98
924.077	6166
924.387	6200.8
924.697	6111.08
925.008	6120.12
925.318	6034.93
925.628	6073.12
925.938	6045.55
926.248	5980.24
926.558	6024.08
926.867	6001.48
927.177	5936.62
927.487	5901.82
927.796	5857.3
928.106	5849.62
928.416	5809.4
928.725	5863.18
929.034	5761.71
929.344	5798.55
929.653	5785.22
929.962	5709.06
930.271	5708.61
930.581	5647.14
930.89	5628.16
931.199	5633.58
931.508	5613.47
931.817	5578.67
932.125	5601.04
932.434	5516.97
932.743	5556.75
933.051	5512
933.36	5453.02
933.669	5440.37
933.977	5410.54
934.286	5382.51
934.594	5369.63
934.902	5332.8
935.21	5284.89
935.519	5309.52
935.827	5288.05
936.135	5252.57
936.443	5231.11
936.751	5216.19
937.059	5195.17
937.367	5227.04
937.674	5168.51
937.982	5184.33
938.29	5076.53
938.597	5091.45
938.905	5062.3
939.213	5069.3
939.52	5041.28
939.827	5047.83
940.135	5025.01
940.442	5017.33
940.749	4975.29
941.056	4940.27
941.363	4938.68
941.67	4878.35
941.977	4905.46
942.284	4848.97
942.591	4831.34
942.898	4804
943.205	4799.93
943.511	4743.66
943.818	4750.44
944.125	4719.71
944.431	4707.28
944.738	4687.62
945.044	4643.32
945.35	4647.62
945.657	4600.39
945.963	4585.92
946.269	4599.48
946.575	4561.52
946.881	4552.93
947.187	4549.32
947.493	4524.68
947.799	4472.26
948.105	4552.03
948.41	4403.1
948.716	4428.19
949.022	4442.43
949.327	4387.51
949.633	4352.03
949.938	4353.39
950.244	4383.9
950.549	4315.88
950.854	4335.31
951.16	4296.89
951.465	4270
951.77	4252.83
952.075	4189.55
952.38	4190
952.685	4178.25
952.99	4154.98
953.294	4156.11
953.599	4161.08
953.904	4095.99
954.209	4054.64
954.513	4098.93
954.818	4042.21
955.122	4029.56
955.426	4007.18
955.731	4001.76
956.035	3992.72
956.339	3991.82
956.643	3970.35
956.948	3971.7
957.252	3903.91
957.556	3921.99
957.86	3877.47
958.163	3891.48
958.467	3843.57
958.771	3831.37
959.075	3876.34
959.378	3798.15
959.682	3823.68
959.985	3797.7
960.289	3748.88
960.592	3718.83
960.896	3751.82
961.199	3707.08
961.502	3682.9
961.805	3708.89
962.108	3696.91
962.411	3619.4
962.714	3658.72
963.017	3638.15
963.32	3606.29
963.623	3585.95
963.926	3541.66
964.228	3547.76
964.531	3561.54
964.833	3543.01
965.136	3508.21
965.438	3506.18
965.741	3485.61
966.043	3429.57
966.345	3467.76
966.648	3420.76
966.95	3428.44
967.252	3421.21
967.554	3416.46
967.856	3365.84
968.158	3363.58
968.46	3367.43
968.761	3350.48
969.063	3330.59
969.365	3311.83
969.666	3305.96
969.968	3284.26
970.269	3261.21
970.571	3289.01
970.872	3256.92
971.174	3262.12
971.475	3186.64
971.776	3174.21
972.077	3155.68
972.378	3199.29
972.679	3156.36
972.98	3150.48
973.281	3112.29
973.582	3122.69
973.883	3098.05
974.183	3082.91
974.484	3096.47
974.785	3070.71
975.085	3085.17
975.386	3051.95
975.686	3051.5
975.986	3017.6
976.287	2976.7
976.587	3001.11
976.887	2947.55
977.187	2941.9
977.487	2937.83
977.787	2905.06
978.087	2949.58
978.387	2921.79
978.687	2936.93
978.987	2844.95
979.286	2908.45
979.586	2818.97
979.885	2846.54
980.185	2788.68
980.484	2810.15
980.784	2808.34
981.083	2797.95
981.382	2772.86
981.682	2775.35
981.981	2723.15
982.28	2729.93
982.579	2750.72
982.878	2727.67
983.177	2683.38
983.475	2664.62
983.774	2645.18
984.073	2643.83
984.372	2669.14
984.67	2661
984.969	2644.96
985.267	2622.36
985.566	2627.78
985.864	2578.97
986.162	2567.45
986.461	2536.04
986.759	2573.77
987.057	2528.35
987.355	2513.89
987.653	2512.08
987.951	2512.98
988.249	2497.84
988.547	2499.43
988.844	2451.29
989.142	2495.81
989.44	2440.9
989.737	2433.21
990.035	2459.2
990.332	2424.4
990.63	2368.36
990.927	2389.82
991.224	2397.96
991.521	2360.67
991.819	2350.73
992.116	2349.37
992.413	2372.2
992.71	2345.31
993.006	2333.33
993.303	2327.23
993.6	2301.92
993.897	2306.66
994.193	2275.7
994.49	2260.56
994.787	2248.58
995.083	2247
995.379	2226.89
995.676	2262.14
995.972	2226.44
996.268	2183.73
996.565	2241.58
996.861	2179.89
997.157	2155.48
997.453	2184.41
997.749	2136.05
998.044	2134.92
998.34	2148.25
998.636	2104.86
998.932	2121.58
999.227	2095.14
999.523	2084.52
999.818	2064.18
1000.114	2097.85
1000.409	2054.01
1000.704	2038.65
1001	2023.51
1001.295	1995.03
1001.59	2010.4
1001.885	2021.7
1002.18	1975.37
1002.475	1971.98
1002.77	1971.08
1003.065	1939.89
1003.359	1960.91
1003.654	1890.63
1003.949	1926.79
1004.243	1887.24
1004.538	1926.33
1004.832	1879.56
1005.127	1898.99
1005.421	1853.12
1005.715	1885.66
1006.009	1862.38
1006.304	1841.59
1006.598	1819.44
1006.892	1813.79
1007.186	1806.11
1007.48	1762.72
1007.773	1785.77
1008.067	1774.47
1008.361	1757.98
1008.655	1760.01
1008.948	1725.89
1009.242	1750.29
1009.535	1735.15
1009.829	1737.86
1010.122	1676.17
1010.415	1691.99
1010.708	1653.12
1011.001	1671.2
1011.295	1688.6
1011.588	1649.5
1011.881	1640.47
1012.173	1612.67
1012.466	1610.64
1012.759	1609.96
1013.052	1590.98
1013.344	1615.83
1013.637	1596.85
1013.93	1569.73
1014.222	1584.42
1014.514	1583.07
1014.807	1539.9
1015.099	1588.04
1015.391	1544.42
1015.683	1531.54
1015.976	1515.27
1016.268	1506.46
1016.56	1507.59
1016.851	1492.9
1017.143	1488.38
1017.435	1464.2
1017.727	1473.92
1018.018	1437.53
1018.31	1439.34
1018.602	1412.22
1018.893	1431.21
1019.185	1460.36
1019.476	1424.43
1019.767	1396.18
1020.058	1393.69
1020.35	1397.31
1020.641	1375.39
1020.932	1368.61
1021.223	1339.91
1021.514	1354.82
1021.804	1333.81
1022.095	1353.24
1022.386	1332.22
1022.677	1304.2
1022.967	1316.41
1023.258	1289.51
1023.548	1289.74
1023.839	1280.7
1024.129	1240.48
1024.419	1274.6
1024.709	1240.02
1025	1250.65
1025.29	1272.57
1025.58	1233.02
1025.87	1223.3
1026.16	1221.27
1026.449	1206.8
1026.739	1223.75
1027.029	1193.92
1027.319	1191.44
1027.608	1187.6
1027.898	1158.44
1028.187	1154.6
1028.477	1156.18
1028.766	1164.55
1029.055	1125.45
1029.344	1160.25
1029.634	1142.17
1029.923	1106.24
1030.212	1117.54
1030.501	1124.55
1030.79	1077.99
1031.078	1115.28
1031.367	1079.35
1031.656	1046.81
1031.945	1067.15
1032.233	1049.52
1032.522	1043.19
1032.81	1050.2
1033.099	1051.55
1033.387	1062.63
1033.675	1019.92
1033.963	1018.56
1034.251	1037.77
1034.54	1005.68
1034.828	1008.84
1035.116	982.63
1035.403	1011.1
1035.691	995.51
1035.979	997.54
1036.267	971.78
1036.554	971.33
1036.842	959.35
1037.129	982.18
1037.417	933.59
1037.704	935.4
1037.992	930.88
1038.279	949.18
1038.566	942.18
1038.853	942.18
1039.14	942.18
