Data from hue_34_FLMS001491_00001.txt Node
Date: Tue Feb 07 17:25:06 GMT 2017
User: dcchb
Spectrometer: FLMS00149
Trigger mode: 0
Integration Time (sec): 2.000000E-2
Scans to average: 10
Electric dark correction enabled: true
Nonlinearity correction enabled: false
Boxcar width: 0
XAxis mode: Wavelengths
Number of Pixels in Spectrum: 2048
>>>>>Begin Spectral Data<<<<<
341.393	-16.21
341.776	-16.21
342.16	-16.21
342.543	-77.91
342.927	-62.54
343.31	-63.22
343.693	-78.81
344.077	-55.54
344.46	-60.28
344.843	-62.77
345.226	-21.86
345.61	-31.58
345.993	-21.64
346.376	6.61
346.759	7.51
347.142	10.45
347.525	40.28
347.908	49.09
348.291	77.57
348.674	82.77
349.057	121.41
349.44	136.1
349.823	136.55
350.206	162.31
350.588	187.85
350.971	203.44
351.354	242.31
351.737	241.86
352.119	256.09
352.502	282.99
352.884	276.66
353.267	275.3
353.65	299.26
354.032	302.87
354.414	301.29
354.797	315.75
355.179	325.92
355.562	322.53
355.944	323.66
356.326	332.93
356.709	354.85
357.091	370.44
357.473	345.58
357.855	318.69
358.238	349.2
358.62	348.97
359.002	353.04
359.384	363.66
359.766	357.79
360.148	335.87
360.53	342.19
360.912	327.96
361.294	332.03
361.676	346.26
362.057	345.13
362.439	322.99
362.821	315.98
363.203	336.77
363.584	320.73
363.966	323.89
364.348	323.21
364.729	339.03
365.111	318.24
365.493	326.38
365.874	329.77
366.256	334.28
366.637	313.95
367.019	329.09
367.4	327.05
367.781	310.78
368.163	309.2
368.544	324.34
368.925	303.78
369.306	338.35
369.688	315.98
370.069	313.49
370.45	330.22
370.831	329.31
371.212	320.73
371.593	313.27
371.974	323.44
372.355	322.31
372.736	319.82
373.117	322.31
373.498	310.1
373.879	318.47
374.26	306.94
374.641	316.43
375.021	307.39
375.402	328.18
375.783	323.89
376.163	332.48
376.544	346.94
376.925	338.35
377.305	318.69
377.686	328.18
378.066	339.03
378.447	337.67
378.827	345.13
379.208	341.74
379.588	326.15
379.968	344.45
380.349	335.19
380.729	323.66
381.109	339.48
381.489	347.62
381.87	329.77
382.25	338.8
382.63	328.86
383.01	351.91
383.39	348.52
383.77	362.76
384.15	349.88
384.53	336.77
384.91	346.71
385.29	348.3
385.67	351.69
386.049	366.6
386.429	354.85
386.809	361.85
387.189	349.43
387.568	360.95
387.948	381.06
388.328	348.07
388.707	348.97
389.087	370.22
389.466	365.02
389.846	358.01
390.225	376.09
390.605	373.38
390.984	370.22
391.363	374.06
391.743	362.53
392.122	362.31
392.501	372.93
392.881	369.54
393.26	393.27
393.639	378.8
394.018	398.92
394.397	384.45
394.776	366.6
395.155	374.28
395.534	376.77
395.913	384.68
396.292	386.04
396.671	416.54
397.05	387.39
397.429	393.49
397.808	377
398.186	374.06
398.565	391.23
398.944	387.84
399.323	412.48
399.701	417.67
400.08	399.82
400.458	385.58
400.837	413.6
401.215	401.4
401.594	397.33
401.972	393.94
402.351	402.08
402.729	431.23
403.107	408.86
403.486	410.89
403.864	397.56
404.242	413.83
404.62	418.8
404.999	433.27
405.377	437.33
405.755	451.57
406.133	417.67
406.511	427.62
406.889	445.92
407.267	451.34
407.645	440.5
408.023	443.89
408.401	436.66
408.779	451.57
409.156	433.72
409.534	459.25
409.912	449.99
410.29	446.6
410.667	460.61
411.045	452.25
411.422	449.99
411.8	482.3
412.178	481.4
412.555	465.81
412.933	479.59
413.31	465.35
413.687	501.51
414.065	520.27
414.442	482.3
414.819	483.66
415.197	485.47
415.574	510.33
415.951	489.08
416.328	496.77
416.705	495.41
417.082	507.61
417.46	505.35
417.837	518.23
418.214	514.85
418.591	532.02
418.967	537.22
419.344	526.37
419.721	532.92
420.098	548.52
420.475	521.62
420.852	542.19
421.228	551.23
421.605	534.73
421.982	537.22
422.358	532.7
422.735	562.75
423.111	568.18
423.488	549.87
423.864	530.89
424.241	560.27
424.617	571.57
424.994	574.73
425.37	566.6
425.746	564.79
426.123	575.86
426.499	579.25
426.875	583.32
427.251	580.15
427.627	581.28
428.003	609.08
428.379	613.15
428.756	590.78
429.132	632.36
429.507	642.07
429.883	623.54
430.259	657.44
430.635	619.93
431.011	642.07
431.387	645.01
431.763	661.51
432.138	652.24
432.514	654.05
432.89	665.58
433.265	692.69
433.641	691.34
434.016	668.74
434.392	698.8
434.767	725.69
435.143	699.02
435.518	725.46
435.894	696.54
436.269	718
436.644	724.78
437.02	746.03
437.395	725.01
437.77	715.74
438.145	749.42
438.52	744.9
438.895	774.5
439.271	759.58
439.646	761.17
440.021	762.75
440.395	760.26
440.77	770.43
441.145	779.47
441.52	782.41
441.895	794.16
442.27	793.48
442.645	795.06
443.019	810.2
443.394	794.84
443.769	807.04
444.143	803.65
444.518	813.82
444.892	836.19
445.267	846.14
445.641	847.94
446.016	847.72
446.39	854.72
446.764	857.66
447.139	857.66
447.513	858.34
447.887	855.85
448.262	878.45
448.636	863.76
449.01	867.83
449.384	906.02
449.758	898.34
450.132	894.04
450.506	896.08
450.88	917.77
451.254	903.99
451.628	883.88
452.002	922.97
452.376	959.13
452.75	948.05
453.123	919.81
453.497	970.2
453.871	985.34
454.244	988.51
454.618	989.63
454.992	995.74
455.365	1003.19
455.739	1011.78
456.112	1026.7
456.486	1029.86
456.859	1037.09
457.232	1043.19
457.606	1059.24
457.979	1067.15
458.352	1068.73
458.725	1115.28
459.099	1081.84
459.472	1119.8
459.845	1134.26
460.218	1138.11
460.591	1161.38
460.964	1141.5
461.337	1176.75
461.71	1178.33
462.083	1222.17
462.456	1197.09
462.829	1221.49
463.201	1243.64
463.574	1239.35
463.947	1254.03
464.32	1268.72
464.692	1311.89
465.065	1306.91
465.438	1316.18
465.81	1340.36
466.183	1343.3
466.555	1374.94
466.928	1388.27
467.3	1407.48
467.672	1441.6
468.045	1450.19
468.417	1459
468.789	1464.65
469.161	1463.29
469.534	1515.04
469.906	1529.06
470.278	1574.25
470.65	1594.82
471.022	1596.85
471.394	1635.27
471.766	1656.51
472.138	1669.39
472.51	1730.18
472.882	1759.56
473.253	1774.25
473.625	1794.59
473.997	1818.09
474.369	1869.84
474.74	1872.32
475.112	1950.97
475.484	1946.45
475.855	1993.68
476.227	2052.21
476.598	2082.49
476.97	2118.64
477.341	2172.88
477.713	2233.44
478.084	2240.45
478.455	2320
478.827	2335.81
479.198	2415.59
479.569	2475.25
479.94	2556.83
480.311	2550.05
480.682	2641.12
481.053	2715.24
481.424	2778.51
481.795	2816.25
482.166	2892.18
482.537	2931.05
482.908	3044.72
483.279	3079.07
483.65	3153.87
484.021	3251.95
484.391	3282
484.762	3355.67
485.133	3416.01
485.503	3495.33
485.874	3592.5
486.244	3645.16
486.615	3759.96
486.985	3806.96
487.356	3919.05
487.726	3971.93
488.097	4037.24
488.467	4118.37
488.837	4262.77
489.207	4312.71
489.578	4457.79
489.948	4467.28
490.318	4601.52
490.688	4643.55
491.058	4729.88
491.428	4810.33
491.798	4930.77
492.168	5024.56
492.538	5086.25
492.908	5194.5
493.278	5275.17
493.648	5323.98
494.017	5421.16
494.387	5533.7
494.757	5599.46
495.126	5696.18
495.496	5758.78
495.866	5816.17
496.235	5871.54
496.605	5995.61
496.974	6050.97
497.344	6110.63
497.713	6147.01
498.082	6280.57
498.452	6320.12
498.821	6464.75
499.19	6534.8
499.559	6603.5
499.928	6638.53
500.298	6711.97
500.667	6788.58
501.036	6826.09
501.405	6860.89
501.774	6941.12
502.143	6997.39
502.512	7064.96
502.88	7159.64
503.249	7179.53
503.618	7244.84
503.987	7325.51
504.356	7412.06
504.724	7504.27
505.093	7556.92
505.462	7568.45
505.83	7623.13
506.199	7749.23
506.567	7779.74
506.936	7850.47
507.304	7953.75
507.672	7948.1
508.041	8046.85
508.409	8089.56
508.777	8173.85
509.145	8251.36
509.514	8227.64
509.882	8335.2
510.25	8343.57
510.618	8450.91
510.986	8513.73
511.354	8533.39
511.722	8611.58
512.09	8734.52
512.458	8710.79
512.826	8829.88
513.193	8775.19
513.561	8844.8
513.929	8885.47
514.297	8999.59
514.664	9032.14
515.032	9100.16
515.4	9125.69
515.767	9155.97
516.135	9295.63
516.502	9189.87
516.869	9405.91
517.237	9377.44
517.604	9413.14
517.972	9544.44
518.339	9612.23
518.706	9571.56
519.073	9567.04
519.44	9639.8
519.808	9794.6
520.175	9687.49
520.542	9915.73
520.909	9947.14
521.276	9916.86
521.643	9989.85
522.009	10099.45
522.376	10164.31
522.743	10154.82
523.11	10271.65
523.477	10388.26
523.843	10405.88
524.21	10520.01
524.577	10553.68
524.943	10609.72
525.31	10685.2
525.676	10745.76
526.043	10856.72
526.409	10897.4
526.776	11020.33
527.142	10939.2
527.508	11032.76
527.874	11139.65
528.241	11167.67
528.607	11163.6
528.973	11372.41
529.339	11375.12
529.705	11481.56
530.071	11579.64
530.437	11556.81
530.803	11626.64
531.169	11657.38
531.535	11694.66
531.901	11743.93
532.267	11815.34
532.632	11921.78
532.998	11842.68
533.364	12015.56
533.73	12040.19
534.095	12159.74
534.461	12202.22
534.826	12234.31
535.192	12272.73
535.557	12396.57
535.923	12376
536.288	12406.96
536.653	12480.18
537.019	12488.54
537.384	12566.28
537.749	12567.41
538.114	12717.46
538.479	12616.45
538.845	12766.95
539.21	12714.07
539.575	12815.76
539.94	12910.9
540.305	13010.34
540.67	12972.82
541.034	13045.59
541.399	13032.71
541.764	13120.39
542.129	13157.22
542.494	13265.92
542.858	13311.34
543.223	13345.02
543.587	13371.23
543.952	13451.45
544.316	13481.06
544.681	13453.04
545.045	13551.56
545.41	13650.32
545.774	13638.79
546.138	13694.61
546.503	13813.25
546.867	13769.64
547.231	13936.87
547.595	13958.79
547.959	13974.83
548.324	14043.08
548.688	14084.66
549.052	14156.29
549.416	14185.9
549.779	14176.86
550.143	14198.78
550.507	14274.71
550.871	14387.93
551.235	14330.98
551.599	14506.57
551.962	14459.56
552.326	14547.24
552.689	14555.38
553.053	14572.33
553.417	14643.74
553.78	14782.72
554.143	14782.04
554.507	14863.85
554.87	14909.49
555.234	14941.36
555.597	14889.83
555.96	15013.67
556.323	15110.39
556.686	15092.09
557.05	15174.8
557.413	15169.6
557.776	15210.73
558.139	15388.8
558.502	15370.05
558.865	15388.35
559.228	15528.24
559.59	15602.58
559.953	15558.97
560.316	15706.76
560.679	15738.63
561.041	15814.78
561.404	15717.61
561.767	16012.52
562.129	15915.8
562.492	16098.84
562.854	16054.78
563.217	16099.07
563.579	16125.73
563.941	16300.64
564.304	16336.12
564.666	16362.11
565.028	16370.7
565.39	16419.29
565.753	16528.89
566.115	16515.33
566.477	16592.16
566.839	16737.02
567.201	16845.72
567.563	16879.61
567.925	16932.04
568.287	16987.86
568.648	17066.5
569.01	17148.31
569.372	17190.34
569.734	17247.29
570.095	17343.33
570.457	17337
570.819	17488.86
571.18	17454.96
571.542	17759.59
571.903	17684.34
572.265	17754.62
572.626	17882.3
572.987	17887.72
573.349	17905.35
573.71	17991.22
574.071	18139.92
574.432	18144.66
574.794	18354.83
575.155	18395.73
575.516	18392.57
575.877	18620.58
576.238	18677.08
576.599	18763.86
576.96	18884.98
577.32	19000.91
577.681	19125.2
578.042	19267.35
578.403	19465.31
578.763	19457.17
579.124	19584.4
579.485	19856.03
579.845	20002.24
580.206	19983.03
580.566	20098.06
580.927	20269.13
581.287	20531.95
581.648	20562
582.008	20908.21
582.368	21004.7
582.728	21079.28
583.089	21330.34
583.449	21480.17
583.809	21690.11
584.169	21919.93
584.529	22032.47
584.889	22410.54
585.249	22516.07
585.609	22659.8
585.969	23027.93
586.329	23061.6
586.688	23521.25
587.048	23653.22
587.408	23807.79
587.768	24004.62
588.127	24236.93
588.487	24328.91
588.846	24812.06
589.206	24904.26
589.565	25207.53
589.925	25522.78
590.284	25687.74
590.643	25842.99
591.003	26240.04
591.362	26484.56
591.721	26795.28
592.08	26925.9
592.44	27268.27
592.799	27548.94
593.158	27778.08
593.517	28099.43
593.876	28225.08
594.235	28347.56
594.593	28713.2
594.952	28979.18
595.311	29052.63
595.67	29486.74
596.029	29889.44
596.387	30057.8
596.746	30342.76
597.104	30375.75
597.463	30595.64
597.822	31155.85
598.18	31226.35
598.538	31442.62
598.897	31773.01
599.255	31791.99
599.613	32485.3
599.972	32442.14
600.33	32800.32
600.688	32723.26
601.046	33114.67
601.404	33498.16
601.762	33507.2
602.12	33846.17
602.478	33946.06
602.836	34311.02
603.194	34213.17
603.552	34531.13
603.91	34577.45
604.268	35063.32
604.625	35048.85
604.983	35304.66
605.341	35455.17
605.698	35757.99
606.056	35758.44
606.413	36092.89
606.771	36231.42
607.128	36514.8
607.485	36545.76
607.843	36789.6
608.2	37055.13
608.557	37211.28
608.914	37268
609.272	37548.67
609.629	37707.09
609.986	38064.59
610.343	37979.85
610.7	38389.1
611.057	38329.67
611.414	38537.8
611.771	38643.11
612.127	38836.32
612.484	39057.11
612.841	39267.5
613.198	39215.07
613.554	39330.32
613.911	39721.27
614.267	39738.9
614.624	39763.53
614.98	39885.56
615.337	40220.69
615.693	40373.46
616.05	40269.28
616.406	40554.92
616.762	40483.06
617.118	40660.46
617.475	40663.62
617.831	40806.22
618.187	41092.08
618.543	41293.21
618.899	41431.74
619.255	41335.47
619.611	41329.82
619.967	41601.45
620.323	41765.06
620.678	41654.55
621.034	41554.44
621.39	41782.46
621.746	41721.67
622.101	42264.48
622.457	42097.03
622.812	41992.62
623.168	42257.25
623.523	42378.6
623.879	42627.41
624.234	42265.16
624.589	42470.8
624.945	42518.26
625.3	42698.59
625.655	42634.64
626.01	42602.1
626.365	42890.45
626.72	42688.43
627.075	42770.01
627.43	42847.52
627.785	42850.91
628.14	42928.19
628.495	42945.82
628.85	42931.58
629.205	42799.84
629.559	43017.68
629.914	42880.06
630.269	42961.41
630.623	43090.45
630.978	42918.48
631.332	42981.75
631.687	43224.23
632.041	43117.11
632.396	43169.77
632.75	42933.62
633.104	43154.85
633.459	42948.98
633.813	42925.93
634.167	43002.32
634.521	43191.46
634.875	42983.79
635.229	42939.27
635.583	43010.45
635.937	42924.35
636.291	42923.22
636.645	42952.6
636.999	42806.84
637.352	43093.39
637.706	42882.32
638.06	42972.94
638.413	42982.66
638.767	42832.15
639.121	42981.3
639.474	42734.53
639.828	42921.87
640.181	42925.26
640.534	42932.94
640.888	42791.25
641.241	42715.77
641.594	42678.03
641.947	42795.32
642.301	42682.32
642.654	42690.69
643.007	42633.06
643.36	42708.99
643.713	42564.36
644.066	42745.15
644.419	42435.32
644.771	42195.33
645.124	42028.33
645.477	41835.34
645.83	41605.74
646.182	41440.55
646.535	41317.16
646.888	41436.26
647.24	41243.49
647.593	41528
647.945	41391.28
648.298	41215.47
648.65	41162.14
649.002	41082.37
649.355	41366.88
649.707	41257.5
650.059	41516.48
650.411	41829.24
650.763	41887.54
651.115	42381.99
651.467	42150.36
651.819	42141.55
652.171	42074.88
652.523	41996.24
652.875	42038.95
653.227	41744.95
653.578	42158.95
653.93	42092.96
654.282	41897.71
654.633	41680.09
654.985	41868.56
655.337	41859.75
655.688	41910.82
656.039	41983.81
656.391	41798.28
656.742	41874.66
657.094	41776.36
657.445	41916.47
657.796	41894.1
658.147	41718.06
658.498	41741.11
658.849	41885.28
659.2	41766.64
659.551	41648
659.902	41798.73
660.253	41801.67
660.604	41679.19
660.955	41521.45
661.306	41687.32
661.656	41731.84
662.007	41757.83
662.358	41756.25
662.708	41611.62
663.059	41693.2
663.409	41465.63
663.76	41810.26
664.11	41629.47
664.461	41705.85
664.811	41628.57
665.161	41639.19
665.511	41551.28
665.862	41627.66
666.212	41675.57
666.562	41577.72
666.912	41605.29
667.262	41661.11
667.612	41483.71
667.962	41538.85
668.312	41506.99
668.662	41802.8
669.011	41605.06
669.361	41471.06
669.711	41488.01
670.06	41451.62
670.41	41370.95
670.76	41261.12
671.109	41514.67
671.459	41444.84
671.808	41362.81
672.157	41469.25
672.507	41117.39
672.856	41159.2
673.205	41167.56
673.554	41301.34
673.904	41156.94
674.253	41400.55
674.602	41194
674.951	40864.74
675.3	40548.82
675.649	41127.79
675.998	41019.32
676.346	41013.44
676.695	41167.79
677.044	41066.55
677.393	41064.29
677.741	41186.32
678.09	40972.99
678.438	40858.87
678.787	41112.2
679.135	40956.27
679.484	40708.36
679.832	40913.33
680.181	40610.06
680.529	40761.02
680.877	40679.21
681.225	40560.57
681.573	40947
681.922	40509.27
682.27	40529.61
682.618	40534.13
682.966	40415.72
683.314	40446.45
683.661	40227.93
684.009	40191.32
684.357	40049.17
684.705	40045.11
685.053	40332.1
685.4	40093.24
685.748	40057.53
686.095	39873.36
686.443	39718.56
686.79	39648.96
687.138	39776.86
687.485	39673.82
687.832	39677.88
688.18	39541.62
688.527	39299.14
688.874	39362.19
689.221	39320.15
689.568	39222.3
689.915	39136.65
690.262	39176.88
690.609	38974.62
690.956	38897.34
691.303	38769.66
691.65	38696.44
691.997	38773.5
692.344	38595.65
692.69	38381.87
693.037	38317.24
693.383	38131.94
693.73	38143.91
694.077	38083.8
694.423	38016.01
694.769	37877.48
695.116	37821.66
695.462	37751.61
695.808	37745.5
696.155	37808.55
696.501	37373.09
696.847	37468.22
697.193	37271.62
697.539	37352.07
697.885	37153.66
698.231	37047.9
698.577	37072.08
698.923	37112.98
699.269	36832.53
699.614	36707.11
699.96	36609.49
700.306	36614.91
700.651	36520.68
700.997	36349.16
701.342	36259.44
701.688	36150.07
702.033	36114.36
702.379	36045.66
702.724	35922.05
703.069	36036.85
703.415	35451.1
703.76	35687.93
704.105	35652
704.45	35584.21
704.795	35230.99
705.14	35327.94
705.485	35273.03
705.83	35186.25
706.175	35064.45
706.52	35045.69
706.865	34825.81
707.209	34942.87
707.554	34745.58
707.899	34736.77
708.243	34650.9
708.588	34634.85
708.932	34275.31
709.277	34460.85
709.621	34569.09
709.966	34307.18
710.31	34326.84
710.654	34113.96
710.998	34035.32
711.342	34004.36
711.687	33925.04
712.031	33732.95
712.375	33717.36
712.719	33736.34
713.063	33645.73
713.407	33728.66
713.75	33579.06
714.094	33489.12
714.438	33203.7
714.782	33427.65
715.125	33242.35
715.469	33297.03
715.812	33171.84
716.156	32952.18
716.499	32939.08
716.843	33020.21
717.186	32768.01
717.53	32956.03
717.873	32940.66
718.216	32888.01
718.559	32712.87
718.902	32512.2
719.246	32410.73
719.589	32443.72
719.932	32400.33
720.275	32404.63
720.617	32351.52
720.96	32351.52
721.303	32370.5
721.646	32177.74
721.989	32009.16
722.331	32135.03
722.674	31997.18
723.016	32075.6
723.359	31998.54
723.701	31982.72
724.044	31760.35
724.386	31655.72
724.729	31808.94
725.071	31662.05
725.413	31619.79
725.755	31568.49
726.097	31523.97
726.439	31429.96
726.782	31332.79
727.124	31460.02
727.465	31337.99
727.807	31386.8
728.149	31164.66
728.491	31200.82
728.833	31234.04
729.175	31025.23
729.516	31032.91
729.858	30979.35
730.199	30914.95
730.541	30897.55
730.882	30852.35
731.224	30980.26
731.565	30733.26
731.906	30800.6
732.248	30822.3
732.589	30643.77
732.93	30439.93
733.271	30493.04
733.612	30582.3
733.953	30528.29
734.294	30347.73
734.635	30341.86
734.976	30366.72
735.317	30218.92
735.658	30213.05
735.999	30287.62
736.339	30119.72
736.68	30186.83
737.021	30084.69
737.361	30022.32
737.702	30117.46
738.042	29928.76
738.383	30001.3
738.723	29884.92
739.063	29849.22
739.404	29784.58
739.744	29720.4
740.084	29610.35
740.424	29721.99
740.764	29598.83
741.104	29753.62
741.444	29550.92
741.784	29489
742.124	29417.36
742.464	29427.53
742.804	29398.83
743.143	29279.06
743.483	29442.67
743.823	29213.75
744.162	29146.63
744.502	29292.17
744.841	29086.75
745.181	29202
745.52	29153.87
745.86	29135.56
746.199	29173.98
746.538	28946.87
746.877	28966.53
747.216	28995.68
747.556	28947.09
747.895	28960.65
748.234	28832.52
748.573	28760.66
748.911	28658.29
749.25	28672.07
749.589	28539.65
749.928	28695.57
750.267	28559.31
750.605	28564.5
750.944	28455.35
751.283	28433.21
751.621	28329.93
751.96	28254.45
752.298	28207
752.636	28201.8
752.975	28081.8
753.313	28075.48
753.651	28164.51
753.989	27896.95
754.327	27948.93
754.666	27784.18
755.004	27920.23
755.342	27852.66
755.679	27760.91
756.017	27574.47
756.355	27807.01
756.693	27556.17
757.031	27664.19
757.368	27369.73
757.706	27343.52
758.044	27311.2
758.381	27314.14
758.719	27116.41
759.056	27146.69
759.394	27104.88
759.731	26947.14
760.068	26894.26
760.405	26893.13
760.743	26648.17
761.08	26774.95
761.417	26551
761.754	26561.39
762.091	26622.63
762.428	26478.46
762.765	26441.17
763.102	26421.96
763.438	26185.36
763.775	26090.9
764.112	26274.39
764.449	26137.22
764.785	26028.3
765.122	25821.75
765.458	25762.32
765.795	25802.54
766.131	25648.65
766.467	25590.12
766.804	25388.09
767.14	25326.85
767.476	25207.53
767.812	25270.35
768.148	25324.14
768.485	25054.09
768.821	25054.54
769.157	25064.48
769.492	24927.54
769.828	24821.1
770.164	24615.23
770.5	24667.2
770.836	24554.89
771.171	24422.24
771.507	24331.17
771.842	24157.16
772.178	24205.97
772.513	24127.78
772.849	24045.98
773.184	23983.15
773.519	23956.71
773.855	23817.06
774.19	23733.9
774.525	23636.72
774.86	23670.85
775.195	23582.71
775.53	23437.86
775.865	23279.44
776.2	23297.52
776.535	23024.99
776.87	22966.46
777.205	22971.66
777.539	22876.07
777.874	22820.02
778.209	22639.24
778.543	22619.8
778.878	22402.63
779.212	22561.5
779.547	22330.77
779.881	22367.6
780.215	22220.72
780.55	22377.1
780.884	22135.52
781.218	22037.9
781.552	22087.16
781.886	21844.68
782.22	21853.04
782.554	21835.87
782.888	21491.24
783.222	21516.1
783.556	21353.39
783.889	21449.44
784.223	21152.49
784.557	21086.28
784.89	21237.92
785.224	21090.8
785.557	20937.36
785.891	20913.18
786.224	20814.88
786.558	20745.05
786.891	20601.55
787.224	20567.2
787.557	20588.67
787.891	20449.69
788.224	20475.45
788.557	20288.79
788.89	20360.65
789.223	20225.06
789.556	20129.92
789.888	20108.23
790.221	20025.97
790.554	19886.09
790.887	19875.69
791.219	19753.66
791.552	19779.88
791.884	19630.5
792.217	19644.06
792.549	19462.14
792.882	19412.43
793.214	19380.34
793.546	19243.39
793.879	19193.22
794.211	19077.07
794.543	19087.24
794.875	19113.9
795.207	19074.58
795.539	18962.95
795.871	18850.63
796.203	18710.75
796.535	18710.75
796.867	18617.42
797.198	18593.47
797.53	18642.28
797.862	18516.18
798.193	18459.68
798.525	18388.27
798.856	18363.64
799.188	18218.79
799.519	18139.69
799.85	18087.49
800.182	18119.35
800.513	17981.05
800.844	17941.51
801.175	18069.86
801.506	17930.66
801.837	17809.76
802.168	17888.85
802.499	17727.5
802.83	17687.05
803.161	17611.8
803.491	17663.09
803.822	17535.64
804.153	17438.92
804.483	17304.01
804.814	17299.94
805.145	17298.81
805.475	17269.43
805.805	17187.63
806.136	17150.79
806.466	17129.78
806.796	17033.96
807.126	16833.29
807.457	16967.52
807.787	16916.9
808.117	16899.73
808.447	16767.07
808.777	16841.65
809.107	16683.46
809.436	16754.42
809.766	16656.79
810.096	16640.07
810.426	16504.71
810.755	16522.11
811.085	16463.58
811.414	16452.96
811.744	16316.92
812.073	16258.16
812.403	16286.86
812.732	16169.12
813.061	16219.74
813.39	16045.28
813.719	16010.26
814.049	16123.25
814.378	16022.69
814.707	15896.81
815.036	15907.66
815.365	15844.39
815.693	15705.86
816.022	15765.97
816.351	15682.36
816.68	15612.98
817.008	15700.21
817.337	15471.97
817.665	15554.9
817.994	15560.55
818.322	15552.64
818.651	15402.59
818.979	15358.52
819.307	15463.15
819.636	15436.03
819.964	15269.49
820.292	15352.2
820.62	15349.71
820.948	15289.15
821.276	15230.39
821.604	15290.28
821.932	15222.48
822.259	15229.71
822.587	15131.41
822.915	15149.49
823.243	15193.78
823.57	15143.61
823.898	15175.7
824.225	15086.67
824.553	15158.08
824.88	15173.89
825.207	15241.01
825.535	15144.97
825.862	15115.82
826.189	15133.44
826.516	15214.8
826.843	15161.01
827.17	15142.03
827.497	15184.74
827.824	15195.36
828.151	15205.08
828.478	15091.64
828.805	15208.24
829.131	15087.57
829.458	15031.98
829.785	14985.88
830.111	15115.14
830.438	15212.76
830.764	15156.95
831.09	15064.75
831.417	15050.73
831.743	15136.61
832.069	15152.88
832.395	15068.13
832.722	15091.86
833.048	15036.5
833.374	15046.21
833.7	14942.94
834.026	15011.41
834.351	14915.14
834.677	14891.87
835.003	14924.64
835.329	14962.83
835.654	14867.24
835.98	14861.13
836.306	14886.22
836.631	14799.44
836.956	14874.92
837.282	14819.33
837.607	14722.61
837.932	14691.2
838.258	14657.3
838.583	14722.38
838.908	14635.83
839.233	14684.64
839.558	14587.24
839.883	14515.16
840.208	14509.51
840.533	14545.66
840.858	14459.79
841.182	14491.43
841.507	14487.59
841.832	14391.32
842.156	14427.47
842.481	14378.89
842.805	14375.72
843.13	14378.44
843.454	14297.08
843.778	14180.25
844.103	14214.37
844.427	14130.53
844.751	14173.47
845.075	14123.53
845.399	14115.84
845.723	13982.51
846.047	13987.94
846.371	13904.32
846.695	13880.14
847.019	13781.62
847.343	13754.72
847.666	13709.75
847.99	13515.18
848.313	13659.58
848.637	13489.87
848.96	13493.49
849.284	13469.53
849.607	13298.69
849.931	13389.53
850.254	13224.57
850.577	13104.12
850.9	13087.62
851.223	13026.38
851.546	12994.97
851.869	12980.73
852.192	12950.45
852.515	12922.2
852.838	12773.51
853.161	12736.67
853.483	12711.81
853.806	12720.63
854.129	12711.13
854.451	12588.88
854.774	12484.02
855.096	12586.39
855.419	12466.62
855.741	12491.48
856.063	12335.33
856.385	12342.78
856.708	12346.17
857.03	12254.88
857.352	12261.2
857.674	12219.4
857.996	12168.55
858.318	12075.22
858.64	12118.16
858.961	12091.04
859.283	12076.8
859.605	11995.45
859.926	12042.23
860.248	12000.42
860.57	11915.22
860.891	11905.51
861.212	11823.47
861.534	11768.11
861.855	11793.64
862.176	11766.3
862.498	11787.32
862.819	11718.17
863.14	11720.88
863.461	11665.96
863.782	11623.71
864.103	11598.17
864.424	11671.16
864.745	11641.78
865.065	11546.65
865.386	11576.25
865.707	11567.44
866.027	11556.36
866.348	11463.71
866.668	11523.37
866.989	11486.08
867.309	11422.36
867.63	11405.41
867.95	11447.89
868.27	11352.07
868.59	11394.11
868.91	11298.29
869.23	11296.03
869.55	11279.76
869.87	11336.03
870.19	11239.53
870.51	11246.77
870.83	11294.9
871.15	11181.68
871.469	11212.42
871.789	11179.65
872.109	11122.25
872.428	11003.38
872.748	11163.15
873.067	11097.62
873.386	11091.97
873.706	11067.34
874.025	11056.94
874.344	10972.88
874.663	10929.26
874.982	10959.32
875.301	10999.54
875.62	10917.06
875.939	10851.97
876.258	10881.8
876.577	10834.8
876.896	10911.86
877.214	10791.41
877.533	10796.38
877.852	10830.73
878.17	10751.64
878.489	10760.23
878.807	10741.69
879.125	10736.05
879.444	10715.71
879.762	10708.02
880.08	10697.63
880.398	10659.89
880.716	10682.49
881.034	10640
881.352	10565.2
881.67	10543.51
881.988	10607.01
882.306	10537.86
882.624	10446.56
882.941	10493.34
883.259	10367.69
883.577	10427.58
883.894	10418.31
884.212	10382.83
884.529	10381.03
884.846	10327.47
885.164	10302.84
885.481	10249.5
885.798	10221.03
886.115	10176.51
886.432	10200.01
886.75	10177.42
887.067	10091.77
887.383	10088.83
887.7	10094.71
888.017	10101.49
888.334	10135.38
888.651	10030.08
888.967	10068.27
889.284	9985.78
889.6	9952.79
889.917	9913.92
890.233	9865.56
890.55	9827.82
890.866	9825.11
891.182	9867.82
891.498	9761.83
891.815	9735.17
892.131	9682.29
892.447	9710.31
892.763	9671.67
893.079	9683.42
893.395	9626.47
893.71	9640.93
894.026	9621.5
894.342	9561.16
894.657	9480.26
894.973	9475.51
895.289	9356.42
895.604	9501.95
895.92	9378.79
896.235	9297.21
896.55	9307.61
896.865	9300.6
897.181	9241.17
897.496	9275.74
897.811	9282.98
898.126	9190.1
898.441	9118.69
898.756	9100.16
899.071	9056.54
899.386	8941.97
899.7	8938.58
900.015	9001.4
900.33	8831.46
900.644	8840.73
900.959	8880.5
901.273	8860.84
901.588	8765.02
901.902	8783.78
902.216	8769.32
902.531	8695.2
902.845	8712.37
903.159	8604.8
903.473	8598.47
903.787	8591.24
904.101	8535.2
904.415	8482.09
904.729	8475.54
905.042	8441.64
905.356	8414.3
905.67	8374.53
905.984	8408.42
906.297	8408.65
906.611	8366.39
906.924	8252.72
907.237	8323.45
907.551	8248.88
907.864	8170.69
908.177	8158.71
908.491	8112.84
908.804	8145.61
909.117	8067.64
909.43	8056.34
909.743	7962.56
910.056	7982.9
910.368	7953.97
910.681	7937.25
910.994	7878.49
911.307	7783.35
911.619	7783.58
911.932	7834.65
912.244	7681.89
912.557	7740.87
912.869	7657.26
913.181	7666.3
913.494	7623.13
913.806	7562.8
914.118	7535.23
914.43	7568.45
914.742	7499.52
915.054	7406.87
915.366	7432.86
915.678	7353.08
915.99	7351.73
916.302	7292.75
916.613	7226.76
916.925	7289.81
917.236	7234.22
917.548	7205.06
917.859	7223.14
918.171	7089.59
918.482	7158.51
918.794	7092.07
919.105	7165.07
919.416	7015.47
919.727	7021.34
920.038	7019.08
920.349	6928.24
920.66	6888.24
920.971	6873.77
921.282	6839.42
921.593	6819.09
921.903	6783.83
922.214	6770.27
922.525	6684.85
922.835	6692.99
923.146	6665.42
923.456	6670.16
923.767	6549.71
924.077	6575.7
924.387	6563.27
924.697	6504.74
925.008	6514.91
925.318	6469.26
925.628	6465.65
925.938	6429.49
926.248	6360.57
926.558	6365.09
926.867	6299.78
927.177	6343.17
927.487	6285.99
927.796	6268.82
928.106	6211.87
928.416	6219.33
928.725	6185.43
929.034	6155.6
929.344	6111.76
929.653	6123.51
929.962	6073.34
930.271	6056.39
930.581	6029.05
930.89	5936.62
931.199	5973.23
931.508	5951.54
931.817	5944.76
932.125	5928.26
932.434	5905.44
932.743	5852.78
933.051	5773.46
933.36	5782.96
933.669	5783.18
933.977	5778.89
934.286	5745.22
934.594	5745.44
934.902	5638.78
935.21	5619.34
935.519	5612.56
935.827	5588.61
936.135	5554.94
936.443	5556.29
936.751	5540.02
937.059	5538.44
937.367	5484.88
937.674	5502.28
937.982	5455.05
938.29	5368.5
938.597	5373.7
938.905	5365.79
939.213	5341.16
939.52	5302.97
939.827	5299.8
940.135	5273.82
940.442	5247.15
940.749	5204.21
941.056	5236.53
941.363	5174.16
941.67	5181.62
941.977	5129.41
942.284	5091.67
942.591	5141.84
942.898	5057.55
943.205	5032.69
943.511	4982.98
943.818	5000.6
944.125	5000.83
944.431	4984.33
944.738	4935.97
945.044	4936.42
945.35	4868.63
945.657	4864.11
945.963	4858.23
946.269	4851.91
946.575	4775.3
946.881	4784.34
947.187	4815.75
947.493	4756.54
947.799	4729.88
948.105	4690.55
948.41	4717.9
948.716	4702.08
949.022	4628.64
949.327	4593.61
949.633	4610.33
949.938	4618.24
950.244	4559.48
950.549	4541.18
950.854	4523.78
951.16	4536.66
951.465	4501.86
951.77	4525.59
952.075	4419.6
952.38	4460.73
952.685	4421.86
952.99	4389.32
953.294	4384.12
953.599	4369.66
953.904	4326.95
954.209	4279.72
954.513	4307.74
954.818	4240.62
955.122	4300.96
955.426	4280.62
955.731	4191.81
956.035	4232.04
956.339	4221.64
956.643	4184.58
956.948	4152.72
957.252	4131.25
957.556	4108.2
957.86	4099.38
958.163	4093.73
958.467	4053.06
958.771	4081.08
959.075	4072.49
959.378	3984.13
959.682	4008.76
959.985	3970.57
960.289	3966.05
960.592	3925.6
960.896	3926.51
961.199	3926.51
961.502	3978.03
961.805	3912.5
962.108	3827.07
962.411	3875.43
962.714	3823.23
963.017	3829.11
963.32	3780.07
963.623	3776.23
963.926	3784.14
964.228	3783.69
964.531	3754.31
964.833	3687.42
965.136	3727.64
965.438	3668.21
965.741	3659.4
966.043	3635.67
966.345	3646.29
966.648	3652.39
966.95	3627.31
967.252	3599.74
967.554	3558.38
967.856	3544.82
968.158	3550.47
968.46	3518.83
968.761	3517.03
969.063	3511.15
969.365	3460.3
969.666	3463.47
969.968	3453.3
970.269	3408.55
970.571	3427.31
970.872	3395.9
971.174	3392.06
971.475	3361.1
971.776	3401.32
972.077	3347.77
972.378	3321.78
972.679	3337.37
972.98	3280.87
973.281	3275.45
973.582	3275
973.883	3267.09
974.183	3257.15
974.484	3242.91
974.785	3192.06
975.085	3229.35
975.386	3211.72
975.686	3137.38
975.986	3149.8
976.287	3156.58
976.587	3142.8
976.887	3086.53
977.187	3124.27
977.487	3119.75
977.787	3082.46
978.087	3058.06
978.387	3015.8
978.687	3021.22
978.987	3051.5
979.286	3011.05
979.586	2976.02
979.885	2977.61
980.185	2990.94
980.484	2963.59
980.784	2908.45
981.083	2914.56
981.382	2901.9
981.682	2910.71
981.981	2857.61
982.28	2862.58
982.579	2816.48
982.878	2860.32
983.177	2838.63
983.475	2820.55
983.774	2839.76
984.073	2800.21
984.372	2784.84
984.67	2737.16
984.969	2759.53
985.267	2744.39
985.566	2730.83
985.864	2711.4
986.162	2733.32
986.461	2670.27
986.759	2673.88
987.057	2689.25
987.355	2634.79
987.653	2674.11
987.951	2640.89
988.249	2623.04
988.547	2625.3
988.844	2581.91
989.142	2599.76
989.44	2586.43
989.737	2556.6
990.035	2536.71
990.332	2536.49
990.63	2564.28
990.927	2536.26
991.224	2539.42
991.521	2501.01
991.819	2495.36
992.116	2477.96
992.413	2496.26
992.71	2443.38
993.006	2462.59
993.303	2371.75
993.6	2405.42
993.897	2442.93
994.193	2398.19
994.49	2390.28
994.787	2381.69
995.083	2378.98
995.379	2358.86
995.676	2335.36
995.972	2354.57
996.268	2330.16
996.565	2301.01
996.861	2274.35
997.157	2277.28
997.453	2242.48
997.749	2306.44
998.044	2244.29
998.34	2222.82
998.636	2229.38
998.932	2208.81
999.227	2188.25
999.523	2188.25
999.818	2193.45
1000.114	2163.39
1000.409	2188.02
1000.704	2130.17
1001	2143.28
1001.295	2131.07
1001.59	2111.19
1001.885	2115.26
1002.18	2060.12
1002.475	2065.31
1002.77	2056.5
1003.065	2066.22
1003.359	2069.15
1003.654	2017.4
1003.949	2026.67
1004.243	2018.31
1004.538	1992.09
1004.832	2014.92
1005.127	1989.61
1005.421	1962.49
1005.715	1944.86
1006.009	1942.38
1006.304	1947.35
1006.598	1923.4
1006.892	1908.25
1007.186	1921.14
1007.48	1911.42
1007.773	1897.18
1008.067	1913.9
1008.361	1866
1008.655	1869.16
1008.948	1851.31
1009.242	1835.26
1009.535	1834.13
1009.829	1808.82
1010.122	1794.81
1010.415	1813.79
1010.708	1777.64
1011.001	1769.73
1011.295	1793.68
1011.588	1761.82
1011.881	1744.64
1012.173	1720.01
1012.466	1732.89
1012.759	1720.24
1013.052	1726.11
1013.344	1678.66
1013.637	1696.96
1013.93	1670.97
1014.222	1693.12
1014.514	1640.47
1014.807	1634.82
1015.099	1637.75
1015.391	1615.38
1015.683	1627.81
1015.976	1631.2
1016.268	1579.45
1016.56	1595.49
1016.851	1574.93
1017.143	1554.59
1017.435	1553.01
1017.727	1524.08
1018.018	1510.3
1018.31	1539
1018.602	1522.95
1018.893	1501.71
1019.185	1482.73
1019.476	1483.86
1019.767	1478.66
1020.058	1491.54
1020.35	1466.01
1020.641	1448.38
1020.932	1479.57
1021.223	1443.41
1021.514	1431.43
1021.804	1397.99
1022.095	1417.42
1022.386	1366.8
1022.677	1395.73
1022.967	1405.22
1023.258	1379.46
1023.548	1356.63
1023.839	1319.12
1024.129	1351.89
1024.419	1320.47
1024.709	1324.09
1025	1306.69
1025.29	1298.33
1025.58	1332.9
1025.87	1299.91
1026.16	1283.41
1026.449	1267.82
1026.739	1253.81
1027.029	1259.01
1027.319	1262.4
1027.608	1230.98
1027.898	1250.19
1028.187	1264.2
1028.477	1221.72
1028.766	1191.66
1029.055	1156.41
1029.344	1210.19
1029.634	1209.74
1029.923	1178.78
1030.212	1194.6
1030.501	1157.31
1030.79	1158.22
1031.078	1125.68
1031.367	1136.98
1031.656	1123.87
1031.945	1132.23
1032.233	1114.38
1032.522	1120.25
1032.81	1099.46
1033.099	1086.81
1033.387	1106.69
1033.675	1110.76
1033.963	1060.82
1034.251	1074.83
1034.54	1071.89
1034.828	1045
1035.116	1052.68
1035.403	1051.78
1035.691	1053.14
1035.979	1034.38
1036.267	1030.54
1036.554	1026.47
1036.842	1015.4
1037.129	1015.62
1037.417	963.65
1037.704	981.5
1037.992	979.69
1038.279	958.68
1038.566	955.74
1038.853	955.74
1039.14	955.74
