Data from hue_290_FLMS001491_00049.txt Node
Date: Tue Feb 07 15:52:48 GMT 2017
User: dcchb
Spectrometer: FLMS00149
Trigger mode: 0
Integration Time (sec): 2.000000E-2
Scans to average: 10
Electric dark correction enabled: true
Nonlinearity correction enabled: false
Boxcar width: 0
XAxis mode: Wavelengths
Number of Pixels in Spectrum: 2048
>>>>>Begin Spectral Data<<<<<
341.393	8.11
341.776	8.11
342.16	8.11
342.543	-78.22
342.927	-68.28
343.31	-60.59
343.693	-91.1
344.077	-57.65
344.46	-55.62
344.843	-52.23
345.226	-37.99
345.61	-40.71
345.993	-18.78
346.376	-3.42
346.759	6.98
347.142	16.02
347.525	34.55
347.908	59.63
348.291	77.94
348.674	93.08
349.057	129.91
349.44	113.19
349.823	143.47
350.206	169.46
350.588	190.48
350.971	202
351.354	209.68
351.737	234.54
352.119	227.54
352.502	266.86
352.884	273.41
353.267	289.23
353.65	284.48
354.032	291.94
354.414	278.38
354.797	298.04
355.179	318.83
355.562	313.64
355.944	316.8
356.326	308.44
356.709	313.18
357.091	316.57
357.473	323.35
357.855	336.23
358.238	350.47
358.62	319.74
359.002	322.68
359.384	346.4
359.766	342.56
360.148	336.91
360.53	332.39
360.912	321.55
361.294	348.89
361.676	336.46
362.057	333.07
362.439	315.44
362.821	342.56
363.203	307.31
363.584	336.91
363.966	330.81
364.348	326.06
364.729	296.46
365.111	316.35
365.493	321.55
365.874	323.13
366.256	308.66
366.637	312.73
367.019	312.73
367.4	310.47
367.781	328.55
368.163	302.56
368.544	307.08
368.925	309.57
369.306	312.96
369.688	326.52
370.069	312.73
370.45	318.83
370.831	303.69
371.212	293.98
371.593	298.72
371.974	309.34
372.355	312.73
372.736	322.45
373.117	324.71
373.498	322.68
373.879	329.45
374.26	313.18
374.641	317.7
375.021	311.6
375.402	315.44
375.783	324.93
376.163	342.11
376.544	334.65
376.925	319.29
377.305	336.23
377.686	338.49
378.066	334.88
378.447	319.96
378.827	324.03
379.208	333.3
379.588	338.27
379.968	347.76
380.349	315.67
380.729	325.16
381.109	334.2
381.489	338.49
381.87	313.64
382.25	341.43
382.63	327.42
383.01	336.23
383.39	370.36
383.77	376.91
384.15	371.49
384.53	330.13
384.91	359.51
385.29	339.17
385.67	342.56
386.049	354.54
386.429	349.57
386.809	353.86
387.189	370.13
387.568	349.57
387.948	364.48
388.328	365.84
388.707	371.04
389.087	372.39
389.466	384.14
389.846	374.88
390.225	387.98
390.605	359.28
390.984	379.85
391.363	354.76
391.743	386.4
392.122	377.14
392.501	374.2
392.881	395.44
393.26	390.7
393.639	383.92
394.018	400.64
394.397	386.4
394.776	379.17
395.155	387.76
395.534	387.08
395.913	399.06
396.292	395.22
396.671	420.53
397.05	419.17
397.429	402.9
397.808	413.29
398.186	393.86
398.565	433.63
398.944	420.75
399.323	410.81
399.701	425.95
400.08	420.75
400.458	447.42
400.837	425.72
401.215	418.94
401.594	436.12
401.972	413.29
402.351	420.53
402.729	449
403.107	440.41
403.486	440.41
403.864	459.85
404.242	436.12
404.62	458.49
404.999	446.06
405.377	463.91
405.755	473.18
406.133	460.52
406.511	462.33
406.889	478.6
407.267	468.89
407.645	497.81
408.023	491.71
408.401	503.91
408.779	490.35
409.156	500.52
409.534	514.76
409.912	539.17
410.29	536.68
410.667	539.84
411.045	544.82
411.422	546.85
411.8	553.63
412.178	564.93
412.555	591.82
412.933	575.32
413.31	591.82
413.687	609.9
414.065	586.85
414.442	630.46
414.819	627.07
415.197	632.27
415.574	658.71
415.951	657.36
416.328	648.54
416.705	648.32
417.082	657.81
417.46	659.16
417.837	684.25
418.214	702.33
418.591	678.37
418.967	719.27
419.344	722.89
419.721	740.52
420.098	725.6
420.475	732.38
420.852	759.95
421.228	756.56
421.605	753.17
421.982	763.79
422.358	798.37
422.735	787.97
423.111	798.59
423.488	824.13
423.864	811.93
424.241	829.33
424.617	837.46
424.994	839.72
425.37	888.54
425.746	851.25
426.123	852.15
426.499	895.99
426.875	906.84
427.251	900.06
427.627	892.83
428.003	916.33
428.379	923.34
428.756	947.29
429.132	954.07
429.507	974.18
429.883	983
430.259	996.78
430.635	1010.79
431.011	1017.8
431.387	1038.14
431.763	1044.92
432.138	1095.99
432.514	1065.25
432.89	1101.64
433.265	1118.81
433.641	1130.34
434.016	1116.55
434.392	1144.57
434.767	1196.55
435.143	1168.3
435.518	1180.05
435.894	1206.72
436.269	1208.08
436.644	1224.57
437.02	1227.74
437.395	1243.55
437.77	1259.37
438.145	1268.19
438.52	1314.97
438.895	1302.54
439.271	1321.07
439.646	1349.77
440.021	1337.56
440.395	1354.51
440.77	1345.02
441.145	1370.11
441.52	1378.69
441.895	1397.9
442.27	1401.52
442.645	1402.87
443.019	1419.37
443.394	1398.58
443.769	1433.38
444.143	1448.3
444.518	1463.44
444.892	1460.05
445.267	1445.58
445.641	1477.67
446.016	1463.89
446.39	1485.81
446.764	1515.86
447.139	1482.64
447.513	1513.6
447.887	1522.64
448.262	1507.5
448.636	1542.08
449.01	1541.85
449.384	1539.37
449.758	1551.34
450.132	1570.55
450.506	1575.75
450.88	1577.11
451.254	1574.39
451.628	1591.57
452.002	1608.74
452.376	1629.76
452.75	1642.64
453.123	1626.6
453.497	1691.68
453.871	1659.36
454.244	1699.59
454.618	1678.57
454.992	1740.72
455.365	1702.3
455.739	1753.82
456.112	1762.64
456.486	1764.45
456.859	1817.78
457.232	1808.06
457.606	1808.06
457.979	1841.51
458.352	1855.06
458.725	1856.42
459.099	1890.54
459.472	1883.99
459.845	1898.68
460.218	1947.04
460.591	1918.79
460.964	1941.62
461.337	1982.52
461.71	2005.79
462.083	2041.5
462.456	2020.94
462.829	2042.4
463.201	2041.5
463.574	2033.82
463.947	2072.46
464.32	2133.47
464.692	2143.42
465.065	2152.91
465.438	2174.6
465.81	2213.92
466.183	2231.55
466.555	2257.54
466.928	2264.77
467.3	2265.45
467.672	2296.86
468.045	2313.36
468.417	2383.64
468.789	2360.59
469.161	2355.16
469.534	2411.43
469.906	2437.2
470.278	2456.86
470.65	2477.65
471.022	2538.66
471.394	2541.83
471.766	2569.17
472.138	2545.22
472.51	2646.46
472.882	2660.47
473.253	2654.37
473.625	2700.47
473.997	2719.45
474.369	2743.4
474.74	2740.01
475.112	2800.58
475.484	2844.19
475.855	2902.49
476.227	2914.47
476.598	2938.43
476.97	2974.81
477.341	2985.88
477.713	3046.9
478.084	3054.13
478.455	3164.18
478.827	3164.41
479.198	3224.52
479.569	3244.18
479.94	3305.87
480.311	3317.17
480.682	3354.69
481.053	3430.84
481.424	3420.22
481.795	3510.16
482.166	3508.35
482.537	3508.13
482.908	3619.09
483.279	3641.23
483.65	3674
484.021	3711.74
484.391	3769.82
484.762	3781.79
485.133	3864.73
485.503	3839.87
485.874	3936.14
486.244	3939.53
486.615	4043.03
486.985	4070.37
487.356	4078.96
487.726	4141.33
488.097	4181.1
488.467	4193.31
488.837	4260.42
489.207	4314.66
489.578	4380.87
489.948	4384.49
490.318	4421.32
490.688	4425.39
491.058	4476.69
491.428	4550.81
491.798	4531.38
492.168	4582.9
492.538	4661.32
492.908	4743.58
493.278	4764.37
493.648	4732.05
494.017	4824.03
494.387	4840.75
494.757	4869.67
495.126	4864.93
495.496	4915.77
495.866	4967.75
496.235	4989.67
496.605	4995.09
496.974	5002.55
497.344	5025.6
497.713	5081.87
498.082	5088.88
498.452	5160.51
498.821	5152.6
499.19	5193.06
499.559	5194.64
499.928	5222.66
500.298	5247.29
500.667	5332.94
501.036	5257.46
501.405	5339.72
501.774	5388.98
502.143	5373.39
502.512	5396.44
502.88	5440.05
503.249	5443.22
503.618	5482.31
503.987	5438.02
504.356	5520.28
504.724	5544.46
505.093	5567.28
505.462	5553.5
505.83	5579.03
506.199	5584.01
506.567	5664.68
506.936	5594.17
507.304	5700.84
507.672	5747.84
508.041	5714.17
508.409	5762.08
508.777	5731.8
509.145	5841.17
509.514	5823.32
509.882	5806.82
510.25	5833.72
510.618	5871.23
510.986	5858.8
511.354	5899.25
511.722	5957.78
512.09	5982.87
512.458	5958.01
512.826	6058.34
513.193	6015.63
513.561	6048.4
513.929	6147.38
514.297	6142.64
514.664	6183.76
515.032	6135.18
515.4	6215.18
515.767	6181.96
516.135	6223.76
516.502	6191.22
516.869	6317.32
517.237	6300.82
517.604	6245.91
517.972	6309.41
518.339	6390.54
518.706	6314.83
519.073	6366.81
519.44	6396.64
519.808	6482.29
520.175	6423.98
520.542	6490.2
520.909	6530.65
521.276	6475.06
521.643	6532.23
522.009	6559.35
522.376	6694.94
522.743	6631.44
523.11	6703.07
523.477	6681.6
523.843	6727.93
524.21	6843.63
524.577	6816.06
524.943	6862.84
525.31	6915.72
525.676	6957.98
526.043	6947.81
526.409	6946
526.776	7011.54
527.142	7084.08
527.508	7053.57
527.874	7072.55
528.241	7136.73
528.607	7174.92
528.973	7165.43
529.339	7155.94
529.705	7271.19
530.071	7288.59
530.437	7283.17
530.803	7400.23
531.169	7412.66
531.535	7405.2
531.901	7451.75
532.267	7452.88
532.632	7457.18
532.998	7463.05
533.364	7538.98
533.73	7496.27
534.095	7646.78
534.461	7597.06
534.826	7660.56
535.192	7689.94
535.557	7714.12
535.923	7740.33
536.288	7745.98
536.653	7858.97
537.019	7745.53
537.384	7814.23
537.749	7821.69
538.114	7893.78
538.479	7901.91
538.845	7876.6
539.21	7875.7
539.575	7963.15
539.94	7901.68
540.305	7985.3
540.67	7985.3
541.034	8014.22
541.399	8010.38
541.764	8064.17
542.129	8121.57
542.494	8186.2
542.858	8122.92
543.223	8131.96
543.587	8241.11
543.952	8222.81
544.316	8288.57
544.681	8230.04
545.045	8278.85
545.41	8359.98
545.774	8275.23
546.138	8293.54
546.503	8383.48
546.867	8343.93
547.231	8396.59
547.595	8427.09
547.959	8491.27
548.324	8467.32
548.688	8505.51
549.052	8438.17
549.416	8549.58
549.779	8549.13
550.143	8569.92
550.507	8631.16
550.871	8543.93
551.235	8609.01
551.599	8657.15
551.962	8675.9
552.326	8691.49
552.689	8738.05
553.053	8691.72
553.417	8711.16
553.78	8832.28
554.143	8774.66
554.507	8757.71
554.87	8847.2
555.234	8901.43
555.597	8837.93
555.96	8917.25
556.323	8937.36
556.686	8950.47
557.05	8973.97
557.413	9045.16
557.776	9045.84
558.139	9005.61
558.502	9053.52
558.865	9044.93
559.228	9028.66
559.59	9049.45
559.953	9146.4
560.316	9235.21
560.679	9231.37
561.041	9293.29
561.404	9251.48
561.767	9316.11
562.129	9321.99
562.492	9375.54
562.854	9427.52
563.217	9363.12
563.579	9430.46
563.941	9460.97
564.304	9496.45
564.666	9571.25
565.028	9632.94
565.39	9575.99
565.753	9611.92
566.115	9629.1
566.477	9681.75
566.839	9707.29
567.201	9743.9
567.563	9784.57
567.925	9892.37
568.287	9806.27
568.648	9910.45
569.01	9919.71
569.372	9947.28
569.734	10030.67
570.095	10072.7
570.457	10081.29
570.819	10109.31
571.18	10166.03
571.542	10210.55
571.903	10188.63
572.265	10196.31
572.626	10217.33
572.987	10281.51
573.349	10401.96
573.71	10402.41
574.071	10423.88
574.432	10424.1
574.794	10515.4
575.155	10558.34
575.516	10584.33
575.877	10695.06
576.238	10759.46
576.599	10705
576.96	10829.29
577.32	10887.82
577.681	10872.91
578.042	10928.72
578.403	10977.08
578.763	11053.24
579.124	11131.66
579.485	11187.47
579.845	11297.53
580.206	11366
580.566	11359.22
580.927	11509.95
581.287	11629.5
581.648	11598.08
582.008	11799.44
582.368	11797.18
582.728	11882.15
583.089	11963.72
583.449	12057.28
583.809	12223.61
584.169	12356.71
584.529	12389.25
584.889	12489.13
585.249	12607.55
585.609	12663.82
585.969	12794.66
586.329	12902.01
586.688	13026.97
587.048	13166.18
587.408	13205.27
587.768	13266.29
588.127	13485.49
588.487	13557.13
588.846	13830.12
589.206	13817.46
589.565	13990.79
589.925	14167.96
590.284	14321.86
590.643	14486.14
591.003	14636.2
591.362	14713.03
591.721	14904.66
592.08	14985.11
592.44	15226.92
592.799	15319.12
593.158	15336.52
593.517	15531.99
593.876	15702.16
594.235	15871.42
594.593	15893.11
594.952	16185.31
595.311	16171.75
595.67	16366.77
596.029	16617.16
596.387	16636.6
596.746	16844.05
597.104	16851.28
597.463	17133.31
597.822	17253.08
598.18	17278.61
598.538	17351.83
598.897	17549.79
599.255	17536.91
599.613	17956.11
599.972	17905.04
600.33	18089.44
600.688	18137.8
601.046	18280.85
601.404	18499.37
601.762	18401.97
602.12	18677.22
602.478	18704.56
602.836	18895.75
603.194	18881.51
603.552	19003.31
603.91	18984.56
604.268	19193.37
604.625	19273.59
604.983	19428.61
605.341	19510.42
605.698	19612.11
606.056	19668.38
606.413	19704.99
606.771	19877.64
607.128	19968.03
607.485	20002.61
607.843	20056.39
608.2	20124.41
608.557	20345.65
608.914	20417.74
609.272	20574.8
609.629	20602.14
609.986	20808.92
610.343	20678.75
610.7	20977.27
611.057	20993.77
611.414	20944.05
611.771	21064.95
612.127	21184.5
612.484	21179.08
612.841	21293.65
613.198	21279.64
613.554	21403.25
613.911	21522.8
614.267	21596.92
614.624	21552.17
614.98	21752.17
615.337	21866.29
615.693	21809.79
616.05	21857.02
616.406	22006.62
616.762	21942.22
617.118	22118.94
617.475	22114.87
617.831	22187.18
618.187	22250.23
618.543	22309.44
618.899	22461.75
619.255	22372.72
619.611	22343.34
619.967	22403.9
620.323	22525.93
620.678	22481.19
621.034	22479.15
621.39	22559.83
621.746	22638.92
622.101	22923.66
622.457	22634.63
622.812	22739.94
623.168	22901.06
623.523	22815.19
623.879	22925.47
624.234	22685.7
624.589	22893.83
624.945	22891.35
625.3	22940.61
625.655	22963.89
626.01	23013.38
626.365	22966.83
626.72	23023.77
627.075	23028.97
627.43	22993.27
627.785	22990.1
628.14	22908.3
628.495	23067.39
628.85	23010.21
629.205	22929.99
629.559	23151.91
629.914	22951.46
630.269	23100.61
630.623	22953.72
630.978	23062.87
631.332	23087.05
631.687	23137.67
632.041	22970.44
632.396	23128.4
632.75	22921.18
633.104	23035.3
633.459	22991.01
633.813	22991.91
634.167	22979.25
634.521	22951.91
634.875	22989.42
635.229	22942.42
635.583	22947.39
635.937	22924.57
636.291	22841.41
636.645	22935.19
636.999	22826.04
637.352	22966.15
637.706	22798.02
638.06	22948.75
638.413	22796.43
638.767	22792.37
639.121	22871.23
639.474	22822.87
639.828	22803.67
640.181	22815.87
640.534	22706.72
640.888	22704.69
641.241	22554.86
641.594	22711.92
641.947	22788.53
642.301	22748.98
642.654	22682.99
643.007	22678.47
643.36	22680.05
643.713	22713.27
644.066	22637.79
644.419	22598.7
644.771	22533.62
645.124	22252.04
645.477	22199.84
645.83	22004.14
646.182	21941.77
646.535	21906.97
646.888	22114.87
647.24	21873.52
647.593	22001.2
647.945	21848.21
648.298	21928.43
648.65	21849.79
649.002	21785.84
649.355	21964.37
649.707	21918.72
650.059	22004.59
650.411	22299.05
650.763	22227.86
651.115	22550.11
651.467	22359.61
651.819	22440.96
652.171	22464.47
652.523	22436.67
652.875	22376.56
653.227	22241.87
653.578	22440.29
653.93	22518.93
654.282	22332.94
654.633	22322.1
654.985	22337.46
655.337	22401.42
655.688	22370.91
656.039	22413.62
656.391	22258.37
656.742	22388.99
657.094	22356.22
657.445	22447.52
657.796	22351.47
658.147	22390.12
658.498	22398.48
658.849	22458.59
659.2	22422.43
659.551	22371.59
659.902	22555.99
660.253	22435.77
660.604	22497.23
660.955	22382.89
661.306	22464.92
661.656	22426.95
662.007	22444.35
662.358	22447.52
662.708	22470.57
663.059	22485.03
663.409	22420.63
663.76	22530.23
664.11	22445.26
664.461	22409.78
664.811	22553.5
665.161	22522.54
665.511	22373.17
665.862	22418.82
666.212	22563.22
666.562	22498.36
666.912	22521.64
667.262	22447.52
667.612	22445.26
667.962	22433.51
668.312	22495.2
668.662	22499.27
669.011	22516.67
669.361	22488.19
669.711	22529.55
670.06	22378.37
670.41	22404.13
670.76	22346.05
671.109	22449.32
671.459	22492.94
671.808	22313.96
672.157	22388.54
672.507	22273.96
672.856	22264.7
673.205	22334.3
673.554	22363.68
673.904	22211.37
674.253	22440.51
674.602	22234.19
674.951	21969.11
675.3	21937.7
675.649	22331.59
675.998	22221.08
676.346	22162.33
676.695	22210.01
677.044	22003.24
677.393	22134.53
677.741	22243.45
678.09	22113.74
678.438	22097.47
678.787	22174.3
679.135	21993.29
679.484	21877.81
679.832	22010.92
680.181	21822.9
680.529	21900.41
680.877	21877.81
681.225	21739.74
681.573	22017.92
681.922	21789.68
682.27	21802.56
682.618	21717.82
682.966	21779.51
683.314	21765.95
683.661	21653.87
684.009	21511.72
684.357	21604.83
684.705	21562.79
685.053	21612.74
685.4	21412.29
685.748	21317.6
686.095	21338.17
686.443	21249.58
686.79	21223.59
687.138	21193.99
687.485	21193.31
687.832	21091.39
688.18	21169.13
688.527	20975.47
688.874	21027.67
689.221	20876.26
689.568	20853.21
689.915	20826.54
690.262	20784.06
690.609	20679.43
690.956	20671.52
691.303	20531.18
691.65	20476.5
691.997	20522.14
692.344	20366.67
692.69	20330.51
693.037	20264.3
693.383	20147.92
693.73	20171.87
694.077	20162.61
694.423	19975.49
694.769	20029.73
695.116	20031.76
695.462	19877.64
695.808	19913.57
696.155	19857.98
696.501	19734.59
696.847	19736.4
697.193	19468.61
697.539	19680.81
697.885	19510.87
698.231	19336.19
698.577	19397.88
698.923	19303.64
699.269	19160.15
699.614	19120.6
699.96	19060.71
700.306	19026.36
700.651	19044.67
700.997	18910.21
701.342	18863.66
701.688	18797.22
702.033	18751.34
702.379	18764.9
702.724	18792.47
703.069	18682.19
703.415	18549.54
703.76	18396.55
704.105	18516.77
704.45	18409.88
704.795	18292.6
705.14	18187.06
705.485	18143.22
705.83	18146.39
706.175	18078.14
706.52	18032.72
706.865	17902.55
707.209	17988.88
707.554	17891.7
707.899	17928.54
708.243	17800.63
708.588	17799.28
708.932	17665.95
709.277	17669.79
709.621	17739.84
709.966	17416.24
710.31	17543.69
710.654	17378.95
710.998	17351.61
711.342	17411.94
711.687	17397.03
712.031	17267.77
712.375	17227.99
712.719	17232.74
713.063	17203.59
713.407	17186.64
713.75	17174.66
714.094	17157.71
714.438	16972.86
714.782	17059.18
715.125	16884.95
715.469	16954.78
715.812	16916.82
716.156	16738.29
716.499	16842.92
716.843	16915.01
717.186	16820.09
717.53	16875.69
717.873	16809.02
718.216	16802.92
718.559	16680.21
718.902	16638.4
719.246	16578.97
719.589	16550.72
719.932	16484.51
720.275	16507.33
720.617	16540.55
720.96	16421.01
721.303	16553.43
721.646	16465.75
721.989	16337.17
722.331	16495.13
722.674	16371.74
723.016	16509.82
723.359	16383.72
723.701	16342.37
724.044	16308.02
724.386	16223.27
724.729	16380.11
725.071	16252.43
725.413	16251.07
725.755	16215.59
726.097	16129.49
726.439	16035.93
726.782	16068.93
727.124	16191.41
727.465	16053.56
727.807	16091.07
728.149	16014.69
728.491	15993
728.833	15996.39
729.175	16053.56
729.516	15937.86
729.858	16035.26
730.199	16013.56
730.541	16001.81
730.882	15978.08
731.224	16001.36
731.565	15974.47
731.906	15957.97
732.248	15975.82
732.589	15915.94
732.93	15836.17
733.271	15855.37
733.612	15889.27
733.953	15879.33
734.294	15856.96
734.635	15845.88
734.976	15775.38
735.317	15814.25
735.658	15845.88
735.999	15807.47
736.339	15715.49
736.68	15829.16
737.021	15726.11
737.361	15659.67
737.702	15865.09
738.042	15732.67
738.383	15856.96
738.723	15793.45
739.063	15794.13
739.404	15855.6
739.744	15755.72
740.084	15811.31
740.424	15820.35
740.764	15824.41
741.104	15835.49
741.444	15896.28
741.784	15857.41
742.124	15862.15
742.464	15902.83
742.804	15867.8
743.143	15822.38
743.483	15941.25
743.823	15838.43
744.162	15869.84
744.502	15897.41
744.841	15939.21
745.181	16014.24
745.52	15965.88
745.86	16048.14
746.199	15998.87
746.538	16150.51
746.877	16241.35
747.216	16198.19
747.556	16240.9
747.895	16282.93
748.234	16268.02
748.573	16371.29
748.911	16464.17
749.25	16457.39
749.589	16571.74
749.928	16612.64
750.267	16703.26
750.605	16764.73
750.944	16811.73
751.283	16836.14
751.621	17000.65
751.96	16935.57
752.298	17079.3
752.636	17260.76
752.975	17259.86
753.313	17330.59
753.651	17510.92
753.989	17569
754.327	17505.27
754.666	17633.41
755.004	17741.88
755.342	17966.5
755.679	17885.38
756.017	18091.93
756.355	18208.31
756.693	18255.76
757.031	18460.28
757.368	18405.59
757.706	18548.18
758.044	18674.73
758.381	18766.71
758.719	18879.48
759.056	18982.52
759.394	19115.4
759.731	19198.11
760.068	19148.17
760.405	19328.05
760.743	19363.53
761.08	19591.55
761.417	19527.59
761.754	19718.1
762.091	19869.73
762.428	19939.56
762.765	19883.06
763.102	20116.73
763.438	20081.48
763.775	20164.87
764.112	20407.34
764.449	20395.37
764.785	20465.65
765.122	20442.82
765.458	20569.15
765.795	20540.45
766.131	20656.15
766.467	20627.68
766.804	20717.85
767.14	20741.12
767.476	20836.71
767.812	20795.13
768.148	20985.18
768.485	20982.02
768.821	20802.36
769.157	21059.08
769.492	21060.89
769.828	21129.13
770.164	20959.87
770.5	21050.49
770.836	21143.82
771.171	21089.81
771.507	21118.06
771.842	21003.94
772.178	21128.68
772.513	21097.95
772.849	21117.83
773.184	21051.85
773.519	21148.34
773.855	21135.46
774.19	21049.59
774.525	21004.62
774.86	21125.52
775.195	21119.42
775.53	21085.52
775.865	21010.72
776.2	20879.42
776.535	20813.66
776.87	20885.52
777.205	20834.68
777.539	20806.43
777.874	20914.22
778.209	20712.87
778.543	20763.04
778.878	20628.81
779.212	20590.84
779.547	20627.68
779.881	20677.17
780.215	20544.97
780.55	20554.91
780.884	20556.49
781.218	20429.72
781.552	20468.13
781.886	20282.38
782.22	20260.68
782.554	20149.72
782.888	20081.7
783.222	20017.98
783.556	20002.61
783.889	20104.53
784.223	19984.98
784.557	19965.55
784.89	19926.68
785.224	19804.42
785.557	19792.67
785.891	19729.62
786.224	19707.25
786.558	19790.19
786.891	19549.97
787.224	19456.64
787.557	19355.62
787.891	19463.41
788.224	19356.3
788.557	19328.28
788.89	19324.21
789.223	19427.03
789.556	19175.51
789.888	19098
790.221	19141.62
790.554	18943.2
790.887	18841.74
791.219	18937.55
791.552	18863.2
791.884	18849.65
792.217	18861.17
792.549	18697.11
792.882	18549.77
793.214	18518.35
793.546	18512.93
793.879	18380.28
794.211	18306.61
794.543	18357.68
794.875	18356.33
795.207	18325.59
795.539	18272.03
795.871	18282.65
796.203	18107.52
796.535	17945.94
796.867	17971.48
797.198	17867.3
797.53	17848.77
797.862	17820.07
798.193	17773.52
798.525	17727.19
798.856	17674.99
799.188	17521.09
799.519	17509.12
799.85	17404.03
800.182	17511.15
800.513	17415.33
800.844	17366.07
801.175	17388.89
801.506	17376.01
801.837	17209.69
802.168	17224.38
802.499	17199.97
802.83	17118.84
803.161	17102.35
803.491	17030.26
803.822	16995.91
804.153	16921.79
804.483	16847.21
804.814	16819.87
805.145	16823.94
805.475	16775.35
805.805	16759.31
806.136	16770.15
806.466	16698.52
806.796	16583.72
807.126	16446.77
807.457	16409.48
807.787	16447.67
808.117	16346.66
808.447	16298.98
808.777	16353.44
809.107	16228.7
809.436	16195.7
809.766	16126.78
810.096	16176.72
810.426	16129.27
810.755	16076.61
811.085	15936.28
811.414	16003.84
811.744	15906.45
812.073	15917.07
812.403	15884.53
812.732	15823.28
813.061	15818.31
813.39	15685.44
813.719	15646.57
814.049	15750.74
814.378	15632.33
814.707	15656.28
815.036	15664.19
815.365	15477.3
815.693	15317.76
816.022	15433.01
816.351	15391.21
816.68	15233.7
817.008	15369.74
817.337	15215.39
817.665	15172.45
817.994	15304.43
818.322	15119.57
818.651	15042.97
818.979	15029.41
819.307	15128.39
819.636	15068.95
819.964	14985.79
820.292	15004.1
820.62	15028.05
820.948	14952.35
821.276	14989.63
821.604	14914.61
821.932	15011.33
822.259	14958.9
822.587	14791
822.915	14918.9
823.243	14902.86
823.57	14896.53
823.898	14855.63
824.225	14896.3
824.553	14853.37
824.88	14947.6
825.207	14907.83
825.535	14870.54
825.862	14919.13
826.189	14869.41
826.516	14888.39
826.843	14986.92
827.17	14897.89
827.497	14933.82
827.824	14898.79
828.151	14915.74
828.478	14915.74
828.805	15033.7
829.131	14796.64
829.458	14807.72
829.785	14779.47
830.111	14798.45
830.438	14799.13
830.764	14928.17
831.09	14848.85
831.417	14788.06
831.743	14844.55
832.069	14806.14
832.395	14800.26
832.722	14770.66
833.048	14794.61
833.374	14768.85
833.7	14701.28
834.026	14668.96
834.351	14619.25
834.677	14681.39
835.003	14693.82
835.329	14675.97
835.654	14614.73
835.98	14638
836.306	14623.09
836.631	14557.78
836.956	14594.62
837.282	14574.05
837.607	14571.34
837.932	14493.15
838.258	14472.59
838.583	14441.4
838.908	14405.02
839.233	14389.42
839.558	14377.9
839.883	14381.29
840.208	14310.78
840.533	14258.35
840.858	14217.23
841.182	14325.92
841.507	14330.89
841.832	14179.03
842.156	14205.25
842.481	14141.75
842.805	14162.54
843.13	14060.39
843.454	14063.78
843.778	13992.37
844.103	13987.4
844.427	13906.72
844.751	13909.66
845.075	13945.14
845.399	13890.91
845.723	13863.34
846.047	13891.13
846.371	13727.52
846.695	13707.86
847.019	13622.44
847.343	13531.82
847.666	13444.82
847.99	13489.33
848.313	13306.97
848.637	13235.56
848.96	13276.68
849.284	13238.04
849.607	13121.66
849.931	13109.46
850.254	13074.2
850.577	13018.61
850.9	12884.38
851.223	12878.96
851.546	12829.69
851.869	12733.65
852.192	12827.88
852.515	12692.97
852.838	12732.07
853.161	12621.79
853.483	12608.23
853.806	12550.15
854.129	12433.32
854.451	12421.34
854.774	12437.16
855.096	12351.51
855.419	12328.01
855.741	12343.15
856.063	12272.87
856.385	12258.41
856.708	12187.22
857.03	12087.79
857.352	12141.8
857.674	12051.63
857.996	11947.68
858.318	11986.55
858.64	11894.8
858.961	11965.53
859.283	11913.78
859.605	11871.07
859.926	11796.95
860.248	11831.53
860.57	11702.04
860.891	11742.26
861.212	11659.33
861.534	11628.82
861.855	11581.59
862.176	11661.13
862.498	11641.93
862.819	11534.58
863.14	11448.26
863.461	11566.22
863.782	11482.16
864.103	11504.08
864.424	11448.26
864.745	11454.59
865.065	11412.55
865.386	11323.29
865.707	11312.67
866.027	11408.26
866.348	11395.83
866.668	11300.69
866.989	11285.1
867.309	11179.34
867.63	11225.44
867.95	11231.31
868.27	11184.31
868.59	11107.48
868.91	11156.06
869.23	11183.41
869.55	11085.33
869.87	11141.37
870.19	11101.15
870.51	11113.58
870.83	11053.24
871.15	10960.36
871.469	10910.42
871.789	11060.92
872.109	10965.79
872.428	10879.46
872.748	10986.35
873.067	10879.01
873.386	10927.37
873.706	10873.58
874.025	10865.45
874.344	10847.6
874.663	10842.4
874.982	10806.92
875.301	10792.46
875.62	10734.15
875.939	10775.06
876.258	10830.42
876.577	10663.65
876.896	10741.61
877.214	10700.71
877.533	10689.18
877.852	10719.24
878.17	10665.68
878.489	10615.06
878.807	10632.46
879.125	10585
879.444	10592.91
879.762	10544.33
880.08	10518.57
880.398	10520.37
880.716	10536.87
881.034	10460.26
881.352	10434.73
881.67	10348.63
881.988	10469.08
882.306	10359.47
882.624	10324.9
882.941	10328.51
883.259	10297.55
883.577	10288.51
883.894	10277.22
884.212	10234.73
884.529	10259.81
884.846	10186.14
885.164	10160.83
885.481	10113.15
885.798	10068.41
886.115	10049.2
886.432	10073.38
886.75	10066.6
887.067	10002.87
887.383	9979.6
887.7	10008.52
888.017	9944.57
888.334	9899.6
888.651	9935.3
888.967	9937.56
889.284	9754.52
889.6	9807.85
889.917	9743.44
890.233	9804.46
890.55	9668.64
890.866	9713.39
891.182	9718.59
891.498	9641.98
891.815	9599.49
892.131	9591.36
892.447	9538.93
892.763	9544.35
893.079	9515.2
893.395	9445.15
893.71	9429.78
894.026	9477.91
894.342	9387.97
894.657	9326.05
894.973	9389.1
895.289	9301.87
895.604	9260.29
895.92	9167.87
896.235	9150.92
896.55	9142.78
896.865	9159.28
897.181	9125.38
897.496	9100.75
897.811	9052.62
898.126	8991.83
898.441	8944.82
898.756	9004.03
899.071	8905.73
899.386	8882.45
899.7	8826.41
900.015	8794.09
900.33	8779.63
900.644	8702.34
900.959	8744.37
901.273	8678.39
901.588	8695.56
901.902	8631.38
902.216	8557.71
902.531	8546.87
902.845	8543.25
903.159	8523.14
903.473	8512.74
903.787	8447.21
904.101	8390.49
904.415	8391.16
904.729	8317.04
905.042	8272.07
905.356	8315.23
905.67	8287.89
905.984	8214.67
906.297	8247.44
906.611	8168.8
906.924	8157.5
907.237	8178.51
907.551	8070.04
907.864	8001.57
908.177	7998.41
908.491	8005.64
908.804	7947.79
909.117	7904.85
909.43	7857.84
909.743	7843.38
910.056	7808.81
910.368	7819.65
910.681	7792.08
910.994	7713.89
911.307	7652.2
911.619	7682.03
911.932	7656.27
912.244	7568.59
912.557	7574.69
912.869	7556.84
913.181	7499.44
913.494	7483.84
913.806	7479.32
914.118	7440
914.43	7341.47
914.742	7300.12
915.054	7322.04
915.366	7313.45
915.678	7250.4
915.99	7272.55
916.302	7196.62
916.613	7169.95
916.925	7115.94
917.236	7120.91
917.548	7083.85
917.859	7081.37
918.171	6991.65
918.482	6969.05
918.794	6923.86
919.105	6937.64
919.416	6883.63
919.727	6842.28
920.038	6855.38
920.349	6810.64
920.66	6723.64
920.971	6812.22
921.282	6754.6
921.593	6704.65
921.903	6697.65
922.214	6660.14
922.525	6637.54
922.835	6610.19
923.146	6562.29
923.456	6558.9
923.767	6475.06
924.077	6511.21
924.387	6467.37
924.697	6391.89
925.008	6416.53
925.318	6482.97
925.628	6379.24
925.938	6334.95
926.248	6262.86
926.558	6275.74
926.867	6262.86
927.177	6202.07
927.487	6176.76
927.796	6136.08
928.106	6129.53
928.416	6109.64
928.725	6043.43
929.034	6073.48
929.344	6041.17
929.653	5988.74
929.962	5971.57
930.271	5956.88
930.581	5926.14
930.89	5956.43
931.199	5818.8
931.508	5849.76
931.817	5843.21
932.125	5839.59
932.434	5830.78
932.743	5716.21
933.051	5736.77
933.36	5697
933.669	5679.14
933.977	5671.91
934.286	5623.78
934.594	5616.32
934.902	5592.82
935.21	5549.88
935.519	5529.32
935.827	5542.88
936.135	5512.82
936.443	5455.65
936.751	5492.03
937.059	5387.17
937.367	5412.48
937.674	5330.23
937.982	5321.19
938.29	5351.7
938.597	5308.08
938.905	5255.43
939.213	5297.01
939.52	5199.84
939.827	5192.83
940.135	5136.11
940.442	5167.75
940.749	5151.7
941.056	5154.19
941.363	5015.89
941.67	5064.25
941.977	5034.19
942.284	5023.34
942.591	5028.77
942.898	5001.42
943.205	4960.29
943.511	4956.45
943.818	4890.24
944.125	4910.8
944.431	4906.96
944.738	4905.15
945.044	4843.91
945.35	4824.25
945.657	4813.18
945.963	4751.03
946.269	4742.22
946.575	4735.44
946.881	4713.97
947.187	4730.24
947.493	4698.15
947.799	4602.34
948.105	4694.09
948.41	4599.85
948.716	4591.26
949.022	4611.15
949.327	4579.06
949.633	4533.86
949.938	4541.55
950.244	4472.62
950.549	4474.88
950.854	4500.42
951.16	4482.79
951.465	4454.54
951.77	4412.96
952.075	4422.91
952.38	4375.68
952.685	4320.54
952.99	4316.92
953.294	4357.82
953.599	4231.27
953.904	4255
954.209	4222.46
954.513	4245.74
954.818	4214.1
955.122	4236.02
955.426	4176.36
955.731	4166.42
956.035	4165.29
956.339	4135
956.643	4140.43
956.948	4075.12
957.252	4043.93
957.556	4087.55
957.86	4086.42
958.163	4026.98
958.467	3991.51
958.771	3976.14
959.075	3941.79
959.378	3937.72
959.682	3952.18
959.985	3932.3
960.289	3881.23
960.592	3899.98
960.896	3860.89
961.199	3850.27
961.502	3846.42
961.805	3811.85
962.108	3773.21
962.411	3752.87
962.714	3742.02
963.017	3750.61
963.32	3774.11
963.623	3740.21
963.926	3755.13
964.228	3669.03
964.531	3671.74
964.833	3656.15
965.136	3654.79
965.438	3622.02
965.741	3587.45
966.043	3565.53
966.345	3556.04
966.648	3557.39
966.95	3565.98
967.252	3497.05
967.554	3551.06
967.856	3511.07
968.158	3457.73
968.46	3476.26
968.761	3432.42
969.063	3462.03
969.365	3426.1
969.666	3429.94
969.968	3417.28
970.269	3363.05
970.571	3388.81
970.872	3331.18
971.174	3327.57
971.475	3300.68
971.776	3294.57
972.077	3268.13
972.378	3270.85
972.679	3254.8
972.98	3274.46
973.281	3273.78
973.582	3220.23
973.883	3230.85
974.183	3168.25
974.484	3162.15
974.785	3170.96
975.085	3177.06
975.386	3152.43
975.686	3095.26
975.986	3099.55
976.287	3107.46
976.587	3061.59
976.887	3087.57
977.187	3051.64
977.487	3028.37
977.787	3017.07
978.087	3020.01
978.387	2991.98
978.687	2988.14
978.987	2972.1
979.286	2921.02
979.586	2963.06
979.885	2895.49
980.185	2898.2
980.484	2880.12
980.784	2875.6
981.083	2881.93
981.382	2829.95
981.682	2851.65
981.981	2853
982.28	2801.93
982.579	2835.83
982.878	2830.41
983.177	2781.59
983.475	2774.36
983.774	2750.86
984.073	2767.58
984.372	2729.84
984.67	2728.94
984.969	2733.23
985.267	2722.61
985.566	2691.88
985.864	2662.95
986.162	2637.87
986.461	2626.12
986.759	2673.57
987.057	2603.52
987.355	2618.21
987.653	2595.16
987.951	2595.61
988.249	2561.71
988.547	2607.81
988.844	2545.89
989.142	2536.85
989.44	2544.99
989.737	2502.5
990.035	2496.63
990.332	2502.96
990.63	2469.06
990.927	2489.62
991.224	2477.87
991.521	2465.44
991.819	2473.13
992.116	2458.21
992.413	2430.87
992.71	2415.5
993.006	2403.3
993.303	2401.49
993.6	2365.56
993.897	2379.8
994.193	2371.66
994.49	2346.35
994.787	2320.36
995.083	2281.04
995.379	2309.06
995.676	2286.47
995.972	2287.82
996.268	2288.27
996.565	2272
996.861	2257.54
997.157	2249.4
997.453	2223.87
997.749	2237.88
998.044	2220.03
998.34	2187.71
998.636	2175.51
998.932	2166.47
999.227	2142.06
999.523	2163.76
999.818	2133.7
1000.114	2114.04
1000.409	2113.36
1000.704	2084.44
1001	2110.42
1001.295	2058.45
1001.59	2043.08
1001.885	2061.61
1002.18	2045.57
1002.475	2040.6
1002.77	1992.69
1003.065	2016.64
1003.359	1989.52
1003.654	1990.88
1003.949	1988.39
1004.243	1982.97
1004.538	1950.65
1004.832	1952.01
1005.127	1942.07
1005.421	1919.24
1005.715	1941.62
1006.009	1891.9
1006.304	1885.35
1006.598	1853.48
1006.892	1870.43
1007.186	1855.74
1007.48	1844.89
1007.773	1843.31
1008.067	1827.04
1008.361	1796.53
1008.655	1814.84
1008.948	1786.82
1009.242	1772.81
1009.535	1781.17
1009.829	1763.54
1010.122	1758.12
1010.415	1757.44
1010.708	1756.08
1011.001	1736.42
1011.295	1748.85
1011.588	1723.99
1011.881	1671.57
1012.173	1711.11
1012.466	1685.35
1012.759	1662.75
1013.052	1673.6
1013.344	1647.16
1013.637	1659.36
1013.93	1621.62
1014.222	1608.52
1014.514	1573.49
1014.807	1586.37
1015.099	1613.94
1015.391	1622.53
1015.683	1588.4
1015.976	1563.55
1016.268	1559.48
1016.56	1544.11
1016.851	1533.72
1017.143	1531.46
1017.435	1493.72
1017.727	1518.58
1018.018	1511.8
1018.31	1487.62
1018.602	1469.54
1018.893	1472.25
1019.185	1472.25
1019.476	1437.22
1019.767	1461.85
1020.058	1437
1020.35	1442.65
1020.641	1437
1020.932	1410.56
1021.223	1403.78
1021.514	1406.94
1021.804	1367.39
1022.095	1371.01
1022.386	1356.09
1022.677	1351.57
1022.967	1338.24
1023.258	1345.02
1023.548	1332.82
1023.839	1308.19
1024.129	1306.83
1024.419	1300.95
1024.709	1270.67
1025	1301.86
1025.29	1258.47
1025.58	1274.06
1025.87	1272.03
1026.16	1281.29
1026.449	1243.33
1026.739	1237.91
1027.029	1227.51
1027.319	1213.27
1027.608	1213.05
1027.898	1215.53
1028.187	1192.93
1028.477	1170.79
1028.766	1182.54
1029.055	1164.23
1029.344	1189.32
1029.634	1160.85
1029.923	1155.87
1030.212	1141.41
1030.501	1121.52
1030.79	1119.26
1031.078	1112.71
1031.367	1118.59
1031.656	1123.56
1031.945	1102.99
1032.233	1104.12
1032.522	1098.93
1032.81	1087.85
1033.099	1059.6
1033.387	1076.55
1033.675	1054.63
1033.963	1046.27
1034.251	1055.99
1034.54	1023.67
1034.828	1027.06
1035.116	1053.05
1035.403	1028.42
1035.691	1004.24
1035.979	1020.96
1036.267	1000.4
1036.554	996.1
1036.842	987.52
1037.129	994.75
1037.417	964.69
1037.704	950.68
1037.992	946.16
1038.279	947.52
1038.566	946.84
1038.853	946.84
1039.14	946.84
