Data from hue_150_FLMS001491_00067.txt Node
Date: Tue Feb 07 16:54:22 GMT 2017
User: dcchb
Spectrometer: FLMS00149
Trigger mode: 0
Integration Time (sec): 2.000000E-2
Scans to average: 10
Electric dark correction enabled: true
Nonlinearity correction enabled: false
Boxcar width: 0
XAxis mode: Wavelengths
Number of Pixels in Spectrum: 2048
>>>>>Begin Spectral Data<<<<<
341.393	-19
341.776	-19
342.16	-19
342.543	-78.66
342.927	-56.74
343.31	-56.51
343.693	-68.26
344.077	-65.78
344.46	-58.09
344.843	-59.9
345.226	-49.05
345.61	-48.15
345.993	-14.03
346.376	-4.99
346.759	3.83
347.142	35.47
347.525	38.4
347.908	48.12
348.291	86.31
348.674	102.36
349.057	110.27
349.44	131.06
349.823	125.86
350.206	166.76
350.588	190.04
350.971	209.7
351.354	231.17
351.737	230.71
352.119	232.3
352.502	249.47
352.884	262.35
353.267	280.88
353.65	276.14
354.032	291.05
354.414	282.69
354.797	308.45
355.179	313.2
355.562	327.43
355.944	328.56
356.326	313.65
356.709	345.06
357.091	327.89
357.473	329.69
357.855	321.33
358.238	359.3
358.62	339.86
359.002	330.15
359.384	327.89
359.766	340.99
360.148	335.34
360.53	348
360.912	347.32
361.294	336.7
361.676	329.69
362.057	326.76
362.439	316.59
362.821	321.33
363.203	320.2
363.584	330.82
363.966	309.58
364.348	318.85
364.729	319.98
365.111	315.46
365.493	330.15
365.874	308
366.256	331.5
366.637	327.43
367.019	306.64
367.4	308
367.781	307.1
368.163	320.66
368.544	326.08
368.925	318.85
369.306	326.76
369.688	326.3
370.069	307.55
370.45	305.74
370.831	307.1
371.212	311.62
371.593	308.45
371.974	313.42
372.355	308.23
372.736	311.84
373.117	306.42
373.498	310.03
373.879	340.32
374.26	300.32
374.641	312.07
375.021	304.61
375.402	318.17
375.783	313.65
376.163	340.77
376.544	341.22
376.925	337.15
377.305	351.16
377.686	313.88
378.066	338.73
378.447	323.59
378.827	340.09
379.208	345.97
379.588	306.87
379.968	333.54
380.349	319.53
380.729	322.92
381.109	359.07
381.489	342.35
381.87	335.34
382.25	356.59
382.63	344.61
383.01	334.21
383.39	330.82
383.77	350.49
384.15	351.39
384.53	339.86
384.91	362.46
385.29	337.15
385.67	352.07
386.049	366.3
386.429	362.69
386.809	366.08
387.189	357.94
387.568	352.52
387.948	375.12
388.328	345.51
388.707	345.97
389.087	383.03
389.466	367.66
389.846	374.44
390.225	366.3
390.605	367.66
390.984	390.03
391.363	364.5
391.743	382.8
392.122	375.12
392.501	388.68
392.881	377.83
393.26	370.37
393.639	363.59
394.018	384.16
394.397	381.22
394.776	396.59
395.155	384.61
395.534	400.65
395.913	383.48
396.292	371.5
396.671	401.11
397.05	389.35
397.429	384.38
397.808	403.14
398.186	389.58
398.565	397.72
398.944	409.47
399.323	423.25
399.701	419.86
400.08	398.85
400.458	413.08
400.837	424.16
401.215	418.05
401.594	428.22
401.972	422.8
402.351	430.26
402.729	422.57
403.107	428
403.486	444.27
403.864	446.08
404.242	433.87
404.62	412.18
404.999	432.06
405.377	437.04
405.755	445.85
406.133	424.16
406.511	447.66
406.889	440.88
407.267	443.36
407.645	471.61
408.023	446.98
408.401	471.16
408.779	459.41
409.156	461.67
409.534	476.58
409.912	464.83
410.29	500.76
410.667	491.72
411.045	477.49
411.422	502.8
411.8	497.15
412.178	491.27
412.555	504.38
412.933	508
413.31	503.93
413.687	512.97
414.065	508.22
414.442	513.19
414.819	521.78
415.197	541.44
415.574	526.3
415.951	546.41
416.328	533.98
416.705	530.82
417.082	552.29
417.46	536.24
417.837	567.65
418.214	550.48
418.591	548.45
418.967	559.75
419.344	564.94
419.721	577.82
420.098	581.21
420.475	575.11
420.852	591.38
421.228	580.31
421.605	560.42
421.982	565.85
422.358	584.15
422.735	595.45
423.111	623.47
423.488	605.39
423.864	611.04
424.241	631.16
424.617	631.61
424.994	626.41
425.37	615.11
425.746	613.3
426.123	630.25
426.499	649.46
426.875	649.01
427.251	674.54
427.627	681.1
428.003	675.22
428.379	680.87
428.756	686.3
429.132	691.49
429.507	687.88
429.883	675
430.259	717.03
430.635	713.87
431.011	712.51
431.387	705.73
431.763	719.06
432.138	727.42
432.514	715
432.89	747.99
433.265	743.47
433.641	766.75
434.016	771.72
434.392	800.64
434.767	773.75
435.143	818.04
435.518	794.99
435.894	811.72
436.269	828.44
436.644	808.55
437.02	830.92
437.395	818.04
437.77	838.61
438.145	827.99
438.52	828.66
438.895	862.11
439.271	853.3
439.646	848.78
440.021	882.9
440.395	890.81
440.77	893.75
441.145	906.18
441.52	907.76
441.895	910.47
442.27	916.8
442.645	914.99
443.019	925.84
443.394	953.86
443.769	950.7
444.143	931.03
444.518	952.28
444.892	969.9
445.267	966.06
445.641	989.79
446.016	962.45
446.39	992.73
446.764	997.25
447.139	981.2
447.513	999.28
447.887	1021.65
448.262	1024.59
448.636	1011.03
449.01	1040.64
449.384	1033.86
449.758	1049.68
450.132	1058.94
450.506	1086.74
450.88	1050.81
451.254	1078.83
451.628	1077.02
452.002	1104.59
452.376	1107.98
452.75	1133.29
453.123	1139.62
453.497	1160.86
453.871	1188.2
454.244	1194.76
454.618	1201.31
454.992	1213.29
455.365	1200.63
455.739	1240.86
456.112	1250.57
456.486	1228.88
456.859	1299.39
457.232	1256.45
457.606	1287.41
457.979	1318.14
458.352	1308.65
458.725	1355.88
459.099	1351.14
459.472	1361.76
459.845	1403.56
460.218	1392.94
460.591	1411.25
460.964	1418.03
461.337	1445.15
461.71	1475.65
462.083	1515.2
462.456	1524.92
462.829	1521.98
463.201	1553.17
463.574	1558.81
463.947	1593.84
464.32	1600.62
464.692	1628.64
465.065	1633.62
465.438	1712.48
465.81	1683.33
466.183	1733.05
466.555	1780.05
466.928	1785.02
467.3	1789.77
467.672	1803.1
468.045	1841.52
468.417	1853.27
468.789	1906.15
469.161	1919.03
469.534	1983.44
469.906	1987.05
470.278	2042.87
470.65	2041.74
471.022	2103.66
471.394	2128.74
471.766	2201.06
472.138	2229.08
472.51	2276.08
472.882	2280.83
473.253	2356.08
473.625	2362.18
473.997	2482.63
474.369	2503.87
474.74	2476.53
475.112	2593.36
475.484	2635.62
475.855	2723.08
476.227	2770.08
476.598	2854.83
476.97	2902.96
477.341	2952.9
477.713	3006.46
478.084	3080.58
478.455	3205.33
478.827	3263.63
479.198	3359.45
479.569	3448.03
479.94	3561.25
480.311	3613.22
480.682	3697.06
481.053	3820.68
481.424	3901.8
481.795	4023.61
482.166	4136.6
482.537	4156.26
482.908	4312.64
483.279	4412.98
483.65	4495.91
484.021	4626.53
484.391	4730.26
484.762	4858.16
485.133	4946.75
485.503	5063.13
485.874	5212.73
486.244	5325.04
486.615	5450.92
486.985	5569.1
487.356	5701.53
487.726	5804.13
488.097	6008.19
488.467	6064.23
488.837	6229.43
489.207	6356.43
489.578	6496.76
489.948	6670.32
490.318	6751.9
490.688	6882.06
491.058	7071.21
491.428	7230.3
491.798	7331.54
492.168	7554.36
492.538	7608.83
492.908	7792.1
493.278	7926.33
493.648	8046.55
494.017	8238.64
494.387	8294.91
494.757	8458.52
495.126	8588.91
495.496	8637.95
495.866	8818.06
496.235	8992.52
496.605	9121.33
496.974	9200.65
497.344	9253.75
497.713	9366.07
498.082	9541.2
498.452	9714.98
498.821	9785.72
499.19	9895.32
499.559	9995.88
499.928	10098.93
500.298	10207.18
500.667	10347.51
501.036	10362.65
501.405	10529.43
501.774	10509.77
502.143	10685.35
502.512	10780.95
502.88	10892.58
503.249	10923.54
503.618	11061.84
503.987	11101.39
504.356	11191.1
504.724	11264.55
505.093	11351.78
505.462	11463.19
505.83	11487.82
506.199	11617.99
506.567	11847.13
506.936	11773.01
507.304	11963.29
507.672	11975.04
508.041	12062.04
508.409	12117.63
508.777	12224.75
509.145	12275.6
509.514	12351.3
509.882	12423.16
510.25	12450.28
510.618	12564.85
510.986	12543.38
511.354	12632.87
511.722	12804.39
512.09	12815.47
512.458	12730.05
512.826	12915.13
513.193	12959.65
513.561	12970.49
513.929	13157.61
514.297	13182.01
514.664	13324.61
515.032	13175.68
515.4	13334.32
515.767	13343.36
516.135	13417.26
516.502	13375.68
516.869	13607.09
517.237	13512.17
517.604	13530.93
517.972	13624.03
518.339	13686.63
518.706	13657.25
519.073	13690.47
519.44	13791.71
519.808	13858.6
520.175	13840.53
520.542	13921.88
520.909	13968.88
521.276	13944.48
521.643	14075.55
522.009	14082.55
522.376	14102.67
522.743	14238.03
523.11	14348.99
523.477	14358.93
523.843	14507.85
524.21	14555.31
524.577	14516.89
524.943	14551.69
525.31	14497.68
525.676	14612.26
526.043	14614.06
526.409	14721.41
526.776	14832.36
527.142	14774.29
527.508	14781.29
527.874	14889.31
528.241	14921.63
528.607	14842.53
528.973	14914.4
529.339	14902.19
529.705	14928.41
530.071	14965.69
530.437	14959.14
530.803	15029.42
531.169	15044.34
531.535	15036.43
531.901	14967.28
532.267	14996.43
532.632	15060.61
532.998	14987.16
533.364	15111.68
533.73	15007.95
534.095	15055.41
534.461	15060.83
534.826	15108.74
535.192	15095.86
535.557	15074.62
535.923	15036.88
536.288	15035.97
536.653	15032.13
537.019	14962.98
537.384	15063.09
537.749	14991.68
538.114	14972.02
538.479	15003.43
538.845	14949.42
539.21	14746.72
539.575	14880.05
539.94	14872.14
540.305	14868.3
540.67	14793.5
541.034	14802.76
541.399	14827.62
541.764	14702.2
542.129	14699.26
542.494	14667.85
542.858	14655.42
543.223	14668.75
543.587	14618.58
543.952	14597.12
544.316	14594.63
544.681	14525.25
545.045	14572.48
545.41	14510.79
545.774	14539.94
546.138	14500.4
546.503	14447.52
546.867	14350.57
547.231	14420.62
547.595	14434.41
547.959	14469.66
548.324	14399.61
548.688	14318.48
549.052	14328.42
549.416	14369.78
549.779	14211.14
550.143	14224.7
550.507	14197.35
550.871	14244.36
551.235	14210.46
551.599	14193.51
551.962	14151.93
552.326	14102.67
552.689	14136.34
553.053	14020.18
553.417	14018.37
553.78	14119.16
554.143	14037.36
554.507	14048.88
554.87	14028.54
555.234	14097.92
555.597	13986.51
555.96	14071.71
556.323	13984.02
556.686	14037.81
557.05	14012.95
557.413	13978.38
557.776	13976.34
558.139	13986.28
558.502	13988.54
558.865	13996.68
559.228	14122.33
559.59	13953.29
559.953	14033.29
560.316	14112.38
560.679	14022.89
561.041	14148.99
561.404	14059.5
561.767	14124.36
562.129	14015.89
562.492	14219.95
562.854	14159.84
563.217	14139.73
563.579	14185.38
563.941	14216.79
564.304	14163.23
564.666	14221.76
565.028	14208.88
565.39	14209.1
565.753	14293.85
566.115	14216.56
566.477	14262.89
566.839	14305.6
567.201	14283.9
567.563	14367.97
567.925	14434.41
568.287	14395.54
568.648	14391.47
569.01	14395.54
569.372	14488.64
569.734	14388.99
570.095	14485.71
570.457	14547.4
570.819	14513.73
571.18	14437.57
571.542	14553.05
571.903	14574.07
572.265	14622.43
572.626	14543.11
572.987	14627.17
573.349	14663.78
573.71	14670.11
574.071	14645.93
574.432	14710.56
574.794	14759.82
575.155	14766.6
575.516	14666.49
575.877	14820.39
576.238	14754.4
576.599	14835.75
576.96	14766.15
577.32	14765.25
577.681	14800.27
578.042	14898.8
578.403	14780.61
578.763	14841.63
579.124	14873.49
579.485	14852.7
579.845	14915.07
580.206	14771.12
580.566	14855.64
580.927	14781.29
581.287	14828.75
581.648	14712.37
582.008	14873.95
582.368	14734.74
582.728	14794.4
583.089	14757.56
583.449	14822.42
583.809	14817.68
584.169	14777.45
584.529	14696.77
584.889	14894.96
585.249	14744.46
585.609	14673.72
585.969	14766.83
586.329	14670.33
586.688	14754.17
587.048	14613.39
587.408	14758.69
587.768	14648.41
588.127	14672.37
588.487	14604.57
588.846	14756.66
589.206	14704.01
589.565	14687.96
589.925	14774.74
590.284	14665.81
590.643	14706.27
591.003	14672.37
591.362	14769.77
591.721	14742.42
592.08	14624.23
592.44	14700.62
592.799	14664.01
593.158	14622.43
593.517	14588.53
593.876	14646.15
594.235	14711.46
594.593	14592.14
594.952	14653.39
595.311	14596.89
595.67	14582.2
596.029	14688.19
596.387	14672.59
596.746	14657
597.104	14610.68
597.463	14551.24
597.822	14679.37
598.18	14587.85
598.538	14564.8
598.897	14733.38
599.255	14538.36
599.613	14726.83
599.972	14662.88
600.33	14636.44
600.688	14582.43
601.046	14618.81
601.404	14764.34
601.762	14628.98
602.12	14654.52
602.478	14653.16
602.836	14621.52
603.194	14562.99
603.552	14603.9
603.91	14579.49
604.268	14640.73
604.625	14615.87
604.983	14625.36
605.341	14595.53
605.698	14658.36
606.056	14689.54
606.413	14624.69
606.771	14729.77
607.128	14660.17
607.485	14649.77
607.843	14607.06
608.2	14757.56
608.557	14694.97
608.914	14661.07
609.272	14824
609.629	14727.28
609.986	14833.49
610.343	14698.36
610.7	14883.89
611.057	14737
611.414	14758.92
611.771	14777.9
612.127	14751.24
612.484	14809.31
612.841	14931.34
613.198	14794.17
613.554	14805.92
613.911	14940.16
614.267	14872.59
614.624	14812.7
614.98	14839.82
615.337	14856.77
615.693	14958.91
616.05	15014.96
616.406	14991.23
616.762	14888.86
617.118	14956.88
617.475	14963.89
617.831	14983.32
618.187	15057.67
618.543	14995.98
618.899	15054.28
619.255	15049.99
619.611	15050.21
619.967	15139.7
620.323	15146.03
620.678	15012.25
621.034	15069.42
621.39	14998.24
621.746	14908.75
622.101	15156.42
622.457	15096.54
622.812	15135.41
623.168	15102.87
623.523	15085.92
623.879	15068.74
624.234	15003.66
624.589	15191.45
624.945	15108.06
625.3	15060.15
625.655	15046.37
626.01	15081.17
626.365	15151.68
626.72	15079.82
627.075	15111.45
627.43	15059.93
627.785	15011.12
628.14	15132.92
628.495	15165.69
628.85	15087.27
629.205	15068.97
629.559	15099.25
629.914	14993.26
630.269	14977.9
630.623	14932.7
630.978	14983.32
631.332	15006.37
631.687	15104.9
632.041	14836.43
632.396	14977.45
632.75	14899.93
633.104	14903.55
633.459	14836.66
633.813	14937.22
634.167	14907.39
634.521	14952.36
634.875	14815.87
635.229	14835.3
635.583	14862.87
635.937	14797.56
636.291	14708.3
636.645	14723.44
636.999	14666.94
637.352	14690.67
637.706	14697
638.06	14671.46
638.413	14590.11
638.767	14621.07
639.121	14580.39
639.474	14576.78
639.828	14480.51
640.181	14541.98
640.534	14487.51
640.888	14518.7
641.241	14400.74
641.594	14352.38
641.947	14525.03
642.301	14489.55
642.654	14397.57
643.007	14518.7
643.36	14474.18
643.713	14446.84
644.066	14402.32
644.419	14332.94
644.771	14263.57
645.124	14251.36
645.477	14130.91
645.83	14113.97
646.182	13991.26
646.535	13996.91
646.888	13950.58
647.24	13875.1
647.593	13976.57
647.945	13918.26
648.298	13894.08
648.65	13810.92
649.002	13867.87
649.355	13869.45
649.707	13900.19
650.059	14007.08
650.411	14091.82
650.763	14098.15
651.115	14225.6
651.467	14190.8
651.819	14166.17
652.171	14192.38
652.523	14157.58
652.875	14176.79
653.227	14116.22
653.578	14231.02
653.93	14134.53
654.282	14186.05
654.633	14087.98
654.985	14098.6
655.337	14232.38
655.688	14205.04
656.039	14283.45
656.391	14038.26
656.742	14151.25
657.094	14152.16
657.445	14197.35
657.796	14189.9
658.147	14105.83
658.498	14196.67
658.849	14134.08
659.2	14170.01
659.551	14134.98
659.902	14233.96
660.253	14245.26
660.604	14200.97
660.955	14089.78
661.306	14064.47
661.656	14045.49
662.007	14144.47
662.358	14161.2
662.708	14259.27
663.059	14191.03
663.409	14091.82
663.76	14179.05
664.11	14205.49
664.461	14252.72
664.811	14278.71
665.161	14190.35
665.511	14171.14
665.862	14201.42
666.212	14258.82
666.562	14266.5
666.912	14252.72
667.262	14174.75
667.612	14193.96
667.962	14161.65
668.312	14154.19
668.662	14274.86
669.011	14207.07
669.361	14190.8
669.711	14192.16
670.06	14190.35
670.41	14104.93
670.76	14184.92
671.109	14198.26
671.459	14116
671.808	14102.21
672.157	14124.36
672.507	14040.07
672.856	13979.51
673.205	14053.63
673.554	14104.93
673.904	14012.95
674.253	14132.04
674.602	13996.68
674.951	13823.35
675.3	13834.88
675.649	14013.85
675.998	14010.24
676.346	13948.55
676.695	14046.4
677.044	13947.64
677.393	13975.21
677.741	13971.6
678.09	13831.03
678.438	13909.68
678.787	13810.92
679.135	13874.65
679.484	13771.83
679.832	13833.97
680.181	13694.09
680.529	13796.01
680.877	13664.03
681.225	13651.38
681.573	13806.18
681.922	13622.9
682.27	13593.98
682.618	13537.48
682.966	13628.33
683.314	13557.14
683.661	13560.08
684.009	13464.72
684.357	13409.35
684.705	13432.18
685.053	13452.29
685.4	13472.85
685.748	13289.13
686.095	13377.71
686.443	13376.13
686.79	13337.71
687.138	13419.29
687.485	13384.49
687.832	13226.98
688.18	13200.32
688.527	13213.2
688.874	13153.31
689.221	13098.17
689.568	13086.2
689.915	13059.98
690.262	13022.69
690.609	12938.85
690.956	12883.94
691.303	12973.2
691.65	12871.51
691.997	12851.17
692.344	12772.53
692.69	12686.88
693.037	12667.45
693.383	12592.88
693.73	12680.33
694.077	12543.84
694.423	12523.72
694.769	12503.16
695.116	12384.97
695.462	12437.62
695.808	12323.96
696.155	12414.57
696.501	12240.57
696.847	12324.63
697.193	12192.21
697.539	12284.63
697.885	12157.41
698.231	12099.55
698.577	12166.22
698.923	12083.51
699.269	11993.34
699.614	11934.81
699.96	11894.36
700.306	11847.13
700.651	11792.44
700.997	11748.15
701.342	11729.17
701.688	11654.14
702.033	11642.17
702.379	11651.2
702.724	11602.17
703.069	11531.21
703.415	11467.48
703.76	11495.05
704.105	11469.06
704.45	11443.53
704.795	11352
705.14	11291.21
705.485	11265.68
705.83	11227.26
706.175	11314.94
706.52	11120.82
706.865	11179.35
707.209	11132.8
707.554	11113.59
707.899	11116.76
708.243	11096.64
708.588	11084.21
708.932	10901.85
709.277	10959.7
709.621	10887.61
709.966	10861.85
710.31	10873.37
710.654	10804.9
710.998	10735.75
711.342	10782.08
711.687	10726.71
712.031	10730.55
712.375	10663.43
712.719	10777.33
713.063	10665.69
713.407	10749.08
713.75	10633.6
714.094	10597.9
714.438	10534.4
714.782	10522.2
715.125	10554.28
715.469	10560.39
715.812	10505.02
716.156	10442.65
716.499	10428.86
716.843	10470.67
717.186	10319.26
717.53	10449.65
717.873	10468.86
718.216	10378.47
718.559	10250.56
718.902	10260.51
719.246	10349.54
719.589	10320.84
719.932	10255.76
720.275	10253.73
720.617	10189.32
720.96	10228.64
721.303	10146.16
721.646	10211.24
721.989	10191.36
722.331	10185.71
722.674	10122.43
723.016	10158.14
723.359	10140.74
723.701	10138.02
724.044	10021.87
724.386	10006.95
724.729	10077.46
725.071	10036.78
725.413	10005.15
725.755	10077.01
726.097	10001.76
726.439	9993.4
726.782	10013.28
727.124	10011.25
727.465	9942.55
727.807	9970.35
728.149	9933.74
728.491	9882.66
728.833	9940.06
729.175	9942.1
729.516	9952.49
729.858	9893.29
730.199	9964.24
730.541	9880.63
730.882	9933.96
731.224	9943.91
731.565	9828.2
731.906	9897.58
732.248	9888.09
732.589	9887.18
732.93	9865.94
733.271	9897.13
733.612	9875.66
733.953	9874.53
734.294	9833.85
734.635	9872.72
734.976	9848.54
735.317	9828.88
735.658	9804.7
735.999	9810.12
736.339	9822.1
736.68	9902.78
737.021	9839.05
737.361	9744.59
737.702	9912.95
738.042	9821.65
738.383	9856.45
738.723	9852.38
739.063	9819.84
739.404	9844.92
739.744	9772.61
740.084	9891.03
740.424	9855.09
740.764	9818.94
741.104	9949.78
741.444	9837.02
741.784	9867.3
742.124	9868.43
742.464	9933.96
742.804	9918.37
743.143	9911.36
743.483	9976.22
743.823	9959.05
744.162	9940.97
744.502	10003.34
744.841	10024.36
745.181	10152.71
745.52	10081.75
745.86	10080.85
746.199	10252.37
746.538	10193.16
746.877	10335.31
747.216	10280.17
747.556	10323.1
747.895	10443.33
748.234	10404.91
748.573	10476.55
748.911	10458.02
749.25	10526.26
749.589	10591.8
749.928	10609.2
750.267	10747.27
750.605	10806.93
750.944	10847.38
751.283	10909.53
751.621	10945.01
751.96	11019.36
752.298	11156.53
752.636	11244.66
752.975	11200.37
753.313	11319.46
753.651	11538.44
753.989	11530.3
754.327	11641.71
754.666	11779.79
755.004	11903.63
755.342	11985.21
755.679	12178.65
756.017	12176.61
756.355	12377.29
756.693	12408.47
757.031	12556.04
757.368	12592.42
757.706	12880.1
758.044	12931.17
758.381	13163.93
758.719	13267.89
759.056	13445.28
759.394	13578.61
759.731	13723.24
760.068	13952.16
760.405	13903.58
760.743	14053.18
761.08	14283.9
761.417	14288.88
761.754	14587.62
762.091	14627.85
762.428	14817.22
762.765	14955.52
763.102	15147.38
763.438	15330.2
763.775	15341.73
764.112	15559.58
764.449	15796.41
764.785	15930.41
765.122	15904.88
765.458	16011.77
765.795	16210.41
766.131	16454.24
766.467	16506.9
766.804	16659.21
767.14	16696.72
767.476	16874.8
767.812	17049.03
768.148	17265.52
768.485	17190.49
768.821	17280.66
769.157	17522.46
769.492	17545.74
769.828	17787.99
770.164	17704.83
770.5	17931.04
770.836	17936.69
771.171	18032.73
771.507	18070.47
771.842	18191.82
772.178	18326.06
772.513	18359.73
772.849	18388.43
773.184	18452.16
773.519	18529.89
773.855	18590.01
774.19	18644.47
774.525	18704.35
774.86	18844.24
775.195	18849.43
775.53	18875.65
775.865	18854.41
776.2	18886.04
776.535	18853.05
776.87	18917.45
777.205	19009.88
777.539	19034.74
777.874	19072.25
778.209	18966.72
778.543	19002.2
778.878	19004.01
779.212	19095.3
779.547	19109.54
779.881	19284
780.215	19119.03
780.55	19211.23
780.884	19110.22
781.218	19130.33
781.552	19269.31
781.886	19279.03
782.22	19161.29
782.554	19113.83
782.888	19058.92
783.222	19068.19
783.556	18987.96
783.889	19046.26
784.223	18923.56
784.557	18946.83
784.89	19065.7
785.224	18955.19
785.557	18922.65
785.891	18909.32
786.224	18968.07
786.558	18922.65
786.891	18783.45
787.224	18835.87
787.557	18754.07
787.891	18806.27
788.224	18835.87
788.557	18822.09
788.89	18741.87
789.223	18719.72
789.556	18656.44
789.888	18712.71
790.221	18552.72
790.554	18427.07
790.887	18485.6
791.219	18486.73
791.552	18426.17
791.884	18365.15
792.217	18410.8
792.549	18334.87
792.882	18283.57
793.214	18219.17
793.546	18202.67
793.879	18112.96
794.211	18044.94
794.543	18179.62
794.875	18024.82
795.207	18208.55
795.539	18071.83
795.871	17990.25
796.203	17813.08
796.535	17790.25
796.867	17769.24
797.198	17796.81
797.53	17757.03
797.862	17709.58
798.193	17620.09
798.525	17599.98
798.856	17716.13
799.188	17465.97
799.519	17443.6
799.85	17386.2
800.182	17440.21
800.513	17438.17
800.844	17213.32
801.175	17361.56
801.506	17268.91
801.837	17211.28
802.168	17116.82
802.499	17183.26
802.83	17044.28
803.161	17118.86
803.491	17008.35
803.822	16980.33
804.153	16923.83
804.483	16742.6
804.814	16751.86
805.145	16724.97
805.475	16782.37
805.805	16727
806.136	16716.61
806.466	16693.33
806.796	16582.15
807.126	16527.01
807.457	16455.15
807.787	16531.08
808.117	16444.53
808.447	16348.93
808.777	16390.29
809.107	16377.63
809.436	16331.53
809.766	16307.58
810.096	16233.01
810.426	16170.63
810.755	16169.5
811.085	16171.09
811.414	16103.29
811.744	15917.76
812.073	16020.58
812.403	16022.16
812.732	15927.25
813.061	15923.63
813.39	15906.69
813.719	15712.57
814.049	15959.11
814.378	15791.89
814.707	15810.19
815.036	15745.56
815.365	15700.59
815.693	15524.1
816.022	15595.73
816.351	15509.63
816.68	15501.27
817.008	15555.74
817.337	15380.82
817.665	15392.58
817.994	15410.43
818.322	15344.67
818.651	15306.7
818.979	15286.36
819.307	15335.63
819.636	15291.11
819.964	15218.12
820.292	15224.67
820.62	15224.67
820.948	15183.77
821.276	15216.53
821.604	15233.48
821.932	15250.21
822.259	15226.03
822.587	15120.49
822.915	15167.95
823.243	15209.76
823.57	15146.03
823.898	15226.93
824.225	15167.72
824.553	15155.75
824.88	15178.12
825.207	15132.02
825.535	15120.94
825.862	15245.23
826.189	15064.67
826.516	15242.97
826.843	15244.1
827.17	15182.41
827.497	15259.47
827.824	15213.15
828.151	15279.13
828.478	15179.25
828.805	15243.2
829.131	15177.89
829.458	15175.18
829.785	15132.24
830.111	15204.56
830.438	15250.66
830.764	15088.63
831.09	15165.01
831.417	15038.69
831.743	15184.9
832.069	15127.72
832.395	15082.08
832.722	15139.02
833.048	15089.53
833.374	15110.1
833.7	15071.23
834.026	15029.42
834.351	15082.3
834.677	15009.53
835.003	15091.34
835.329	15061.74
835.654	15052.92
835.98	14986.94
836.306	15012.02
836.631	14988.52
836.956	14999.59
837.282	15019.7
837.607	14927.05
837.932	14908.29
838.258	14987.84
838.583	14875.53
838.908	14761.18
839.233	14779.03
839.558	14757.11
839.883	14647.96
840.208	14591.47
840.533	14702.88
840.858	14588.98
841.182	14648.64
841.507	14655.65
841.832	14604.57
842.156	14652.71
842.481	14507.85
842.805	14518.93
843.13	14450.23
843.454	14475.09
843.778	14374.07
844.103	14353.05
844.427	14398.7
844.751	14292.94
845.075	14304.24
845.399	14263.34
845.723	14127.07
846.047	14199.61
846.371	14038.94
846.695	13937.7
847.019	13865.61
847.343	13897.47
847.666	13802.56
847.99	13754.88
848.313	13711.04
848.637	13661.77
848.96	13608.44
849.284	13639.85
849.607	13489.35
849.931	13486.41
850.254	13424.72
850.577	13335
850.9	13210.71
851.223	13254.33
851.546	13219.98
851.869	13078.29
852.192	13198.28
852.515	13045.29
852.838	12979.53
853.161	12960.32
853.483	12941.79
853.806	12835.35
854.129	12876.94
854.451	12741.35
854.774	12742.25
855.096	12653.21
855.419	12544.06
855.741	12661.57
856.063	12555.59
856.385	12544.51
856.708	12499.77
857.03	12376.16
857.352	12412.77
857.674	12447.79
857.996	12342.26
858.318	12271.3
858.64	12220.91
858.961	12217.97
859.283	12203.96
859.605	12129.16
859.926	12176.61
860.248	12163.51
860.57	12122.15
860.891	12161.93
861.212	12005.32
861.534	11967.81
861.855	11966.22
862.176	11991.08
862.498	11902.27
862.819	11936.17
863.14	11913.34
863.461	11830.18
863.782	11846.45
864.103	11869.05
864.424	11750.86
864.745	11741.6
865.065	11743.41
865.386	11663.41
865.707	11746.57
866.027	11687.81
866.348	11657.53
866.668	11598.78
866.989	11611.66
867.309	11495.05
867.63	11551.55
867.95	11585.44
868.27	11493.47
868.59	11581.38
868.91	11505.67
869.23	11441.27
869.55	11382.29
869.87	11429.97
870.19	11343.42
870.51	11417.76
870.83	11413.25
871.15	11361.04
871.469	11388.39
871.789	11391.32
872.109	11314.94
872.428	11302.51
872.748	11269.29
873.067	11236.3
873.386	11209.63
873.706	11286.02
874.025	11192.69
874.344	11102.29
874.663	11185.45
874.982	11106.13
875.301	11142.07
875.62	11065.91
875.939	11069.3
876.258	11032.24
876.577	11013.71
876.896	11004.22
877.214	11008.74
877.533	11006.93
877.852	10941.17
878.17	10917.66
878.489	10990.88
878.807	10931
879.125	10901.85
879.444	10887.84
879.762	10921.28
880.08	10853.03
880.398	10821.62
880.716	10761.74
881.034	10829.76
881.352	10799.93
881.67	10756.99
881.988	10753.38
882.306	10644.68
882.624	10694.17
882.941	10609.65
883.259	10585.47
883.577	10593.38
883.894	10563.32
884.212	10533.04
884.529	10548.41
884.846	10486.26
885.164	10490.33
885.481	10419.82
885.798	10429.77
886.115	10338.7
886.432	10353.16
886.75	10316.78
887.067	10346.38
887.383	10286.95
887.7	10307.06
888.017	10250.79
888.334	10290.79
888.651	10221.41
888.967	10186.38
889.284	10208.76
889.6	10109.55
889.917	10083.34
890.233	10053.05
890.55	10015.99
890.866	10051.02
891.182	9984.36
891.498	9905.94
891.815	9938.93
892.131	9856.22
892.447	9939.39
892.763	9806.28
893.079	9795.66
893.395	9761.76
893.71	9726.74
894.026	9721.31
894.342	9698.49
894.657	9637.92
894.973	9579.17
895.289	9645.16
895.604	9613.97
895.92	9563.35
896.235	9473.41
896.55	9443.13
896.865	9487.19
897.181	9431.38
897.496	9409.91
897.811	9339.63
898.126	9288.33
898.441	9349.12
898.756	9300.98
899.071	9208.56
899.386	9195.68
899.7	9127.2
900.015	9126.53
900.33	9000.88
900.644	9019.41
900.959	8988.45
901.273	9000.43
901.588	8967.21
901.902	8842.01
902.216	8797.95
902.531	8846.31
902.845	8860.32
903.159	8718.4
903.473	8706.2
903.787	8686.54
904.101	8595.01
904.415	8630.49
904.729	8602.47
905.042	8529.25
905.356	8538.29
905.67	8474.57
905.984	8490.84
906.297	8445.64
906.611	8456.94
906.924	8387.79
907.237	8335.13
907.551	8346.66
907.864	8279.32
908.177	8250.62
908.491	8187.57
908.804	8167.91
909.117	8110.96
909.43	8107.12
909.743	8057.4
910.056	8038.64
910.368	8007.46
910.681	7948.48
910.994	7978.99
911.307	7930.85
911.619	7842.49
911.932	7913.68
912.244	7742.61
912.557	7753
912.869	7766.11
913.181	7709.16
913.494	7683.85
913.806	7580.8
914.118	7590.07
914.43	7567.7
914.742	7619.67
915.054	7591.2
915.366	7495.83
915.678	7401.6
915.99	7373.8
916.302	7370.64
916.613	7332.45
916.925	7381.49
917.236	7302.17
917.548	7272.11
917.859	7272.11
918.171	7205.9
918.482	7163.87
918.794	7202.73
919.105	7160.25
919.416	7055.17
919.727	7056.3
920.038	7056.52
920.349	6981.05
920.66	7038.9
920.971	6960.03
921.282	6920.03
921.593	6892.46
921.903	6877.32
922.214	6814.72
922.525	6827.15
922.835	6796.19
923.146	6741.5
923.456	6756.42
923.767	6678.23
924.077	6741.28
924.387	6635.97
924.697	6624.44
925.008	6600.49
925.318	6499.93
925.628	6569.53
925.938	6562.98
926.248	6457.9
926.558	6448.63
926.867	6415.41
927.177	6416.99
927.487	6386.48
927.796	6262.19
928.106	6312.14
928.416	6303.55
928.725	6271.91
929.034	6230.78
929.344	6268.07
929.653	6212.93
929.962	6197.34
930.271	6139.71
930.581	6123.67
930.89	6047.96
931.199	6051.58
931.508	6085.25
931.817	6092.71
932.125	6018.81
932.434	5989.21
932.743	5940.17
933.051	5919.83
933.36	5894.29
933.669	5844.13
933.977	5889.32
934.286	5851.81
934.594	5836.22
934.902	5733.62
935.21	5749.67
935.519	5763.68
935.827	5693.85
936.135	5688.65
936.443	5649.78
936.751	5645.94
937.059	5585.83
937.367	5574.75
937.674	5588.31
937.982	5560.52
938.29	5507.64
938.597	5494.98
938.905	5381.31
939.213	5401.2
939.52	5394.42
939.827	5421.76
940.135	5363.46
940.442	5328.43
940.749	5337.92
941.056	5325.95
941.363	5267.87
941.67	5250.24
941.977	5207.98
942.284	5143.58
942.591	5164.6
942.898	5191.71
943.205	5190.81
943.511	5149.68
943.818	5145.84
944.125	5087.76
944.431	5045.05
944.738	5045.73
945.044	5046.86
945.35	4987.2
945.657	4897.26
945.963	4957.82
946.269	4905.39
946.575	4900.87
946.881	4893.64
947.187	4893.87
947.493	4866.52
947.799	4832.4
948.105	4809.35
948.41	4741.1
948.716	4749.24
949.022	4770.03
949.327	4748.56
949.633	4687.32
949.938	4671.73
950.244	4697.72
950.549	4670.37
950.854	4619.53
951.16	4614.33
951.465	4564.61
951.77	4538.85
952.075	4558.96
952.38	4552.41
952.685	4496.59
952.99	4478.06
953.294	4486.65
953.599	4495.69
953.904	4403.71
954.209	4404.39
954.513	4419.53
954.818	4377.72
955.122	4327.78
955.426	4341.57
955.731	4328.91
956.035	4306.54
956.339	4280.1
956.643	4306.54
956.948	4227.45
957.252	4214.34
957.556	4209.82
957.86	4172.76
958.163	4163.04
958.467	4147.45
958.771	4126.66
959.075	4125.98
959.378	4085.08
959.682	4081.23
959.985	4092.76
960.289	4040.11
960.592	4049.82
960.896	3998.98
961.199	3992.42
961.502	3999.2
961.805	3938.64
962.108	3929.15
962.411	3951.97
962.714	3924.4
963.017	3872.43
963.32	3861.35
963.623	3856.16
963.926	3934.12
964.228	3780.23
964.531	3805.08
964.833	3770.06
965.136	3764.41
965.438	3764.41
965.741	3735.03
966.043	3727.8
966.345	3707.68
966.648	3677.86
966.95	3678.31
967.252	3644.41
967.554	3663.84
967.856	3611.87
968.158	3569.16
968.46	3598.31
968.761	3584.52
969.063	3557.63
969.365	3549.95
969.666	3525.99
969.968	3517.86
970.269	3478.76
970.571	3471.76
970.872	3501.59
971.174	3472.89
971.475	3431.76
971.776	3481.93
972.077	3417.3
972.378	3391.31
972.679	3395.15
972.98	3353.8
973.281	3386.79
973.582	3356.96
973.883	3336.85
974.183	3346.79
974.484	3307.47
974.785	3283.74
975.085	3250.52
975.386	3282.39
975.686	3290.07
975.986	3208.94
976.287	3253.01
976.587	3177.3
976.887	3203.74
977.187	3147.93
977.487	3153.35
977.787	3143.41
978.087	3130.53
978.387	3114.25
978.687	3095.95
978.987	3081.26
979.286	3097.31
979.586	3099.34
979.885	3020.47
980.185	3038.32
980.484	3022.96
980.784	2963.3
981.083	3002.17
981.382	2993.13
981.682	2983.86
981.981	2993.58
982.28	2942.73
982.579	2932.34
982.878	2895.73
983.177	2900.02
983.475	2900.93
983.774	2890.98
984.073	2888.5
984.372	2831.32
984.67	2841.27
984.969	2824.09
985.267	2812.57
985.566	2806.24
985.864	2788.39
986.162	2786.58
986.461	2742.74
986.759	2719.69
987.057	2726.24
987.355	2698.45
987.653	2700.03
987.951	2701.84
988.249	2671.33
988.547	2697.32
988.844	2659.58
989.142	2684.66
989.44	2600.37
989.737	2614.38
990.035	2606.25
990.332	2589.52
990.63	2584.55
990.927	2545.91
991.224	2545.46
991.521	2546.59
991.819	2538.9
992.116	2535.74
992.413	2512.01
992.71	2505.46
993.006	2465.23
993.303	2496.64
993.6	2469.75
993.897	2465.46
994.193	2467.94
994.49	2404.44
994.787	2447.38
995.083	2408.96
995.379	2401.96
995.676	2374.39
995.972	2359.92
996.268	2359.7
996.565	2342.3
996.861	2333.94
997.157	2351.11
997.453	2325.12
997.749	2303.43
998.044	2293.26
998.34	2274.5
998.636	2267.27
998.932	2282.64
999.227	2234.5
999.523	2225.92
999.818	2190.21
1000.114	2184.79
1000.409	2230.21
1000.704	2184.56
1001	2159.25
1001.295	2149.08
1001.59	2177.33
1001.885	2134.39
1002.18	2127.61
1002.475	2109.08
1002.77	2098.69
1003.065	2080.84
1003.359	2070.67
1003.654	2092.59
1003.949	2038.35
1004.243	2065.69
1004.538	2025.24
1004.832	2010.33
1005.127	1994.06
1005.421	1982.53
1005.715	1977.11
1006.009	1980.27
1006.304	1986.6
1006.598	1971.01
1006.892	1947.73
1007.186	1947.28
1007.48	1942.31
1007.773	1894.4
1008.067	1937.56
1008.361	1904.57
1008.655	1887.17
1008.948	1849.43
1009.242	1875.19
1009.535	1855.98
1009.829	1863.89
1010.122	1850.11
1010.415	1794.29
1010.708	1814.63
1011.001	1788.41
1011.295	1814.63
1011.588	1790
1011.881	1748.87
1012.173	1735.76
1012.466	1717.23
1012.759	1728.75
1013.052	1707.74
1013.344	1733.73
1013.637	1709.77
1013.93	1696.44
1014.222	1678.59
1014.514	1685.14
1014.807	1649.43
1015.099	1677.23
1015.391	1642.43
1015.683	1635.65
1015.976	1632.03
1016.268	1639.72
1016.56	1606.5
1016.851	1609.21
1017.143	1601.3
1017.435	1591.58
1017.727	1559.72
1018.018	1558.14
1018.31	1557.69
1018.602	1529.66
1018.893	1533.05
1019.185	1546.84
1019.476	1518.14
1019.767	1491.25
1020.058	1495.54
1020.35	1472.94
1020.641	1486.05
1020.932	1434.3
1021.223	1437.24
1021.514	1421.42
1021.804	1429.78
1022.095	1407.63
1022.386	1434.07
1022.677	1450.34
1022.967	1383.23
1023.258	1406.73
1023.548	1361.76
1023.839	1379.84
1024.129	1370.57
1024.419	1316.79
1024.709	1326.5
1025	1338.03
1025.29	1311.82
1025.58	1309.78
1025.87	1328.09
1026.16	1294.19
1026.449	1301.42
1026.739	1292.61
1027.029	1253.51
1027.319	1271.14
1027.608	1270.91
1027.898	1260.97
1028.187	1241.08
1028.477	1220.07
1028.766	1233.4
1029.055	1201.08
1029.344	1203.57
1029.634	1195.66
1029.923	1189.11
1030.212	1197.47
1030.501	1166.51
1030.79	1175.32
1031.078	1137.58
1031.367	1168.77
1031.656	1133.06
1031.945	1138.94
1032.233	1136.23
1032.522	1113.63
1032.81	1085.83
1033.099	1119.28
1033.387	1099.62
1033.675	1111.37
1033.963	1124.02
1034.251	1065.04
1034.54	1072.73
1034.828	1052.84
1035.116	1053.07
1035.403	1072.27
1035.691	1041.54
1035.979	1041.54
1036.267	1046.96
1036.554	1032.05
1036.842	1019.39
1037.129	1013.07
1037.417	1013.97
1037.704	995.67
1037.992	985.04
1038.279	989.34
1038.566	985.72
1038.853	985.72
1039.14	985.72
