Data from hue_100_FLMS001491_00091.txt Node
Date: Tue Feb 07 17:03:53 GMT 2017
User: dcchb
Spectrometer: FLMS00149
Trigger mode: 0
Integration Time (sec): 2.000000E-2
Scans to average: 10
Electric dark correction enabled: true
Nonlinearity correction enabled: false
Boxcar width: 0
XAxis mode: Wavelengths
Number of Pixels in Spectrum: 2048
>>>>>Begin Spectral Data<<<<<
341.393	-6.58
341.776	-6.58
342.16	-6.58
342.543	-40.48
342.927	-60.37
343.31	-53.81
343.693	-74.15
344.077	-79.35
344.46	-70.53
344.843	-56.3
345.226	-37.32
345.61	-22.4
345.993	-23.53
346.376	-20.37
346.759	23.02
347.142	30.03
347.525	36.13
347.908	59.18
348.291	66.86
348.674	90.59
349.057	131.95
349.44	138.5
349.823	139.86
350.206	170.59
350.588	197.48
350.971	208.55
351.354	230.25
351.737	234.09
352.119	253.07
352.502	249.68
352.884	278.16
353.267	291.04
353.65	299.85
354.032	314.09
354.414	305.95
354.797	329.45
355.179	329.45
355.562	328.1
355.944	334.2
356.326	336.01
356.709	348.44
357.091	336.23
357.473	356.8
357.855	350.7
358.238	340.53
358.62	347.99
359.002	361.09
359.384	340.53
359.766	326.97
360.148	337.36
360.53	324.48
360.912	329.68
361.294	330.81
361.676	361.77
362.057	345.05
362.439	343.01
362.821	322.9
363.203	357.48
363.584	342.34
363.966	340.08
364.348	324.48
364.729	322.22
365.111	331.04
365.493	334.88
365.874	326.97
366.256	331.94
366.637	316.35
367.019	306.86
367.4	319.74
367.781	326.06
368.163	332.62
368.544	314.09
368.925	334.88
369.306	316.57
369.688	330.36
370.069	322.68
370.45	325.61
370.831	321.09
371.212	327.42
371.593	318.61
371.974	328.1
372.355	308.89
372.736	343.24
373.117	306.4
373.498	319.74
373.879	331.04
374.26	310.02
374.641	320.64
375.021	324.71
375.402	339.85
375.783	337.82
376.163	348.89
376.544	336.91
376.925	347.53
377.305	329.91
377.686	339.85
378.066	320.19
378.447	336.01
378.827	354.54
379.208	330.36
379.588	332.17
379.968	340.75
380.349	340.3
380.729	331.49
381.109	365.61
381.489	364.93
381.87	342.79
382.25	344.14
382.63	327.42
383.01	348.66
383.39	326.06
383.77	356.35
384.15	341.43
384.53	351.15
384.91	358.38
385.29	363.35
385.67	351.83
386.049	356.12
386.429	377.36
386.809	366.52
387.189	388.21
387.568	389.57
387.948	371.94
388.328	384.14
388.707	356.8
389.087	363.8
389.466	386.63
389.846	360.64
390.225	397.48
390.605	359.74
390.984	396.12
391.363	359.51
391.743	378.04
392.122	373.07
392.501	368.55
392.881	402.67
393.26	394.99
393.639	390.47
394.018	394.09
394.397	388.44
394.776	415.55
395.155	386.85
395.534	393.41
395.913	397.93
396.292	392.96
396.671	390.24
397.05	404.03
397.429	393.86
397.808	402.22
398.186	400.41
398.565	408.1
398.944	420.75
399.323	399.06
399.701	411.03
400.08	418.49
400.458	415.1
400.837	419.17
401.215	430.24
401.594	424.82
401.972	446.06
402.351	426.85
402.729	430.24
403.107	431.15
403.486	448.55
403.864	432.73
404.242	422.33
404.62	451.94
404.999	444.03
405.377	437.47
405.755	455.78
406.133	454.2
406.511	459.85
406.889	459.17
407.267	459.39
407.645	453.97
408.023	464.14
408.401	488.77
408.779	489.9
409.156	485.16
409.534	493.74
409.912	485.83
410.29	479.96
410.667	506.17
411.045	482.9
411.422	500.52
411.8	505.04
412.178	473.18
412.555	506.17
412.933	526.96
413.31	537.13
413.687	531.94
414.065	538.26
414.442	535.1
414.819	522.9
415.197	526.06
415.574	549.11
415.951	534.42
416.328	542.56
416.705	545.72
417.082	554.08
417.46	576.68
417.837	566.96
418.214	567.41
418.591	561.76
418.967	570.35
419.344	569.9
419.721	569.45
420.098	570.8
420.475	608.32
420.852	588.43
421.228	571.71
421.605	585.27
421.982	580.97
422.358	614.87
422.735	595.21
423.111	596.34
423.488	592.72
423.864	616.23
424.241	627.75
424.617	613.29
424.994	642.67
425.37	643.12
425.746	632.27
426.123	640.63
426.499	642.21
426.875	638.37
427.251	668.43
427.627	669.78
428.003	682.67
428.379	672.72
428.756	680.86
429.132	683.57
429.507	698.48
429.883	680.41
430.259	696.9
430.635	705.04
431.011	703.46
431.387	709.78
431.763	729.22
432.138	733.96
432.514	703.68
432.89	738.94
433.265	749.33
433.641	750.01
434.016	785.26
434.392	779.16
434.767	784.36
435.143	804.47
435.518	804.92
435.894	773.06
436.269	801.98
436.644	823
437.02	852.83
437.395	850.34
437.77	839.05
438.145	846.28
438.52	830.68
438.895	839.27
439.271	842.66
439.646	876.33
440.021	893.51
440.395	863.68
440.77	840.63
441.145	856.45
441.52	924.47
441.895	916.11
442.27	935.54
442.645	918.59
443.019	911.36
443.394	921.08
443.769	918.14
444.143	945.26
444.518	957.69
444.892	945.71
445.267	954.07
445.641	965.14
446.016	957.23
446.39	962.66
446.764	984.8
447.139	1005.6
447.513	976.9
447.887	1016.67
448.262	1010.34
448.636	974.86
449.01	1028.42
449.384	1040.62
449.758	1026.39
450.132	1043.79
450.506	1023.45
450.88	1039.27
451.254	1051.24
451.628	1069.55
452.002	1056.44
452.376	1082.66
452.75	1110.68
453.123	1122.88
453.497	1118.13
453.871	1152.03
454.244	1142.99
454.618	1162.65
454.992	1155.2
455.365	1175.31
455.739	1219.83
456.112	1195.87
456.486	1251.01
456.859	1232.03
457.232	1245.81
457.606	1273.38
457.979	1252.14
458.352	1291.46
458.725	1324.91
459.099	1316.1
459.472	1347.73
459.845	1383.21
460.218	1393.61
460.591	1399.71
460.964	1407.62
461.337	1411.69
461.71	1470.67
462.083	1480.61
462.456	1476.54
462.829	1497.79
463.201	1521.51
463.574	1560.16
463.947	1522.64
464.32	1597.44
464.692	1594.51
465.065	1618.23
465.438	1629.76
465.81	1662.3
466.183	1667.72
466.555	1699.59
466.928	1718.57
467.3	1735.07
467.672	1792.02
468.045	1799.47
468.417	1838.57
468.789	1857.78
469.161	1874.5
469.534	1930.09
469.906	1952.69
470.278	1985.91
470.65	2002.18
471.022	2053.93
471.394	2098.45
471.766	2150.2
472.138	2172.34
472.51	2224.32
472.882	2292.57
473.253	2326.69
473.625	2358.33
473.997	2437.65
474.369	2464.99
474.74	2519.23
475.112	2584.76
475.484	2594.48
475.855	2652.56
476.227	2711.99
476.598	2834.02
476.97	2861.37
477.341	2961.93
477.713	3013.23
478.084	3079.44
478.455	3208.02
478.827	3240.56
479.198	3349.26
479.569	3411.63
479.94	3502.25
480.311	3561.23
480.682	3696.6
481.053	3805.3
481.424	3887.78
481.795	3979.98
482.166	4097.27
482.537	4211.16
482.908	4347.2
483.279	4394.43
483.65	4510.14
484.021	4643.24
484.391	4753.29
484.762	4892.72
485.133	4946.06
485.503	5139.05
485.874	5282.09
486.244	5357.57
486.615	5522.09
486.985	5678.24
487.356	5803.89
487.726	5941.06
488.097	6081.39
488.467	6206.59
488.837	6364.1
489.207	6553.47
489.578	6637.54
489.948	6781.04
490.318	6953.69
490.688	7047.47
491.058	7221.02
491.428	7449.72
491.798	7550.51
492.168	7770.84
492.538	7878.86
492.908	8063.49
493.278	8208.34
493.648	8312.52
494.017	8427.77
494.387	8618.05
494.757	8743.7
495.126	8917.25
495.496	8936.69
495.866	9169.22
496.235	9293.96
496.605	9406.5
496.974	9516.33
497.344	9759.26
497.713	9827.51
498.082	9949.54
498.452	10146.6
498.821	10199.25
499.19	10333.71
499.559	10488.74
499.928	10652.12
500.298	10661.84
500.667	10858.9
501.036	10848.73
501.405	11062.05
501.774	11117.87
502.143	11214.82
502.512	11300.92
502.88	11424.08
503.249	11460.69
503.618	11604.86
503.987	11675.6
504.356	11847.8
504.724	11887.12
505.093	11980
505.462	12015.02
505.83	12188.58
506.199	12296.15
506.567	12431.96
506.936	12385.63
507.304	12631.28
507.672	12645.29
508.041	12729.81
508.409	12799.86
508.777	12851.39
509.145	13032.62
509.514	13042.34
509.882	13165.95
510.25	13136.58
510.618	13210.02
510.986	13257.93
511.354	13403.69
511.722	13476.68
512.09	13593.74
512.458	13519.16
512.826	13663.34
513.193	13712.15
513.561	13794.64
513.929	13897.23
514.297	13919.61
514.664	14016.78
515.032	14085.7
515.4	14168.64
515.767	14102.88
516.135	14286.6
516.502	14162.09
516.869	14310.33
517.237	14435.52
517.604	14289.77
517.972	14505.13
518.339	14572.02
518.706	14468.97
519.073	14525.24
519.44	14591.45
519.808	14692.24
520.175	14659.7
520.542	14809.07
520.909	14868.96
521.276	14827.83
521.643	14913.93
522.009	14977.66
522.376	15038.45
522.743	15016.07
523.11	15117.54
523.477	15272.11
523.843	15176.52
524.21	15373.58
524.577	15438.66
524.943	15419.91
525.31	15457.19
525.676	15482.05
526.043	15552.33
526.409	15586.68
526.776	15690.41
527.142	15642.05
527.508	15726.34
527.874	15803.62
528.241	15706.23
528.607	15863.96
528.973	15912.1
529.339	15771.08
529.705	15938.31
530.071	15935.37
530.437	15956.84
530.803	15955.48
531.169	15984.64
531.535	15849.72
531.901	15960
532.267	15945.77
532.632	15994.58
532.998	15992.77
533.364	15983.05
533.73	15973.11
534.095	16099.66
534.461	16065.99
534.826	16087.46
535.192	15939.44
535.557	16019.21
535.923	15873
536.288	16047.23
536.653	16062.83
537.019	15928.82
537.384	15878.42
537.749	15971.08
538.114	15819.67
538.479	15828.03
538.845	15847.01
539.21	15795.04
539.575	15831.19
539.94	15784.19
540.305	15749.39
540.67	15639.79
541.034	15740.57
541.399	15791.19
541.764	15724.3
542.129	15678.66
542.494	15634.81
542.858	15567.25
543.223	15611.76
543.587	15628.49
543.952	15575.61
544.316	15519.56
544.681	15466.23
545.045	15543.52
545.41	15525.44
545.774	15481.82
546.138	15463.52
546.503	15474.82
546.867	15272.79
547.231	15461.26
547.595	15280.25
547.959	15314.6
548.324	15297.42
548.688	15261.04
549.052	15217.2
549.416	15223.53
549.779	15188.05
550.143	15194.37
550.507	15122.06
550.871	15138.56
551.235	15151.44
551.599	15110.31
551.962	15117.31
552.326	15092.23
552.689	15105.79
553.053	15037.99
553.417	15003.19
553.78	15116.86
554.143	15057.88
554.507	14932.23
554.87	15024.21
555.234	15040.25
555.597	14955.06
555.96	14980.37
556.323	14988.05
556.686	14941.05
557.05	14944.66
557.413	15023.31
557.776	14843.88
558.139	15009.29
558.502	14896.76
558.865	14767.95
559.228	14949.86
559.59	14947.6
559.953	14916.42
560.316	15028.5
560.679	14955.74
561.041	15015.62
561.404	15089.97
561.767	15100.14
562.129	15121.61
562.492	15075.06
562.854	15046.58
563.217	14940.37
563.579	15067.6
563.941	15018.11
564.304	15114.15
564.666	15172.68
565.028	15186.69
565.39	15226.01
565.753	15216.07
566.115	15220.59
566.477	15249.51
566.839	15228.72
567.201	15264.66
567.563	15321.15
567.925	15318.44
568.287	15286.58
568.648	15265.79
569.01	15420.13
569.372	15431.66
569.734	15284.54
570.095	15443.18
570.457	15447.48
570.819	15358.21
571.18	15447.93
571.542	15520.47
571.903	15508.94
572.265	15408.38
572.626	15477.08
572.987	15465.55
573.349	15595.04
573.71	15587.58
574.071	15571.31
574.432	15631.88
574.794	15661.71
575.155	15672.33
575.516	15678.2
575.877	15733.8
576.238	15623.52
576.599	15695.38
576.96	15757.07
577.32	15665.77
577.681	15740.12
578.042	15782.38
578.403	15668.94
578.763	15729.05
579.124	15807.92
579.485	15769.95
579.845	15729.73
580.206	15723.85
580.566	15834.81
580.927	15692.89
581.287	15739.44
581.648	15711.65
582.008	15799.56
582.368	15726.11
582.728	15786.9
583.089	15719.33
583.449	15684.53
583.809	15699.9
584.169	15722.27
584.529	15647.24
584.889	15771.31
585.249	15664.19
585.609	15614.25
585.969	15706.9
586.329	15597.08
586.688	15754.59
587.048	15593.23
587.408	15622.61
587.768	15562.95
588.127	15591.2
588.487	15501.03
588.846	15619
589.206	15505.55
589.565	15496.06
589.925	15602.5
590.284	15541.26
590.643	15605.89
591.003	15594.14
591.362	15593.46
591.721	15469.85
592.08	15523.63
592.44	15587.81
592.799	15562.27
593.158	15581.03
593.517	15579.9
593.876	15511.43
594.235	15466.23
594.593	15501.49
594.952	15548.94
595.311	15471.2
595.67	15467.36
596.029	15503.29
596.387	15480.47
596.746	15611.54
597.104	15447.7
597.463	15379.23
597.822	15416.52
598.18	15380.58
598.538	15376.06
598.897	15409.74
599.255	15324.77
599.613	15608.83
599.972	15503.97
600.33	15493.35
600.688	15454.03
601.046	15432.11
601.404	15534.93
601.762	15430.53
602.12	15480.92
602.478	15523.18
602.836	15531.09
603.194	15400.92
603.552	15446.8
603.91	15418.1
604.268	15447.25
604.625	15506.68
604.983	15491.77
605.341	15261.72
605.698	15465.78
606.056	15449.96
606.413	15477.3
606.771	15484.54
607.128	15501.94
607.485	15439.34
607.843	15488.38
608.2	15443.86
608.557	15643.85
608.914	15569.51
609.272	15683.4
609.629	15610.18
609.986	15672.55
610.343	15608.37
610.7	15638.88
611.057	15632.33
611.414	15629.62
611.771	15644.53
612.127	15627.13
612.484	15575.61
612.841	15588.04
613.198	15713
613.554	15714.81
613.911	15719.78
614.267	15743.06
614.624	15731.54
614.98	15684.31
615.337	15761.59
615.693	15749.61
616.05	15786.68
616.406	15878.88
616.762	15724.3
617.118	15753.91
617.475	15735.6
617.831	15853.34
618.187	15837.52
618.543	15866.67
618.899	16039.1
619.255	16007.01
619.611	15861.25
619.967	16003.62
620.323	16024.86
620.678	15870.97
621.034	15913.9
621.39	15890.4
621.746	15833.23
622.101	15964.3
622.457	15915.71
622.812	15966.11
623.168	15959.55
623.523	15969.95
623.879	15967.01
624.234	15916.39
624.589	15945.99
624.945	15943.06
625.3	16056.72
625.655	15938.08
626.01	15898.08
626.365	15972.21
626.72	15974.92
627.075	15868.71
627.43	15866
627.785	15882.04
628.14	15904.19
628.495	15823.74
628.85	15821.93
629.205	15797.52
629.559	15836.84
629.914	15830.97
630.269	15807.69
630.623	15761.59
630.978	15729.28
631.332	15877.29
631.687	15850.18
632.041	15828.71
632.396	15762.5
632.75	15645.44
633.104	15732.89
633.459	15703.97
633.813	15661.03
634.167	15681.14
634.521	15648.83
634.875	15591.2
635.229	15567.25
635.583	15553.01
635.937	15536.74
636.291	15569.28
636.645	15530.64
636.999	15538.77
637.352	15550.52
637.706	15474.14
638.06	15529.96
638.413	15535.38
638.767	15456.51
639.121	15429.85
639.474	15351.21
639.828	15367.48
640.181	15430.3
640.534	15374.71
640.888	15325.9
641.241	15205.9
641.594	15351.43
641.947	15284.99
642.301	15217.42
642.654	15304.43
643.007	15268.95
643.36	15212.91
643.713	15262.4
644.066	15263.75
644.419	15141.27
644.771	15081.61
645.124	15010.65
645.477	14975.17
645.83	14898.56
646.182	14722.3
646.535	14731.11
646.888	14766.14
647.24	14670.32
647.593	14792.13
647.945	14738.34
648.298	14680.94
648.65	14722.07
649.002	14696.08
649.355	14693.37
649.707	14684.78
650.059	14743.09
650.411	14952.12
650.763	15006.13
651.115	15061.5
651.467	15036.19
651.819	15106.02
652.171	15035.51
652.523	14928.17
652.875	15028.5
653.227	14963.65
653.578	15059.69
653.93	15017.66
654.282	15033.47
654.633	14945.34
654.985	14986.47
655.337	14986.92
655.688	14977.21
656.039	15137.2
656.391	14904.66
656.742	14983.53
657.094	14997.09
657.445	15070.31
657.796	14967.49
658.147	15043.19
658.498	15010.42
658.849	15050.42
659.2	15059.24
659.551	14993.25
659.902	15104.21
660.253	15014.49
660.604	15028.73
660.955	14970.65
661.306	14958
661.656	15070.99
662.007	15132.23
662.358	15138.78
662.708	15074.6
663.059	15099.46
663.409	14975.4
663.76	15070.31
664.11	15162.74
664.461	15163.19
664.811	15119.35
665.161	15147.6
665.511	15063.53
665.862	15064.66
666.212	15153.02
666.562	15105.56
666.912	15063.98
667.262	15091.33
667.612	15085
667.962	15144.21
668.312	15004.77
668.662	15181.04
669.011	15138.78
669.361	15073.47
669.711	15066.69
670.06	15054.27
670.41	14990.54
670.76	15012.91
671.109	14947.83
671.459	14950.09
671.808	14917.32
672.157	15056.75
672.507	14984.44
672.856	14998
673.205	14929.75
673.554	14921.84
673.904	14844.1
674.253	15025.79
674.602	14872.8
674.951	14668.96
675.3	14548.74
675.649	14822.63
675.998	14844.33
676.346	14811.79
676.695	14900.6
677.044	14724.33
677.393	14771.33
677.741	14836.42
678.09	14719.13
678.438	14754.61
678.787	14737.66
679.135	14782.86
679.484	14588.97
679.832	14734.73
680.181	14584.22
680.529	14665.35
680.877	14537.67
681.225	14524.34
681.573	14564.56
681.922	14464.22
682.27	14455.64
682.618	14433.04
682.966	14353.94
683.314	14464.45
683.661	14440.5
684.009	14340.61
684.357	14275.75
684.705	14258.13
685.053	14294.29
685.4	14294.96
685.748	14172.71
686.095	14190.56
686.443	14112.6
686.79	14036.44
687.138	14006.84
687.485	14150.11
687.832	14070.56
688.18	14088.87
688.527	13902.66
688.874	13898.82
689.221	13849.78
689.568	13874.41
689.915	13876.44
690.262	13846.16
690.609	13692.49
690.956	13732.49
691.303	13679.16
691.65	13629.44
691.997	13568.43
692.344	13610.46
692.69	13500.63
693.037	13481.65
693.383	13339.96
693.73	13393.52
694.077	13308.1
694.423	13353.74
694.769	13260.19
695.116	13188.1
695.462	13102.45
695.808	13107.42
696.155	13195.56
696.501	13052.51
696.847	13086.41
697.193	12899.97
697.539	13048.22
697.885	12831.5
698.231	12860.65
698.577	12753.53
698.923	12725.51
699.269	12686.64
699.614	12682.35
699.96	12564.39
700.306	12559.87
700.651	12432.41
700.997	12440.32
701.342	12445.07
701.688	12459.98
702.033	12364.39
702.379	12298.18
702.724	12246.43
703.069	12298.63
703.415	12208.24
703.76	12165.53
704.105	12165.53
704.45	12120.33
704.795	12128.24
705.14	11952.65
705.485	11949.26
705.83	11942.48
706.175	11922.6
706.52	11783.16
706.865	11838.53
707.209	11798.53
707.554	11725.77
707.899	11768.25
708.243	11633.79
708.588	11678.76
708.932	11554.7
709.277	11563.28
709.621	11590.85
709.966	11523.96
710.31	11619.1
710.654	11417.52
710.998	11440.35
711.342	11404.64
711.687	11339.79
712.031	11306.34
712.375	11298.66
712.719	11300.69
713.063	11315.38
713.407	11324.65
713.75	11285.1
714.094	11185.67
714.438	11144.76
714.782	11220.47
715.125	11114.93
715.469	11121.49
715.812	11107.02
716.156	10999.68
716.499	11064.99
716.843	11032.68
717.186	10944.77
717.53	10982.51
717.873	10980.47
718.216	11029.29
718.559	10926.46
718.902	10859.8
719.246	10845.56
719.589	10800.14
719.932	10787.48
720.275	10862.96
720.617	10801.72
720.96	10800.59
721.303	10787.48
721.646	10800.82
721.989	10751.1
722.331	10671.1
722.674	10676.75
723.016	10739.12
723.359	10696.41
723.701	10780.48
724.044	10643.99
724.386	10589.52
724.729	10700.26
725.071	10654.61
725.413	10660.03
725.755	10655.74
726.097	10594.27
726.439	10545.46
726.782	10596.76
727.124	10612.12
727.465	10636.75
727.807	10497.32
728.149	10544.33
728.491	10519.24
728.833	10541.39
729.175	10518.34
729.516	10429.08
729.858	10479.24
730.199	10531.67
730.541	10488.28
730.882	10446.02
731.224	10505.01
731.565	10439.47
731.906	10421.84
732.248	10447.61
732.589	10371.22
732.93	10369.64
733.271	10498.23
733.612	10423.65
733.953	10383.88
734.294	10439.02
734.635	10385.24
734.976	10386.37
735.317	10379.59
735.658	10392.69
735.999	10352.47
736.339	10422.3
736.68	10481.5
737.021	10425.46
737.361	10330.55
737.702	10534.84
738.042	10447.38
738.383	10450.77
738.723	10460.94
739.063	10419.36
739.404	10464.33
739.744	10483.09
740.084	10492.13
740.424	10491.45
740.764	10447.38
741.104	10608.28
741.444	10498.68
741.784	10486.25
742.124	10585.68
742.464	10599.47
742.804	10564.21
743.143	10588.62
743.483	10602.86
743.823	10643.76
744.162	10656.41
744.502	10669.97
744.841	10748.84
745.181	10765.11
745.52	10812.79
745.86	10836.07
746.199	10811.89
746.538	10954.03
746.877	10996.07
747.216	11068.38
747.556	11040.81
747.895	11088.72
748.234	11056.18
748.573	11181.82
748.911	11246.91
749.25	11349.5
749.589	11389.73
749.928	11464.3
750.267	11540.46
750.605	11629.04
750.944	11549.95
751.283	11693.45
751.621	11790.17
751.96	11927.34
752.298	11921.92
752.636	12136.6
752.975	12104.29
753.313	12205.53
753.651	12357.61
753.989	12465.63
754.327	12585.63
754.666	12635.12
755.004	12880.76
755.342	12967.54
755.679	13098.16
756.017	13178.16
756.355	13298.83
756.693	13494.08
757.031	13684.81
757.368	13770.23
757.706	13893.39
758.044	14009.09
758.381	14214.74
758.719	14343.55
759.056	14528.4
759.394	14648.4
759.731	14697.89
760.068	14949.18
760.405	15101.95
760.743	15220.36
761.08	15385.1
761.417	15511.43
761.754	15640.46
762.091	15887.69
762.428	16008.14
762.765	16089.72
763.102	16400.44
763.438	16389.82
763.775	16612.64
764.112	16823.71
764.449	16923.59
764.785	17079.52
765.122	17144.83
765.458	17270.03
765.795	17452.62
766.131	17759.73
766.467	17809
766.804	17886.06
767.14	18141.64
767.476	18151.58
767.812	18263.9
768.148	18404.69
768.485	18535.98
768.821	18648.75
769.157	18751.12
769.492	18864.79
769.828	18967.83
770.164	18900.94
770.5	19127.6
770.836	19186.81
771.171	19266.13
771.507	19425.45
771.842	19410.31
772.178	19435.17
772.513	19531.66
772.849	19679.91
773.184	19699.79
773.519	19740.47
773.855	19853.46
774.19	19763.29
774.525	19927.81
774.86	20095.94
775.195	20022.72
775.53	20126.22
775.865	20141.82
776.2	20084.42
776.535	20028.82
776.87	20152.66
777.205	20219.78
777.539	20224.07
777.874	20368.7
778.209	20223.62
778.543	20300.68
778.878	20251.87
779.212	20336.16
779.547	20309.27
779.881	20358.08
780.215	20225.43
780.55	20403.96
780.884	20263.17
781.218	20286.22
781.552	20363.73
781.886	20296.39
782.22	20220.01
782.554	20222.04
782.888	20134.81
783.222	20054.13
783.556	20065.88
783.889	20047.35
784.223	20008.26
784.557	20046.9
784.89	20060.69
785.224	19922.39
785.557	19934.81
785.891	19954.7
786.224	19967.81
786.558	19892.56
786.891	19819.79
787.224	19799
787.557	19800.81
787.891	19796.06
788.224	19760.58
788.557	19892.78
788.89	19809.39
789.223	19737.31
789.556	19699.34
789.888	19573.69
790.221	19536.63
790.554	19417.99
790.887	19497.76
791.219	19359.01
791.552	19354.04
791.884	19351.55
792.217	19360.37
792.549	19191.11
792.882	19168.06
793.214	19170.09
793.546	19224.33
793.879	19010.09
794.211	18913.37
794.543	19040.38
794.875	19070.43
795.207	19059.36
795.539	18928.51
795.871	18917.89
796.203	18798.12
796.535	18743.89
796.867	18730.1
797.198	18688.29
797.53	18674.96
797.862	18514.74
798.193	18547.51
798.525	18498.24
798.856	18460.05
799.188	18319.94
799.519	18266.38
799.85	18241.75
800.182	18273.16
800.513	18179.61
800.844	18100.29
801.175	18259.38
801.506	18149.78
801.837	18044.47
802.168	18009.89
802.499	17948.2
802.83	17874.76
803.161	17896.9
803.491	17856.9
803.822	17909.56
804.153	17762.67
804.483	17489
804.814	17559.28
805.145	17612.62
805.475	17544.37
805.805	17430.25
806.136	17550.02
806.466	17536.69
806.796	17403.58
807.126	17282.46
807.457	17328.33
807.787	17300.08
808.117	17280.65
808.447	17165.17
808.777	17211.95
809.107	17104.15
809.436	17063.7
809.766	16981.9
810.096	16926.08
810.426	16864.84
810.755	16930.37
811.085	16859.87
811.414	16877.49
811.744	16687.67
812.073	16741.9
812.403	16733.77
812.732	16698.29
813.061	16713.66
813.39	16499.42
813.719	16579.65
814.049	16660.1
814.378	16471.63
814.707	16543.94
815.036	16418.3
815.365	16459.43
815.693	16267.79
816.022	16242.48
816.351	16317.73
816.68	16185.76
817.008	16208.13
817.337	16129.04
817.665	16078.87
817.994	16089.72
818.322	16082.71
818.651	16044.52
818.979	15937.41
819.307	16062.15
819.636	15969.04
819.964	15835.49
820.292	15974.69
820.62	15959.78
820.948	15848.59
821.276	16025.77
821.604	15859.89
821.932	15878.65
822.259	15905.32
822.587	15912.55
822.915	15822.61
823.243	15841.59
823.57	15897.86
823.898	15793.91
824.225	15748.03
824.553	15778.54
824.88	15778.54
825.207	15889.05
825.535	15859.44
825.862	15862.38
826.189	15768.37
826.516	15876.16
826.843	15827.58
827.17	15909.61
827.497	15902.38
827.824	15939.44
828.151	15965.88
828.478	15868.71
828.805	15926.11
829.131	15897.41
829.458	15885.2
829.785	15798.88
830.111	15884.53
830.438	15927.91
830.764	15839.56
831.09	15907.35
831.417	15832.1
831.743	15794.13
832.069	15795.04
832.395	15769.73
832.722	15786.9
833.048	15716.17
833.374	15786.45
833.7	15610.63
834.026	15676.17
834.351	15760.91
834.677	15649.5
835.003	15820.57
835.329	15694.02
835.654	15723.4
835.98	15552.56
836.306	15709.39
836.631	15595.04
836.956	15619.9
837.282	15680.46
837.607	15569.73
837.932	15484.99
838.258	15526.8
838.583	15499
838.908	15416.52
839.233	15430.07
839.558	15425.78
839.883	15343.98
840.208	15316.18
840.533	15337.2
840.858	15335.84
841.182	15268.27
841.507	15312.11
841.832	15134.26
842.156	15178.78
842.481	15167.26
842.805	15105.56
843.13	15115.28
843.454	15090.87
843.778	15003.19
844.103	14983.76
844.427	15014.94
844.751	14935.4
845.075	14925.68
845.399	14815.63
845.723	14743.99
846.047	14803.65
846.371	14694.95
846.695	14646.59
847.019	14565.92
847.343	14461.29
847.666	14422.42
847.99	14381.74
848.313	14394.85
848.637	14273.49
848.96	14267.85
849.284	14235.76
849.607	14095.42
849.931	14028.53
850.254	14008.64
850.577	13949.21
850.9	13840.96
851.223	13795.99
851.546	13746.28
851.869	13617.47
852.192	13711.7
852.515	13629.67
852.838	13462.67
853.161	13506.74
853.483	13487.75
853.806	13426.06
854.129	13445.27
854.451	13341.77
854.774	13306.06
855.096	13193.75
855.419	13187.65
855.741	13189.23
856.063	13103.58
856.385	13055.67
856.708	13036.69
857.03	12979.07
857.352	12984.04
857.674	12936.58
857.996	12829.69
858.318	12879.18
858.64	12802.12
858.961	12782.46
859.283	12713.31
859.605	12640.32
859.926	12680.77
860.248	12574.1
860.57	12632.63
860.891	12603.26
861.212	12552.64
861.534	12461.79
861.855	12385.18
862.176	12436.71
862.498	12438.29
862.819	12451.62
863.14	12455.24
863.461	12370.95
863.782	12322.36
864.103	12371.62
864.424	12271.74
864.745	12264.96
865.065	12264.51
865.386	12106.55
865.707	12214.34
866.027	12157.39
866.348	12116.04
866.668	12096.6
866.989	12114.68
867.309	12018.41
867.63	12132.31
867.95	12003.72
868.27	11948.13
868.59	11993.1
868.91	11946.32
869.23	11966.21
869.55	11858.87
869.87	11911.75
870.19	11842.15
870.51	11887.34
870.83	11832.65
871.15	11849.83
871.469	11846.44
871.789	11853.45
872.109	11791.53
872.428	11772.77
872.748	11789.27
873.067	11756.72
873.386	11758.08
873.706	11728.02
874.025	11604.19
874.344	11624.75
874.663	11639.21
874.982	11564.41
875.301	11580.68
875.62	11601.7
875.939	11595.37
876.258	11625.65
876.577	11459.33
876.896	11509.27
877.214	11473.57
877.533	11448.48
877.852	11429.95
878.17	11438.09
878.489	11426.11
878.807	11403.29
879.125	11332.78
879.444	11338.66
879.762	11332.33
880.08	11313.35
880.398	11304.99
880.716	11385.44
881.034	11267.47
881.352	11201.26
881.67	11217.76
881.988	11227.47
882.306	11100.7
882.624	11119.91
882.941	11040.59
883.259	11074.93
883.577	11002.85
883.894	10934.83
884.212	10966.92
884.529	11034.48
884.846	10942.06
885.164	10869.74
885.481	10903.64
885.798	10954.03
886.115	10777.77
886.432	10773.02
886.75	10802.17
887.067	10803.53
887.383	10667.26
887.7	10756.3
888.017	10702.52
888.334	10685.79
888.651	10638.56
888.967	10639.69
889.284	10484.67
889.6	10515.85
889.917	10474.27
890.233	10503.88
890.55	10488.51
890.866	10447.38
891.182	10353.37
891.498	10383.65
891.815	10296.88
892.131	10267.05
892.447	10288.06
892.763	10197.67
893.079	10236.99
893.395	10139.59
893.71	10113.83
894.026	10111.12
894.342	10052.36
894.657	10011.91
894.973	10057.56
895.289	9949.77
895.604	9949.99
895.92	9913.16
896.235	9862.99
896.55	9805.82
896.865	9735.08
897.181	9716.78
897.496	9862.76
897.811	9700.51
898.126	9673.62
898.441	9594.52
898.756	9618.48
899.071	9571.47
899.386	9614.63
899.7	9475.43
900.015	9438.82
900.33	9388.2
900.644	9391.36
900.959	9438.82
901.273	9379.39
901.588	9342.55
901.902	9284.7
902.216	9227.98
902.531	9176.45
902.845	9223.68
903.159	9154.76
903.473	9091.03
903.787	9123.57
904.101	9030.24
904.415	9040.41
904.729	8993.18
905.042	8914.09
905.356	8874.77
905.67	8888.78
905.984	8876.8
906.297	8833.64
906.611	8740.53
906.924	8771.72
907.237	8663.02
907.551	8674.32
907.864	8633.64
908.177	8568.79
908.491	8606.53
908.804	8569.92
909.117	8490.82
909.43	8396.59
909.743	8426.64
910.056	8385.06
910.368	8361.11
910.681	8334.67
910.994	8337.38
911.307	8213.32
911.619	8201.34
911.932	8206.54
912.244	8134.45
912.557	8130.15
912.869	8050.38
913.181	8043.38
913.494	8006.77
913.806	7985.75
914.118	7963.6
914.43	7881.35
914.742	7837.05
915.054	7858.75
915.366	7807.45
915.678	7768.58
915.99	7719.09
916.302	7685.19
916.613	7639.32
916.925	7656.95
917.236	7598.42
917.548	7557.29
917.859	7525.2
918.171	7527.23
918.482	7540.79
918.794	7461.47
919.105	7433.45
919.416	7376.05
919.727	7377.86
920.038	7361.59
920.349	7321.59
920.66	7316.62
920.971	7301.02
921.282	7254.92
921.593	7195.04
921.903	7131.31
922.214	7093.12
922.525	7067.36
922.835	7082.05
923.146	7011.76
923.456	7036.85
923.767	6978.32
924.077	7016.51
924.387	6932.67
924.697	6861.26
925.008	6859
925.318	6765.9
925.628	6818.1
925.938	6741.04
926.248	6762.73
926.558	6745.78
926.867	6685.67
927.177	6717.99
927.487	6677.31
927.796	6613.36
928.106	6584.21
928.416	6511.21
928.725	6518.67
929.034	6460.59
929.344	6438.22
929.653	6452.46
929.962	6458.33
930.271	6408.84
930.581	6365.45
930.89	6320.71
931.199	6276.42
931.508	6349.86
931.817	6252.01
932.125	6208.4
932.434	6210.43
932.743	6193.48
933.051	6129.75
933.36	6114.39
933.669	6074.84
933.977	6102.64
934.286	6132.24
934.594	6049.3
934.902	5994.16
935.21	5983.54
935.519	5944.67
935.827	5952.36
936.135	5894.05
936.443	5896.31
936.751	5882.53
937.059	5888.86
937.367	5776.99
937.674	5807.73
937.982	5809.31
938.29	5800.05
938.597	5797.56
938.905	5687.05
939.213	5699.71
939.52	5612.93
939.827	5642.08
940.135	5572.25
940.442	5609.32
940.749	5513.73
941.056	5571.8
941.363	5482.31
941.67	5452.26
941.977	5447.29
942.284	5432.15
942.591	5403.22
942.898	5400.28
943.205	5360.06
943.511	5361.64
943.818	5360.73
944.125	5313.96
944.431	5205.26
944.738	5284.58
945.044	5223.11
945.35	5177.69
945.657	5174.07
945.963	5135.43
946.269	5134.3
946.575	5133.85
946.881	5119.16
947.187	5059.5
947.493	5015.21
947.799	5025.6
948.105	5042.33
948.41	5005.72
948.716	4989.22
949.022	4952.38
949.327	4908.77
949.633	4897.7
949.938	4855.44
950.244	4894.08
950.549	4865.38
950.854	4819.05
951.16	4791.94
951.465	4692.73
951.77	4733.18
952.075	4721.43
952.38	4698.61
952.685	4753.52
952.99	4702.9
953.294	4685.72
953.599	4627.42
953.904	4608.21
954.209	4591.94
954.513	4551.49
954.818	4597.59
955.122	4532.06
955.426	4521.89
955.731	4427.65
956.035	4512.4
956.339	4443.24
956.643	4439.63
956.948	4392.17
957.252	4412.51
957.556	4391.72
957.86	4335
958.163	4300.2
958.467	4319.63
958.771	4261.33
959.075	4301.1
959.378	4255.45
959.682	4242.35
959.985	4231.72
960.289	4215.23
960.592	4174.33
960.896	4213.65
961.199	4162.8
961.502	4161.22
961.805	4125.96
962.108	4090.26
962.411	4073.31
962.714	4095.23
963.017	4023.14
963.32	4005.29
963.623	4016.82
963.926	3982.92
964.228	3949.02
964.531	3902.24
964.833	3970.94
965.136	3933.43
965.438	3899.3
965.741	3850.94
966.043	3894.33
966.345	3847.78
966.648	3799.65
966.95	3836.93
967.252	3799.65
967.554	3784.96
967.856	3773.21
968.158	3725.3
968.46	3727.56
968.761	3742.7
969.063	3705.19
969.365	3653.44
969.666	3693.89
969.968	3659.99
970.269	3575.47
970.571	3645.75
970.872	3624.74
971.174	3578.63
971.475	3607.56
971.776	3551.52
972.077	3553.78
972.378	3508.13
972.679	3539.31
972.98	3529.14
973.281	3474.68
973.582	3476.26
973.883	3450.73
974.183	3486.89
974.484	3389.04
974.785	3454.34
975.085	3433.33
975.386	3369.37
975.686	3366.21
975.986	3370.96
976.287	3332.99
976.587	3290.96
976.887	3291.64
977.187	3302.94
977.487	3285.08
977.787	3285.99
978.087	3263.16
978.387	3256.61
978.687	3221.36
978.987	3213.22
979.286	3187.01
979.586	3187.23
979.885	3152.21
980.185	3152.43
980.484	3123.05
980.784	3103.84
981.083	3092.09
981.382	3091.19
981.682	3091.42
981.981	3079.66
982.28	3052.77
982.579	3035.15
982.878	3002.83
983.177	3040.8
983.475	3004.64
983.774	2973
984.073	2944.75
984.372	2982.94
984.67	2975.49
984.969	2958.76
985.267	2923.06
985.566	2897.97
985.864	2900.01
986.162	2916.96
986.461	2858.88
986.759	2860.01
987.057	2859.33
987.355	2827.24
987.653	2804.42
987.951	2839.67
988.249	2766
988.547	2771.42
988.844	2732.78
989.142	2755.15
989.44	2706.12
989.737	2733.01
990.035	2725.32
990.332	2687.13
990.63	2662.95
990.927	2701.14
991.224	2659.79
991.521	2621.6
991.819	2646.23
992.116	2639
992.413	2621.6
992.71	2579.34
993.006	2592.45
993.303	2550.41
993.6	2573.46
993.897	2528.04
994.193	2531.2
994.49	2528.72
994.787	2522.84
995.083	2474.71
995.379	2491.21
995.676	2458.44
995.972	2457.31
996.268	2451.88
996.565	2454.82
996.861	2428.16
997.157	2418.21
997.453	2393.58
997.749	2377.31
998.044	2384.54
998.34	2385.45
998.636	2343.64
998.932	2347.71
999.227	2329.63
999.523	2315.17
999.818	2309.06
1000.114	2265.9
1000.409	2279.23
1000.704	2263.87
1001	2242.4
1001.295	2257.99
1001.59	2227.94
1001.885	2222.06
1002.18	2215.51
1002.475	2212.34
1002.77	2185
1003.065	2174.15
1003.359	2146.81
1003.654	2179.8
1003.949	2136.86
1004.243	2103.42
1004.538	2131.44
1004.832	2088.73
1005.127	2085.79
1005.421	2050.54
1005.715	2060.48
1006.009	2045.34
1006.304	2024.78
1006.598	2051.22
1006.892	1990.88
1007.186	1987.94
1007.48	2012.35
1007.773	2017.77
1008.067	1965.57
1008.361	1961.28
1008.655	1963.54
1008.948	1947.04
1009.242	1918.34
1009.535	1915.85
1009.829	1883.54
1010.122	1866.59
1010.415	1885.12
1010.708	1875.85
1011.001	1879.47
1011.295	1846.7
1011.588	1857.78
1011.881	1855.97
1012.173	1822.75
1012.466	1813.71
1012.759	1803.99
1013.052	1808.29
1013.344	1796.53
1013.637	1781.17
1013.93	1776.87
1014.222	1748.17
1014.514	1727.84
1014.807	1713.15
1015.099	1695.52
1015.391	1695.52
1015.683	1706.82
1015.976	1693.49
1016.268	1679.02
1016.56	1673.6
1016.851	1646.71
1017.143	1643.09
1017.435	1653.26
1017.727	1646.26
1018.018	1620.04
1018.31	1610.1
1018.602	1578.91
1018.893	1585.01
1019.185	1605.58
1019.476	1538.69
1019.767	1542.76
1020.058	1552.93
1020.35	1532.13
1020.641	1513.83
1020.932	1507.95
1021.223	1539.14
1021.514	1491.91
1021.804	1477.9
1022.095	1481.74
1022.386	1447.62
1022.677	1459.37
1022.967	1443.55
1023.258	1435.41
1023.548	1441.74
1023.839	1411.23
1024.129	1390.9
1024.419	1390.44
1024.709	1378.47
1025	1370.56
1025.29	1374.85
1025.58	1338.47
1025.87	1344.8
1026.16	1346.38
1026.449	1343.21
1026.739	1363.1
1027.029	1326.26
1027.319	1313.84
1027.608	1264.12
1027.898	1327.85
1028.187	1281.29
1028.477	1258.02
1028.766	1257.11
1029.055	1268.41
1029.344	1237.45
1029.634	1242.2
1029.923	1246.72
1030.212	1236.55
1030.501	1214.4
1030.79	1185.48
1031.078	1198.58
1031.367	1212.82
1031.656	1196.78
1031.945	1192.26
1032.233	1180.28
1032.522	1149.09
1032.81	1162.43
1033.099	1149.77
1033.387	1143.9
1033.675	1142.77
1033.963	1130.11
1034.251	1089.21
1034.54	1110.23
1034.828	1126.27
1035.116	1109.55
1035.403	1092.37
1035.691	1083.79
1035.979	1098.47
1036.267	1058.25
1036.554	1049.66
1036.842	1078.36
1037.129	1061.19
1037.417	1059.15
1037.704	1038.59
1037.992	1036.1
1038.279	1011.24
1038.566	1007.18
1038.853	1007.18
1039.14	1007.18
