Data from hue_140_FLMS001491_00056.txt Node
Date: Tue Feb 07 16:56:07 GMT 2017
User: dcchb
Spectrometer: FLMS00149
Trigger mode: 0
Integration Time (sec): 2.000000E-2
Scans to average: 10
Electric dark correction enabled: true
Nonlinearity correction enabled: false
Boxcar width: 0
XAxis mode: Wavelengths
Number of Pixels in Spectrum: 2048
>>>>>Begin Spectral Data<<<<<
341.393	-13.42
341.776	-13.42
342.16	-13.42
342.543	-68.11
342.927	-66.75
343.31	-73.98
343.693	-69.69
344.077	-75.79
344.46	-59.29
344.843	-47.99
345.226	-44.38
345.61	-9.58
345.993	2.18
346.376	-4.83
346.759	19.12
347.142	22.06
347.525	46.47
347.908	53.02
348.291	50.99
348.674	87.37
349.057	104.32
349.44	109.06
349.823	128.27
350.206	179.57
350.588	188.16
350.971	213.92
351.354	211.66
351.737	244.43
352.119	245.78
352.502	259.12
352.884	264.32
353.267	274.03
353.65	276.97
354.032	293.01
354.414	296.63
354.797	315.39
355.179	305.9
355.562	326.91
355.944	312.22
356.326	320.58
356.709	340.02
357.091	321.26
357.473	328.04
357.855	339.79
358.238	335.73
358.62	345.22
359.002	322.84
359.384	340.25
359.766	330.53
360.148	351.54
360.53	326.23
360.912	349.96
361.294	338.66
361.676	321.26
362.057	336.63
362.439	319
362.821	323.75
363.203	303.41
363.584	291.43
363.966	321.94
364.348	314.26
364.729	325.33
365.111	326.46
365.493	310.19
365.874	297.31
366.256	310.42
366.637	326.46
367.019	318.32
367.4	313.13
367.781	334.6
368.163	316.29
368.544	316.29
368.925	313.81
369.306	316.52
369.688	323.97
370.069	315.61
370.45	296.86
370.831	315.39
371.212	323.52
371.593	300.02
371.974	315.61
372.355	304.77
372.736	319.68
373.117	298.44
373.498	318.78
373.879	321.94
374.26	320.13
374.641	316.29
375.021	323.75
375.402	300.02
375.783	310.19
376.163	321.49
376.544	330.3
376.925	312.9
377.305	305.67
377.686	328.04
378.066	310.19
378.447	323.3
378.827	342.96
379.208	331.43
379.588	328.04
379.968	316.52
380.349	328.95
380.729	331.21
381.109	334.82
381.489	333.24
381.87	351.32
382.25	346.35
382.63	349.96
383.01	306.8
383.39	355.39
383.77	341.6
384.15	350.64
384.53	337.31
384.91	350.87
385.29	358.1
385.67	376.18
386.049	354.48
386.429	356.74
386.809	340.47
387.189	354.03
387.568	382.5
387.948	339.34
388.328	341.15
388.707	337.08
389.087	362.62
389.466	358.32
389.846	362.84
390.225	361.94
390.605	359.68
390.984	356.74
391.363	366.46
391.743	348.61
392.122	377.76
392.501	385.67
392.881	376.63
393.26	371.88
393.639	378.21
394.018	386.57
394.397	377.53
394.776	346.35
395.155	386.57
395.534	378.89
395.913	382.05
396.292	387.25
396.671	376.4
397.05	377.76
397.429	398.1
397.808	368.95
398.186	381.6
398.565	375.5
398.944	381.15
399.323	389.06
399.701	392
400.08	402.16
400.458	387.25
400.837	394.93
401.215	404.2
401.594	402.84
401.972	414.82
402.351	399.23
402.729	413.46
403.107	421.6
403.486	431.77
403.864	410.98
404.242	418.66
404.62	433.35
404.999	423.86
405.377	441.03
405.755	437.64
406.133	452.33
406.511	432.9
406.889	435.38
407.267	452.11
407.645	432.9
408.023	480.35
408.401	458.21
408.779	460.24
409.156	452.33
409.534	483.97
409.912	461.37
410.29	445.33
410.667	457.98
411.045	473.12
411.422	458.89
411.8	480.13
412.178	466.8
412.555	476.74
412.933	481.26
413.31	484.42
413.687	497.53
414.065	483.52
414.442	493.24
414.819	520.35
415.197	491.43
415.574	491.2
415.951	514.93
416.328	515.61
416.705	510.18
417.082	523.29
417.46	525.78
417.837	532.1
418.214	521.03
418.591	519.68
418.967	518.77
419.344	537.98
419.721	532.1
420.098	514.48
420.475	530.75
420.852	538.21
421.228	556.28
421.605	553.8
421.982	565.1
422.358	559.67
422.735	551.77
423.111	567.58
423.488	603.74
423.864	581.59
424.241	590.86
424.617	594.25
424.994	605.78
425.37	585.66
425.746	601.03
426.123	604.19
426.499	607.58
426.875	583.4
427.251	613.23
427.627	622.27
428.003	620.01
428.379	634.93
428.756	628.37
429.132	630.86
429.507	652.1
429.883	656.85
430.259	647.58
430.635	665.21
431.011	662.5
431.387	668.82
431.763	681.93
432.138	678.54
432.514	691.87
432.89	687.13
433.265	702.72
433.641	706.79
434.016	688.03
434.392	722.61
434.767	723.96
435.143	738.65
435.518	733.68
435.894	746.11
436.269	758.09
436.644	742.27
437.02	765.09
437.395	770.74
437.77	774.81
438.145	790.18
438.52	791.53
438.895	808.26
439.271	789.05
439.646	822.27
440.021	832.21
440.395	821.14
440.77	827.24
441.145	848.71
441.52	845.99
441.895	817.29
442.27	842.15
442.645	840.8
443.019	829.05
443.394	843.96
443.769	863.62
444.143	857.07
444.518	883.28
444.892	850.29
445.267	861.59
445.641	873.34
446.016	913.56
446.39	896.16
446.764	883.28
447.139	911.76
447.513	929.16
447.887	928.48
448.262	944.75
448.636	942.94
449.01	959.66
449.384	968.93
449.758	964.64
450.132	981.36
450.506	991.98
450.88	946.33
451.254	968.7
451.628	1000.79
452.002	1010.51
452.376	1019.32
452.75	1008.02
453.123	1017.74
453.497	1038.76
453.871	1066.33
454.244	1074.92
454.618	1058.87
454.992	1112.43
455.365	1076.27
455.739	1142.71
456.112	1116.5
456.486	1134.57
456.859	1123.5
457.232	1136.38
457.606	1157.85
457.979	1157.17
458.352	1206.44
458.725	1220.9
459.099	1196.27
459.472	1201.47
459.845	1232.88
460.218	1250.73
460.591	1273.78
460.964	1277.4
461.337	1305.87
461.71	1333.44
462.083	1373.66
462.456	1351.29
462.829	1328.24
463.201	1385.42
463.574	1395.36
463.947	1410.95
464.32	1407.11
464.692	1451.85
465.065	1479.2
465.438	1488.46
465.81	1500.44
466.183	1523.04
466.555	1559.42
466.928	1591.74
467.3	1598.07
467.672	1611.4
468.045	1654.56
468.417	1651.4
468.789	1670.15
469.161	1736.37
469.534	1767.78
469.906	1813.43
470.278	1801.22
470.65	1819.98
471.022	1889.58
471.394	1918.28
471.766	1938.4
472.138	1982.91
472.51	2025.85
472.882	2055.23
473.253	2108.56
473.625	2140.2
473.997	2226.75
474.369	2242.79
474.74	2277.6
475.112	2345.39
475.484	2363.92
475.855	2415.9
476.227	2457.48
476.598	2567.31
476.97	2621.09
477.341	2661.77
477.713	2774.08
478.084	2748.54
478.455	2879.84
478.827	2937.24
479.198	3042.55
479.569	3076.22
479.94	3209.1
480.311	3278.93
480.682	3360.05
481.053	3457.9
481.424	3561.63
481.795	3646.15
482.166	3725.02
482.537	3828.74
482.908	3957.1
483.279	4013.82
483.65	4088.62
484.021	4267.6
484.391	4355.28
484.762	4448.39
485.133	4511.66
485.503	4679.79
485.874	4812.9
486.244	4907.58
486.615	5013.57
486.985	5126.79
487.356	5280.68
487.726	5395.03
488.097	5591.18
488.467	5642.48
488.837	5789.37
489.207	5945.97
489.578	6052.19
489.948	6203.82
490.318	6385.51
490.688	6389.13
491.058	6536.01
491.428	6699.17
491.798	6846.06
492.168	7073.4
492.538	7159.95
492.908	7236.11
493.278	7439.49
493.648	7527.17
494.017	7728.07
494.387	7782.99
494.757	7935.98
495.126	8093.26
495.496	8203.99
495.866	8318.57
496.235	8489.64
496.605	8605.34
496.974	8693.92
497.344	8853.24
497.713	8985.44
498.082	9075.16
498.452	9221.82
498.821	9329.84
499.19	9351.31
499.559	9487.8
499.928	9628.36
500.298	9671.3
500.667	9874.01
501.036	9888.69
501.405	10059.99
501.774	10129.37
502.143	10227.89
502.512	10262.47
502.88	10438.51
503.249	10528.68
503.618	10578.62
503.987	10641.44
504.356	10788.11
504.724	10812.06
505.093	10909.01
505.462	11000.76
505.83	11077.82
506.199	11179.73
506.567	11345.61
506.936	11283.46
507.304	11419.05
507.672	11480.74
508.041	11511.48
508.409	11653.17
508.777	11736.1
509.145	11832.6
509.514	11874.18
509.882	11932.03
510.25	11999.6
510.618	12002.99
510.986	12035.98
511.354	12190.33
511.722	12166.83
512.09	12367.27
512.458	12285.92
512.826	12414.05
513.193	12529.98
513.561	12545.12
513.929	12575.18
514.297	12709.86
514.664	12737.89
515.032	12729.75
515.4	12838.9
515.767	12842.29
516.135	12927.48
516.502	12819.69
516.869	13015.39
517.237	13099.68
517.604	12952.57
517.972	13091.55
518.339	13131.32
518.706	13132.9
519.073	13250.41
519.44	13212.9
519.808	13391.2
520.175	13347.13
520.542	13486.57
520.909	13419.9
521.276	13522.95
521.643	13495.61
522.009	13603.17
522.376	13587.58
522.743	13623.06
523.11	13736.73
523.477	13741.93
523.843	13808.59
524.21	13871.19
524.577	14000
524.943	13950.06
525.31	14017.4
525.676	14077.06
526.043	14065.99
526.409	14047.68
526.776	14164.74
527.142	14136.94
527.508	14160.9
527.874	14248.58
528.241	14213.55
528.607	14259.43
528.973	14310.5
529.339	14196.38
529.705	14296.71
530.071	14333.55
530.437	14276.83
530.803	14375.81
531.169	14344.85
531.535	14369.25
531.901	14383.72
532.267	14357.5
532.632	14447.67
532.998	14423.26
533.364	14388.24
533.73	14380.55
534.095	14411.74
534.461	14397.95
534.826	14395.69
535.192	14304.4
535.557	14428.46
535.923	14314.12
536.288	14364.28
536.653	14374.9
537.019	14273.21
537.384	14268.24
537.749	14242.25
538.114	14226.66
538.479	14211.29
538.845	14248.81
539.21	14115.48
539.575	14211.52
539.94	14177.62
540.305	14185.08
540.67	14051.52
541.034	14087.68
541.399	14071.64
541.764	14007.23
542.129	14001.36
542.494	13961.13
542.858	13959.32
543.223	13895.6
543.587	13952.09
543.952	13836.39
544.316	13920
544.681	13810.63
545.045	13779.89
545.41	13793
545.774	13851.3
546.138	13684.3
546.503	13630.52
546.867	13648.37
547.231	13741.25
547.595	13705.77
547.959	13601.37
548.324	13566.79
548.688	13570.41
549.052	13492.22
549.416	13559.56
549.779	13496.74
550.143	13397.76
550.507	13513.68
550.871	13367.93
551.235	13334.93
551.599	13432.56
551.962	13302.39
552.326	13339.45
552.689	13373.8
553.053	13222.84
553.417	13183.52
553.78	13484.98
554.143	13195.05
554.507	13254.71
554.87	13216.06
555.234	13300.13
555.597	13175.16
555.96	13216.97
556.323	13182.62
556.686	13121.83
557.05	13235.73
557.413	13144.2
557.776	13160.93
558.139	13250.87
558.502	13158.89
558.865	13116.63
559.228	13208.38
559.59	13254.71
559.953	13138.78
560.316	13235.95
560.679	13234.14
561.041	13225.56
561.404	13189.85
561.767	13274.82
562.129	13222.62
562.492	13291.77
562.854	13244.09
563.217	13193.69
563.579	13289.28
563.941	13248.61
564.304	13268.94
564.666	13339.9
565.028	13272.79
565.39	13313.24
565.753	13422.39
566.115	13375.83
566.477	13383.97
566.839	13334.48
567.201	13470.97
567.563	13422.61
567.925	13575.83
568.287	13510.75
568.648	13416.51
569.01	13548.26
569.372	13590.74
569.734	13445.66
570.095	13586
570.457	13596.39
570.819	13574.47
571.18	13555.04
571.542	13598.2
571.903	13635.49
572.265	13669.16
572.626	13713.68
572.987	13701.7
573.349	13674.36
573.71	13801.59
574.071	13673
574.432	13797.07
574.794	13766.33
575.155	13765.88
575.516	13720.68
575.877	13815.37
576.238	13839.78
576.599	13764.53
576.96	13781.47
577.32	13829.38
577.681	13735.6
578.042	13872.54
578.403	13857.63
578.763	13780.12
579.124	13830.51
579.485	13818.08
579.845	13882.26
580.206	13821.92
580.566	13803.85
580.927	13911.87
581.287	13903.73
581.648	13798.87
582.008	13881.58
582.368	13812.89
582.728	13838.87
583.089	13804.3
583.449	13729.5
583.809	13867.57
584.169	13866.22
584.529	13779.67
584.889	13848.36
585.249	13679.33
585.609	13797.29
585.969	13816.5
586.329	13827.8
586.688	13764.98
587.048	13780.12
587.408	13745.54
587.768	13803.17
588.127	13733.57
588.487	13690.85
588.846	13754.13
589.206	13681.59
589.565	13629.16
589.925	13790.97
590.284	13669.84
590.643	13626.68
591.003	13630.07
591.362	13700.8
591.721	13672.78
592.08	13730.85
592.44	13639.1
592.799	13684.08
593.158	13617.64
593.517	13669.39
593.876	13643.85
594.235	13629.39
594.593	13633.91
594.952	13642.95
595.311	13592.1
595.67	13608.6
596.029	13644.08
596.387	13706.9
596.746	13680.46
597.104	13639.1
597.463	13613.57
597.822	13647.47
598.18	13613.34
598.538	13580.12
598.897	13659.44
599.255	13508.26
599.613	13716.39
599.972	13616.05
600.33	13700.8
600.688	13617.86
601.046	13557.98
601.404	13719.55
601.762	13693.34
602.12	13691.98
602.478	13677.75
602.836	13658.09
603.194	13595.49
603.552	13589.84
603.91	13576.51
604.268	13637.75
604.625	13593.91
604.983	13635.04
605.341	13562.5
605.698	13642.72
606.056	13552.33
606.413	13591.65
606.771	13667.8
607.128	13610.4
607.485	13606.79
607.843	13600.69
608.2	13715.03
608.557	13747.58
608.914	13579.22
609.272	13720.68
609.629	13713.23
609.986	13829.61
610.343	13725.2
610.7	13808.59
611.057	13787.58
611.414	13770.85
611.771	13717.07
612.127	13810.63
612.484	13851.08
612.841	13886.56
613.198	13801.59
613.554	13866.44
613.911	13947.35
614.267	13945.31
614.624	13906.44
614.98	13913.67
615.337	13936.27
615.693	13997.29
616.05	13968.81
616.406	13953.45
616.762	13969.72
617.118	13983.28
617.475	13963.62
617.831	13993.9
618.187	14006.55
618.543	14011.52
618.899	14054.91
619.255	14001.58
619.611	14033.9
619.967	14016.95
620.323	14054.69
620.678	13974.92
621.034	14001.13
621.39	14079.32
621.746	14013.56
622.101	14052.2
622.457	14011.3
622.812	14109.83
623.168	14039.55
623.523	14035.93
623.879	14136.72
624.234	14105.08
624.589	14065.76
624.945	14047.68
625.3	14087.68
625.655	14044.74
626.01	14051.52
626.365	14090.62
626.72	14034.57
627.075	14104.63
627.43	14056.49
627.785	14051.3
628.14	14098.08
628.495	14032.99
628.85	14117.74
629.205	14026.21
629.559	14013.11
629.914	13989.83
630.269	13988.25
630.623	13961.81
630.978	14007.46
631.332	14052.88
631.687	14057.85
632.041	13936.95
632.396	13995.25
632.75	13934.24
633.104	13920.91
633.459	13869.83
633.813	13793.9
634.167	13852.21
634.521	13857.63
634.875	13796.61
635.229	13792.09
635.583	13760.23
635.937	13758.2
636.291	13696.05
636.645	13642.72
636.999	13671.65
637.352	13696.05
637.706	13666.22
638.06	13699.22
638.413	13613.12
638.767	13640.91
639.121	13644.53
639.474	13521.82
639.828	13552.33
640.181	13557.98
640.534	13589.16
640.888	13586.9
641.241	13508.71
641.594	13481.59
641.947	13533.8
642.301	13519.79
642.654	13591.65
643.007	13480.92
643.36	13479.33
643.713	13475.95
644.066	13467.58
644.419	13474.14
644.771	13335.16
645.124	13245.89
645.477	13289.28
645.83	13128.38
646.182	13056.3
646.535	13066.01
646.888	13045.67
647.24	12967.48
647.593	13017.65
647.945	12931.1
648.298	12970.2
648.65	12926.58
649.002	12903.76
649.355	12947.6
649.707	12970.42
650.059	12953.7
650.411	13213.13
650.763	13153.24
651.115	13355.04
651.467	13241.37
651.819	13283.63
652.171	13202.73
652.523	13216.29
652.875	13260.58
653.227	13213.81
653.578	13299.9
653.93	13317.98
654.282	13196.18
654.633	13173.13
654.985	13255.16
655.337	13216.97
655.688	13267.81
656.039	13364.76
656.391	13201.38
656.742	13210.42
657.094	13261.71
657.445	13275.72
657.796	13235.27
658.147	13264.2
658.498	13261.94
658.849	13221.04
659.2	13190.08
659.551	13203.18
659.902	13334.93
660.253	13199.12
660.604	13283.41
660.955	13178.78
661.306	13326.8
661.656	13247.7
662.007	13248.61
662.358	13168.38
662.708	13189.85
663.059	13218.78
663.409	13147.59
663.76	13321.15
664.11	13289.96
664.461	13278.44
664.811	13313.24
665.161	13290.87
665.511	13256.74
665.862	13292.22
666.212	13295.84
666.562	13311.66
666.912	13340.81
667.262	13270.75
667.612	13262.62
667.962	13306.91
668.312	13302.16
668.662	13302.16
669.011	13207.7
669.361	13294.25
669.711	13232.11
670.06	13261.49
670.41	13279.34
670.76	13145.56
671.109	13283.86
671.459	13233.01
671.808	13161.6
672.157	13255.16
672.507	13076.18
672.856	13125.67
673.205	13153.24
673.554	13168.83
673.904	13156.41
674.253	13170.64
674.602	13167.03
674.951	12977.2
675.3	12904.89
675.649	13082.28
675.998	12989.4
676.346	13120.02
676.695	13123.19
677.044	12928.39
677.393	13043.41
677.741	13058.78
678.09	12918.67
678.438	12939.24
678.787	12999.8
679.135	13030.99
679.484	12887.26
679.832	12969.52
680.181	12883.87
680.529	12873.7
680.877	12793.25
681.225	12897.43
681.573	12933.13
681.922	12819.47
682.27	12694.95
682.618	12753.48
682.966	12802.97
683.314	12744.44
683.661	12699.02
684.009	12584.67
684.357	12597.55
684.705	12607.72
685.053	12603.43
685.4	12560.94
685.748	12510.77
686.095	12561.84
686.443	12466.93
686.79	12468.74
687.138	12425.58
687.485	12432.36
687.832	12398.69
688.18	12375.86
688.527	12291.34
688.874	12273.72
689.221	12257.67
689.568	12137.68
689.915	12193.27
690.262	12161.4
690.609	12196.2
690.956	12089.99
691.303	12108.98
691.65	11993.95
691.997	12011.12
692.344	11874.18
692.69	11823.33
693.037	11878.25
693.383	11729.32
693.73	11777.46
694.077	11752.15
694.423	11712.38
694.769	11704.01
695.116	11646.61
695.462	11667.63
695.808	11464.7
696.155	11626.5
696.501	11418.82
696.847	11506.05
697.193	11386.51
697.539	11413.63
697.885	11310.58
698.231	11294.08
698.577	11328.43
698.923	11254.99
699.269	11121.43
699.614	11136.8
699.96	11102
700.306	11064.03
700.651	11058.38
700.997	11027.87
701.342	10995.78
701.688	10939.06
702.033	10909.91
702.379	10866.97
702.724	10831.27
703.069	10814.32
703.415	10749.01
703.76	10712.85
704.105	10790.59
704.45	10689.8
704.795	10629.01
705.14	10647.32
705.485	10578.17
705.83	10554.21
706.175	10557.38
706.52	10529.58
706.865	10463.14
707.209	10487.1
707.554	10358.06
707.899	10407.1
708.243	10380.21
708.588	10315.35
708.932	10295.46
709.277	10237.16
709.621	10210.04
709.966	10096.15
710.31	10186.77
710.654	10163.72
710.998	10066.32
711.342	10102.02
711.687	10022.7
712.031	10045.98
712.375	9968.47
712.719	10019.76
713.063	9920.33
713.407	10017.73
713.75	9942.48
714.094	9941.8
714.438	9862.71
714.782	9859.54
715.125	9836.04
715.469	9864.74
715.812	9825.19
716.156	9718.98
716.499	9743.61
716.843	9760.11
717.186	9789.26
717.53	9756.27
717.873	9707.68
718.216	9747
718.559	9656.84
718.902	9608.7
719.246	9649.15
719.589	9669.94
719.932	9573.45
720.275	9628.14
720.617	9547.91
720.96	9526.67
721.303	9534.81
721.646	9624.52
721.989	9465.66
722.331	9547.69
722.674	9493.68
723.016	9495.26
723.359	9539.78
723.701	9538.87
724.044	9458.88
724.386	9332.78
724.729	9444.64
725.071	9451.19
725.413	9430.4
725.755	9413
726.097	9370.29
726.439	9349.95
726.782	9342.95
727.124	9359.44
727.465	9330.52
727.807	9353.79
728.149	9341.36
728.491	9324.42
728.833	9308.6
729.175	9289.61
729.516	9342.27
729.858	9318.09
730.199	9350.63
730.541	9268.37
730.882	9312.21
731.224	9340.01
731.565	9295.94
731.906	9324.19
732.248	9257.52
732.589	9306.56
732.93	9190.41
733.271	9260.91
733.612	9272.21
733.953	9315.6
734.294	9260.91
734.635	9230.18
734.976	9345.43
735.317	9284.42
735.658	9234.25
735.999	9283.29
736.339	9223.85
736.68	9294.13
737.021	9297.75
737.361	9222.95
737.702	9311.08
738.042	9233.12
738.383	9230.63
738.723	9276.96
739.063	9342.27
739.404	9309.5
739.744	9344.75
740.084	9282.84
740.424	9249.16
740.764	9311.76
741.104	9276.73
741.444	9355.38
741.784	9308.37
742.124	9372.1
742.464	9376.62
742.804	9362.15
743.143	9430.4
743.483	9498.42
743.823	9403.28
744.162	9450.51
744.502	9429.95
744.841	9474.69
745.181	9523.28
745.52	9533.45
745.86	9569.61
746.199	9576.61
746.538	9674.69
746.877	9717.63
747.216	9716.5
747.556	9707.68
747.895	9830.17
748.234	9827.23
748.573	9868.13
748.911	9912.2
749.25	9952.2
749.589	9994
749.928	10049.59
750.267	10191.96
750.605	10194.22
750.944	10307.44
751.283	10332.52
751.621	10411.84
751.96	10420.88
752.298	10587.89
752.636	10650.71
752.975	10727.54
753.313	10833.75
753.651	10928.22
753.989	11037.82
754.327	11113.75
754.666	11138.15
755.004	11233.74
755.342	11395.55
755.679	11585.83
756.017	11636.45
756.355	11768.65
756.693	11897.91
757.031	12079.15
757.368	12199.14
757.706	12292.93
758.044	12453.15
758.381	12682.97
758.719	12675.06
759.056	12965.9
759.394	13072.79
759.731	13138.33
760.068	13336.97
760.405	13441.37
760.743	13552.78
761.08	13727.24
761.417	13888.82
761.754	14081.8
762.091	14215.59
762.428	14439.76
762.765	14467.33
763.102	14641.79
763.438	14818.73
763.775	14938.73
764.112	15088.78
764.449	15351.38
764.785	15403.35
765.122	15513.86
765.458	15619.84
765.795	15869.33
766.131	16005.37
766.467	16085.37
766.804	16271.58
767.14	16342.76
767.476	16473.83
767.812	16534.62
768.148	16781.17
768.485	16842.41
768.821	16918.57
769.157	17086.47
769.492	17227.94
769.828	17265.22
770.164	17240.82
770.5	17455.05
770.836	17664.54
771.171	17641.71
771.507	17732.1
771.842	17696.17
772.178	17861.82
772.513	17986.79
772.849	18006.45
773.184	18134.81
773.519	18288.7
773.855	18214.8
774.19	18321.47
774.525	18419.32
774.86	18554.91
775.195	18452.09
775.53	18399.21
775.865	18473.55
776.2	18575.7
776.535	18556.26
776.87	18635.58
777.205	18610.27
777.539	18665.19
777.874	18775.47
778.209	18622.7
778.543	18645.98
778.878	18689.82
779.212	18713.77
779.547	18769.82
779.881	18895.69
780.215	18876.26
780.55	18856.14
780.884	18818.63
781.218	18768.91
781.552	19035.57
781.886	18867.44
782.22	18797.61
782.554	18798.74
782.888	18669.71
783.222	18702.47
783.556	18797.61
783.889	18776.37
784.223	18661.12
784.557	18678.29
784.89	18697.05
785.224	18685.53
785.557	18588.81
785.891	18556.26
786.224	18571.63
786.558	18616.37
786.891	18483.72
787.224	18531.86
787.557	18375.93
787.891	18418.64
788.224	18424.74
788.557	18492.99
788.89	18499.99
789.223	18506.77
789.556	18412.99
789.888	18294.8
790.221	18300.9
790.554	18125.99
790.887	18093.9
791.219	18208.93
791.552	18168.93
791.884	18081.02
792.217	18084.41
792.549	18041.7
792.882	17948.6
793.214	17886
793.546	17959.44
793.879	17836.96
794.211	17789.28
794.543	17824.31
794.875	17800.8
795.207	17800.35
795.539	17771.43
795.871	17754.7
796.203	17609.17
796.535	17537.53
796.867	17564.88
797.198	17494.37
797.53	17496.86
797.862	17418.44
798.193	17472.45
798.525	17298.9
798.856	17412.56
799.188	17142.97
799.519	17148.84
799.85	16978.45
800.182	17113.82
800.513	17123.31
800.844	16987.27
801.175	17069.97
801.506	17093.93
801.837	16917.66
802.168	16914.05
802.499	16877.21
802.83	16895.06
803.161	16743.66
803.491	16753.6
803.822	16782.3
804.153	16760.83
804.483	16542.53
804.814	16627.5
805.145	16497.79
805.475	16383.67
805.805	16421.86
806.136	16428.64
806.466	16466.6
806.796	16403.78
807.126	16255.76
807.457	16329.43
807.787	16337.56
808.117	16110.68
808.447	16105.93
808.777	16197.68
809.107	16063
809.436	16023.67
809.766	16046.05
810.096	15948.2
810.426	16023.67
810.755	15990.91
811.085	15957.01
811.414	15965.37
811.744	15773.74
812.073	15744.13
812.403	15806.73
812.732	15731.48
813.061	15755.66
813.39	15575.78
813.719	15605.38
814.049	15648.09
814.378	15632.05
814.707	15456.68
815.036	15538.49
815.365	15388.66
815.693	15201.32
816.022	15307.54
816.351	15353.64
816.68	15236.8
817.008	15415.56
817.337	15193.87
817.665	15164.49
817.994	15202
818.322	15126.3
818.651	15106.64
818.979	15063.47
819.307	15123.36
819.636	15117.48
819.964	14936.92
820.292	15084.26
820.62	14974.21
820.948	14966.98
821.276	15050.59
821.604	14944.61
821.932	15082.23
822.259	14987.09
822.587	14948.22
822.915	14886.08
823.243	14965.17
823.57	14957.71
823.898	14967.66
824.225	14926.75
824.553	14920.65
824.88	14962.46
825.207	14968.11
825.535	14872.29
825.862	14980.99
826.189	14982.57
826.516	14939.18
826.843	15002.23
827.17	14924.95
827.497	14922.91
827.824	14956.58
828.151	15072.97
828.478	14933.31
828.805	15077.94
829.131	14958.84
829.458	14969.01
829.785	14907.77
830.111	14912.29
830.438	15016.02
830.764	14937.6
831.09	14978.96
831.417	14894.21
831.743	14931.27
832.069	14912.52
832.395	14896.7
832.722	14976.47
833.048	14874.33
833.374	14836.36
833.7	14834.1
834.026	14852.18
834.351	14859.19
834.677	14851.73
835.003	14848.11
835.329	14862.8
835.654	14788.9
835.98	14824.38
836.306	14819.86
836.631	14693.09
836.956	14850.15
837.282	14804.27
837.607	14741.9
837.932	14648.34
838.258	14679.76
838.583	14597.05
838.908	14523.15
839.233	14523.15
839.558	14519.76
839.883	14468.01
840.208	14406.77
840.533	14421.23
840.858	14408.8
841.182	14409.25
841.507	14520.66
841.832	14366.32
842.156	14353.66
842.481	14281.35
842.805	14240.22
843.13	14260.33
843.454	14233.44
843.778	14153.44
844.103	14193.21
844.427	14097.17
844.751	14104.18
845.075	14111.18
845.399	14003.16
845.723	13974.69
846.047	14030.05
846.371	13909.61
846.695	13924.29
847.019	13752.1
847.343	13707.58
847.666	13668.48
847.99	13572.67
848.313	13565.66
848.637	13484.98
848.96	13435.72
849.284	13386.46
849.607	13309.85
849.931	13387.36
850.254	13170.64
850.577	13151.89
850.9	13052.91
851.223	13093.36
851.546	12993.92
851.869	12914.6
852.192	12989.4
852.515	12804.32
852.838	12812.23
853.161	12858.79
853.483	12832.35
853.806	12721.84
854.129	12786.7
854.451	12590.54
854.774	12560.26
855.096	12500.15
855.419	12516.87
855.741	12407.5
856.063	12454.5
856.385	12362.98
856.708	12330.89
857.03	12316.2
857.352	12306.94
857.674	12233.72
857.996	12090.22
858.318	12026.49
858.64	12054.29
858.961	12076.66
859.283	11980.84
859.605	11959.83
859.926	12037.56
860.248	11935.65
860.57	11883.67
860.891	11863.78
861.212	11802.09
861.534	11833.5
861.855	11702.21
862.176	11817.23
862.498	11786.95
862.819	11826.72
863.14	11713.73
863.461	11657.91
863.782	11643
864.103	11618.82
864.424	11623.34
864.745	11601.64
865.065	11506.73
865.386	11451.82
865.707	11481.87
866.027	11535.66
866.348	11570.01
866.668	11471.03
866.989	11439.61
867.309	11352.16
867.63	11486.17
867.95	11398.03
868.27	11286.85
868.59	11352.16
868.91	11356
869.23	11335.21
869.55	11231.94
869.87	11319.84
870.19	11254.08
870.51	11245.27
870.83	11252.05
871.15	11156.46
871.469	11204.59
871.789	11187.42
872.109	11158.27
872.428	11051.38
872.748	11108.55
873.067	11127.98
873.386	11074.88
873.706	11022.68
874.025	11033.3
874.344	11028.1
874.663	11030.59
874.982	11006.41
875.301	11011.15
875.62	10958.72
875.939	10923.7
876.258	10966.18
876.577	10939.06
876.896	10850.48
877.214	10875.11
877.533	10764.83
877.852	10848.67
878.17	10776.36
878.489	10848.22
878.807	10798.5
879.125	10699.07
879.444	10773.19
879.762	10734.1
880.08	10763.25
880.398	10648.9
880.716	10676.92
881.034	10673.53
881.352	10631.05
881.67	10616.59
881.988	10519.86
882.306	10551.5
882.624	10511.96
882.941	10454.1
883.259	10431.73
883.577	10439.41
883.894	10443.71
884.212	10384.73
884.529	10402.35
884.846	10370.49
885.164	10300.21
885.481	10255.92
885.798	10256.14
886.115	10253.88
886.432	10249.36
886.75	10280.77
887.067	10186.99
887.383	10177.05
887.7	10192.64
888.017	10180.44
888.334	10138.86
888.651	10007.34
888.967	10104.73
889.284	10009.37
889.6	9984.29
889.917	9882.14
890.233	9949.26
890.55	9920.11
890.866	9944.29
891.182	9853.44
891.498	9796.95
891.815	9711.98
892.131	9797.4
892.447	9702.48
892.763	9687.12
893.079	9601.92
893.395	9631.75
893.71	9625.88
894.026	9576.84
894.342	9560.57
894.657	9477.86
894.973	9435.15
895.289	9506.11
895.604	9410.52
895.92	9323.96
896.235	9272.44
896.55	9315.6
896.865	9262.5
897.181	9249.62
897.496	9189.05
897.811	9211.88
898.126	9145.21
898.441	9074.03
898.756	9098.66
899.071	8952.67
899.386	9033.58
899.7	8980.7
900.015	8944.76
900.33	8927.59
900.644	8867.48
900.959	8930.75
901.273	8887.82
901.588	8815.5
901.902	8753.58
902.216	8693.92
902.531	8699.12
902.845	8677.43
903.159	8591.1
903.473	8583.87
903.787	8587.94
904.101	8456.19
904.415	8476.75
904.729	8453.25
905.042	8408.96
905.356	8400.6
905.67	8308.4
905.984	8410.77
906.297	8323.76
906.611	8239.02
906.924	8285.35
907.237	8235.18
907.551	8202.64
907.864	8177.55
908.177	8146.82
908.491	8152.24
908.804	8093.49
909.117	8021.63
909.43	7950.44
909.743	7951.8
910.056	7934.62
910.368	7937.56
910.681	7888.3
910.994	7831.12
911.307	7813.27
911.619	7734.63
911.932	7803.55
912.244	7718.13
912.557	7620.51
912.869	7602.65
913.181	7615.31
913.494	7571.24
913.806	7529.66
914.118	7526.72
914.43	7420.29
914.742	7479.94
915.054	7388.2
915.366	7383.22
915.678	7369.44
915.99	7359.04
916.302	7230.46
916.613	7208.77
916.925	7203.79
917.236	7202.44
917.548	7173.96
917.859	7180.52
918.171	7113.17
918.482	7076.57
918.794	7009.22
919.105	7032.95
919.416	7000.41
919.727	6965.61
920.038	6928.55
920.349	6930.58
920.66	6856.68
920.971	6878.15
921.282	6833.41
921.593	6861.43
921.903	6760.87
922.214	6757.03
922.525	6726.97
922.835	6638.84
923.146	6654.88
923.456	6631.15
923.767	6657.37
924.077	6556.35
924.387	6584.83
924.697	6512.74
925.008	6484.26
925.318	6491.95
925.628	6387.32
925.938	6437.71
926.248	6366.3
926.558	6390.26
926.867	6349.35
927.177	6317.94
927.487	6300.09
927.796	6251.05
928.106	6234.55
928.416	6232.52
928.725	6169.24
929.034	6147.32
929.344	6150.71
929.653	6093.09
929.962	6088.57
930.271	6033.43
930.581	6039.3
930.89	5991.4
931.199	5953.21
931.508	5966.09
931.817	5990.72
932.125	5931.06
932.434	5906.2
932.743	5863.04
933.051	5831.4
933.36	5819.88
933.669	5776.49
933.977	5777.16
934.286	5765.19
934.594	5740.33
934.902	5678.86
935.21	5615.59
935.519	5613.55
935.827	5591.41
936.135	5591.86
936.443	5509.37
936.751	5572.88
937.059	5520.22
937.367	5464.86
937.674	5423.73
937.982	5503.05
938.29	5493.78
938.597	5414.91
938.905	5380.79
939.213	5351.64
939.52	5321.81
939.827	5357.51
940.135	5322.94
940.442	5268.03
940.749	5262.83
941.056	5200.46
941.363	5191.87
941.67	5213.34
941.977	5132.66
942.284	5127.01
942.591	5141.02
942.898	5097.18
943.205	5121.59
943.511	5088.37
943.818	5069.16
944.125	5029.39
944.431	4966.34
944.738	5032.33
945.044	4930.18
945.35	4921.37
945.657	4916.4
945.963	4866.23
946.269	4862.84
946.575	4851.31
946.881	4819.22
947.187	4803.18
947.493	4805.21
947.799	4757.98
948.105	4731.54
948.41	4718.89
948.716	4738.1
949.022	4717.53
949.327	4663.07
949.633	4647.02
949.938	4628.27
950.244	4600.47
950.549	4576.74
950.854	4568.16
951.16	4527.48
951.465	4555.28
951.77	4492.9
952.075	4492.45
952.38	4442.28
952.685	4471.66
952.99	4401.16
953.294	4394.15
953.599	4403.64
953.904	4372.46
954.209	4351.67
954.513	4367.26
954.818	4293.59
955.122	4332.68
955.426	4263.08
955.731	4238.22
956.035	4248.39
956.339	4239.8
956.643	4200.93
956.948	4152.12
957.252	4179.24
957.556	4142.86
957.86	4118.23
958.163	4105.57
958.467	4103.31
958.771	4092.01
959.075	4071.9
959.378	4007.27
959.682	4059.7
959.985	4044.1
960.289	4019.7
960.592	3995.74
960.896	3954.84
961.199	3941.05
961.502	3908.97
961.805	3918.23
962.108	3933.82
962.411	3898.12
962.714	3867.84
963.017	3832.13
963.32	3843.43
963.623	3860.83
963.926	3849.98
964.228	3803.66
964.531	3798.91
964.833	3762.3
965.136	3727.73
965.438	3699.48
965.741	3688.86
966.043	3661.29
966.345	3694.28
966.648	3626.03
966.95	3594.4
967.252	3582.19
967.554	3567.73
967.856	3608.63
968.158	3568.86
968.46	3527.73
968.761	3529.99
969.063	3553.95
969.365	3500.39
969.666	3479.82
969.968	3459.03
970.269	3456.1
970.571	3441.18
970.872	3435.53
971.174	3376.78
971.475	3421.07
971.776	3353.73
972.077	3320.73
972.378	3347.17
972.679	3374.06
972.98	3350.79
973.281	3308.98
973.582	3316.66
973.883	3307.17
974.183	3260.17
974.484	3235.08
974.785	3240.96
975.085	3240.51
975.386	3260.62
975.686	3196.89
975.986	3213.39
976.287	3127.29
976.587	3139.49
976.887	3132.26
977.187	3118.03
977.487	3113.73
977.787	3111.25
978.087	3090.91
978.387	3076.67
978.687	3046.39
978.987	3051.13
979.286	3064.92
979.586	3034.86
979.885	2974.3
980.185	2993.06
980.484	2972.04
980.784	2982.21
981.083	2962.1
981.382	2961.65
981.682	2914.64
981.981	2923.68
982.28	2885.26
982.579	2873.29
982.878	2890.46
983.177	2866.96
983.475	2850.91
983.774	2837.81
984.073	2814.98
984.372	2804.81
984.67	2812.27
984.969	2794.64
985.267	2811.14
985.566	2782.89
985.864	2761.65
986.162	2728.43
986.461	2746.28
986.759	2679.39
987.057	2719.62
987.355	2672.39
987.653	2680.07
987.951	2684.82
988.249	2652.05
988.547	2628.32
988.844	2592.16
989.142	2647.53
989.44	2611.37
989.737	2574.31
990.035	2541.32
990.332	2541.32
990.63	2540.64
990.927	2563.69
991.224	2541.77
991.521	2510.81
991.819	2518.49
992.116	2500.87
992.413	2503.13
992.71	2482.34
993.006	2473.75
993.303	2457.48
993.6	2443.69
993.897	2401.21
994.193	2440.08
994.49	2387.42
994.787	2367.99
995.083	2366.41
995.379	2367.99
995.676	2364.37
995.972	2332.96
996.268	2298.16
996.565	2301.55
996.861	2333.19
997.157	2295.9
997.453	2263.81
997.749	2271.72
998.044	2250.93
998.34	2240.53
998.636	2214.55
998.932	2217.48
999.227	2190.37
999.523	2216.58
999.818	2193.08
1000.114	2175.68
1000.409	2191.04
1000.704	2165.73
1001	2138.16
1001.295	2109.69
1001.59	2118.05
1001.885	2106.3
1002.18	2102.68
1002.475	2098.17
1002.77	2071.27
1003.065	2056.58
1003.359	2055.45
1003.654	2042.57
1003.949	2041.44
1004.243	2009.58
1004.538	1992.63
1004.832	2008.9
1005.127	1968.23
1005.421	1978.39
1005.715	1966.19
1006.009	1966.42
1006.304	1939.07
1006.598	1930.71
1006.892	1921.67
1007.186	1896.81
1007.48	1882.58
1007.773	1876.7
1008.067	1865.63
1008.361	1844.39
1008.655	1857.49
1008.948	1837.38
1009.242	1828.57
1009.535	1831.51
1009.829	1815.46
1010.122	1792.41
1010.415	1802.35
1010.708	1795.57
1011.001	1782.02
1011.295	1780.43
1011.588	1759.42
1011.881	1740.89
1012.173	1730.94
1012.466	1713.99
1012.759	1717.16
1013.052	1703.37
1013.344	1670.61
1013.637	1652.3
1013.93	1672.19
1014.222	1655.92
1014.514	1658.4
1014.807	1653.21
1015.099	1624.28
1015.391	1613.88
1015.683	1631.28
1015.976	1600.78
1016.268	1580.44
1016.56	1588.8
1016.851	1554.68
1017.143	1574.34
1017.435	1546.32
1017.727	1541.12
1018.018	1564.85
1018.31	1533.66
1018.602	1554.22
1018.893	1506.77
1019.185	1513.1
1019.476	1524.17
1019.767	1479.88
1020.058	1467.45
1020.35	1464.06
1020.641	1436.71
1020.932	1437.17
1021.223	1431.52
1021.514	1411.18
1021.804	1401.91
1022.095	1402.36
1022.386	1378.64
1022.677	1403.04
1022.967	1386.77
1023.258	1359.2
1023.548	1348.58
1023.839	1354.23
1024.129	1332.08
1024.419	1347
1024.709	1329.37
1025	1305.42
1025.29	1289.82
1025.58	1297.96
1025.87	1296.15
1026.16	1279.88
1026.449	1273.33
1026.739	1249.37
1027.029	1245.53
1027.319	1252.54
1027.608	1241.24
1027.898	1222.93
1028.187	1222.26
1028.477	1231.07
1028.766	1214.57
1029.055	1203.05
1029.344	1201.24
1029.634	1193.78
1029.923	1194.46
1030.212	1173.9
1030.501	1166.66
1030.79	1129.38
1031.078	1148.59
1031.367	1113.78
1031.656	1127.57
1031.945	1123.95
1032.233	1143.39
1032.522	1085.31
1032.81	1090.96
1033.099	1105.42
1033.387	1100.68
1033.675	1062.71
1033.963	1088.02
1034.251	1054.12
1034.54	1085.31
1034.828	1059.32
1035.116	1058.87
1035.403	1033.11
1035.691	1055.48
1035.979	1027.46
1036.267	1043.73
1036.554	1012.77
1036.842	1019.78
1037.129	985.88
1037.417	1010.28
1037.704	982.26
1037.992	991.75
1038.279	962.6
1038.566	973.45
1038.853	973.45
1039.14	973.45
