Data from hue_280_FLMS001491_00076.txt Node
Date: Tue Feb 07 15:55:45 GMT 2017
User: dcchb
Spectrometer: FLMS00149
Trigger mode: 0
Integration Time (sec): 2.000000E-2
Scans to average: 10
Electric dark correction enabled: true
Nonlinearity correction enabled: false
Boxcar width: 0
XAxis mode: Wavelengths
Number of Pixels in Spectrum: 2048
>>>>>Begin Spectral Data<<<<<
341.393	-3.98
341.776	-3.98
342.16	-3.98
342.543	-64.77
342.927	-84.43
343.31	-87.82
343.693	-62.29
344.077	-49.63
344.46	-62.29
344.843	-40.59
345.226	-40.14
345.61	-28.39
345.993	-11.67
346.376	-25.68
346.759	11.38
347.142	25.62
347.525	36.92
347.908	66.75
348.291	72.85
348.674	82.12
349.057	112.85
349.44	136.13
349.823	130.93
350.206	148.78
350.588	205.05
350.971	207.08
351.354	225.62
351.737	251.6
352.119	233.3
352.502	256.58
352.884	278.95
353.267	258.38
353.65	275.56
354.032	310.36
354.414	313.97
354.797	302.22
355.179	323.01
355.562	304.71
355.944	315.1
356.326	344.03
356.709	313.75
357.091	344.26
357.473	324.82
357.855	325.27
358.238	319.4
358.62	333.64
359.002	334.99
359.384	330.92
359.766	330.25
360.148	353.75
360.53	331.6
360.912	322.34
361.294	329.12
361.676	324.14
362.057	335.22
362.439	327.76
362.821	330.7
363.203	323.92
363.584	309
363.966	323.24
364.348	322.34
364.729	320.08
365.111	326.63
365.493	303.81
365.874	290.25
366.256	294.77
366.637	297.25
367.019	308.33
367.4	311.04
367.781	319.62
368.163	310.59
368.544	310.59
368.925	312.84
369.306	320.08
369.688	297.48
370.069	310.13
370.45	296.57
370.831	310.81
371.212	295.22
371.593	300.42
371.974	304.71
372.355	298.83
372.736	330.92
373.117	308.78
373.498	335.44
373.879	311.71
374.26	312.62
374.641	324.6
375.021	319.62
375.402	316.23
375.783	315.78
376.163	334.54
376.544	323.47
376.925	319.4
377.305	328.44
377.686	309.91
378.066	308.55
378.447	324.82
378.827	330.25
379.208	338.61
379.588	332.51
379.968	350.36
380.349	337.7
380.729	328.44
381.109	329.12
381.489	327.99
381.87	338.38
382.25	334.54
382.63	346.29
383.01	329.79
383.39	349
383.77	339.28
384.15	341.77
384.53	334.77
384.91	347.87
385.29	348.32
385.67	351.26
386.049	363.24
386.429	348.78
386.809	339.74
387.189	351.04
387.568	352.17
387.948	361.88
388.328	370.7
388.707	361.88
389.087	351.94
389.466	373.18
389.846	363.47
390.225	365.05
390.605	363.24
390.984	346.74
391.363	362.79
391.743	371.37
392.122	367.98
392.501	380.19
392.881	383.35
393.26	399.85
393.639	393.75
394.018	386.06
394.397	388.55
394.776	379.96
395.155	371.6
395.534	372.73
395.913	382.9
396.292	391.71
396.671	399.62
397.05	395.1
397.429	399.4
397.808	405.5
398.186	410.92
398.565	411.6
398.944	406.63
399.323	427.87
399.701	408.89
400.08	414.31
400.458	405.27
400.837	403.24
401.215	425.84
401.594	425.84
401.972	426.97
402.351	416.57
402.729	449.56
403.107	449.79
403.486	438.27
403.864	451.82
404.242	465.61
404.62	454.31
404.999	430.36
405.377	465.38
405.755	456.8
406.133	461.32
406.511	478.04
406.889	469.45
407.267	460.64
407.645	462.9
408.023	448.21
408.401	492.05
408.779	466.29
409.156	501.77
409.534	474.2
409.912	493.18
410.29	509
410.667	522.1
411.045	504.03
411.422	536.57
411.8	531.37
412.178	550.35
412.555	547.64
412.933	561.88
413.31	556.91
413.687	571.37
414.065	557.81
414.442	573.18
414.819	577.47
415.197	597.36
415.574	615.21
415.951	619.28
416.328	631.71
416.705	620.18
417.082	634.64
417.46	630.12
417.837	639.62
418.214	649.56
418.591	648.88
418.967	679.16
419.344	670.58
419.721	668.77
420.098	689.78
420.475	687.07
420.852	696.11
421.228	733.17
421.605	732.72
421.982	745.83
422.358	728.43
422.735	764.58
423.111	763.45
423.488	741.31
423.864	756
424.241	777.92
424.617	805.26
424.994	786.73
425.37	812.04
425.746	811.81
426.123	825.15
426.499	836.45
426.875	827.63
427.251	860.18
427.627	879.16
428.003	883.9
428.379	875.54
428.756	904.47
429.132	907.18
429.507	902.89
429.883	933.17
430.259	930
430.635	937.46
431.011	973.17
431.387	994.63
431.763	988.08
432.138	998.7
432.514	1000.96
432.89	1001.19
433.265	1015.43
433.641	1052.71
434.016	1098.36
434.392	1075.99
434.767	1073.73
435.143	1115.31
435.518	1099.72
435.894	1100.17
436.269	1137.68
436.644	1142.43
437.02	1173.16
437.395	1186.95
437.77	1203.22
438.145	1191.47
438.52	1215.87
438.895	1238.02
439.271	1244.8
439.646	1286.6
440.021	1292.93
440.395	1271.46
440.77	1273.05
441.145	1319.6
441.52	1335.42
441.895	1333.83
442.27	1364.79
442.645	1327.73
443.019	1322.99
443.394	1346.49
443.769	1384
444.143	1347.39
444.518	1391.23
444.892	1387.62
445.267	1379.48
445.641	1419.93
446.016	1411.12
446.39	1423.32
446.764	1454.74
447.139	1449.31
447.513	1438.47
447.887	1455.87
448.262	1469.42
448.636	1445.24
449.01	1489.54
449.384	1490.44
449.758	1502.87
450.132	1532.7
450.506	1536.09
450.88	1527.95
451.254	1543.77
451.628	1554.39
452.002	1555.3
452.376	1538.35
452.75	1569.54
453.123	1586.26
453.497	1555.52
453.871	1633.04
454.244	1642.3
454.618	1636.43
454.992	1673.49
455.365	1649.31
455.739	1667.39
456.112	1676.42
456.486	1708.06
456.859	1726.82
457.232	1741.51
457.606	1774.05
457.979	1746.93
458.352	1778.12
458.725	1826.7
459.099	1794.84
459.472	1871.67
459.845	1846.82
460.218	1831.45
460.591	1842.07
460.964	1866.25
461.337	1922.75
461.71	1939.24
462.083	1951.22
462.456	1926.14
462.829	1913.03
463.201	2008.62
463.574	1999.58
463.947	1997.77
464.32	2056.98
464.692	2024.66
465.065	2070.54
465.438	2084.32
465.81	2085.23
466.183	2117.54
466.555	2160.25
466.928	2144.66
467.3	2188.73
467.672	2192.8
468.045	2247.71
468.417	2256.52
468.789	2254.49
469.161	2260.59
469.534	2308.05
469.906	2346.92
470.278	2327.48
470.65	2374.26
471.022	2411.55
471.394	2460.81
471.766	2442.51
472.138	2435.73
472.51	2491.09
472.882	2560.47
473.253	2545.78
473.625	2565.44
473.997	2644.76
474.369	2630.3
474.74	2640.24
475.112	2681.14
475.484	2729.5
475.855	2733.35
476.227	2788.03
476.598	2839.11
476.97	2858.77
477.341	2877.75
477.713	2931.31
478.084	2943.74
478.455	2978.31
478.827	3046.78
479.198	3101.25
479.569	3085.88
479.94	3147.35
480.311	3186.89
480.682	3225.54
481.053	3272.54
481.424	3310.28
481.795	3334.23
482.166	3358.19
482.537	3405.87
482.908	3475.7
483.279	3470.73
483.65	3523.61
484.021	3586.66
484.391	3623.49
484.762	3647.9
485.133	3699.87
485.503	3651.06
485.874	3750.27
486.244	3751.17
486.615	3842.24
486.985	3883.82
487.356	3905.07
487.726	3932.86
488.097	4008.11
488.467	4001.79
488.837	4028.68
489.207	4082.01
489.578	4175.57
489.948	4155
490.318	4210.14
490.688	4215.12
491.058	4245.17
491.428	4306.64
491.798	4351.16
492.168	4393.19
492.538	4403.36
492.908	4471.15
493.278	4509.8
493.648	4516.35
494.017	4531.94
494.387	4599.29
494.757	4654.2
495.126	4624.14
495.496	4687.87
495.866	4726.29
496.235	4750.47
496.605	4750.92
496.974	4756.8
497.344	4797.7
497.713	4801.31
498.082	4844.25
498.452	4921.54
498.821	4872.27
499.19	4890.8
499.559	4921.54
499.928	4959.73
500.298	4976.68
500.667	5011.25
501.036	4992.04
501.405	5025.72
501.774	5023
502.143	5051.25
502.512	5078.6
502.88	5118.37
503.249	5117.01
503.618	5174.41
503.987	5172.83
504.356	5186.84
504.724	5161.53
505.093	5192.26
505.462	5230.68
505.83	5224.35
506.199	5289.44
506.567	5315.88
506.936	5315.88
507.304	5361.07
507.672	5330.34
508.041	5390.23
508.409	5402.2
508.777	5387.51
509.145	5461.18
509.514	5420.96
509.882	5462.31
510.25	5474.97
510.618	5518.81
510.986	5528.3
511.354	5499.6
511.722	5565.36
512.09	5605.81
512.458	5556.55
512.826	5621.63
513.193	5667.96
513.561	5636.32
513.929	5653.04
514.297	5684.23
514.664	5712.93
515.032	5717.45
515.4	5735.98
515.767	5755.64
516.135	5762.19
516.502	5723.1
516.869	5824.11
517.237	5856.88
517.604	5772.59
517.972	5846.26
518.339	5839.03
518.706	5802.42
519.073	5860.04
519.44	5901.4
519.808	5945.47
520.175	5819.14
520.542	5959.48
520.909	5964.22
521.276	5977.33
521.643	5999.48
522.009	6036.08
522.376	6053.03
522.743	6098.91
523.11	6127.83
523.477	6175.74
523.843	6161.28
524.21	6218.45
524.577	6212.35
524.943	6221.39
525.31	6247.15
525.676	6296.42
526.043	6326.02
526.409	6348.84
526.776	6398.79
527.142	6394.94
527.508	6410.99
527.874	6439.24
528.241	6495.28
528.607	6450.99
528.973	6530.08
529.339	6510.87
529.705	6601.95
530.071	6559.69
530.437	6624.09
530.803	6632.9
531.169	6621.61
531.535	6606.92
531.901	6653.24
532.267	6667.93
532.632	6739.57
532.998	6705.67
533.364	6790.41
533.73	6782.05
534.095	6774.6
534.461	6826.8
534.826	6860.47
535.192	6897.53
535.557	6892.56
535.923	6921.48
536.288	6937.08
536.653	6864.54
537.019	6854.82
537.384	6916.97
537.749	6973.23
538.114	6906.12
538.479	6940.02
538.845	6982.05
539.21	6970.52
539.575	7028.37
539.94	7013.91
540.305	7072.89
540.67	7062.95
541.034	7085.32
541.399	7033.35
541.764	7109.28
542.129	7142.95
542.494	7157.41
542.858	7123.97
543.223	7103.4
543.587	7252.32
543.952	7182.04
544.316	7196.28
544.681	7245.77
545.045	7210.29
545.41	7311.98
545.774	7237.41
546.138	7304.3
546.503	7302.72
546.867	7331.42
547.231	7345.43
547.595	7344.52
547.959	7283.96
548.324	7349.04
548.688	7355.37
549.052	7365.09
549.416	7387.01
549.779	7323.73
550.143	7425.43
550.507	7400.57
550.871	7420.91
551.235	7425.43
551.599	7492.54
551.962	7479.21
552.326	7513.56
552.689	7555.59
553.053	7522.15
553.417	7480.34
553.78	7590.85
554.143	7588.36
554.507	7589.49
554.87	7629.94
555.234	7706.77
555.597	7586.78
555.96	7642.6
556.323	7687.34
556.686	7652.99
557.05	7712.88
557.413	7794
557.776	7755.59
558.139	7772.99
558.502	7784.06
558.865	7784.06
559.228	7859.09
559.59	7842.59
559.953	7872.65
560.316	7902.93
560.679	7908.13
561.041	7962.14
561.404	7955.58
561.767	8086.88
562.129	8006.65
562.492	8006.2
562.854	8055.01
563.217	8031.29
563.579	8141.57
563.941	8146.09
564.304	8143.83
564.666	8148.12
565.028	8177.04
565.39	8259.08
565.753	8339.07
566.115	8345.4
566.477	8348.57
566.839	8303.82
567.201	8402.12
567.563	8467.21
567.925	8499.52
568.287	8433.08
568.648	8444.83
569.01	8509.92
569.372	8543.14
569.734	8516.92
570.095	8599.18
570.457	8655.45
570.819	8669.24
571.18	8641.67
571.542	8717.14
571.903	8747.43
572.265	8745.84
572.626	8799.4
572.987	8787.65
573.349	8865.16
573.71	8850.47
574.071	8965.27
574.432	9003.46
574.794	8985.84
575.155	8989.68
575.516	9014.54
575.877	9084.82
576.238	9078.72
576.599	9174.98
576.96	9231.71
577.32	9241.88
577.681	9330.01
578.042	9305.6
578.403	9332.27
578.763	9315.32
579.124	9406.17
579.485	9499.5
579.845	9540.85
580.206	9500.4
580.566	9563
580.927	9570.23
581.287	9661.98
581.648	9742.88
582.008	9793.5
582.368	9770.9
582.728	9836.66
583.089	9857.68
583.449	9981.29
583.809	10041.63
584.169	10058.35
584.529	10116.2
584.889	10232.36
585.249	10242.3
585.609	10219.25
585.969	10341.06
586.329	10399.59
586.688	10539.92
587.048	10501.5
587.408	10536.08
587.768	10649.52
588.127	10653.36
588.487	10740.59
588.846	10888.61
589.206	10797.99
589.565	10979.01
589.925	11069.4
590.284	11148.94
590.643	11220.58
591.003	11217.19
591.362	11384.19
591.721	11403.63
592.08	11442.27
592.44	11616.5
592.799	11614.92
593.158	11622.6
593.517	11744.18
593.876	11810.85
594.235	11887
594.593	12049.03
594.952	12003.61
595.311	12057.85
595.67	12111.86
596.029	12246.32
596.387	12281.34
596.746	12350.27
597.104	12309.14
597.463	12417.84
597.822	12539.64
598.18	12464.39
598.538	12554.78
598.897	12728.11
599.255	12713.87
599.613	12876.36
599.972	12830.26
600.33	12946.86
600.688	12945.28
601.046	13072.51
601.404	13113.86
601.762	13132.39
602.12	13242.9
602.478	13230.02
602.836	13290.58
603.194	13344.14
603.552	13374.87
603.91	13397.92
604.268	13497.58
604.625	13501.2
604.983	13579.61
605.341	13640.18
605.698	13671.36
606.056	13796.78
606.413	13716.11
606.771	13897.35
607.128	13845.82
607.485	13784.58
607.843	13890.57
608.2	13999.72
608.557	14022.31
608.914	14018.47
609.272	14094.18
609.629	14225.93
609.986	14229.09
610.343	14201.97
610.7	14234.96
611.057	14251.24
611.414	14367.16
611.771	14348.63
612.127	14413.27
612.484	14456.2
612.841	14547.27
613.198	14425.92
613.554	14481.51
613.911	14618.01
614.267	14667.95
614.624	14630.89
614.98	14609.87
615.337	14748.17
615.693	14683.31
616.05	14717.44
616.406	14884.89
616.762	14719.02
617.118	14743.88
617.475	14877.89
617.831	14855.51
618.187	14871.56
618.543	14877.21
618.899	14997.43
619.255	15015.28
619.611	15029.75
619.967	15016.64
620.323	15113.59
620.678	14983.19
621.034	15013.7
621.39	15047.6
621.746	15066.81
622.101	15203.3
622.457	15084.89
622.812	15126.24
623.168	15216.41
623.523	15177.76
623.879	15216.63
624.234	15113.81
624.589	15215.73
624.945	15190.19
625.3	15245.33
625.655	15227.93
626.01	15239.01
626.365	15199.69
626.72	15147.48
627.075	15241.94
627.43	15187.03
627.785	15184.77
628.14	15228.16
628.495	15253.69
628.85	15195.17
629.205	15148.84
629.559	15190.87
629.914	15196.07
630.269	15239.46
630.623	15139.57
630.978	15113.13
631.332	15177.99
631.687	15218.89
632.041	15194.49
632.396	15158.78
632.75	15157.2
633.104	15223.87
633.459	15084.66
633.813	15140.7
634.167	15103.19
634.521	15094.6
634.875	15069.52
635.229	15113.59
635.583	15054.15
635.937	15098.9
636.291	15088.5
636.645	15131.66
636.999	15003.53
637.352	15102.74
637.706	14944.55
638.06	14925.79
638.413	15010.76
638.767	14932.57
639.121	14959.47
639.474	14884.21
639.828	14852.35
640.181	14949.75
640.534	14965.11
640.888	14912.46
641.241	14840.15
641.594	14834.5
641.947	14887.6
642.301	14863.2
642.654	14876.08
643.007	14806.7
643.36	14842.18
643.713	14714.95
644.066	14816.42
644.419	14746.82
644.771	14597.44
645.124	14615.75
645.477	14491.23
645.83	14424.79
646.182	14321.52
646.535	14290.78
646.888	14447.61
647.24	14288.75
647.593	14356.32
647.945	14323.78
648.298	14320.39
648.65	14277.45
649.002	14177.79
649.355	14428.41
649.707	14317.67
650.059	14412.14
650.411	14565.8
650.763	14504.79
651.115	14641.06
651.467	14652.81
651.819	14703.43
652.171	14658
652.523	14570.78
652.875	14562.64
653.227	14622.07
653.578	14638.57
653.93	14640.38
654.282	14536.65
654.633	14664.56
654.985	14613.94
655.337	14634.5
655.688	14682.86
656.039	14752.92
656.391	14625.24
656.742	14658
657.094	14639.93
657.445	14696.87
657.796	14574.62
658.147	14710.88
658.498	14613.71
658.849	14663.65
659.2	14629.76
659.551	14634.73
659.902	14725.12
660.253	14720.15
660.604	14643.32
660.955	14672.69
661.306	14717.66
661.656	14706.82
662.007	14683.77
662.358	14699.81
662.708	14681.73
663.059	14724.22
663.409	14591.34
663.76	14811.45
664.11	14772.13
664.461	14676.99
664.811	14701.85
665.161	14730.54
665.511	14763.54
665.862	14758.79
666.212	14776.42
666.562	14781.84
666.912	14792.46
667.262	14712.01
667.612	14738
667.962	14841.05
668.312	14770.54
668.662	14747.04
669.011	14745.46
669.361	14702.07
669.711	14675.86
670.06	14681.28
670.41	14693.94
670.76	14687.61
671.109	14748.4
671.459	14694.16
671.808	14769.64
672.157	14659.59
672.507	14602.64
672.856	14616.42
673.205	14633.82
673.554	14682.86
673.904	14577.78
674.253	14716.99
674.602	14787.94
674.951	14327.84
675.3	14386.83
675.649	14506.37
675.998	14547.05
676.346	14512.92
676.695	14606.71
677.044	14475.64
677.393	14484.22
677.741	14506.14
678.09	14496.2
678.438	14474.96
678.787	14441.29
679.135	14459.82
679.484	14274.96
679.832	14438.12
680.181	14340.05
680.529	14344.79
680.877	14267.05
681.225	14254.17
681.573	14333.72
681.922	14314.96
682.27	14170.11
682.618	14279.26
682.966	14117.68
683.314	14188.86
683.661	14137.34
684.009	14101.18
684.357	14025.7
684.705	14014.86
685.053	13993.39
685.4	14048.98
685.748	14009.21
686.095	13907.06
686.443	13869.1
686.79	13870.91
687.138	13865.03
687.485	13812.83
687.832	13831.36
688.18	13843.34
688.527	13734.41
688.874	13710.23
689.221	13686.05
689.568	13603.12
689.915	13553.85
690.262	13560.41
690.609	13477.7
690.956	13447.41
691.303	13491.48
691.65	13364.25
691.997	13386.63
692.344	13195.44
692.69	13217.82
693.037	13287.42
693.383	13156.35
693.73	13159.74
694.077	13096.92
694.423	13064.37
694.769	13092.4
695.116	13023.02
695.462	13083.58
695.808	12835.23
696.155	12910.93
696.501	12857.37
696.847	12743.93
697.193	12717.94
697.539	12733.08
697.885	12712.29
698.231	12613.99
698.577	12544.39
698.923	12492.86
699.269	12502.58
699.614	12396.14
699.96	12391.85
700.306	12332.64
700.651	12360.44
700.997	12291.29
701.342	12247.45
701.688	12226.2
702.033	12186.43
702.379	12089.94
702.724	12107.79
703.069	12192.31
703.415	11943.05
703.76	11901.47
704.105	11903.5
704.45	11965.19
704.795	11805.65
705.14	11781.24
705.485	11874.35
705.83	11691.3
706.175	11725.88
706.52	11667.12
706.865	11658.54
707.209	11634.36
707.554	11582.15
707.899	11559.33
708.243	11487.47
708.588	11441.14
708.932	11409.95
709.277	11378.54
709.621	11414.7
709.966	11286.57
710.31	11262.39
710.654	11185.55
710.998	11203.18
711.342	11218.77
711.687	11247.47
712.031	11152.11
712.375	11104.2
712.719	11106.69
713.063	11058.1
713.407	11120.92
713.75	11095.84
714.094	11015.39
714.438	10937.65
714.782	11020.36
715.125	10959.12
715.469	10997.76
715.812	10870.08
716.156	10920.25
716.499	10858.1
716.843	10913.02
717.186	10835.96
717.53	10903.53
717.873	10881.83
718.216	10841.61
718.559	10851.32
718.902	10705.34
719.246	10702.4
719.589	10673.48
719.932	10646.13
720.275	10721.61
720.617	10697.43
720.96	10607.04
721.303	10646.36
721.646	10701.72
721.989	10604.55
722.331	10617.43
722.674	10567.49
723.016	10596.64
723.359	10574.27
723.701	10611.11
724.044	10599.35
724.386	10456.53
724.729	10568.39
725.071	10459.92
725.413	10477.32
725.755	10474.84
726.097	10481.17
726.439	10322.98
726.782	10427.16
727.124	10446.36
727.465	10412.24
727.807	10445.91
728.149	10359.36
728.491	10419.25
728.833	10456.31
729.175	10367.72
729.516	10373.15
729.858	10321.85
730.199	10366.59
730.541	10302.64
730.882	10332.02
731.224	10344.22
731.565	10338.57
731.906	10332.02
732.248	10375.86
732.589	10256.54
732.93	10290.21
733.271	10302.41
733.612	10355.29
733.953	10277.33
734.294	10337.89
734.635	10272.13
734.976	10347.84
735.317	10285.46
735.658	10313.49
735.999	10327.95
736.339	10351.23
736.68	10301.73
737.021	10381.05
737.361	10319.81
737.702	10351
738.042	10309.64
738.383	10331.11
738.723	10429.64
739.063	10331.11
739.404	10414.5
739.744	10427.16
740.084	10336.54
740.424	10400.26
740.764	10414.27
741.104	10462.63
741.444	10415.63
741.784	10356.87
742.124	10526.59
742.464	10525.68
742.804	10504.44
743.143	10452.69
743.483	10457.44
743.823	10463.09
744.162	10512.12
744.502	10544.44
744.841	10517.77
745.181	10659.92
745.52	10696.53
745.86	10743.98
746.199	10740.37
746.538	10781.27
746.877	10886.58
747.216	10824.21
747.556	10908.5
747.895	10970.19
748.234	10987.37
748.573	10983.98
748.911	11056.29
749.25	11193.24
749.589	11245.44
749.928	11208.38
750.267	11435.72
750.605	11453.79
750.944	11436.85
751.283	11528.37
751.621	11649.5
751.96	11635.49
752.298	11838.64
752.636	11919.09
752.975	11961.35
753.313	11999.77
753.651	12267.56
753.989	12322.02
754.327	12447.67
754.666	12474.33
755.004	12676.81
755.342	12743.03
755.679	12886.75
756.017	12917.49
756.355	13181.66
756.693	13160.87
757.031	13441.54
757.368	13472.72
757.706	13604.7
758.044	13688.09
758.381	13942.32
758.719	14004.46
759.056	14145.93
759.394	14249.2
759.731	14414.17
760.068	14533.94
760.405	14607.84
760.743	14833.14
761.08	14971.22
761.417	15107.26
761.754	15252.34
762.091	15313.13
762.428	15533.46
762.765	15643.52
763.102	15815.26
763.438	15883.51
763.775	15964.41
764.112	16227
764.449	16337.28
764.785	16437.39
765.122	16514.68
765.458	16604.85
765.795	16759.19
766.131	16925.74
766.467	17044.38
766.804	17151.05
767.14	17175.23
767.476	17344.71
767.812	17456.8
768.148	17487.76
768.485	17532.28
768.821	17555.56
769.157	17790.35
769.492	17885.26
769.828	17936.11
770.164	17881.65
770.5	17965.49
770.836	18102.21
771.171	18091.13
771.507	18202.77
771.842	18170.23
772.178	18279.83
772.513	18349.43
772.849	18469.88
773.184	18396.66
773.519	18574.96
773.855	18554.17
774.19	18574.74
774.525	18611.35
774.86	18609.76
775.195	18635.07
775.53	18631.01
775.865	18615.41
776.2	18606.6
776.535	18531.12
776.87	18635.3
777.205	18721.17
777.539	18670.55
777.874	18818.57
778.209	18741.29
778.543	18694.28
778.878	18588.75
779.212	18737.22
779.547	18678.46
779.881	18760.27
780.215	18671.01
780.55	18824
780.884	18609.99
781.218	18646.37
781.552	18651.57
781.886	18628.75
782.22	18513.27
782.554	18622.87
782.888	18415.87
783.222	18494.51
783.556	18395.31
783.889	18457.68
784.223	18302.65
784.557	18369.32
784.89	18494.06
785.224	18375.19
785.557	18282.99
785.891	18386.49
786.224	18250.45
786.558	18246.61
786.891	18033.73
787.224	18017.69
787.557	18065.15
787.891	18064.92
788.224	18019.95
788.557	18049.33
788.89	17957.13
789.223	17989.22
789.556	17950.35
789.888	17850.91
790.221	17760.75
790.554	17723.91
790.887	17748.32
791.219	17811.59
791.552	17664.71
791.884	17661.54
792.217	17620.41
792.549	17581.54
792.882	17493.18
793.214	17388.33
793.546	17431.26
793.879	17398.05
794.211	17299.52
794.543	17367.54
794.875	17227.2
795.207	17335
795.539	17196.24
795.871	17106.3
796.203	17067.66
796.535	16985.63
796.867	16967.55
797.198	17034.89
797.53	16918.96
797.862	16784.05
798.193	16933.2
798.525	16805.97
798.856	16775.01
799.188	16619.53
799.519	16625.86
799.85	16546.77
800.182	16565.52
800.513	16454.34
800.844	16381.12
801.175	16505.41
801.506	16477.84
801.837	16330.73
802.168	16357.85
802.499	16212.09
802.83	16226.78
803.161	16170.96
803.491	16139.32
803.822	16185.2
804.153	16015.71
804.483	15993.34
804.814	15949.04
805.145	15951.08
805.475	15953.34
805.805	15853.91
806.136	15917.18
806.466	15817.3
806.796	15710.41
807.126	15616.62
807.457	15677.41
807.787	15681.93
808.117	15583.4
808.447	15581.82
808.777	15632.89
809.107	15495.72
809.436	15478.55
809.766	15428.15
810.096	15373.01
810.426	15295.95
810.755	15417.31
811.085	15378.44
811.414	15236.29
811.744	15185
812.073	15156.3
812.403	15230.19
812.732	15094.38
813.061	15126.92
813.39	15058.9
813.719	14954.95
814.049	15028.39
814.378	14944.1
814.707	14858.9
815.036	14917.88
815.365	14832.24
815.693	14710.66
816.022	14782.52
816.351	14757.89
816.68	14692.58
817.008	14707.72
817.337	14617.1
817.665	14595.63
817.994	14599.7
818.322	14507.5
818.651	14473.6
818.979	14479.93
819.307	14558.8
819.636	14433.15
819.964	14384.34
820.292	14494.84
820.62	14409.42
820.948	14458.01
821.276	14400.84
821.604	14291.46
821.932	14348.18
822.259	14348.63
822.587	14332.82
822.915	14306.83
823.243	14362.19
823.57	14282.65
823.898	14340.27
824.225	14273.16
824.553	14356.32
824.88	14288.07
825.207	14425.69
825.535	14343.21
825.862	14334.4
826.189	14315.87
826.516	14348.18
826.843	14429.99
827.17	14298.92
827.497	14310.67
827.824	14358.58
828.151	14314.06
828.478	14313.61
828.805	14394.96
829.131	14316.32
829.458	14284.45
829.785	14179.6
830.111	14266.38
830.438	14345.7
830.764	14258.92
831.09	14285.58
831.417	14156.77
831.743	14328.07
832.069	14271.8
832.395	14141.63
832.722	14314.51
833.048	14254.17
833.374	14288.75
833.7	14117.45
834.026	14296.21
834.351	14204.46
834.677	14162.65
835.003	14136.89
835.329	14201.75
835.654	14147.96
835.98	14064.35
836.306	14163.55
836.631	14061.18
836.956	14149.32
837.282	14128.53
837.607	14048.98
837.932	14016.44
838.258	13993.39
838.583	13939.83
838.908	13880.62
839.233	14031.81
839.558	13913.39
839.883	13903.67
840.208	13813.28
840.533	13866.84
840.858	13858.48
841.182	13782.1
841.507	13794.07
841.832	13672.27
842.156	13676.11
842.481	13678.6
842.805	13574.42
843.13	13593.4
843.454	13583.46
843.778	13560.63
844.103	13510.46
844.427	13473.63
844.751	13441.31
845.075	13348.21
845.399	13382.11
845.723	13293.29
846.047	13367.87
846.371	13089.68
846.695	13160.42
847.019	13111.83
847.343	13093.07
847.666	13026.41
847.99	12971.27
848.313	12931.95
848.637	12830.26
848.96	12814.89
849.284	12860.31
849.607	12661.9
849.931	12714.33
850.254	12599.75
850.577	12590.49
850.9	12426.88
851.223	12505.97
851.546	12440.21
851.869	12338.97
852.192	12337.61
852.515	12279.08
852.838	12163.83
853.161	12249.25
853.483	12106.66
853.806	12066.89
854.129	12052.2
854.451	12000.67
854.774	11995.25
855.096	11983.27
855.419	11870.06
855.741	11884.29
856.063	11844.07
856.385	11790.96
856.708	11773.33
857.03	11720.91
857.352	11714.58
857.674	11663.28
857.996	11616.28
858.318	11541.93
858.64	11457.86
858.961	11492.21
859.283	11525.66
859.605	11417.19
859.926	11472.33
860.248	11415.38
860.57	11378.32
860.891	11381.03
861.212	11255.16
861.534	11248.6
861.855	11228.26
862.176	11307.81
862.498	11286.34
862.819	11220.58
863.14	11199.56
863.461	11138.55
863.782	11079.12
864.103	11123.41
864.424	11130.87
864.745	11108.49
865.065	11005.45
865.386	11016.52
865.707	10975.62
866.027	11024.88
866.348	11026.46
866.668	10930.19
866.989	10922.96
867.309	10946.01
867.63	10954.6
867.95	10883.64
868.27	10819.24
868.59	10877.76
868.91	10810.87
869.23	10840.03
869.55	10800.25
869.87	10793.25
870.19	10749.18
870.51	10794.6
870.83	10703.76
871.15	10605
871.469	10730.88
871.789	10729.52
872.109	10606.13
872.428	10603.42
872.748	10635.06
873.067	10647.26
873.386	10675.74
873.706	10583.76
874.025	10565.68
874.344	10498.11
874.663	10495.4
874.982	10451.56
875.301	10417.44
875.62	10533.37
875.939	10400.94
876.258	10441.17
876.577	10330.21
876.896	10340.38
877.214	10376.54
877.533	10383.99
877.852	10402.3
878.17	10372.92
878.489	10371.11
878.807	10339.02
879.125	10330.66
879.444	10280.72
879.762	10188.07
880.08	10274.84
880.398	10203.43
880.716	10180.61
881.034	10171.12
881.352	10139.25
881.67	10175.64
881.988	10213.15
882.306	9995.3
882.624	10042.98
882.941	9986.49
883.259	9991.69
883.577	9985.36
883.894	9966.6
884.212	9972.48
884.529	9890.67
884.846	9884.8
885.164	9844.12
885.481	9774.29
885.798	9837.79
886.115	9841.18
886.432	9720.73
886.75	9796.21
887.067	9810
887.383	9741.07
887.7	9715.99
888.017	9647.74
888.334	9680.06
888.651	9575.65
888.967	9547.63
889.284	9518.93
889.6	9513.96
889.917	9464.69
890.233	9506.05
890.55	9435.32
890.866	9414.3
891.182	9400.97
891.498	9388.76
891.815	9366.84
892.131	9269.22
892.447	9286.17
892.763	9296.34
893.079	9227.41
893.395	9198.49
893.71	9116
894.026	9198.26
894.342	9090.24
894.657	9022.67
894.973	9044.14
895.289	9031.94
895.604	9019.51
895.92	8939.06
896.235	8911.49
896.55	8899.29
896.865	8901.09
897.181	8892.05
897.496	8829.46
897.811	8787.65
898.126	8708.1
898.441	8692.06
898.756	8706.97
899.071	8687.31
899.386	8655.9
899.7	8570.93
900.015	8579.75
900.33	8493.19
900.644	8497.26
900.959	8483.48
901.273	8495.68
901.588	8337.94
901.902	8377.04
902.216	8350.83
902.531	8365.74
902.845	8311.28
903.159	8241.68
903.473	8114.9
903.787	8194.9
904.101	8109.93
904.415	8118.74
904.729	8075.13
905.042	8051.17
905.356	8037.61
905.67	7971.85
905.984	8000.1
906.297	7976.6
906.611	7964.85
906.924	7889.82
907.237	7918.75
907.551	7839.2
907.864	7752.88
908.177	7793.78
908.491	7788.35
908.804	7722.37
909.117	7605.76
909.43	7640.56
909.743	7604.4
910.056	7619.77
910.368	7601.47
910.681	7515.82
910.994	7537.97
911.307	7458.42
911.619	7430.17
911.932	7406.22
912.244	7326.45
912.557	7346.78
912.869	7273.79
913.181	7213.68
913.494	7257.3
913.806	7171.65
914.118	7190.63
914.43	7156.28
914.742	7142.27
915.054	7098.66
915.366	7067.47
915.678	7047.58
915.99	7029.73
916.302	6974.59
916.613	6923.52
916.925	6950.18
917.236	6843.75
917.548	6857.53
917.859	6843.52
918.171	6808.04
918.482	6756.97
918.794	6729.85
919.105	6749.96
919.416	6643.07
919.727	6674.49
920.038	6642.17
920.349	6544.32
920.66	6561.04
920.971	6570.08
921.282	6588.39
921.593	6462.06
921.903	6468.62
922.214	6468.16
922.525	6378.67
922.835	6370.99
923.146	6334.38
923.456	6358.34
923.767	6330.54
924.077	6277.43
924.387	6217.1
924.697	6210.77
925.008	6199.47
925.318	6210.99
925.628	6178
925.938	6087.16
926.248	6096.42
926.558	6148.17
926.867	6032.92
927.177	6045.58
927.487	6019.59
927.796	5967.39
928.106	5984.56
928.416	5914.28
928.725	5892.81
929.034	5881.74
929.344	5840.38
929.653	5873.6
929.962	5789.54
930.271	5784.11
930.581	5754.96
930.89	5720.39
931.199	5740.05
931.508	5678.81
931.817	5651.46
932.125	5599.94
932.434	5599.94
932.743	5594.97
933.051	5561.97
933.36	5554.97
933.669	5496.66
933.977	5437.23
934.286	5494.18
934.594	5469.55
934.902	5471.81
935.21	5354.29
935.519	5382.32
935.827	5346.84
936.135	5345.03
936.443	5270
936.751	5288.31
937.059	5255.54
937.367	5292.15
937.674	5192.04
937.982	5225.26
938.29	5185.94
938.597	5180.51
938.905	5129.67
939.213	5077.01
939.52	5095.77
939.827	5111.14
940.135	5031.82
940.442	5039.95
940.749	5035.21
941.056	5004.25
941.363	4974.19
941.67	4920.63
941.977	4924.25
942.284	4911.37
942.591	4869.11
942.898	4858.71
943.205	4888.54
943.511	4840.64
943.818	4817.81
944.125	4754.99
944.431	4773.97
944.738	4726.06
945.044	4731.49
945.35	4708.66
945.657	4648.1
945.963	4624.82
946.269	4645.39
946.575	4617.59
946.881	4598.16
947.187	4543.24
947.493	4566.52
947.799	4525.84
948.105	4488.55
948.41	4508.44
948.716	4473.87
949.022	4486.52
949.327	4477.93
949.633	4450.82
949.938	4408.56
950.244	4393.42
950.549	4338.05
950.854	4343.93
951.16	4344.38
951.465	4341.89
951.77	4257.37
952.075	4266.64
952.38	4253.53
952.685	4272.29
952.99	4209.47
953.294	4205.17
953.599	4207.66
953.904	4129.47
954.209	4111.39
954.513	4124.95
954.818	4079.3
955.122	4071.39
955.426	4107.77
955.731	4023.03
956.035	4046.98
956.339	4025.06
956.643	3974.22
956.948	3924.73
957.252	3979.64
957.556	3959.53
957.86	3917.72
958.163	3910.94
958.467	3896.48
958.771	3874.11
959.075	3860.77
959.378	3825.75
959.682	3836.37
959.985	3837.95
960.289	3810.38
960.592	3785.52
960.896	3747.33
961.199	3736.26
961.502	3772.87
961.805	3752.3
962.108	3710.04
962.411	3690.84
962.714	3649.93
963.017	3666.2
963.32	3726.77
963.623	3641.12
963.926	3611.29
964.228	3577.39
964.531	3602.25
964.833	3564.96
965.136	3543.04
965.438	3533.1
965.741	3502.14
966.043	3487.45
966.345	3492.42
966.648	3510.5
966.95	3471.41
967.252	3443.16
967.554	3414.68
967.856	3427.57
968.158	3364.29
968.46	3393.67
968.761	3391.41
969.063	3351.41
969.365	3364.52
969.666	3337.62
969.968	3298.98
970.269	3297.63
970.571	3312.09
970.872	3282.26
971.174	3237.74
971.475	3231.19
971.776	3256.72
972.077	3218.31
972.378	3236.38
972.679	3197.97
972.98	3159.55
973.281	3153.9
973.582	3162.49
973.883	3109.38
974.183	3118.42
974.484	3123.39
974.785	3070.74
975.085	3096.95
975.386	3036.62
975.686	3015.15
975.986	3048.14
976.287	3021.25
976.587	2997.29
976.887	2967.92
977.187	2999.78
977.487	2968.37
977.787	2912.1
978.087	2956.17
978.387	2940.57
978.687	2907.35
978.987	2857.86
979.286	2884.75
979.586	2878.88
979.885	2838.43
980.185	2866.9
980.484	2825.1
980.784	2809.05
981.083	2843.85
981.382	2803.17
981.682	2803.63
981.981	2760.01
982.28	2771.76
982.579	2760.92
982.878	2752.78
983.177	2733.57
983.475	2713.69
983.774	2686.57
984.073	2717.08
984.372	2666.68
984.67	2652.67
984.969	2636.4
985.267	2652.67
985.566	2626.91
985.864	2596.63
986.162	2626.68
986.461	2604.99
986.759	2578.55
987.057	2524.54
987.355	2586.46
987.653	2544.42
987.951	2519.34
988.249	2526.35
988.547	2472.79
988.844	2456.52
989.142	2475.5
989.44	2453.13
989.737	2475.5
990.035	2466.01
990.332	2430.3
990.63	2449.74
990.927	2448.61
991.224	2410.64
991.521	2392.79
991.819	2397.99
992.116	2341.49
992.413	2369.97
992.71	2357.99
993.006	2316.41
993.303	2354.15
993.6	2303.08
993.897	2338.78
994.193	2323.19
994.49	2266.69
994.787	2272.79
995.083	2258.1
995.379	2276.41
995.676	2259.91
995.972	2209.74
996.268	2218.11
996.565	2183.76
996.861	2208.39
997.157	2199.57
997.453	2217.88
997.749	2158.22
998.044	2214.49
998.34	2132.68
998.636	2099.24
998.932	2120.25
999.227	2078.22
999.523	2093.59
999.818	2112.35
1000.114	2071.44
1000.409	2061.5
1000.704	2052.91
1001	2040.71
1001.295	2022.86
1001.59	2003.87
1001.885	2023.53
1002.18	2012.24
1002.475	2000.26
1002.77	1995.29
1003.065	1951.22
1003.359	1972.24
1003.654	1953.71
1003.949	1960.26
1004.243	1931.56
1004.538	1913.03
1004.832	1906.48
1005.127	1888.85
1005.421	1880.71
1005.715	1849.98
1006.009	1861.73
1006.304	1859.47
1006.598	1874.61
1006.892	1822.18
1007.186	1810.66
1007.48	1787.83
1007.773	1804.78
1008.067	1792.58
1008.361	1777.89
1008.655	1773.6
1008.948	1780.6
1009.242	1786.25
1009.535	1721.85
1009.829	1735.86
1010.122	1742.64
1010.415	1714.16
1010.708	1711.9
1011.001	1724.56
1011.295	1699.25
1011.588	1675.07
1011.881	1652.92
1012.173	1659.02
1012.466	1635.07
1012.759	1632.36
1013.052	1636.2
1013.344	1619.03
1013.637	1612.47
1013.93	1616.09
1014.222	1606.37
1014.514	1559.59
1014.807	1552.36
1015.099	1582.19
1015.391	1529.99
1015.683	1546.26
1015.976	1520.04
1016.268	1524.79
1016.56	1504.23
1016.851	1498.58
1017.143	1462.42
1017.435	1485.47
1017.727	1435.3
1018.018	1466.71
1018.31	1466.71
1018.602	1459.26
1018.893	1457.22
1019.185	1419.26
1019.476	1431.01
1019.767	1426.49
1020.058	1390.56
1020.35	1399.82
1020.641	1374.29
1020.932	1392.82
1021.223	1384.23
1021.514	1363.21
1021.804	1332.48
1022.095	1348.75
1022.386	1341.97
1022.677	1324.34
1022.967	1314.17
1023.258	1308.52
1023.548	1292.03
1023.839	1311.69
1024.129	1282.08
1024.419	1280.5
1024.709	1274.18
1025	1250.9
1025.29	1246.38
1025.58	1243.67
1025.87	1258.81
1026.16	1239.6
1026.449	1230.33
1026.739	1212.93
1027.029	1195.53
1027.319	1201.18
1027.608	1187.85
1027.898	1194.18
1028.187	1162.54
1028.477	1165.7
1028.766	1132.48
1029.055	1142.88
1029.344	1162.54
1029.634	1134.74
1029.923	1148.98
1030.212	1095.65
1030.501	1135.42
1030.79	1078.93
1031.078	1088.19
1031.367	1082.32
1031.656	1074.86
1031.945	1068.53
1032.233	1053.16
1032.522	1089.55
1032.81	1076.21
1033.099	1075.76
1033.387	1035.99
1033.675	1022.43
1033.963	1014.75
1034.251	1044.35
1034.54	1022.43
1034.828	1014.97
1035.116	1015.65
1035.403	995.76
1035.691	996.89
1035.979	961.19
1036.267	974.52
1036.554	995.09
1036.842	980.4
1037.129	962.09
1037.417	946.95
1037.704	969.1
1037.992	946.73
1038.279	941.08
1038.566	928.42
1038.853	928.42
1039.14	928.42
