Data from hue_230_FLMS001491_00071.txt Node
Date: Tue Feb 07 16:37:42 GMT 2017
User: dcchb
Spectrometer: FLMS00149
Trigger mode: 0
Integration Time (sec): 2.000000E-2
Scans to average: 10
Electric dark correction enabled: true
Nonlinearity correction enabled: false
Boxcar width: 0
XAxis mode: Wavelengths
Number of Pixels in Spectrum: 2048
>>>>>Begin Spectral Data<<<<<
341.393	-1.81
341.776	-1.81
342.16	-1.81
342.543	-75.03
342.927	-76.16
343.31	-75.93
343.693	-65.31
344.077	-71.64
344.46	-67.57
344.843	-55.59
345.226	-56.04
345.61	-23.05
345.993	-10.4
346.376	-7.01
346.759	2.03
347.142	29.83
347.525	31.19
347.908	69.38
348.291	79.32
348.674	82.26
349.057	138.53
349.44	123.39
349.823	164.52
350.206	172.2
350.588	188.02
350.971	208.58
351.354	248.13
351.737	223.27
352.119	240.45
352.502	250.16
352.884	239.09
353.267	283.38
353.65	298.3
354.032	283.83
354.414	312.99
354.797	300.11
355.179	309.6
355.562	306.66
355.944	308.24
356.326	339.65
356.709	324.96
357.091	321.57
357.473	333.32
357.855	346.21
358.238	337.39
358.62	338.07
359.002	327.45
359.384	324.96
359.766	326.55
360.148	321.12
360.53	344.85
360.912	341.23
361.294	323.83
361.676	337.84
362.057	322.25
362.439	325.64
362.821	312.76
363.203	328.35
363.584	323.83
363.966	308.01
364.348	313.44
364.729	307.79
365.111	310.5
365.493	296.94
365.874	308.01
366.256	299.43
366.637	307.56
367.019	296.04
367.4	289.71
367.781	297.39
368.163	283.38
368.544	305.75
368.925	315.25
369.306	314.57
369.688	319.77
370.069	304.17
370.45	310.73
370.831	326.55
371.212	310.95
371.593	305.98
371.974	305.3
372.355	310.05
372.736	296.26
373.117	321.8
373.498	311.86
373.879	306.88
374.26	318.64
374.641	306.88
375.021	309.6
375.402	318.64
375.783	324.51
376.163	321.35
376.544	298.52
376.925	305.08
377.305	312.31
377.686	322.48
378.066	308.92
378.447	314.57
378.827	333.55
379.208	326.09
379.588	316.6
379.968	315.92
380.349	328.8
380.729	320.67
381.109	329.48
381.489	317.73
381.87	328.35
382.25	318.64
382.63	327.9
383.01	321.12
383.39	323.83
383.77	327.45
384.15	340.56
384.53	348.24
384.91	335.81
385.29	334.68
385.67	342.82
386.049	332.87
386.429	347.11
386.809	346.88
387.189	343.49
387.568	336.94
387.948	354.34
388.328	340.56
388.707	343.72
389.087	367.67
389.466	349.14
389.846	365.64
390.225	337.39
390.605	342.36
390.984	349.82
391.363	349.14
391.743	349.37
392.122	387.11
392.501	361.35
392.881	358.63
393.26	370.16
393.639	359.54
394.018	388.01
394.397	359.76
394.776	355.24
395.155	364.06
395.534	359.31
395.913	387.33
396.292	388.24
396.671	388.69
397.05	393.44
397.429	384.17
397.808	394.79
398.186	396.37
398.565	392.08
398.944	390.72
399.323	412.87
399.701	411.06
400.08	423.94
400.458	405.41
400.837	392.53
401.215	408.12
401.594	404.51
401.972	398.86
402.351	438.63
402.729	420.1
403.107	417.16
403.486	433.21
403.864	435.02
404.242	423.27
404.62	437.5
404.999	426.88
405.377	444.73
405.755	440.89
406.133	431.63
406.511	467.78
406.889	458.75
407.267	446.77
407.645	461.46
408.023	454.9
408.401	465.98
408.779	473.66
409.156	469.82
409.534	472.98
409.912	501
410.29	491.96
410.667	505.3
411.045	490.83
411.422	533.32
411.8	522.7
412.178	527.22
412.555	534.22
412.933	523.38
413.31	547.1
413.687	544.62
414.065	543.71
414.442	562.7
414.819	585.07
415.197	593.43
415.574	586.2
415.951	589.14
416.328	586.65
416.705	592.07
417.082	606.76
417.46	623.49
417.837	602.92
418.214	641.79
418.591	650.15
418.967	638.63
419.344	648.57
419.721	637.27
420.098	675.69
420.475	671.62
420.852	673.65
421.228	690.6
421.605	703.94
421.982	722.47
422.358	715.69
422.735	740.77
423.111	732.64
423.488	732.86
423.864	766.31
424.241	762.24
424.617	765.4
424.994	775.35
425.37	767.66
425.746	777.38
426.123	817.38
426.499	823.03
426.875	832.29
427.251	838.62
427.627	844.05
428.003	879.98
428.379	864.38
428.756	894.67
429.132	904.38
429.507	894.21
429.883	893.08
430.259	920.43
430.635	923.37
431.011	954.55
431.387	947.32
431.763	986.41
432.138	955.91
432.514	986.19
432.89	993.65
433.265	1056.92
433.641	1021.67
434.016	1042.23
434.392	1064.6
434.767	1093.76
435.143	1090.14
435.518	1117.03
435.894	1131.27
436.269	1140.76
436.644	1162.23
437.02	1155.9
437.395	1169.46
437.77	1226.86
438.145	1199.06
438.52	1266.86
438.895	1238.39
439.271	1261.21
439.646	1296.24
440.021	1321.55
440.395	1292.85
440.77	1329
441.145	1323.58
441.52	1332.85
441.895	1384.37
442.27	1371.26
442.645	1398.16
443.019	1419.17
443.394	1407.19
443.769	1407.19
444.143	1416.23
444.518	1456.01
444.892	1443.8
445.267	1461.66
445.641	1467.98
446.016	1473.63
446.39	1509.11
446.764	1500.98
447.139	1481.54
447.513	1533.07
447.887	1519.73
448.262	1538.26
448.636	1578.04
449.01	1557.47
449.384	1553.41
449.758	1587.3
450.132	1621.65
450.506	1645.61
450.88	1645.61
451.254	1646.28
451.628	1635.21
452.002	1674.31
452.376	1724.7
452.75	1689.67
453.123	1705.49
453.497	1754.08
453.871	1740.07
454.244	1794.98
454.618	1818.94
454.992	1796.79
455.365	1813.29
455.739	1901.19
456.112	1882.89
456.486	1896.9
456.859	1886.96
457.232	1971.93
457.606	1954.3
457.979	1963.79
458.352	1952.27
458.725	1995.65
459.099	2016.9
459.472	2070.45
459.845	2051.25
460.218	2126.5
460.591	2118.81
460.964	2141.41
461.337	2161.53
461.71	2186.38
462.083	2252.14
462.456	2219.83
462.829	2229.55
463.201	2271.13
463.574	2244.46
463.947	2316.1
464.32	2383.21
464.692	2319.71
465.065	2389.09
465.438	2384.8
465.81	2448.07
466.183	2483.78
466.555	2520.16
466.928	2543.21
467.3	2505.7
467.672	2600.61
468.045	2628.86
468.417	2641.29
468.789	2627.5
469.161	2660.72
469.534	2714.5
469.906	2769.64
470.278	2798.8
470.65	2812.81
471.022	2847.38
471.394	2900.04
471.766	2914.27
472.138	2937.32
472.51	2980.94
472.882	3062.97
473.253	3085.57
473.625	3084.21
473.997	3176.64
474.369	3177.32
474.74	3235.17
475.112	3304.77
475.484	3327.82
475.855	3349.74
476.227	3391.55
476.598	3451.89
476.97	3471.1
477.341	3552
477.713	3603.75
478.084	3650.07
478.455	3700.24
478.827	3713.8
479.198	3812.1
479.569	3846.45
479.94	3922.16
480.311	3936.85
480.682	4028.14
481.053	4166.44
481.424	4130.74
481.795	4171.64
482.166	4262.03
482.537	4290.28
482.908	4376.61
483.279	4367.34
483.65	4454.35
484.021	4582.93
484.391	4641.91
484.762	4638.52
485.133	4721.68
485.503	4738.63
485.874	4779.31
486.244	4829.48
486.615	4923.94
486.985	4950.83
487.356	5000.09
487.726	5109.47
488.097	5173.42
488.467	5171.62
488.837	5305.85
489.207	5313.31
489.578	5370.48
489.948	5429.46
490.318	5511.72
490.688	5472.17
491.058	5560.53
491.428	5643.92
491.798	5685.05
492.168	5792.39
492.538	5724.14
492.908	5865.16
493.278	5862.67
493.648	5929.56
494.017	5976.79
494.387	6026.51
494.757	6099.95
495.126	6112.38
495.496	6144.47
495.866	6148.99
496.235	6220.85
496.605	6274.19
496.974	6252.94
497.344	6353.73
497.713	6398.7
498.082	6390.34
498.452	6436.67
498.821	6489.55
499.19	6483.22
499.559	6526.83
499.928	6540.62
500.298	6587.62
500.667	6627.17
501.036	6619.94
501.405	6723.89
501.774	6739.71
502.143	6710.11
502.512	6772.7
502.88	6758.92
503.249	6753.49
503.618	6815.87
503.987	6877.11
504.356	6900.38
504.724	6877.79
505.093	6941.96
505.462	6884.56
505.83	6971.12
506.199	7016.09
506.567	7041.17
506.936	7055.86
507.304	7165.91
507.672	7102.19
508.041	7122.75
508.409	7137.21
508.777	7228.96
509.145	7265.8
509.514	7254.95
509.882	7218.12
510.25	7286.59
510.618	7306.25
510.986	7253.14
511.354	7395.29
511.722	7390.54
512.09	7466.02
512.458	7386.7
512.826	7445.91
513.193	7491.33
513.561	7427.38
513.929	7542.4
514.297	7529.97
514.664	7547.37
515.032	7516.64
515.4	7602.96
515.767	7666.01
516.135	7686.35
516.502	7575.85
516.869	7676.18
517.237	7720.02
517.604	7602.06
517.972	7683.64
518.339	7767.71
518.706	7676.18
519.073	7706.92
519.44	7786.91
519.808	7795.05
520.175	7808.83
520.542	7886.57
520.909	7866.91
521.276	7829.17
521.643	7896.06
522.009	7891.77
522.376	7940.13
522.743	7960.02
523.11	7990.98
523.477	8012.44
523.843	8003.41
524.21	8062.16
524.577	8064.19
524.943	8079.79
525.31	8086.57
525.676	8148.71
526.043	8133.57
526.409	8142.61
526.776	8230.97
527.142	8216.73
527.508	8252.44
527.874	8229.16
528.241	8221.25
528.607	8282.27
528.973	8269.39
529.339	8258.54
529.705	8290.63
530.071	8273.45
530.437	8286.79
530.803	8294.92
531.169	8398.88
531.535	8301.02
531.901	8322.27
532.267	8275.49
532.632	8362.72
532.998	8377.41
533.364	8353.45
533.73	8397.29
534.095	8406.33
534.461	8373.34
534.826	8391.42
535.192	8385.54
535.557	8352.1
535.923	8394.13
536.288	8336.73
536.653	8360.23
537.019	8317.75
537.384	8355.03
537.749	8397.07
538.114	8356.16
538.479	8280.01
538.845	8237.52
539.21	8269.16
539.575	8280.01
539.94	8330.63
540.305	8246.34
540.67	8256.05
541.034	8291.99
541.399	8275.04
541.764	8228.94
542.129	8276.17
542.494	8260.8
542.858	8240.46
543.223	8198.88
543.587	8270.74
543.952	8212.44
544.316	8228.26
544.681	8235.04
545.045	8212.89
545.41	8203.17
545.774	8191.42
546.138	8166.34
546.503	8148.71
546.867	8146.45
547.231	8165.66
547.595	8128.83
547.959	8057.42
548.324	8103.29
548.688	8087.7
549.052	8097.41
549.416	8108.71
549.779	8081.37
550.143	8084.08
550.507	8080.69
550.871	8035.49
551.235	8045.66
551.599	8071.43
551.962	8048.38
552.326	8043.4
552.689	8084.08
553.053	7982.39
553.417	7981.71
553.78	8073.91
554.143	7975.61
554.507	8045.89
554.87	8054.03
555.234	8058.09
555.597	7948.94
555.96	7996.85
556.323	7991.88
556.686	8018.09
557.05	8040.01
557.413	7945.78
557.776	8044.76
558.139	8036.4
558.502	7979.23
558.865	8040.01
559.228	8050.18
559.59	8099.67
559.953	8067.58
560.316	8027.13
560.679	8084.08
561.041	8128.37
561.404	8158.88
561.767	8119.56
562.129	8088.15
562.492	8153.68
562.854	8125.21
563.217	8165.21
563.579	8187.36
563.941	8203.17
564.304	8248.82
564.666	8242.27
565.028	8227.58
565.39	8193.46
565.753	8311.42
566.115	8302.38
566.477	8348.48
566.839	8336.5
567.201	8442.72
567.563	8334.7
567.925	8353.9
568.287	8341.25
568.648	8388.93
569.01	8412.43
569.372	8435.94
569.734	8402.94
570.095	8442.94
570.457	8450.4
570.819	8498.76
571.18	8494.69
571.542	8547.57
571.903	8565.65
572.265	8542.37
572.626	8585.99
572.987	8610.17
573.349	8580.57
573.71	8618.3
574.071	8640.22
574.432	8676.16
574.794	8720.67
575.155	8717.06
575.516	8680.45
575.877	8706.66
576.238	8796.6
576.599	8772.88
576.96	8850.39
577.32	8821.01
577.681	8876.38
578.042	8837.73
578.403	8852.42
578.763	8832.99
579.124	8919.54
579.485	8959.09
579.845	8903.49
580.206	8923.16
580.566	8947.79
580.927	9004.96
581.287	9051.51
581.648	8916.38
582.008	9061.91
582.368	8979.2
582.728	9045.19
583.089	9050.84
583.449	9089.93
583.809	9069.82
584.169	9058.52
584.529	9069.59
584.889	9165.18
585.249	9082.47
585.609	9109.14
585.969	9133.09
586.329	9122.47
586.688	9172.87
587.048	9203.15
587.408	9165.63
587.768	9174.22
588.127	9146.65
588.487	9131.74
588.846	9193.88
589.206	9251.96
589.565	9192.98
589.925	9228.46
590.284	9238.4
590.643	9327.89
591.003	9276.14
591.362	9343.26
591.721	9297.83
592.08	9294.9
592.44	9358.17
592.799	9274.11
593.158	9242.02
593.517	9310.49
593.876	9358.62
594.235	9366.99
594.593	9406.98
594.952	9281.34
595.311	9275.24
595.67	9375.8
596.029	9426.87
596.387	9450.37
596.746	9373.31
597.104	9364.95
597.463	9383.26
597.822	9476.36
598.18	9388.91
598.538	9405.85
598.897	9401.33
599.255	9377.61
599.613	9509.35
599.972	9487.21
600.33	9475.23
600.688	9432.97
601.046	9471.16
601.404	9534.66
601.762	9454.44
602.12	9578.96
602.478	9602.46
602.836	9614.89
603.194	9507.32
603.552	9502.8
603.91	9440.43
604.268	9517.94
604.625	9519.3
604.983	9572.86
605.341	9494.44
605.698	9583.25
606.056	9572.4
606.413	9558.84
606.771	9537.15
607.128	9637.49
607.485	9530.82
607.843	9602.69
608.2	9588.67
608.557	9671.38
608.914	9588.9
609.272	9701.44
609.629	9594.32
609.986	9705.06
610.343	9646.07
610.7	9686.3
611.057	9730.37
611.414	9670.71
611.771	9732.4
612.127	9698.28
612.484	9716.35
612.841	9761.78
613.198	9735.56
613.554	9736.24
613.911	9809.23
614.267	9785.05
614.624	9796.13
614.98	9764.94
615.337	9805.17
615.693	9820.53
616.05	9818.72
616.406	9865.28
616.762	9786.86
617.118	9807.2
617.475	9795
617.831	9891.94
618.187	9778.73
618.543	9883.13
618.899	9915.45
619.255	9915.67
619.611	9891.94
619.967	9936.24
620.323	9896.46
620.678	9855.79
621.034	9903.92
621.39	9877.48
621.746	9938.5
622.101	10031.83
622.457	9922
622.812	9928.1
623.168	9922.45
623.523	9915.45
623.879	10022.56
624.234	9886.52
624.589	9944.15
624.945	9899.4
625.3	9926.07
625.655	9866.86
626.01	9897.82
626.365	9910.93
626.72	9936.24
627.075	9867.99
627.43	9888.55
627.785	9869.8
628.14	9885.84
628.495	9874.32
628.85	9909.34
629.205	9868.89
629.559	9893.3
629.914	9832.74
630.269	9827.99
630.623	9844.49
630.978	9878.84
631.332	9796.8
631.687	9895.11
632.041	9765.17
632.396	9859.63
632.75	9753.87
633.104	9768.33
633.459	9697.6
633.813	9745.28
634.167	9666.64
634.521	9720.87
634.875	9713.87
635.229	9699.63
635.583	9650.14
635.937	9682.01
636.291	9597.49
636.645	9682.46
636.999	9602.01
637.352	9649.69
637.706	9567.66
638.06	9592.52
638.413	9561.1
638.767	9635.23
639.121	9571.05
639.474	9519.07
639.828	9560.88
640.181	9550.26
640.534	9520.65
640.888	9486.08
641.241	9434.33
641.594	9601.78
641.947	9468
642.301	9413.54
642.654	9524.27
643.007	9508.22
643.36	9468.68
643.713	9460.99
644.066	9551.16
644.419	9417.61
644.771	9419.64
645.124	9257.16
645.477	9227.55
645.83	9206.31
646.182	9171.06
646.535	9153.66
646.888	9171.28
647.24	9087.44
647.593	9130.61
647.945	9086.54
648.298	9079.08
648.65	9037.05
649.002	9037.95
649.355	9104.39
649.707	9098.74
650.059	9198.18
650.411	9289.25
650.763	9255.58
651.115	9362.24
651.467	9257.38
651.819	9317.04
652.171	9284.05
652.523	9264.84
652.875	9226.42
653.227	9281.11
653.578	9256.48
653.93	9348.45
654.282	9272.98
654.633	9234.11
654.985	9253.77
655.337	9248.34
655.688	9278.85
656.039	9345.29
656.391	9237.05
656.742	9268.91
657.094	9275.01
657.445	9297.38
657.796	9253.09
658.147	9250.15
658.498	9235.24
658.849	9242.02
659.2	9335.35
659.551	9206.76
659.902	9272.75
660.253	9307.33
660.604	9311.39
660.955	9283.37
661.306	9299.19
661.656	9318.4
662.007	9297.16
662.358	9324.5
662.708	9335.8
663.059	9312.75
663.409	9233.88
663.76	9312.75
664.11	9313.43
664.461	9317.5
664.811	9377.83
665.161	9304.16
665.511	9286.76
665.862	9344.16
666.212	9298.29
666.562	9285.63
666.912	9258.51
667.262	9237.5
667.612	9273.65
667.962	9255.12
668.312	9263.03
668.662	9277.04
669.011	9269.13
669.361	9274.33
669.711	9238.18
670.06	9219.42
670.41	9219.19
670.76	9236.37
671.109	9225.97
671.459	9211.28
671.808	9180.32
672.157	9233.43
672.507	9215.35
672.856	9145.07
673.205	9193.66
673.554	9183.49
673.904	9173.77
674.253	9235.46
674.602	9193.88
674.951	9079.99
675.3	9023.04
675.649	9154.56
675.998	9197.95
676.346	9143.26
676.695	9149.36
677.044	9131.74
677.393	9131.74
677.741	9136.71
678.09	9135.35
678.438	9082.93
678.787	9159.99
679.135	9082.25
679.484	9031.85
679.832	9072.3
680.181	9049.48
680.529	9003.83
680.877	8949.14
681.225	9018.97
681.573	9042.93
681.922	8999.54
682.27	8885.87
682.618	8896.49
682.966	8894.91
683.314	8924.74
683.661	8851.07
684.009	8854.23
684.357	8823.72
684.705	8823.72
685.053	8821.91
685.4	8789.15
685.748	8786.44
686.095	8776.49
686.443	8694.91
686.79	8713.9
687.138	8720
687.485	8698.3
687.832	8682.71
688.18	8678.87
688.527	8613.11
688.874	8675.48
689.221	8572.88
689.568	8496.5
689.915	8510.06
690.262	8492.21
690.609	8574.24
690.956	8444.75
691.303	8407.01
691.65	8414.47
691.997	8329.27
692.344	8360.46
692.69	8324.3
693.037	8346
693.383	8275.94
693.73	8283.17
694.077	8218.09
694.423	8233.46
694.769	8207.47
695.116	8119.11
695.462	8213.8
695.808	8108.04
696.155	8166.56
696.501	8046.12
696.847	8101.48
697.193	8054.25
697.539	8033.46
697.885	7953.69
698.231	7915.05
698.577	7967.25
698.923	7881.37
699.269	7773.35
699.614	7824.43
699.96	7753.24
700.306	7832.11
700.651	7746.91
700.997	7728.84
701.342	7752.79
701.688	7651.55
702.033	7701.27
702.379	7643.19
702.724	7666.01
703.069	7643.64
703.415	7569.29
703.76	7516.41
704.105	7448.62
704.45	7494.94
704.795	7516.19
705.14	7426.02
705.485	7377.66
705.83	7368.17
706.175	7363.87
706.52	7368.62
706.865	7342.18
707.209	7271
707.554	7338.56
707.899	7242.97
708.243	7238.68
708.588	7202.3
708.932	7148.29
709.277	7189.19
709.621	7155.74
709.966	7092.24
710.31	7148.51
710.654	7116.65
710.998	7102.19
711.342	7121.39
711.687	7087.72
712.031	7102.19
712.375	7051.57
712.719	7013.37
713.063	7017.22
713.407	7013.15
713.75	6980.16
714.094	6984
714.438	6939.48
714.782	6923.66
715.125	6878.92
715.469	6929.99
715.812	6907.39
716.156	6842.31
716.499	6861.29
716.843	6849.09
717.186	6767.05
717.53	6840.72
717.873	6847.96
718.216	6789.43
718.559	6809.99
718.902	6776.09
719.246	6725.02
719.589	6758.01
719.932	6715.3
720.275	6706.26
720.617	6756.21
720.96	6708.75
721.303	6688.64
721.646	6770.9
721.989	6659.03
722.331	6646.83
722.674	6759.14
723.016	6676.21
723.359	6688.41
723.701	6684.34
724.044	6651.8
724.386	6600.28
724.729	6705.81
725.071	6617.23
725.413	6665.59
725.755	6623.1
726.097	6608.87
726.439	6571.35
726.782	6587.85
727.124	6628.75
727.465	6600.5
727.807	6544.46
728.149	6550.11
728.491	6576.55
728.833	6598.47
729.175	6506.95
729.516	6494.52
729.858	6527.29
730.199	6506.72
730.541	6510.79
730.882	6581.3
731.224	6562.99
731.565	6517.57
731.906	6543.33
732.248	6493.39
732.589	6487.06
732.93	6516.44
733.271	6459.27
733.612	6548.53
733.953	6527.74
734.294	6495.42
734.635	6487.74
734.976	6521.41
735.317	6508.53
735.658	6554.18
735.999	6500.39
736.339	6517.79
736.68	6552.14
737.021	6505.59
737.361	6511.92
737.702	6548.98
738.042	6496.33
738.383	6572.48
738.723	6546.27
739.063	6511.24
739.404	6518.02
739.744	6611.58
740.084	6562.54
740.424	6590.11
740.764	6569.32
741.104	6591.24
741.444	6623.78
741.784	6529.32
742.124	6609.09
742.464	6566.83
742.804	6614.29
743.143	6631.01
743.483	6656.55
743.823	6631.24
744.162	6681.41
744.502	6699.48
744.841	6652.25
745.181	6742.2
745.52	6708.52
745.86	6778.35
746.199	6768.41
746.538	6838.46
746.877	6843.21
747.216	6873.94
747.556	6903.77
747.895	6940.83
748.234	6932.7
748.573	7005.01
748.911	6990.1
749.25	7028.06
749.589	7070.55
749.928	7150.77
750.267	7229.41
750.605	7214.27
750.944	7274.38
751.283	7288.4
751.621	7390.99
751.96	7416.98
752.298	7525.68
752.636	7571.78
752.975	7627.6
753.313	7662.4
753.651	7834.6
753.989	7890.41
754.327	7979.9
754.666	7921.6
755.004	8070.75
755.342	8189.39
755.679	8258.99
756.017	8291.99
756.355	8395.94
756.693	8552.32
757.031	8644.07
757.368	8684.97
757.706	8783.5
758.044	8889.94
758.381	8983.72
758.719	9144.17
759.056	9227.1
759.394	9299.19
759.731	9435.91
760.068	9562.01
760.405	9625.28
760.743	9729.46
761.08	9892.17
761.417	9965.84
761.754	10079.28
762.091	10189.56
762.428	10330.8
762.765	10350.01
763.102	10509.55
763.438	10673.62
763.775	10767.4
764.112	10835.65
764.449	10928.3
764.785	11130.55
765.122	11141.4
765.458	11304.34
765.795	11279.03
766.131	11469.3
766.467	11535.74
766.804	11603.08
767.14	11710.43
767.476	11768.5
767.812	11871.33
768.148	12061.15
768.485	12040.36
768.821	12149.29
769.157	12203.75
769.492	12234.03
769.828	12426.79
770.164	12354.7
770.5	12389.96
770.836	12601.25
771.171	12641.02
771.507	12694.36
771.842	12688.03
772.178	12784.75
772.513	12801.92
772.849	12878.98
773.184	12857.97
773.519	13015.7
773.855	12972.99
774.19	13004.18
774.525	13068.58
774.86	13137.51
775.195	13257.5
775.53	13242.82
775.865	13198.3
776.2	13188.13
776.535	13145.87
776.87	13273.32
777.205	13227.9
777.539	13229.71
777.874	13299.31
778.209	13287.11
778.543	13309.48
778.878	13257.96
779.212	13263.61
779.547	13324.62
779.881	13410.49
780.215	13318.97
780.55	13406.43
780.884	13366.65
781.218	13378.41
781.552	13284.17
781.886	13402.81
782.22	13268.58
782.554	13274.23
782.888	13197.85
783.222	13191.07
783.556	13222.7
783.889	13199.65
784.223	13148.81
784.557	13161.46
784.89	13241.23
785.224	13144.06
785.557	13114.46
785.891	13097.96
786.224	13101.58
786.558	13173.21
786.891	13098.41
787.224	13081.69
787.557	12960.11
787.891	13009.15
788.224	13058.41
788.557	13054.57
788.89	13088.47
789.223	13032.65
789.556	12866.78
789.888	12914.24
790.221	12879.66
790.554	12829.49
790.887	12881.24
791.219	12807.12
791.552	12756.73
791.884	12729.16
792.217	12639.89
792.549	12764.41
792.882	12608.71
793.214	12624.07
793.546	12607.35
793.879	12587.92
794.211	12561.7
794.543	12648.93
794.875	12533.46
795.207	12561.48
795.539	12542.95
795.871	12567.58
796.203	12381.6
796.535	12324.87
796.867	12355.38
797.198	12347.25
797.53	12259.56
797.862	12302.5
798.193	12283.74
798.525	12264.08
798.856	12270.19
799.188	12081.04
799.519	12103.41
799.85	12013.47
800.182	12085.11
800.513	12081.26
800.844	12003.3
801.175	12035.16
801.506	11930.31
801.837	11960.59
802.168	11902.06
802.499	11806.24
802.83	11735.28
803.161	11827.49
803.491	11820.03
803.822	11774.61
804.153	11786.36
804.483	11655.96
804.814	11685.57
805.145	11626.59
805.475	11659.35
805.805	11684.44
806.136	11582.52
806.466	11633.59
806.796	11554.5
807.126	11510.88
807.457	11546.14
807.787	11471.11
808.117	11427.04
808.447	11374.16
808.777	11311.12
809.107	11366.93
809.436	11272.02
809.766	11313.15
810.096	11257.11
810.426	11209.87
810.755	11229.54
811.085	11182.76
811.414	11184.11
811.744	11105.47
812.073	11109.99
812.403	11191.12
812.732	11084.45
813.061	11029.31
813.39	10979.15
813.719	11070.22
814.049	10993.61
814.378	10954.74
814.707	10922.2
815.036	10950.67
815.365	10869.32
815.693	10831.35
816.022	10795.87
816.351	10761.98
816.68	10803.56
817.008	10797.91
817.337	10713.16
817.665	10636.1
817.994	10707.74
818.322	10653.73
818.651	10726.72
818.979	10606.27
819.307	10736.21
819.636	10627.97
819.964	10551.14
820.292	10619.83
820.62	10584.81
820.948	10620.29
821.276	10600.63
821.604	10504.81
821.932	10606.73
822.259	10554.52
822.587	10554.07
822.915	10537.8
823.243	10535.32
823.57	10520.85
823.898	10548.88
824.225	10523.57
824.553	10571.7
824.88	10492.38
825.207	10581.87
825.535	10479.72
825.862	10595.88
826.189	10561.08
826.516	10566.5
826.843	10596.78
827.17	10593.39
827.497	10532.6
827.824	10527.18
828.151	10630
828.478	10561.98
828.805	10576.67
829.131	10554.52
829.458	10574.86
829.785	10492.61
830.111	10505.94
830.438	10584.13
830.764	10552.49
831.09	10562.43
831.417	10508.88
831.743	10541.64
832.069	10565.82
832.395	10481.76
832.722	10533.51
833.048	10459.61
833.374	10516.11
833.7	10426.17
834.026	10469.56
834.351	10466.62
834.677	10450.12
835.003	10464.58
835.329	10503
835.654	10471.82
835.98	10372.16
836.306	10431.59
836.631	10403.79
836.956	10422.1
837.282	10407.86
837.607	10342.78
837.932	10363.57
838.258	10369.67
838.583	10344.59
838.908	10251.71
839.233	10245.15
839.558	10246.74
839.883	10230.01
840.208	10223.69
840.533	10155.44
840.858	10168.32
841.182	10170.35
841.507	10187.75
841.832	10085.84
842.156	10154.54
842.481	10088.77
842.805	10082.22
843.13	10084.25
843.454	10063.24
843.778	9982.11
844.103	9989.34
844.427	9945.05
844.751	10048.32
845.075	9926.52
845.399	9855.11
845.723	9882.9
846.047	9852.85
846.371	9770.14
846.695	9772.4
847.019	9674.55
847.343	9677.94
847.666	9594.55
847.99	9537.83
848.313	9544.38
848.637	9559.52
848.96	9555.91
849.284	9458.96
849.607	9423.26
849.931	9391.17
850.254	9319.98
850.577	9287.89
850.9	9274.33
851.223	9275.01
851.546	9142.36
851.869	9062.36
852.192	9132.64
852.515	9084.73
852.838	9033.66
853.161	9002.02
853.483	9002.48
853.806	8975.13
854.129	8956.6
854.451	8957.73
854.774	8899.65
855.096	8859.88
855.419	8823.27
855.741	8849.48
856.063	8804.97
856.385	8758.41
856.708	8719.77
857.03	8694.46
857.352	8697.62
857.674	8659.21
857.996	8643.39
858.318	8530.4
858.64	8608.81
858.961	8581.24
859.283	8540.11
859.605	8519.1
859.926	8482.94
860.248	8485.88
860.57	8413.11
860.891	8478.42
861.212	8421.47
861.534	8378.76
861.855	8354.36
862.176	8488.14
862.498	8387.58
862.819	8363.4
863.14	8372.21
863.461	8313.45
863.782	8294.7
864.103	8266.45
864.424	8279.56
864.745	8228.71
865.065	8183.97
865.386	8199.78
865.707	8195.49
866.027	8269.16
866.348	8182.84
866.668	8213.12
866.989	8138.09
867.309	8114.81
867.63	8135.38
867.95	8095.38
868.27	8135.38
868.59	8051.09
868.91	8006.57
869.23	8083.4
869.55	7973.58
869.87	8057.42
870.19	8053.57
870.51	8051.99
870.83	8020.81
871.15	8011.31
871.469	7985.55
871.789	7990.52
872.109	7996.63
872.428	7917.53
872.748	7888.61
873.067	7934.25
873.386	7912.11
873.706	7882.96
874.025	7850.42
874.344	7865.1
874.663	7864.88
874.982	7938.32
875.301	7818.55
875.62	7766.12
875.939	7805.9
876.258	7820.13
876.577	7766.12
876.896	7783.75
877.214	7745.56
877.533	7752.11
877.852	7736.97
878.17	7713.24
878.489	7685.9
878.807	7668.27
879.125	7666.24
879.444	7712.79
879.762	7661.27
880.08	7627.14
880.398	7616.75
880.716	7590.31
881.034	7583.08
881.352	7568.39
881.67	7539.91
881.988	7571.78
882.306	7503.31
882.624	7449.3
882.941	7476.19
883.259	7481.39
883.577	7430.54
883.894	7428.28
884.212	7438.67
884.529	7438.67
884.846	7421.27
885.164	7369.3
885.481	7373.37
885.798	7398
886.115	7251.56
886.432	7331.78
886.75	7292.01
887.067	7262.18
887.383	7281.16
887.7	7281.39
888.017	7219.7
888.334	7205.91
888.651	7218.79
888.967	7185.12
889.284	7182.41
889.6	7170.43
889.917	7093.15
890.233	7108.97
890.55	7079.14
890.866	7090.66
891.182	7035.75
891.498	6993.49
891.815	7019.93
892.131	6938.12
892.447	6936.31
892.763	6919.14
893.079	6912.36
893.395	6875.98
893.71	6895.64
894.026	6819.71
894.342	6863.32
894.657	6804.79
894.973	6772.03
895.289	6833.27
895.604	6719.82
895.92	6748.75
896.235	6649.54
896.55	6677.11
896.865	6731.12
897.181	6656.55
897.496	6683.44
897.811	6652.93
898.126	6550.11
898.441	6556.66
898.756	6574.29
899.071	6491.35
899.386	6487.06
899.7	6438.02
900.015	6398.25
900.33	6337.91
900.644	6369.32
900.959	6337.23
901.273	6377.46
901.588	6366.61
901.902	6321.64
902.216	6293.17
902.531	6243.68
902.845	6269.21
903.159	6209.55
903.473	6181.53
903.787	6149.67
904.101	6187.86
904.415	6132.04
904.729	6076.9
905.042	6094.3
905.356	6033.74
905.67	6001.88
905.984	5991.03
906.297	5946.74
906.611	5984.02
906.924	5984.25
907.237	5936.34
907.551	5908.77
907.864	5890.69
908.177	5836.23
908.491	5845.5
908.804	5788.77
909.117	5769.34
909.43	5788.55
909.743	5732.96
910.056	5779.96
910.368	5670.81
910.681	5701.09
910.994	5607.76
911.307	5654.99
911.619	5577.93
911.932	5560.76
912.244	5546.07
912.557	5588.33
912.869	5530.25
913.181	5507.2
913.494	5489.57
913.806	5471.27
914.118	5439.63
914.43	5385.17
914.742	5371.84
915.054	5382.46
915.366	5343.81
915.678	5331.84
915.99	5311.27
916.302	5241.22
916.613	5223.82
916.925	5284.38
917.236	5276.25
917.548	5217.49
917.859	5192.86
918.171	5161.67
918.482	5110.37
918.794	5096.14
919.105	5075.8
919.416	5098.4
919.727	5082.35
920.038	5086.19
920.349	5030.83
920.66	5035.35
920.971	4968.46
921.282	4952.86
921.593	4937.95
921.903	4911.96
922.214	4883.94
922.525	4879.87
922.835	4899.31
923.146	4821.79
923.456	4813.66
923.767	4822.47
924.077	4779.54
924.387	4763.49
924.697	4770.04
925.008	4737.05
925.318	4705.19
925.628	4678.97
925.938	4747.22
926.248	4640.33
926.558	4610.5
926.867	4604.85
927.177	4607.79
927.487	4555.13
927.796	4518.3
928.106	4539.54
928.416	4555.81
928.725	4534.8
929.034	4507.9
929.344	4492.99
929.653	4504.51
929.962	4414.8
930.271	4386.78
930.581	4387
930.89	4376.38
931.199	4359.43
931.508	4343.16
931.817	4344.97
932.125	4326.89
932.434	4314.01
932.743	4274.69
933.051	4278.31
933.36	4235.82
933.669	4219.78
933.977	4213.45
934.286	4177.07
934.594	4188.82
934.902	4153.34
935.21	4113.79
935.519	4133.68
935.827	4140.23
936.135	4084.64
936.443	4062.49
936.751	4072.89
937.059	4012.32
937.367	4039.89
937.674	4041.25
937.982	4017.07
938.29	3971.2
938.597	3960.57
938.905	3958.09
939.213	3914.02
939.52	3857.98
939.827	3913.57
940.135	3872.21
940.442	3889.16
940.749	3871.54
941.056	3883.97
941.363	3818.66
941.67	3818.43
941.977	3764.19
942.284	3759.22
942.591	3727.59
942.898	3724.2
943.205	3686.23
943.511	3713.12
943.818	3742.05
944.125	3703.63
944.431	3681.94
944.738	3643.29
945.044	3614.59
945.35	3623.86
945.657	3607.59
945.963	3566.01
946.269	3553.13
946.575	3560.13
946.881	3523.52
947.187	3558.1
947.493	3510.19
947.799	3503.41
948.105	3505.22
948.41	3453.02
948.716	3477.65
949.022	3478.78
949.327	3457.31
949.633	3414.15
949.938	3412.34
950.244	3409.4
950.549	3363.08
950.854	3337.77
951.16	3356.52
951.465	3340.93
951.77	3311.33
952.075	3262.74
952.38	3274.72
952.685	3272.68
952.99	3218.45
953.294	3276.52
953.599	3211.44
953.904	3201.5
954.209	3185.9
954.513	3219.8
954.818	3194.27
955.122	3143.87
955.426	3176.19
955.731	3122.63
956.035	3111.78
956.339	3109.97
956.643	3067.26
956.948	3083.99
957.252	3077.21
957.556	3072.69
957.86	3026.14
958.163	3005.34
958.467	3057.55
958.771	2976.64
959.075	2995.63
959.378	2985.23
959.682	2971
959.985	2947.04
960.289	2941.84
960.592	2893.03
960.896	2901.62
961.199	2902.52
961.502	2919.47
961.805	2899.13
962.108	2872.69
962.411	2839.25
962.714	2831.79
963.017	2847.83
963.32	2846.03
963.623	2836.99
963.926	2794.5
964.228	2813.26
964.531	2830.89
964.833	2796.99
965.136	2738.91
965.438	2767.84
965.741	2732.13
966.043	2711.12
966.345	2672.47
966.648	2681.51
966.95	2696.65
967.252	2684.22
967.554	2692.81
967.856	2650.55
968.158	2641.29
968.46	2620.95
968.761	2615.75
969.063	2625.02
969.365	2601.74
969.666	2597.22
969.968	2585.92
970.269	2596.99
970.571	2568.29
970.872	2549.09
971.174	2504.79
971.475	2505.7
971.776	2497.11
972.077	2502.53
972.378	2506.6
972.679	2460.05
972.98	2510.44
973.281	2459.37
973.582	2458.47
973.883	2420.5
974.183	2442.65
974.484	2434.06
974.785	2391.58
975.085	2413.27
975.386	2408.3
975.686	2368.98
975.986	2379.15
976.287	2399.26
976.587	2339.37
976.887	2339.83
977.187	2346.83
977.487	2314.52
977.787	2310.22
978.087	2327.17
978.387	2313.84
978.687	2298.92
978.987	2274.52
979.286	2274.06
979.586	2251.69
979.885	2237.23
980.185	2231.35
980.484	2252.37
980.784	2248.3
981.083	2211.24
981.382	2199.49
981.682	2196.33
981.981	2190.9
982.28	2149.32
982.579	2178.93
982.878	2166.5
983.177	2163.11
983.475	2137.57
983.774	2128.08
984.073	2142.54
984.372	2107.06
984.67	2116.1
984.969	2089.44
985.267	2119.49
985.566	2063.67
985.864	2078.82
986.162	2090.34
986.461	2056.44
986.759	2033.39
987.057	2021.64
987.355	2023.9
987.653	2012.6
987.951	1994.75
988.249	1996.11
988.547	2000.17
988.844	1990.23
989.142	1990.91
989.44	1999.72
989.737	1937.58
990.035	1939.38
990.332	1929.21
990.63	1890.12
990.927	1905.49
991.224	1916.79
991.521	1909.55
991.819	1906.39
992.116	1917.01
992.413	1876.56
992.71	1888.31
993.006	1858.71
993.303	1852.15
993.6	1871.36
993.897	1841.08
994.193	1840.18
994.49	1822.32
994.787	1814.64
995.083	1798.82
995.379	1791.82
995.676	1791.59
995.972	1795.88
996.268	1764.47
996.565	1767.86
996.861	1753.4
997.157	1794.98
997.453	1758.82
997.749	1740.52
998.044	1756.11
998.34	1719.5
998.636	1717.47
998.932	1694.19
999.227	1674.76
999.523	1701.42
999.818	1694.19
1000.114	1669.11
1000.409	1660.3
1000.704	1659.62
1001	1651.48
1001.295	1628.43
1001.59	1636.57
1001.885	1656.91
1002.18	1623.69
1002.475	1608.09
1002.77	1594.08
1003.065	1578.26
1003.359	1576.68
1003.654	1563.35
1003.949	1546.4
1004.243	1529.45
1004.538	1573.52
1004.832	1549.11
1005.127	1546.85
1005.421	1514.31
1005.715	1520.19
1006.009	1502.33
1006.304	1489.45
1006.598	1482.9
1006.892	1481.77
1007.186	1477.02
1007.48	1493.97
1007.773	1461.2
1008.067	1450.13
1008.361	1443.8
1008.655	1451.26
1008.948	1415.78
1009.242	1410.81
1009.535	1391.15
1009.829	1399.29
1010.122	1397.7
1010.415	1372.62
1010.708	1382.11
1011.001	1361.32
1011.295	1339.85
1011.588	1332.39
1011.881	1323.13
1012.173	1340.76
1012.466	1334.2
1012.759	1334.88
1013.052	1324.26
1013.344	1305.28
1013.637	1315.22
1013.93	1297.59
1014.222	1286.29
1014.514	1297.59
1014.807	1270.25
1015.099	1281.55
1015.391	1269.35
1015.683	1270.25
1015.976	1225.5
1016.268	1239.74
1016.56	1264.83
1016.851	1254.88
1017.143	1223.24
1017.435	1219.4
1017.727	1204.49
1018.018	1195.67
1018.31	1186.41
1018.602	1195.22
1018.893	1177.6
1019.185	1183.47
1019.476	1173.3
1019.767	1154.09
1020.058	1125.39
1020.35	1159.97
1020.641	1129.24
1020.932	1144.6
1021.223	1110.93
1021.514	1113.19
1021.804	1080.2
1022.095	1104.83
1022.386	1110.25
1022.677	1082.91
1022.967	1087.66
1023.258	1063.7
1023.548	1079.29
1023.839	1047.66
1024.129	1041.33
1024.419	1043.36
1024.709	1015.79
1025	1035.45
1025.29	1028.9
1025.58	1034.55
1025.87	1018.28
1026.16	1014.89
1026.449	988.45
1026.739	1005.62
1027.029	1017.6
1027.319	1000.65
1027.608	982.57
1027.898	995.68
1028.187	984.83
1028.477	968.11
1028.766	968.56
1029.055	961.1
1029.344	953.42
1029.634	947.09
1029.923	961.1
1030.212	932.86
1030.501	940.09
1030.79	912.52
1031.078	922.91
1031.367	909.58
1031.656	925.4
1031.945	893.54
1032.233	911.84
1032.522	897.83
1032.81	896.93
1033.099	894.21
1033.387	871.16
1033.675	860.77
1033.963	882.01
1034.251	838.85
1034.54	858.96
1034.828	840.43
1035.116	849.47
1035.403	853.76
1035.691	866.42
1035.979	825.74
1036.267	827.77
1036.554	827.1
1036.842	815.8
1037.129	798.62
1037.417	821
1037.704	814.44
1037.992	812.18
1038.279	801.11
1038.566	793.88
1038.853	793.88
1039.14	793.88
