Data from hue_26_FLMS001491_00032.txt Node
Date: Tue Feb 07 17:13:54 GMT 2017
User: dcchb
Spectrometer: FLMS00149
Trigger mode: 0
Integration Time (sec): 2.000000E-2
Scans to average: 10
Electric dark correction enabled: true
Nonlinearity correction enabled: false
Boxcar width: 0
XAxis mode: Wavelengths
Number of Pixels in Spectrum: 2048
>>>>>Begin Spectral Data<<<<<
341.393	-22.41
341.776	-22.41
342.16	-22.41
342.543	-71.68
342.927	-56.54
343.31	-79.36
343.693	-55.86
344.077	-69.42
344.46	-73.71
344.843	-40.95
345.226	-31.23
345.61	-42.08
345.993	-9.99
346.376	-0.72
346.759	6.74
347.142	21.2
347.525	30.01
347.908	46.51
348.291	99.16
348.674	98.49
349.057	101.2
349.44	119.5
349.823	143.46
350.206	166.28
350.588	173.96
350.971	213.06
351.354	216
351.737	234.3
352.119	246.05
352.502	253.51
352.884	265.26
353.267	284.02
353.65	282.89
354.032	298.48
354.414	313.62
354.797	307.29
355.179	333.73
355.562	327.41
355.944	342.77
356.326	355.43
356.709	353.85
357.091	340.74
357.473	344.13
357.855	351.81
358.238	341.19
358.62	366.73
359.002	353.39
359.384	336.9
359.766	338.71
360.148	347.07
360.53	353.62
360.912	341.42
361.294	348.42
361.676	334.64
362.057	323.34
362.439	336.67
362.821	343.9
363.203	331.47
363.584	325.6
363.966	315.43
364.348	321.76
364.729	330.57
365.111	313.17
365.493	318.14
365.874	315.66
366.256	326.73
366.637	327.86
367.019	322.44
367.4	310.46
367.781	304.13
368.163	303.9
368.544	315.66
368.925	327.41
369.306	322.89
369.688	297.12
370.069	313.4
370.45	310.23
370.831	301.64
371.212	310.91
371.593	315.66
371.974	309.1
372.355	303.9
372.736	330.34
373.117	314.3
373.498	334.19
373.879	325.15
374.26	321.98
374.641	323.34
375.021	337.58
375.402	318.82
375.783	329.21
376.163	331.7
376.544	307.97
376.925	318.59
377.305	315.43
377.686	340.51
378.066	329.67
378.447	345.49
378.827	326.95
379.208	331.93
379.588	331.25
379.968	335.54
380.349	324.92
380.729	331.25
381.109	334.41
381.489	341.19
381.87	317.01
382.25	341.19
382.63	349.1
383.01	322.89
383.39	330.34
383.77	378.03
384.15	327.86
384.53	355.88
384.91	359.5
385.29	375.09
385.67	348.2
386.049	365.37
386.429	351.59
386.809	343
387.189	341.87
387.568	359.04
387.948	368.76
388.328	367.18
388.707	360.17
389.087	371.25
389.466	372.38
389.846	377.12
390.225	365.15
390.605	361.3
390.984	382.77
391.363	387.07
391.743	374.41
392.122	349.55
392.501	367.63
392.881	391.36
393.26	389.33
393.639	383.22
394.018	377.57
394.397	389.33
394.776	372.15
395.155	390.91
395.534	401.53
395.913	374.64
396.292	389.78
396.671	398.82
397.05	388.65
397.429	388.65
397.808	380.51
398.186	397.24
398.565	380.51
398.944	389.55
399.323	418.93
399.701	382.77
400.08	416.9
400.458	408.08
400.837	382.09
401.215	404.01
401.594	400.63
401.972	399.95
402.351	422.55
402.729	400.17
403.107	418.03
403.486	432.94
403.864	431.36
404.242	406.27
404.62	397.24
404.999	429.1
405.377	401.98
405.755	433.84
406.133	413.05
406.511	440.85
406.889	434.07
407.267	431.81
407.645	433.17
408.023	461.19
408.401	434.3
408.779	431.81
409.156	459.61
409.534	450.12
409.912	444.69
410.29	444.69
410.667	468.42
411.045	456.67
411.422	452.6
411.8	446.73
412.178	467.06
412.555	483.33
412.933	477.91
413.31	470.23
413.687	473.62
414.065	510.45
414.442	495.76
414.819	481.98
415.197	487.18
415.574	494.41
415.951	498.7
416.328	497.35
416.705	507.51
417.082	502.32
417.46	512.94
417.837	505.03
418.214	514.75
418.591	506.38
418.967	516.55
419.344	510.23
419.721	514.29
420.098	526.27
420.475	541.64
420.852	528.98
421.228	526.27
421.605	533.5
421.982	553.16
422.358	549.77
422.735	545.03
423.111	544.58
423.488	552.71
423.864	558.36
424.241	576.89
424.617	583.9
424.994	557.91
425.37	556.1
425.746	597.46
426.123	578.02
426.499	591.13
426.875	581.64
427.251	586.61
427.627	601.3
428.003	608.76
428.379	592.94
428.756	594.74
429.132	606.04
429.507	621.64
429.883	590.45
430.259	623.22
430.635	648.3
431.011	636.78
431.387	630.68
431.763	647.62
432.138	646.27
432.514	634.52
432.89	666.38
433.265	658.25
433.641	672.26
434.016	676.78
434.392	682.88
434.767	689.21
435.143	681.3
435.518	701.63
435.894	708.19
436.269	726.94
436.644	692.59
437.02	741.63
437.395	741.86
437.77	724.01
438.145	734.4
438.52	740.05
438.895	757.68
439.271	730.33
439.646	765.59
440.021	748.41
440.395	729.66
440.77	765.14
441.145	785.47
441.52	785.02
441.895	802.65
442.27	780.73
442.645	803.1
443.019	771.46
443.394	806.94
443.769	794.06
444.143	806.49
444.518	831.8
444.892	800.16
445.267	807.39
445.641	821.4
446.016	828.41
446.39	845.81
446.764	852.14
447.139	833.38
447.513	846.72
447.887	843.78
448.262	850.1
448.636	863.21
449.01	859.37
449.384	865.25
449.758	863.21
450.132	876.54
450.506	888.07
450.88	904.11
451.254	870.22
451.628	925.81
452.002	928.07
452.376	939.14
452.75	928.52
453.123	908.86
453.497	915.87
453.871	953.38
454.244	954.96
454.618	951.57
454.992	979.59
455.365	980.5
455.739	975.98
456.112	987.05
456.486	992.25
456.859	1026.37
457.232	1028.63
457.606	1033.15
457.979	1043.32
458.352	1036.09
458.725	1047.61
459.099	1036.31
459.472	1083.54
459.845	1087.84
460.218	1098.91
460.591	1109.08
460.964	1096.2
461.337	1161.96
461.71	1147.95
462.083	1155.41
462.456	1173.94
462.829	1174.84
463.201	1192.92
463.574	1222.98
463.947	1217.78
464.32	1265.46
464.692	1233.15
465.065	1240.6
465.438	1274.27
465.81	1294.84
466.183	1276.76
466.555	1332.35
466.928	1333.48
467.3	1358.11
467.672	1379.13
468.045	1398.56
468.417	1402.41
468.789	1376.19
469.161	1436.3
469.534	1428.62
469.906	1464.1
470.278	1500.26
470.65	1489.64
471.022	1505.45
471.394	1534.15
471.766	1568.73
472.138	1590.65
472.51	1596.3
472.882	1646.92
473.253	1677.2
473.625	1688.5
473.997	1722.85
474.369	1721.27
474.74	1749.97
475.112	1789.74
475.484	1820.7
475.855	1838.55
476.227	1903.41
476.598	1926.01
476.97	1965.56
477.341	2024.76
477.713	2030.86
478.084	2042.84
478.455	2113.35
478.827	2100.02
479.198	2186.57
479.569	2171.88
479.94	2271.31
480.311	2273.34
480.682	2340.69
481.053	2403.74
481.424	2440.57
481.795	2488.25
482.166	2531.19
482.537	2544.52
482.908	2628.36
483.279	2617.97
483.65	2703.39
484.021	2795.59
484.391	2815.7
484.762	2855.7
485.133	2863.84
485.503	2917.85
485.874	2998.07
486.244	3021.12
486.615	3112.87
486.985	3171.17
487.356	3238.52
487.726	3281.68
488.097	3336.59
488.467	3352.86
488.837	3443.48
489.207	3511.5
489.578	3544.95
489.948	3592.18
490.318	3671.05
490.688	3690.03
491.058	3718.5
491.428	3773.19
491.798	3837.6
492.168	3918.27
492.538	3947.88
492.908	3948.55
493.278	4044.82
493.648	4057.03
494.017	4119.85
494.387	4194.42
494.757	4193.75
495.126	4328.21
495.496	4292.95
495.866	4327.53
496.235	4407.3
496.605	4440.29
496.974	4458.82
497.344	4552.38
497.713	4553.28
498.082	4582.66
498.452	4663.56
498.821	4633.28
499.19	4680.06
499.559	4733.62
499.928	4803
500.298	4789.21
500.667	4857.23
501.036	4891.13
501.405	4899.04
501.774	4916.89
502.143	4973.61
502.512	5022.88
502.88	5088.64
503.249	5064.46
503.618	5109.65
503.987	5171.12
504.356	5168.86
504.724	5180.16
505.093	5192.14
505.462	5219.93
505.83	5270.1
506.199	5321.17
506.567	5351.91
506.936	5349.65
507.304	5460.61
507.672	5448.63
508.041	5427.61
508.409	5490.43
508.777	5570.88
509.145	5566.59
509.514	5600.49
509.882	5569.3
510.25	5621.5
510.618	5661.05
510.986	5652.01
511.354	5713.03
511.722	5736.53
512.09	5797.32
512.458	5793.48
512.826	5865.34
513.193	5854.72
513.561	5838.67
513.929	5940.82
514.297	5988.05
514.664	6005.45
515.032	5977.88
515.4	6050.87
515.767	6077.31
516.135	6067.59
516.502	6083.19
516.869	6170.19
517.237	6172
517.604	6186.91
517.972	6207.7
518.339	6259.23
518.706	6278.44
519.073	6244.09
519.44	6268.27
519.808	6387.81
520.175	6390.3
520.542	6369.28
520.909	6431.65
521.276	6475.04
521.643	6498.09
522.009	6517.07
522.376	6547.81
522.743	6620.57
523.11	6666.22
523.477	6672.55
523.843	6649.5
524.21	6807.46
524.577	6810.17
524.943	6844.07
525.31	6898.53
525.676	6905.99
526.043	6973.56
526.409	6984.86
526.776	7078.64
527.142	7089.49
527.508	7070.73
527.874	7145.31
528.241	7160
528.607	7147.34
528.973	7238.41
529.339	7291.07
529.705	7343.27
530.071	7393.89
530.437	7370.39
530.803	7454.9
531.169	7470.72
531.535	7467.11
531.901	7466.2
532.267	7531.06
532.632	7559.53
532.998	7627.78
533.364	7689.25
533.73	7701.22
534.095	7752.97
534.461	7755.46
534.826	7781.67
535.192	7883.14
535.557	7878.39
535.923	7879.07
536.288	7934.44
536.653	7965.85
537.019	7972.4
537.384	7983.7
537.749	8027.77
538.114	8052.85
538.479	8116.81
538.845	8154.55
539.21	8163.13
539.575	8156.35
539.94	8175.34
540.305	8289.46
540.67	8273.19
541.034	8358.61
541.399	8343.47
541.764	8368.1
542.129	8361.09
542.494	8429.57
542.858	8473.63
543.223	8516.12
543.587	8542.33
543.952	8587.75
544.316	8631.6
544.681	8594.08
545.045	8663.23
545.41	8693.74
545.774	8755.66
546.138	8722.21
546.503	8767.64
546.867	8828.2
547.231	8848.76
547.595	8830.46
547.959	8868.65
548.324	8888.31
548.688	8962.43
549.052	8981.42
549.416	8996.33
549.779	9054.41
550.143	9012.6
550.507	9138.7
550.871	9135.99
551.235	9111.81
551.599	9268.87
551.962	9251.69
552.326	9282.43
552.689	9256.66
553.053	9296.66
553.417	9351.58
553.78	9416.21
554.143	9392.25
554.507	9437.9
554.87	9486.71
555.234	9538.92
555.597	9526.26
555.96	9584.79
556.323	9536.43
556.686	9608.52
557.05	9652.13
557.413	9699.82
557.776	9704.11
558.139	9715.63
558.502	9814.16
558.865	9845.12
559.228	9893.93
559.59	9867.95
559.953	9879.7
560.316	9960.37
560.679	10022.52
561.041	10109.52
561.404	10060.03
561.767	10138.22
562.129	10054.83
562.492	10203.76
562.854	10236.3
563.217	10211.21
563.579	10283.98
563.941	10303.64
564.304	10320.14
564.666	10460.93
565.028	10422.51
565.39	10404.66
565.753	10465.22
566.115	10523.52
566.477	10543.64
566.839	10607.36
567.201	10718.32
567.563	10686.46
567.925	10757.64
568.287	10723.52
568.648	10828.83
569.01	10920.35
569.372	10951.08
569.734	10965.32
570.095	11008.26
570.457	11059.33
570.819	11076.05
571.18	11158.31
571.542	11078.99
571.903	11195.82
572.265	11212.54
572.626	11285.08
572.987	11371.64
573.349	11380.22
573.71	11480.79
574.071	11474.01
574.432	11544.06
574.794	11669.71
575.155	11699.76
575.516	11764.85
575.877	11801.23
576.238	11889.36
576.599	11960.55
576.96	12082.58
577.32	12069.7
577.681	12301.33
578.042	12331.84
578.403	12430.82
578.763	12460.42
579.124	12572.06
579.485	12729.11
579.845	12859.96
580.206	12889.79
580.566	13021.76
580.927	13109.44
581.287	13315.09
581.648	13361.19
582.008	13568.87
582.368	13712.14
582.728	13860.61
583.089	13976.54
583.449	14136.99
583.809	14365
584.169	14508.5
584.529	14609.07
584.889	15017.42
585.249	14957.98
585.609	15214.7
585.969	15543.5
586.329	15700.56
586.688	15895.81
587.048	16062.81
587.408	16292.18
587.768	16559.75
588.127	16725.17
588.487	16966.74
588.846	17267.07
589.206	17395.43
589.565	17675.65
589.925	18131.91
590.284	18316.76
590.643	18531.22
591.003	18891.44
591.362	19222.28
591.721	19381.37
592.08	19739.33
592.44	19930.28
592.799	20304.06
593.158	20578.85
593.517	20750.37
593.876	21115.56
594.235	21388.55
594.593	21692.27
594.952	22009.55
595.311	22258.13
595.67	22635.07
596.029	23048.84
596.387	23235.96
596.746	23628.49
597.104	23820.12
597.463	24221.24
597.822	24518.63
598.18	24676.82
598.538	24931.96
598.897	25441.55
599.255	25553.18
599.613	26113.85
599.972	26211.02
600.33	26661.4
600.688	26740.5
601.046	27215.06
601.404	27504.32
601.762	27681.04
602.12	28104.08
602.478	28365.54
602.836	28588.81
603.194	28710.84
603.552	29019.08
603.91	29234.44
604.268	29725.73
604.625	29859.29
604.983	30254.98
605.341	30271.93
605.698	30874.17
606.056	30933.38
606.413	31290.43
606.771	31650.42
607.128	31717.77
607.485	31973.13
607.843	32198.89
608.2	32559.33
608.557	32820.34
608.914	32901.24
609.272	33355.69
609.629	33552.3
609.986	33820.31
610.343	33813.76
610.7	34296.01
611.057	34424.82
611.414	34598.6
611.771	34799.95
612.127	35066.61
612.484	35223.66
612.841	35537.78
613.198	35581.39
613.554	35817.77
613.911	36079.69
614.267	36225.9
614.624	36308.16
614.98	36575.27
615.337	36871.3
615.693	37023.62
616.05	37044.18
616.406	37464.74
616.762	37347.9
617.118	37563.04
617.475	37646.43
617.831	38064.95
618.187	38067.66
618.543	38236.69
618.899	38511.94
619.255	38582.45
619.611	38632.39
619.967	38943.34
620.323	39108.76
620.678	38950.8
621.034	38972.27
621.39	39202.54
621.746	39187.4
622.101	39782.64
622.457	39539.48
622.812	39685.69
623.168	39912.81
623.523	39965.23
623.879	40186.92
624.234	39916.42
624.589	40155.29
624.945	40367.48
625.3	40373.81
625.655	40572.9
626.01	40678.21
626.365	40803.63
626.72	40820.35
627.075	40809.05
627.43	40846.34
627.785	40910.52
628.14	40981.03
628.495	41017.64
628.85	41087.01
629.205	40974.25
629.559	41289.27
629.914	41218.99
630.269	41253.56
630.623	41275.71
630.978	41269.61
631.332	41419.66
631.687	41497.4
632.041	41349.6
632.396	41519.77
632.75	41398.64
633.104	41484.74
633.459	41462.14
633.813	41371.53
634.167	41303.96
634.521	41573.55
634.875	41620.11
635.229	41564.51
635.583	41421.24
635.937	41438.42
636.291	41402.94
636.645	41469.15
636.999	41275.48
637.352	41624.4
637.706	41339.21
638.06	41523.61
638.413	41575.59
638.767	41347.35
639.121	41488.58
639.474	41213.34
639.828	41340.11
640.181	41470.51
640.534	41435.25
640.888	41281.81
641.241	41068.26
641.594	41295.82
641.947	41405.2
642.301	41245.88
642.654	41301.24
643.007	41285.65
643.36	41247.91
643.713	41312.09
644.066	41361.58
644.419	41172.43
644.771	40876.62
645.124	40675.27
645.477	40565.22
645.83	40288.84
646.182	40349.86
646.535	40179.47
646.888	40156.64
647.24	40032.8
647.593	40212.46
647.945	40131.56
648.298	40019.92
648.65	39853.6
649.002	39856.76
649.355	40088.85
649.707	40014.05
650.059	40192.57
650.411	40680.7
650.763	40655.16
651.115	41153.68
651.467	40997.07
651.819	40871.88
652.171	40926.11
652.523	40840.92
652.875	40869.39
653.227	40633.47
653.578	41055.15
653.93	40914.81
654.282	40741.49
654.633	40585.11
654.985	40813.35
655.337	40880.01
655.688	40777.19
656.039	40876.62
656.391	40433.02
656.742	40612
657.094	40687.25
657.445	40764.31
657.796	40738.55
658.147	40760.92
658.498	40585.11
658.849	40710.75
659.2	40579
659.551	40519.57
659.902	40555.28
660.253	40473.47
660.604	40576.07
660.955	40523.64
661.306	40540.59
661.656	40514.15
662.007	40418.56
662.358	40429.4
662.708	40508.72
663.059	40586.91
663.409	40241.84
663.76	40640.92
664.11	40459.23
664.461	40541.26
664.811	40506.69
665.161	40602.96
665.511	40418.1
665.862	40459.68
666.212	40645.67
666.562	40589.17
666.912	40357.31
667.262	40487.25
667.612	40419.46
667.962	40409.74
668.312	40356.18
668.662	40524.77
669.011	40565.22
669.361	40352.57
669.711	40534.49
670.06	40270.76
670.41	40231.44
670.76	40206.36
671.109	40406.8
671.459	40264.21
671.808	40175.62
672.157	40249.75
672.507	40131.56
672.856	40112.58
673.205	40235.28
673.554	40188.51
673.904	40154.38
674.253	40385.34
674.602	40306.69
674.951	39696.99
675.3	39412.25
675.649	40109.86
675.998	40152.8
676.346	40132.46
676.695	40201.61
677.044	39905.12
677.393	40067.6
677.741	40033.26
678.09	39914.16
678.438	39822.87
678.787	39917.33
679.135	39958.68
679.484	39642.98
679.832	39791.45
680.181	39498.13
680.529	39624.23
680.877	39659.25
681.225	39582.87
681.573	39633.72
681.922	39424.23
682.27	39284.8
682.618	39223.56
682.966	39321.18
683.314	39434.4
683.661	39156.89
684.009	39167.74
684.357	38960.97
684.705	39120.96
685.053	39094.97
685.4	39027.63
685.748	38851.59
686.095	38866.73
686.443	38683.23
686.79	38631.26
687.138	38749
687.485	38721.65
687.832	38567.76
688.18	38561.2
688.527	38446.86
688.874	38299.52
689.221	38250.03
689.568	38174.1
689.915	38142.23
690.262	38131.84
690.609	37975.68
690.956	37826.08
691.303	37914.44
691.65	37639.65
691.997	37807.78
692.344	37422.25
692.69	37473.55
693.037	37483.27
693.383	37299.09
693.73	37162.6
694.077	37096.16
694.423	37078.3
694.769	36904.3
695.116	36877.41
695.462	36874.92
695.808	36663.85
696.155	36795.6
696.501	36505.66
696.847	36596.96
697.193	36328.95
697.539	36404.2
697.885	36187.93
698.231	36148.39
698.577	36208.27
698.923	36080.59
699.269	35813.25
699.614	35608.96
699.96	35568.97
700.306	35544.79
700.651	35422.98
700.997	35415.52
701.342	35353.38
701.688	35302.08
702.033	35171.46
702.379	35211.69
702.724	35025.7
703.069	35168.98
703.415	34770.79
703.76	34783
704.105	34685.83
704.45	34694.41
704.795	34534.19
705.14	34362.44
705.485	34413.74
705.83	34245.38
706.175	34357.47
706.52	34157.25
706.865	34038.84
707.209	34039.06
707.554	33874.55
707.899	33997.48
708.243	33769.92
708.588	33696.25
708.932	33463.94
709.277	33486.99
709.621	33500.32
709.966	33381.23
710.31	33388.46
710.654	32979.88
710.998	33243.38
711.342	33170.84
711.687	32992.31
712.031	32935.36
712.375	32871.86
712.719	32865.08
713.063	32870.28
713.407	32947.57
713.75	32605.88
714.094	32612.89
714.438	32524.98
714.782	32578.54
715.125	32369.73
715.469	32451.08
715.812	32223.74
716.156	32200.69
716.499	32160.92
716.843	32182.39
717.186	31967.93
717.53	32165.21
717.873	32060.81
718.216	31893.81
718.559	31925.22
718.902	31593.25
719.246	31753.25
719.589	31656.98
719.932	31428.74
720.275	31453.14
720.617	31522.52
720.96	31517.77
721.303	31385.8
721.646	31563.42
721.989	31207.5
722.331	31338.79
722.674	31152.36
723.016	31139.03
723.359	31174.51
723.701	31133.38
724.044	30958.92
724.386	30852.48
724.729	30951.23
725.071	30870.11
725.413	30876.21
725.755	30799.37
726.097	30699.04
726.439	30467.86
726.782	30509.66
727.124	30634.63
727.465	30540.85
727.807	30465.37
728.149	30347.18
728.491	30343.79
728.833	30382.66
729.175	30260.86
729.516	30189.9
729.858	30079.84
730.199	30228.32
730.541	30198.49
730.882	30112.61
731.224	30116.45
731.565	29960.3
731.906	30071.48
732.248	30036
732.589	29880.75
732.93	29831.04
733.271	29752.17
733.612	29826.07
733.953	29779.97
734.294	29695.22
734.635	29483.02
734.976	29593.76
735.317	29547.43
735.658	29507.66
735.999	29611.61
736.339	29424.95
736.68	29506.3
737.021	29384.95
737.361	29278.96
737.702	29397.38
738.042	29349.92
738.383	29196.93
738.723	29266.98
739.063	29116.25
739.404	29198.96
739.744	29092.75
740.084	29029.02
740.424	28981.12
740.764	28874.45
741.104	29030.38
741.444	28889.82
741.784	28746.09
742.124	28860.44
742.464	28665.19
742.804	28700.9
743.143	28594.91
743.483	28612.54
743.823	28375.48
744.162	28521.02
744.502	28568.25
744.841	28322.6
745.181	28527.8
745.52	28356.73
745.86	28457.51
746.199	28287.12
746.538	28257.52
746.877	28311.53
747.216	28245.09
747.556	28227.69
747.895	28280.57
748.234	28108.37
748.573	28092.1
748.911	28045.1
749.25	27961.03
749.589	27843.52
749.928	27969.62
750.267	27905.89
750.605	27768.72
750.944	27758.78
751.283	27597.65
751.621	27681.94
751.96	27517.2
752.298	27594.03
752.636	27540.7
752.975	27424.1
753.313	27432.46
753.651	27444.66
753.989	27335.28
754.327	27314.72
754.666	27179.13
755.004	27188.17
755.342	27275.17
755.679	27096.19
756.017	26957.21
756.355	27098.23
756.693	26902.98
757.031	27050.77
757.368	26851.45
757.706	26784.11
758.044	26640.16
758.381	26706.15
758.719	26566.72
759.056	26569.43
759.394	26486.49
759.731	26314.97
760.068	26461.63
760.405	26296.89
760.743	26129.44
761.08	26173.73
761.417	26063.45
761.754	25881.31
762.091	25942.33
762.428	25850.58
762.765	25770.13
763.102	25694.65
763.438	25527.65
763.775	25483.58
764.112	25435.67
764.449	25481.1
764.785	25401.1
765.122	25117.26
765.458	25130.14
765.795	25163.14
766.131	25050.37
766.467	25001.33
766.804	24893.09
767.14	24781.9
767.476	24725.18
767.812	24682.7
768.148	24722.92
768.485	24490.84
768.821	24367.23
769.157	24367
769.492	24385.98
769.828	24310.05
770.164	23935.83
770.5	24028.93
770.836	23926.11
771.171	23925.88
771.507	23822.38
771.842	23658.32
772.178	23698.32
772.513	23678.43
772.849	23496.29
773.184	23436.63
773.519	23470.75
773.855	23373.13
774.19	23146.02
774.525	23081.16
774.86	23059.46
775.195	22973.36
775.53	22913.25
775.865	22769.53
776.2	22719.13
776.535	22497.45
776.87	22591.68
777.205	22484.34
777.539	22322.76
777.874	22371.57
778.209	22238.02
778.543	22121.18
778.878	21908.76
779.212	22056.78
779.547	21802.77
779.881	21824.47
780.215	21758.93
780.55	21763.68
780.884	21534.31
781.218	21611.59
781.552	21494.31
781.886	21416.57
782.22	21292.28
782.554	21197.82
782.888	20935.45
783.222	20978.84
783.556	20890.71
783.889	20913.98
784.223	20653.43
784.557	20667.89
784.89	20714.44
785.224	20554.22
785.557	20501.34
785.891	20428.57
786.224	20363.94
786.558	20326.88
786.891	20126.89
787.224	20119.2
787.557	19960.34
787.891	19950.17
788.224	20032.65
788.557	19942.26
788.89	19816.16
789.223	19820.45
789.556	19658.2
789.888	19587.47
790.221	19481.48
790.554	19430.86
790.887	19511.31
791.219	19380.69
791.552	19221.83
791.884	19240.81
792.217	19146.12
792.549	19155.16
792.882	18956.75
793.214	18991.1
793.546	18869.29
793.879	18783.42
794.211	18661.61
794.543	18733.48
794.875	18645.57
795.207	18617.1
795.539	18468.62
795.871	18478.79
796.203	18327.61
796.535	18281.51
796.867	18227.27
797.198	18271.34
797.53	18244.22
797.862	18034.96
798.193	18114.28
798.525	18048.52
798.856	18014.4
799.188	17822.31
799.519	17775.08
799.85	17597.69
800.182	17647.4
800.513	17564.02
800.844	17511.36
801.175	17666.39
801.506	17463.68
801.837	17469.78
802.168	17492.15
802.499	17368.54
802.83	17262.1
803.161	17173.97
803.491	17196.79
803.822	17247.19
804.153	17136.23
804.483	17044.93
804.814	16885.84
805.145	16943.69
805.475	16916.12
805.805	16734.21
806.136	16821.66
806.466	16780.31
806.796	16766.3
807.126	16641.1
807.457	16586.41
807.787	16500.09
808.117	16445.4
808.447	16432.29
808.777	16458.06
809.107	16397.49
809.436	16303.71
809.766	16281.56
810.096	16172.64
810.426	16166.99
810.755	16195.46
811.085	16134
811.414	16057.39
811.744	15963.15
812.073	15933.1
812.403	15864.63
812.732	15859.65
813.061	15756.83
813.39	15655.37
813.719	15693.1
814.049	15716.83
814.378	15670.05
814.707	15588.02
815.036	15483.62
815.365	15541.02
815.693	15304.64
816.022	15373.79
816.351	15288.82
816.68	15287.69
817.008	15355.94
817.337	15107.36
817.665	15182.38
817.994	15176.06
818.322	15168.37
818.651	15102.84
818.979	15066.91
819.307	15170.63
819.636	15100.58
819.964	14850.41
820.292	15010.86
820.62	14974.71
820.948	14996.17
821.276	14936.97
821.604	14995.27
821.932	14986.23
822.259	14923.18
822.587	14801.83
822.915	14813.81
823.243	14871.21
823.57	14922.73
823.898	14922.96
824.225	14765.67
824.553	14848.83
824.88	14834.6
825.207	14840.47
825.535	14752.79
825.862	14816.97
826.189	14824.88
826.516	14926.8
826.843	14877.08
827.17	14909.17
827.497	14925.67
827.824	14872.79
828.151	14853.8
828.478	14874.59
828.805	14861.04
829.131	14770.42
829.458	14820.36
829.785	14706.69
830.111	14787.37
830.438	14802.51
830.764	14801.83
831.09	14838.89
831.417	14674.37
831.743	14831.21
832.069	14739.46
832.395	14679.8
832.722	14731.77
833.048	14658.33
833.374	14649.52
833.7	14659.69
834.026	14587.82
834.351	14672.11
834.677	14634.15
835.003	14587.6
835.329	14644.09
835.654	14583.3
835.98	14504.66
836.306	14550.99
836.631	14439.13
836.956	14595.28
837.282	14519.8
837.607	14502.63
837.932	14411.78
838.258	14460.82
838.583	14432.12
838.908	14305.34
839.233	14353.25
839.558	14341.5
839.883	14307.6
840.208	14195.29
840.533	14258.79
840.858	14234.61
841.182	14225.8
841.507	14148.51
841.832	14088.17
842.156	14083.66
842.481	14061.28
842.805	14072.81
843.13	13978.8
843.454	14023.32
843.778	13904.45
844.103	13885.24
844.427	13856.09
844.751	13822.87
845.075	13772.93
845.399	13721.63
845.723	13756.21
846.047	13717.11
846.371	13552.37
846.695	13581.97
847.019	13397.35
847.343	13406.16
847.666	13395.09
847.99	13330.68
848.313	13313.05
848.637	13175.43
848.96	13219.27
849.284	13194.64
849.607	13042.1
849.931	13036.68
850.254	12908.77
850.577	12917.81
850.9	12810.47
851.223	12797.59
851.546	12724.37
851.869	12623.81
852.192	12713.75
852.515	12556.92
852.838	12519.4
853.161	12527.54
853.483	12478.73
853.806	12375.23
854.129	12415.45
854.451	12383.36
854.774	12227.43
855.096	12231.95
855.419	12233.53
855.741	12229.92
856.063	12077.83
856.385	12182.91
856.708	12013.43
857.03	12041.9
857.352	12057.95
857.674	11966.42
857.996	11962.58
858.318	11881.91
858.64	11817.27
858.961	11830.38
859.283	11750.61
859.605	11755.58
859.926	11725.07
860.248	11716.49
860.57	11684.4
860.891	11628.35
861.212	11608.47
861.534	11587.22
861.855	11549.26
862.176	11550.61
862.498	11516.04
862.819	11519.65
863.14	11509.49
863.461	11355.82
863.782	11436.27
864.103	11431.52
864.424	11361.01
864.745	11381.13
865.065	11257.97
865.386	11200.57
865.707	11214.8
866.027	11236.27
866.348	11197.86
866.668	11240.34
866.989	11218.42
867.309	11045.09
867.63	11111.08
867.95	11130.29
868.27	11006
868.59	11011.87
868.91	11052.55
869.23	11007.35
869.55	10941.14
869.87	11034.7
870.19	11029.05
870.51	11014.81
870.83	11035.15
871.15	10904.98
871.469	10991.31
871.789	10902.95
872.109	10898.43
872.428	10866.34
872.748	10872.21
873.067	10851.88
873.386	10873.57
873.706	10796.96
874.025	10800.13
874.344	10758.32
874.663	10751.99
874.982	10743.4
875.301	10688.49
875.62	10658.21
875.939	10674.25
876.258	10691.43
876.577	10625.67
876.896	10681.71
877.214	10558.1
877.533	10596.97
877.852	10624.09
878.17	10660.92
878.489	10558.1
878.807	10476.52
879.125	10519.46
879.444	10553.35
879.762	10446.46
880.08	10539.12
880.398	10387.26
880.716	10431.77
881.034	10425.45
881.352	10469.96
881.67	10345.9
881.988	10340.93
882.306	10323.3
882.624	10194.94
882.941	10215.96
883.259	10202.18
883.577	10203.76
883.894	10107.71
884.212	10167.15
884.529	10160.59
884.846	10110.88
885.164	10005.12
885.481	10044.67
885.798	10090.99
886.115	9977.77
886.432	9938.23
886.75	9893.93
887.067	9980.71
887.383	9859.13
887.7	9900.26
888.017	9827.04
888.334	9858
888.651	9837.67
888.967	9875.18
889.284	9793.6
889.6	9761.73
889.917	9648.97
890.233	9712.47
890.55	9656.65
890.866	9652.59
891.182	9615.98
891.498	9580.72
891.815	9586.82
892.131	9540.05
892.447	9523.78
892.763	9470.22
893.079	9495.75
893.395	9405.81
893.71	9387.96
894.026	9381.41
894.342	9360.39
894.657	9302.54
894.973	9255.08
895.289	9224.57
895.604	9217.34
895.92	9157.68
896.235	9167.17
896.55	9114.97
896.865	9084.92
897.181	9079.04
897.496	9137.34
897.811	9018.7
898.126	8988.65
898.441	8939.61
898.756	8985.03
899.071	8908.42
899.386	8912.94
899.7	8861.87
900.015	8813.51
900.33	8724.93
900.644	8612.84
900.959	8679.73
901.273	8678.6
901.588	8621.88
901.902	8538.94
902.216	8639.73
902.531	8508.66
902.845	8510.02
903.159	8448.32
903.473	8493.75
903.787	8437.93
904.101	8364.26
904.415	8373.52
904.729	8331.94
905.042	8305.5
905.356	8267.31
905.67	8235.22
905.984	8205.84
906.297	8179.86
906.611	8110.03
906.924	8122
907.237	8160.42
907.551	8102.57
907.864	8073.19
908.177	7999.75
908.491	7972.86
908.804	7922.91
909.117	7915.46
909.43	7852.41
909.743	7842.24
910.056	7843.37
910.368	7713.43
910.681	7697.83
910.994	7741
911.307	7671.85
911.619	7627.33
911.932	7638.4
912.244	7579.19
912.557	7552.98
912.869	7516.14
913.181	7438.41
913.494	7527.67
913.806	7382.36
914.118	7340.56
914.43	7328.13
914.742	7294.46
915.054	7272.08
915.366	7234.8
915.678	7226.89
915.99	7235.47
916.302	7145.98
916.613	7061.92
916.925	7147.79
917.236	7155.02
917.548	7056.95
917.859	7080.9
918.171	6987.57
918.482	6915.26
918.794	6972.66
919.105	6913.45
919.416	6879.78
919.727	6910.51
920.038	6845.88
920.349	6756.62
920.66	6799.1
920.971	6783.96
921.282	6752.32
921.593	6649.27
921.903	6609.95
922.214	6556.62
922.525	6602.27
922.835	6567.69
923.146	6537.19
923.456	6528.37
923.767	6458.77
924.077	6499.45
924.387	6441.14
924.697	6433.46
925.008	6377.19
925.318	6411.09
925.628	6327.02
925.938	6315.95
926.248	6278.21
926.558	6284.09
926.867	6242.51
927.177	6209.06
927.487	6164.77
927.796	6096.29
928.106	6087.93
928.416	6092.45
928.725	6066.01
929.034	6034.83
929.344	6054.71
929.653	5997.99
929.962	5941.27
930.271	5955.96
930.581	5938.11
930.89	5889.52
931.199	5800.26
931.508	5843.19
931.817	5835.74
932.125	5810.88
932.434	5798.68
932.743	5714.61
933.051	5651.56
933.36	5670.54
933.669	5653.59
933.977	5603.2
934.286	5640.26
934.594	5617.89
934.902	5571.56
935.21	5551.68
935.519	5520.49
935.827	5483.2
936.135	5490.43
936.443	5418.12
936.751	5421.06
937.059	5362.53
937.367	5353.04
937.674	5349.87
937.982	5332.7
938.29	5351.91
938.597	5294.06
938.905	5201.18
939.213	5216.54
939.52	5184.68
939.827	5198.01
940.135	5202.98
940.442	5150.78
940.749	5108.3
941.056	5124.57
941.363	5081.18
941.67	5064.91
941.977	5052.25
942.284	4993.27
942.591	4952.14
942.898	5003.22
943.205	4953.05
943.511	4906.5
943.818	4892.71
944.125	4857.01
944.431	4878.47
944.738	4861.52
945.044	4828.31
945.35	4780.4
945.657	4800.96
945.963	4750.57
946.269	4735.88
946.575	4780.17
946.881	4690.23
947.187	4693.85
947.493	4647.97
947.799	4634.86
948.105	4614.3
948.41	4554.19
948.716	4540.63
949.022	4533.62
949.327	4575.2
949.633	4534.53
949.938	4508.54
950.244	4525.71
950.549	4449.11
950.854	4432.38
951.16	4400.52
951.465	4397.81
951.77	4401.65
952.075	4376.11
952.38	4375.21
952.685	4358.49
952.99	4276.91
953.294	4325.95
953.599	4276
953.904	4241.43
954.209	4199.17
954.513	4255.21
954.818	4229.22
955.122	4200.53
955.426	4162.11
955.731	4165.72
956.035	4132.28
956.339	4098.83
956.643	4116.46
956.948	4069.46
957.252	4080.08
957.556	4045.05
957.86	4033.52
958.163	4015.67
958.467	4013.64
958.771	3980.64
959.075	3957.59
959.378	3970.47
959.682	3938.84
959.985	3903.81
960.289	3904.94
960.592	3898.61
960.896	3907.2
961.199	3880.76
961.502	3851.83
961.805	3810.7
962.108	3782.23
962.411	3792.4
962.714	3764.6
963.017	3763.7
963.32	3764.15
963.623	3703.59
963.926	3703.82
964.228	3685.51
964.531	3670.37
964.833	3673.08
965.136	3615.23
965.438	3572.97
965.741	3592.63
966.043	3567.77
966.345	3567.32
966.648	3534.55
966.95	3550.82
967.252	3528.23
967.554	3491.39
967.856	3499.98
968.158	3467.89
968.46	3467.89
968.761	3489.36
969.063	3392.86
969.365	3431.05
969.666	3433.77
969.968	3368.91
970.269	3337.05
970.571	3364.84
970.872	3318.97
971.174	3310.61
971.475	3316.71
971.776	3277.16
972.077	3270.38
972.378	3238.97
972.679	3243.49
972.98	3249.59
973.281	3192.64
973.582	3267.22
973.883	3217.5
974.183	3186.31
974.484	3177.28
974.785	3126.2
975.085	3158.97
975.386	3111.29
975.686	3078.52
975.986	3062.93
976.287	3097.05
976.587	3045.53
976.887	3056.83
977.187	3029.93
977.487	3038.07
977.787	3011.4
978.087	2990.16
978.387	2963.04
978.687	2995.36
978.987	3007.56
979.286	2932.31
979.586	2909.94
979.885	2931.86
980.185	2944.06
980.484	2886.44
980.784	2906.32
981.083	2899.09
981.382	2885.98
981.682	2813.89
981.981	2805.08
982.28	2821.58
982.579	2813.44
982.878	2787.68
983.177	2743.16
983.475	2769.6
983.774	2806.21
984.073	2757.85
984.372	2750.17
984.67	2725.99
984.969	2707.01
985.267	2714.46
985.566	2714.01
985.864	2666.33
986.162	2669.49
986.461	2613.67
986.759	2651.41
987.057	2650.96
987.355	2613.67
987.653	2610.51
987.951	2617.52
988.249	2576.16
988.547	2583.62
988.844	2573.9
989.142	2532.09
989.44	2540.91
989.737	2512.43
990.035	2503.62
990.332	2496.39
990.63	2462.72
990.927	2496.39
991.224	2494.81
991.521	2470.85
991.819	2472.89
992.116	2455.49
992.413	2440.8
992.71	2395.83
993.006	2439.89
993.303	2401.48
993.6	2396.96
993.897	2372.1
994.193	2389.5
994.49	2342.27
994.787	2322.38
995.083	2304.98
995.379	2322.61
995.676	2282.84
995.972	2285.55
996.268	2304.3
996.565	2260.46
996.861	2262.5
997.157	2237.86
997.453	2223.4
997.749	2207.81
998.044	2197.64
998.34	2225.66
998.636	2184.08
998.932	2173.91
999.227	2162.16
999.523	2149.51
999.818	2170.52
1000.114	2135.95
1000.409	2116.29
1000.704	2134.59
1001	2107.25
1001.295	2071.09
1001.59	2065.67
1001.885	2074.48
1002.18	2050.98
1002.475	2044.42
1002.77	2029.28
1003.065	2024.31
1003.359	2043.52
1003.654	1998.32
1003.949	2006.01
1004.243	1957.19
1004.538	1964.43
1004.832	1984.76
1005.127	1972.79
1005.421	1930.75
1005.715	1928.49
1006.009	1925.78
1006.304	1877.42
1006.598	1916.52
1006.892	1910.87
1007.186	1844.88
1007.48	1867.03
1007.773	1846.91
1008.067	1874.26
1008.361	1835.39
1008.655	1795.16
1008.948	1807.14
1009.242	1816.63
1009.535	1787.26
1009.829	1788.16
1010.122	1765.33
1010.415	1768.5
1010.708	1752.91
1011.001	1736.64
1011.295	1743.87
1011.588	1702.96
1011.881	1715.62
1012.173	1709.29
1012.466	1717.2
1012.759	1701.38
1013.052	1675.85
1013.344	1660.7
1013.637	1683.3
1013.93	1626.13
1014.222	1645.11
1014.514	1620.03
1014.807	1641.27
1015.099	1612.57
1015.391	1561.95
1015.683	1583.19
1015.976	1581.84
1016.268	1548.17
1016.56	1535.74
1016.851	1569.18
1017.143	1537.32
1017.435	1544.32
1017.727	1528.51
1018.018	1503.65
1018.31	1522.18
1018.602	1503.65
1018.893	1467.49
1019.185	1491.44
1019.476	1466.36
1019.767	1459.13
1020.058	1464.55
1020.35	1457.32
1020.641	1423.65
1020.932	1414.84
1021.223	1419.58
1021.514	1403.54
1021.804	1385.68
1022.095	1373.93
1022.386	1383.65
1022.677	1373.03
1022.967	1353.37
1023.258	1341.62
1023.548	1319.47
1023.839	1318.12
1024.129	1312.24
1024.419	1315.18
1024.709	1321.28
1025	1303.65
1025.29	1291.9
1025.58	1300.49
1025.87	1274.95
1026.16	1256.87
1026.449	1236.08
1026.739	1260.72
1027.029	1206.25
1027.319	1244.44
1027.608	1223.88
1027.898	1219.36
1028.187	1234.28
1028.477	1200.15
1028.766	1192.47
1029.055	1171.23
1029.344	1191.79
1029.634	1191.56
1029.923	1117.67
1030.212	1164.9
1030.501	1159.02
1030.79	1154.73
1031.078	1145.01
1031.367	1112.92
1031.656	1105.01
1031.945	1114.73
1032.233	1084.22
1032.522	1073.38
1032.81	1093.71
1033.099	1091
1033.387	1081.29
1033.675	1087.84
1033.963	1076.54
1034.251	1063.66
1034.54	1039.93
1034.828	1054.39
1035.116	1013.26
1035.403	1020.95
1035.691	1023.21
1035.979	1008.52
1036.267	1028.63
1036.554	998.35
1036.842	980.95
1037.129	984.56
1037.417	960.61
1037.704	961.97
1037.992	971.46
1038.279	963.32
1038.566	956.32
1038.853	956.32
1039.14	956.32
