Data from hue_60_FLMS001491_41.txt Node
Date: Mon Feb 06 15:17:26 GMT 2017
User: dcchb
Spectrometer: FLMS00149
Trigger mode: 0
Integration Time (sec): 2.000000E-2
Scans to average: 10
Electric dark correction enabled: true
Nonlinearity correction enabled: false
Boxcar width: 0
XAxis mode: Wavelengths
Number of Pixels in Spectrum: 2048
>>>>>Begin Spectral Data<<<<<
341.393	-11.88
341.776	-11.88
342.16	-11.88
342.543	-81.71
342.927	-56.85
343.31	-56.4
343.693	-59.79
344.077	-64.76
344.46	-52.33
344.843	-55.94
345.226	-39.45
345.61	-54.59
345.993	-17.98
346.376	3.26
346.759	19.53
347.142	34
347.525	46.43
347.908	51.85
348.291	72.19
348.674	75.13
349.057	98.85
349.44	114.22
349.823	137.5
350.206	164.16
350.588	206.65
350.971	192.64
351.354	217.27
351.737	234.67
352.119	244.61
352.502	248.68
352.884	274.22
353.267	289.36
353.65	284.16
354.032	303.14
354.414	314.89
354.797	306.53
355.179	316.7
355.562	320.32
355.944	334.1
356.326	339.52
356.709	353.54
357.091	347.21
357.473	343.37
357.855	332.97
358.238	319.86
358.62	328.68
359.002	342.69
359.384	352.86
359.766	337.72
360.148	346.53
360.53	346.08
360.912	339.07
361.294	326.42
361.676	323.48
362.057	334.55
362.439	310.83
362.821	338.62
363.203	346.76
363.584	336.59
363.966	300.43
364.348	328.45
364.729	325.51
365.111	293.88
365.493	323.48
365.874	320.54
366.256	316.02
366.637	339.07
367.019	312.86
367.4	325.06
367.781	314.89
368.163	333.88
368.544	310.6
368.925	304.05
369.306	327.1
369.688	320.54
370.069	323.48
370.45	324.38
370.831	301.11
371.212	340.43
371.593	294.1
371.974	312.63
372.355	316.02
372.736	321.9
373.117	333.2
373.498	325.06
373.879	328.45
374.26	324.38
374.641	330.26
375.021	317.83
375.402	310.83
375.783	322.58
376.163	320.09
376.544	344.5
376.925	346.08
377.305	319.41
377.686	321.22
378.066	331.62
378.447	336.14
378.827	351.5
379.208	347.89
379.588	343.14
379.968	330.26
380.349	315.12
380.729	341.56
381.109	328.68
381.489	339.52
381.87	337.94
382.25	350.82
382.63	342.69
383.01	345.4
383.39	342.24
383.77	336.14
384.15	337.04
384.53	360.54
384.91	343.59
385.29	350.6
385.67	330.03
386.049	343.59
386.429	342.46
386.809	348.34
387.189	347.43
387.568	332.07
387.948	357.15
388.328	343.82
388.707	348.11
389.087	343.14
389.466	360.77
389.846	350.6
390.225	339.3
390.605	381.78
390.984	357.83
391.363	352.18
391.743	368.68
392.122	361.22
392.501	359.41
392.881	363.48
393.26	355.8
393.639	344.27
394.018	388.79
394.397	375.46
394.776	375
395.155	391.5
395.534	368.9
395.913	396.7
396.292	370.71
396.671	388.11
397.05	397.83
397.429	364.16
397.808	373.87
398.186	380.2
398.565	382.46
398.944	372.07
399.323	371.84
399.701	376.59
400.08	393.53
400.458	381.11
400.837	384.5
401.215	372.07
401.594	385.4
401.972	415
402.351	405.29
402.729	386.98
403.107	398.51
403.486	395.79
403.864	418.17
404.242	383.59
404.62	384.5
404.999	378.85
405.377	376.59
405.755	424.95
406.133	405.96
406.511	399.86
406.889	406.87
407.267	401.67
407.645	433.53
408.023	411.61
408.401	413.65
408.779	437.6
409.156	429.47
409.534	424.95
409.912	424.04
410.29	429.01
410.667	437.15
411.045	417.26
411.422	437.6
411.8	442.35
412.178	434.21
412.555	419.75
412.933	436.47
413.31	435.12
413.687	451.16
414.065	465.17
414.442	453.65
414.819	484.61
415.197	457.71
415.574	453.42
415.951	471.5
416.328	461.1
416.705	471.95
417.082	448.22
417.46	467.88
417.837	475.79
418.214	470.37
418.591	478.96
418.967	473.08
419.344	485.74
419.721	495.68
420.098	501.78
420.475	499.97
420.852	490.93
421.228	495.68
421.605	492.06
421.982	493.65
422.358	525.73
422.735	493.42
423.111	501.55
423.488	513.53
423.864	529.35
424.241	484.38
424.617	516.24
424.994	512.4
425.37	524.38
425.746	528.67
426.123	517.6
426.499	519.18
426.875	550.59
427.251	544.94
427.627	551.72
428.003	543.59
428.379	540.65
428.756	549.24
429.132	540.65
429.507	565.96
429.883	571.84
430.259	585.62
430.635	547.88
431.011	569.35
431.387	564.15
431.763	605.05
432.138	594.89
432.514	583.81
432.89	602.34
433.265	584.49
433.641	604.83
434.016	616.58
434.392	599.86
434.767	607.54
435.143	615.22
435.518	603.47
435.894	613.19
436.269	625.17
436.644	633.75
437.02	640.99
437.395	638.27
437.77	653.87
438.145	650.25
438.52	645.51
438.895	662.91
439.271	649.12
439.646	667.2
440.021	678.05
440.395	669.46
440.77	669.91
441.145	684.6
441.52	685.5
441.895	701.1
442.27	689.35
442.645	696.35
443.019	713.53
443.394	708.55
443.769	692.74
444.143	679.86
444.518	701.32
444.892	697.71
445.267	724.15
445.641	751.94
446.016	714.66
446.39	703.81
446.764	723.47
447.139	726.18
447.513	729.57
447.887	740.19
448.262	774.32
448.636	748.78
449.01	738.84
449.384	750.36
449.758	783.81
450.132	783.58
450.506	782.45
450.88	774.09
451.254	775.22
451.628	793.75
452.002	803.92
452.376	775.67
452.75	824.26
453.123	803.02
453.497	804.37
453.871	826.52
454.244	830.36
454.618	834.2
454.992	861.32
455.365	856.12
455.739	851.38
456.112	876.69
456.486	856.12
456.859	877.36
457.232	889.34
457.606	886.18
457.979	924.37
458.352	913.3
458.725	926.4
459.099	911.71
459.472	916.23
459.845	949.9
460.218	979.28
460.591	981.09
460.964	983.12
461.337	991.49
461.71	1012.95
462.083	1004.14
462.456	1015.67
462.829	1019.06
463.201	1045.27
463.574	1073.74
463.947	1084.14
464.32	1079.17
464.692	1096.79
465.065	1119.62
465.438	1135.21
465.81	1137.24
466.183	1160.52
466.555	1181.76
466.928	1196.68
467.3	1199.39
467.672	1237.58
468.045	1221.08
468.417	1263.79
468.789	1282.33
469.161	1300.4
469.534	1336.79
469.906	1344.24
470.278	1353.28
470.65	1361.42
471.022	1390.34
471.394	1436.67
471.766	1471.7
472.138	1493.17
472.51	1525.26
472.882	1563.22
473.253	1584.24
473.625	1623.33
473.997	1668.3
474.369	1677.79
474.74	1708.75
475.112	1752.37
475.484	1809.99
475.855	1858.13
476.227	1855.19
476.598	1925.02
476.97	2007.96
477.341	2055.64
477.713	2103.09
478.084	2119.59
478.455	2194.17
478.827	2268.97
479.198	2361.84
479.569	2405.01
479.94	2465.8
480.311	2530.65
480.682	2614.95
481.053	2685.23
481.424	2810.87
481.795	2845.45
482.166	2913.02
482.537	3035.73
482.908	3148.26
483.279	3220.58
483.65	3274.14
484.021	3424.64
484.391	3482.49
484.762	3583.73
485.133	3619.89
485.503	3768.59
485.874	3936.04
486.244	4000.22
486.615	4134.23
486.985	4257.84
487.356	4393.88
487.726	4477.72
488.097	4657.15
488.467	4745.74
488.837	4895.79
489.207	4975.34
489.578	5112.05
489.948	5261.66
490.318	5397.7
490.688	5449.45
491.058	5726.28
491.428	5803.79
491.798	5951.13
492.168	6127.4
492.538	6257.11
492.908	6403.32
493.278	6567.84
493.648	6674.5
494.017	6840.15
494.387	6982.06
494.757	7121.04
495.126	7300.92
495.496	7366.91
495.866	7606.9
496.235	7754.02
496.605	7908.59
496.974	7973
497.344	8142.03
497.713	8272.88
498.082	8417.96
498.452	8561.68
498.821	8747.89
499.19	8843.93
499.559	9036.7
499.928	9177.94
500.298	9305.16
500.667	9468.55
501.036	9565.5
501.405	9721.43
501.774	9795.55
502.143	9952.83
502.512	10073.51
502.88	10341.75
503.249	10301.75
503.618	10524.12
503.987	10614.28
504.356	10797.56
504.724	10963.88
505.093	11055.4
505.462	11195.74
505.83	11244.32
506.199	11450.65
506.567	11653.13
506.936	11694.03
507.304	11831.2
507.672	12016.73
508.041	12096.5
508.409	12295.37
508.777	12420.11
509.145	12571.07
509.514	12605.19
509.882	12792.08
510.25	12898.52
510.618	13067.1
510.986	13098.06
511.354	13295.79
511.722	13538.5
512.09	13699.85
512.458	13594.54
512.826	13869.79
513.193	13933.97
513.561	13954.31
513.929	14131.7
514.297	14288.54
514.664	14448.76
515.032	14568.08
515.4	14736.21
515.767	14796.09
516.135	14924.45
516.502	14974.39
516.869	15193.37
517.237	15408.73
517.604	15268.85
517.972	15613.93
518.339	15742.06
518.706	15778.44
519.073	15907.25
519.44	16067.7
519.808	16139.11
520.175	16186.34
520.542	16466.33
520.909	16542.26
521.276	16630.85
521.643	16896.15
522.009	16976.83
522.376	17158.52
522.743	17264.5
523.11	17479.87
523.477	17605.96
523.843	17670.14
524.21	17822.91
524.577	18037.82
524.943	18092.96
525.31	18286.62
525.676	18503.57
526.043	18565.94
526.409	18675.77
526.776	19000.73
527.142	18936.78
527.508	19131.35
527.874	19320.95
528.241	19472.13
528.607	19437.1
528.973	19692.91
529.339	19695.85
529.705	19860.59
530.071	20069.18
530.437	20171.32
530.803	20237.08
531.169	20414.25
531.535	20407.47
531.901	20443.4
532.267	20542.16
532.632	20753.9
532.998	20815.37
533.364	20942.6
533.73	20917.06
534.095	21217.17
534.461	21273.89
534.826	21402.7
535.192	21522.7
535.557	21660.32
535.923	21627.55
536.288	21742.8
536.653	21901.9
537.019	21831.62
537.384	21971.72
537.749	22047.65
538.114	22059.63
538.479	22130.36
538.845	22310.25
539.21	22252.17
539.575	22423.92
539.94	22493.97
540.305	22610.35
540.67	22611.93
541.034	22718.37
541.399	22816
541.764	22806.96
542.129	22997.69
542.494	22987.74
542.858	23114.97
543.223	23216.44
543.587	23370.56
543.952	23303.89
544.316	23339.37
544.681	23406.49
545.045	23401.52
545.41	23650.55
545.774	23638.35
546.138	23622.08
546.503	23789.08
546.867	23971.22
547.231	23957.66
547.595	24005.34
547.959	24219.12
548.324	24231.33
548.688	24199.46
549.052	24279.23
549.416	24435.84
549.779	24429.29
550.143	24537.08
550.507	24657.3
550.871	24774.59
551.235	24781.59
551.599	25020.68
551.962	25089.38
552.326	25045.09
552.689	25234.24
553.053	25146.78
553.417	25343.61
553.78	25606.43
554.143	25512.87
554.507	25644.62
554.87	25630.61
555.234	26027.89
555.597	25757.61
555.96	25950.6
556.323	26102.46
556.686	26050.04
557.05	26336.81
557.413	26407.09
557.776	26453.64
558.139	26666.06
558.502	26766.63
558.865	26824.48
559.228	27049.11
559.59	26991.71
559.953	27065.6
560.316	27344.24
560.679	27373.84
561.041	27482.54
561.404	27638.69
561.767	27872.36
562.129	27801.63
562.492	28061.51
562.854	28048.17
563.217	28063.54
563.579	28381.95
563.941	28441.61
564.304	28485.45
564.666	28730.42
565.028	28835.5
565.39	28854.71
565.753	28913.91
566.115	29103.97
566.477	29285.2
566.839	29343.06
567.201	29449.27
567.563	29551.19
567.925	29811.29
568.287	29764.06
568.648	29796.38
569.01	29893.55
569.372	30143.04
569.734	30123.83
570.095	30314.1
570.457	30395.23
570.819	30461.44
571.18	30455.8
571.542	30724.04
571.903	30810.59
572.265	30852.62
572.626	30910.7
572.987	31151.37
573.349	31224.81
573.71	31296.23
574.071	31271.37
574.432	31521.53
574.794	31792.71
575.155	31651.92
575.516	31606.5
575.877	31819.15
576.238	31804.01
576.599	31985.25
576.96	32016.21
577.32	31931.46
577.681	31954.96
578.042	32270.44
578.403	32171.23
578.763	32185.69
579.124	32326.48
579.485	32429.53
579.845	32597.66
580.206	32509.3
580.566	32472.24
580.927	32581.16
581.287	32596.76
581.648	32583.42
582.008	32742.29
582.368	32775.28
582.728	32888.73
583.089	32727.6
583.449	32774.15
583.809	32764.44
584.169	32910.42
584.529	32812.12
584.889	33119.45
585.249	32996.07
585.609	32919.23
585.969	33093.47
586.329	32966.46
586.688	32982.28
587.048	33038.55
587.408	32927.14
587.768	32989.51
588.127	32928.05
588.487	33043.3
588.846	33192.45
589.206	32949.29
589.565	33006.46
589.925	33338.43
590.284	33133.92
590.643	33240.81
591.003	33389.96
591.362	33428.37
591.721	33235.61
592.08	33366.45
592.44	33342.27
592.799	33484.42
593.158	33361.48
593.517	33292.56
593.876	33392.22
594.235	33297.3
594.593	33463.63
594.952	33513.34
595.311	33410.07
595.67	33537.97
596.029	33730.74
596.387	33718.31
596.746	33822.71
597.104	33524.42
597.463	33581.14
597.822	33735.48
598.18	33580.68
598.538	33662.94
598.897	33990.39
599.255	33576.17
599.613	34179.09
599.972	33904.97
600.33	33991.07
600.688	33841.92
601.046	33909.94
601.404	34196.94
601.762	34107.45
602.12	34247.11
602.478	34241.01
602.836	34252.98
603.194	34163.27
603.552	34221.57
603.91	34132.76
604.268	34305.41
604.625	34351.96
604.983	34532.07
605.341	34305.19
605.698	34638.96
606.056	34501.79
606.413	34651.17
606.771	34695.91
607.128	34781.78
607.485	34694.1
607.843	34744.72
608.2	34862.69
608.557	34981.55
608.914	34821.56
609.272	35077.59
609.629	35186.07
609.986	35317.81
610.343	35195.11
610.7	35424.03
611.057	35408.43
611.414	35354.88
611.771	35389.22
612.127	35571.14
612.484	35535.44
612.841	35716.67
613.198	35617.24
613.554	35658.14
613.911	35922.54
614.267	35797.58
614.624	35882.32
614.98	35907.4
615.337	36083.9
615.693	36070.79
616.05	35883.22
616.406	36158.02
616.762	36077.12
617.118	36136.1
617.475	36133.84
617.831	36344.68
618.187	36237.56
618.543	36386.49
618.899	36442.98
619.255	36457.9
619.611	36560.72
619.967	36654.28
620.323	36784.67
620.678	36564.56
621.034	36467.61
621.39	36559.59
621.746	36584.45
622.101	36968.84
622.457	36672.81
622.812	36819.92
623.168	36910.77
623.523	36891.11
623.879	36968.62
624.234	36816.98
624.589	36910.09
624.945	37051.33
625.3	36986.7
625.655	37097.65
626.01	36926.59
626.365	37017.66
626.72	36855.63
627.075	36958.22
627.43	36925.68
627.785	36995.28
628.14	37081.38
628.495	37062.63
628.85	37159.57
629.205	36908.28
629.559	37168.61
629.914	36981.95
630.269	37099.24
630.623	36948.51
630.978	36853.37
631.332	37079.58
631.687	37073.25
632.041	36939.69
632.396	36995.06
632.75	36966.13
633.104	37119.12
633.459	36751.9
633.813	36882.07
634.167	36730.88
634.521	36896.76
634.875	36893.82
635.229	36828.51
635.583	36675.97
635.937	36592.13
636.291	36844.1
636.645	36658.57
636.999	36556.2
637.352	36907.15
637.706	36479.37
638.06	36652.24
638.413	36577.44
638.767	36480.5
639.121	36622.41
639.474	36416.99
639.828	36391.23
640.181	36433.27
640.534	36463.09
640.888	36379.93
641.241	36165.25
641.594	36268.75
641.947	36397.11
642.301	36168.64
642.654	36261.07
643.007	36402.53
643.36	36230.11
643.713	36259.48
644.066	36170.45
644.419	36119.83
644.771	35843.68
645.124	35553.97
645.477	35544.93
645.83	35144.49
646.182	35185.61
646.535	35040.99
646.888	35216.12
647.24	34985.17
647.593	35060.87
647.945	35011.61
648.298	34969.8
648.65	34912.85
649.002	34766.87
649.355	34994.66
649.707	34820.65
650.059	35078.5
650.411	35350.81
650.763	35415.44
651.115	35690.69
651.467	35650.69
651.819	35624.47
652.171	35538.37
652.523	35513.06
652.875	35468.77
653.227	35432.61
653.578	35636.9
653.93	35545.15
654.282	35390.58
654.633	35301.32
654.985	35400.75
655.337	35412.73
655.688	35382.22
656.039	35423.57
656.391	35264.26
656.742	35257.48
657.094	35308.32
657.445	35321.88
657.796	35277.82
658.147	35032.62
658.498	35121.21
658.849	35243.92
659.2	35238.04
659.551	35094.32
659.902	35271.71
660.253	35217.25
660.604	35349.23
660.955	35091.83
661.306	35156.46
661.656	35078.27
662.007	35013.64
662.358	35067.2
662.708	35067.2
663.059	35088.67
663.409	34925.06
663.76	35213.18
664.11	35102
664.461	35088.67
664.811	35046.63
665.161	35156.69
665.511	34848.22
665.862	34998.27
666.212	34993.76
666.562	35156.46
666.912	34987.65
667.262	34857.04
667.612	35063.58
667.962	34979.29
668.312	34842.8
668.662	35052.06
669.011	35012.96
669.361	34913.53
669.711	34841.89
670.06	34855.23
670.41	34757.6
670.76	34669.24
671.109	34914.44
671.459	34745.17
671.808	34697.94
672.157	34861.33
672.507	34604.84
672.856	34442.81
673.205	34569.36
673.554	34709.47
673.904	34504.05
674.253	34751.95
674.602	34669.47
674.951	34180.9
675.3	34040.33
675.649	34552.41
675.998	34521.23
676.346	34523.03
676.695	34643.26
677.044	34385.18
677.393	34447.33
677.741	34399.87
678.09	34491.17
678.438	34358.74
678.787	34387.22
679.135	34430.83
679.484	34173.21
679.832	34373.43
680.181	34190.39
680.529	34145.19
680.877	34172.99
681.225	34057.51
681.573	34261.8
681.922	33974.12
682.27	33846.89
682.618	33914.46
682.966	33650.29
683.314	33892.77
683.661	33775.71
684.009	33621.59
684.357	33611.19
684.705	33603.06
685.053	33534.58
685.4	33507.47
685.748	33407.58
686.095	33378.43
686.443	33322.84
686.79	33203.29
687.138	33242.16
687.485	33234.03
687.832	33048.5
688.18	33185.44
688.527	32892.34
688.874	32955.39
689.221	32882.62
689.568	32752.91
689.915	32769.18
690.262	32692.12
690.609	32626.13
690.956	32483.31
691.303	32491.22
691.65	32328.29
691.997	32212.36
692.344	32214.62
692.69	32243.32
693.037	32201.74
693.383	31952.25
693.73	32183.66
694.077	31855.98
694.423	32012.14
694.769	31795.42
695.116	31728.53
695.462	31675.65
695.808	31569.44
696.155	31611.25
696.501	31230.69
696.847	31303
697.193	31100.75
697.539	31184.59
697.885	30977.82
698.231	30877.48
698.577	30941.21
698.923	30783.47
699.269	30670.25
699.614	30640.2
699.96	30494.89
700.306	30597.03
700.651	30423.25
700.997	30256.48
701.342	30256.25
701.688	30222.36
702.033	30162.02
702.379	30197.5
702.724	29965.64
703.069	30096.03
703.415	29625.31
703.76	29778.75
704.105	29605.2
704.45	29565.42
704.795	29419.44
705.14	29517.29
705.485	29438.87
705.83	29317.07
706.175	29414.92
706.52	29106
706.865	29098.09
707.209	29104.19
707.554	29072.33
707.899	29034.59
708.243	28888.15
708.588	28773.58
708.932	28741.26
709.277	28725.22
709.621	28630.53
709.966	28402.74
710.31	28512.57
710.654	28226.93
710.998	28475.96
711.342	28295.4
711.687	28245.46
712.031	28074.84
712.375	27962.98
712.719	28087.04
713.063	28065.58
713.407	28083.88
713.75	27973.15
714.094	27890.44
714.438	27828.97
714.782	27877.33
715.125	27656.32
715.469	27678.02
715.812	27580.16
716.156	27407.06
716.499	27382.66
716.843	27308.31
717.186	27270.79
717.53	27408.87
717.873	27415.42
718.216	27395.31
718.559	27314.86
718.902	26912.39
719.246	27121.42
719.589	27084.13
719.932	26971.59
720.275	26940.41
720.617	26902.44
720.96	26859.96
721.303	26613.86
721.646	26860.86
721.989	26607.53
722.331	26706.52
722.674	26652.28
723.016	26723.69
723.359	26588.33
723.701	26523.24
724.044	26432.85
724.386	26247.09
724.729	26436.92
725.071	26397.82
725.413	26324.6
725.755	26214.55
726.097	26167.77
726.439	26044.84
726.782	25977.95
727.124	26204.61
727.465	26011.39
727.807	26072.18
728.149	26005.06
728.491	25863.6
728.833	25915.8
729.175	25772.75
729.516	25706.09
729.858	25691.85
730.199	25733.66
730.541	25646.66
730.882	25614.79
731.224	25617.96
731.565	25502.25
731.906	25506.55
732.248	25525.08
732.589	25215.26
732.93	25274.01
733.271	25356.95
733.612	25357.4
733.953	25355.59
734.294	25308.81
734.635	25260.9
734.976	25251.19
735.317	25151.08
735.658	25067.46
735.999	25015.71
736.339	25018.88
736.68	25118.31
737.021	24954.47
737.361	24951.31
737.702	24927.35
738.042	24882.61
738.383	24804.42
738.723	24777.07
739.063	24827.47
739.404	24847.81
739.744	24658.43
740.084	24632.9
740.424	24676.96
740.764	24641.03
741.104	24591.99
741.444	24499.79
741.784	24410.76
742.124	24423.41
742.464	24447.59
742.804	24383.41
743.143	24225.22
743.483	24271.78
743.823	24240.37
744.162	24139.58
744.502	24201.5
744.841	24060.94
745.181	24203.3
745.52	24098.67
745.86	24097.77
746.199	24007.15
746.538	24008.28
746.877	24005.12
747.216	23966.47
747.556	23848.06
747.895	23831.11
748.234	23689.87
748.573	23774.39
748.911	23738.01
749.25	23682.19
749.589	23580.27
749.928	23598.12
750.267	23596.31
750.605	23499.14
750.944	23480.84
751.283	23384.34
751.621	23533.04
751.96	23406.04
752.298	23275.65
752.636	23320.84
752.975	23225.7
753.313	23129.43
753.651	23262.54
753.989	23046.5
754.327	23004.92
754.666	22955.65
755.004	23074.29
755.342	22990.91
755.679	23040.17
756.017	22833.62
756.355	22881.98
756.693	22711.14
757.031	22731.25
757.368	22641.31
757.706	22557.92
758.044	22509.79
758.381	22502.56
758.719	22448.1
759.056	22411.04
759.394	22334.88
759.731	22222.79
760.068	22129.69
760.405	22138.95
760.743	21949.8
761.08	22006.53
761.417	21872.07
761.754	21711.62
762.091	21771.5
762.428	21794.33
762.765	21548.68
763.102	21548.68
763.438	21429.59
763.775	21457.39
764.112	21422.59
764.449	21491.51
764.785	21286.77
765.122	21244.51
765.458	21047.91
765.795	21089.04
766.131	21095.82
766.467	21007.91
766.804	20966.1
767.14	20865.54
767.476	20800.46
767.812	20769.27
768.148	20733.79
768.485	20488.6
768.821	20507.13
769.157	20494.7
769.492	20461.71
769.828	20355.95
770.164	20226.46
770.5	20145.78
770.836	20069.4
771.171	20046.8
771.507	19969.07
771.842	19867.37
772.178	19782.63
772.513	19781.05
772.849	19694.5
773.184	19697.21
773.519	19585.35
773.855	19522.75
774.19	19420.83
774.525	19342.42
774.86	19355.75
775.195	19260.61
775.53	19283.66
775.865	19126.15
776.2	19024.01
776.535	18853.61
776.87	18871.47
777.205	18697.46
777.539	18747.18
777.874	18734.75
778.209	18490.23
778.543	18550.12
778.878	18327.53
779.212	18514.64
779.547	18323.68
779.881	18361.88
780.215	18127.08
780.55	18220.41
780.884	18059.96
781.218	18077.14
781.552	18067.42
781.886	17912.4
782.22	17794.89
782.554	17805.28
782.888	17617.49
783.222	17505.4
783.556	17549.92
783.889	17497.94
784.223	17296.82
784.557	17313.54
784.89	17320.77
785.224	17145.86
785.557	17204.17
785.891	17102.25
786.224	17025.87
786.558	16962.14
786.891	16875.36
787.224	16838.75
787.557	16836.27
787.891	16758.53
788.224	16812.09
788.557	16688.02
788.89	16696.61
789.223	16628.36
789.556	16521.25
789.888	16422.49
790.221	16314.7
790.554	16217.98
790.887	16319.9
791.219	16179.56
791.552	16155.15
791.884	16097.98
792.217	16067.25
792.549	16010.75
792.882	15951.09
793.214	15859.57
793.546	15798.1
793.879	15695.51
794.211	15581.84
794.543	15713.36
794.875	15644.43
795.207	15660.25
795.539	15524.89
795.871	15469.75
796.203	15268.17
796.535	15315.4
796.867	15267.72
797.198	15229.98
797.53	15189.98
797.862	15118.12
798.193	15122.19
798.525	15048.52
798.856	15048.52
799.188	14860.05
799.519	14796.55
799.85	14740.5
800.182	14832.48
800.513	14697.57
800.844	14514.52
801.175	14673.61
801.506	14754.51
801.837	14594.07
802.168	14625.03
802.499	14430.91
802.83	14339.38
803.161	14345.94
803.491	14336.9
803.822	14334.64
804.153	14216.9
804.483	14173.74
804.814	14166.05
805.145	14112.95
805.475	14126.73
805.805	14123.34
806.136	13978.26
806.466	13971.48
806.796	13954.99
807.126	13898.94
807.457	13851.26
807.787	13862.11
808.117	13827.76
808.447	13716.8
808.777	13740.53
809.107	13668.21
809.436	13584.37
809.766	13679.06
810.096	13630.02
810.426	13544.6
810.755	13537.14
811.085	13451.5
811.414	13454.21
811.744	13388.45
812.073	13224.38
812.403	13324.72
812.732	13245.63
813.061	13305.51
813.39	13104.61
813.719	13185.29
814.049	13278.85
814.378	13088.57
814.707	13091.05
815.036	13086.76
815.365	13015.35
815.693	12881.12
816.022	12953.66
816.351	12846.99
816.68	12772.42
817.008	12798.63
817.337	12706.66
817.665	12630.05
817.994	12663.95
818.322	12744.4
818.651	12639.54
818.979	12610.16
819.307	12646.09
819.636	12614.91
819.964	12529.26
820.292	12499.66
820.62	12545.98
820.948	12458.08
821.276	12519.77
821.604	12456.27
821.932	12411.98
822.259	12507.11
822.587	12412.2
822.915	12395.25
823.243	12491.07
823.57	12438.19
823.898	12452.2
824.225	12451.52
824.553	12309.83
824.88	12348.47
825.207	12383.28
825.535	12339.21
825.862	12392.32
826.189	12334.01
826.516	12407.91
826.843	12450.84
827.17	12357.97
827.497	12396.38
827.824	12360.9
828.151	12484.74
828.478	12395.25
828.805	12453.56
829.131	12365.2
829.458	12397.29
829.785	12317.97
830.111	12321.81
830.438	12351.86
830.764	12329.27
831.09	12419.89
831.417	12251.53
831.743	12392.32
832.069	12343.73
832.395	12333.11
832.722	12273.9
833.048	12200.23
833.374	12244.52
833.7	12221.47
834.026	12291.75
834.351	12237.29
834.677	12219.44
835.003	12198.42
835.329	12253.34
835.654	12220.34
835.98	12098.09
836.306	12104.19
836.631	12196.39
836.956	12128.37
837.282	12077.75
837.607	12117.29
837.932	12029.39
838.258	12002.72
838.583	12045.66
838.908	12016.96
839.233	11925.66
839.558	12063.51
839.883	11937.64
840.208	11874.14
840.533	11888.37
840.858	11806.57
841.182	11876.4
841.507	11853.57
841.832	11772.9
842.156	11716.85
842.481	11772.9
842.805	11728.38
843.13	11712.56
843.454	11680.02
843.778	11620.81
844.103	11594.14
844.427	11595.27
844.751	11619.45
845.075	11564.31
845.399	11491.55
845.723	11460.59
846.047	11436.63
846.371	11321.38
846.695	11389.18
847.019	11196.19
847.343	11219.46
847.666	11191.67
847.99	11107.38
848.313	11213.59
848.637	11074.38
848.96	11080.49
849.284	11034.61
849.607	10916.42
849.931	10911
850.254	10836.42
850.577	10807.5
850.9	10683.43
851.223	10765.24
851.546	10690.89
851.869	10546.49
852.192	10623.32
852.515	10465.81
852.838	10460.39
853.161	10459.48
853.483	10417.9
853.806	10364.35
854.129	10357.11
854.451	10262.43
854.774	10181.75
855.096	10214.07
855.419	10221.07
855.741	10152.15
856.063	10129.1
856.385	10156.89
856.708	10128.19
857.03	10056.11
857.352	10012.94
857.674	9997.35
857.996	9974.07
858.318	9916.22
858.64	9919.61
858.961	9867.64
859.283	9847.3
859.605	9803.91
859.926	9828.54
860.248	9824.93
860.57	9798.94
860.891	9786.96
861.212	9701.09
861.534	9718.94
861.855	9666.06
862.176	9664.93
862.498	9695.66
862.819	9642.33
863.14	9568.89
863.461	9592.39
863.782	9519.17
864.103	9563.24
864.424	9544.25
864.745	9569.56
865.065	9501.32
865.386	9430.59
865.707	9465.39
866.027	9412.28
866.348	9381.1
866.668	9440.08
866.989	9345.84
867.309	9268.1
867.63	9325.73
867.95	9344.71
868.27	9263.81
868.59	9263.36
868.91	9288.44
869.23	9253.41
869.55	9207.09
869.87	9344.94
870.19	9184.49
870.51	9173.19
870.83	9222
871.15	9144.27
871.469	9160.08
871.789	9217.94
872.109	9182
872.428	9082.8
872.748	9148.33
873.067	9069.46
873.386	9103.59
873.706	9091.16
874.025	9042.35
874.344	8969.13
874.663	9012.52
874.982	9028.11
875.301	9018.17
875.62	8958.73
875.939	8908.79
876.258	8924.84
876.577	8870.83
876.896	8869.24
877.214	8882.58
877.533	8853.88
877.852	8844.84
878.17	8835.8
878.489	8864.27
878.807	8837.61
879.125	8803.48
879.444	8769.36
879.762	8744.05
880.08	8739.98
880.398	8723.71
880.716	8747.44
881.034	8714.67
881.352	8643.94
881.67	8669.02
881.988	8620.89
882.306	8574.34
882.624	8609.36
882.941	8572.3
883.259	8622.25
883.577	8508.8
883.894	8501.57
884.212	8476.71
884.529	8467.22
884.846	8469.25
885.164	8468.58
885.481	8363.04
885.798	8408.24
886.115	8380.9
886.432	8412.31
886.75	8385.64
887.067	8410.27
887.383	8333.67
887.7	8241.69
888.017	8260.45
888.334	8242.14
888.651	8275.14
888.967	8229.04
889.284	8141.13
889.6	8141.58
889.917	8111.07
890.233	8114.01
890.55	8071.75
890.866	8058.64
891.182	8067.46
891.498	8025.88
891.815	8068.14
892.131	7986.1
892.447	7986.78
892.763	7875.37
893.079	7882.15
893.395	7848.25
893.71	7884.86
894.026	7833.34
894.342	7801.7
894.657	7804.64
894.973	7789.72
895.289	7801.02
895.604	7758.76
895.92	7685.77
896.235	7629.73
896.55	7653.23
896.865	7632.21
897.181	7554.02
897.496	7571.88
897.811	7534.14
898.126	7509.28
898.441	7483.74
898.756	7439.23
899.071	7407.14
899.386	7440.36
899.7	7347.7
900.015	7341.15
900.33	7283.52
900.644	7318.1
900.959	7259.79
901.273	7242.17
901.588	7236.52
901.902	7131.66
902.216	7194.49
902.531	7131.21
902.845	7097.09
903.159	7114.71
903.473	7044.89
903.787	7063.87
904.101	7002.85
904.415	7023.42
904.729	6969.63
905.042	6951.1
905.356	6874.72
905.67	6860.71
905.984	6825
906.297	6851.22
906.611	6824.78
906.924	6772.12
907.237	6744.55
907.551	6732.13
907.864	6749.53
908.177	6661.17
908.491	6657.1
908.804	6628.63
909.117	6623.2
909.43	6575.07
909.743	6504.79
910.056	6559.93
910.368	6532.58
910.681	6420.72
910.994	6438.8
911.307	6407.16
911.619	6393.6
911.932	6410.78
912.244	6353.6
912.557	6330.55
912.869	6312.02
913.181	6327.39
913.494	6233.16
913.806	6237.45
914.118	6156.1
914.43	6160.61
914.742	6110.9
915.054	6106.6
915.366	6204.91
915.678	6026.61
915.99	6054.4
916.302	5987.29
916.613	5941.41
916.925	5959.49
917.236	5989.32
917.548	5860.06
917.859	5862.32
918.171	5831.36
918.482	5806.73
918.794	5832.49
919.105	5810.12
919.416	5784.35
919.727	5746.84
920.038	5752.04
920.349	5663.68
920.66	5672.04
920.971	5660.29
921.282	5638.37
921.593	5618.71
921.903	5567.41
922.214	5584.36
922.525	5595.43
922.835	5504.13
923.146	5465.27
923.456	5494.64
923.767	5499.39
924.077	5449.9
924.387	5380.52
924.697	5375.55
925.008	5373.06
925.318	5376.91
925.628	5374.65
925.938	5338.94
926.248	5269.56
926.558	5232.96
926.867	5270.92
927.177	5238.15
927.487	5207.65
927.796	5187.99
928.106	5150.92
928.416	5079.97
928.725	5079.29
929.034	5070.25
929.344	5091.94
929.653	5072.73
929.962	5015.11
930.271	4998.16
930.581	4971.72
930.89	4974.66
931.199	4864.6
931.508	4938.95
931.817	4925.85
932.125	4874.32
932.434	4853.98
932.743	4827.09
933.051	4793.19
933.36	4760.2
933.669	4752.06
933.977	4750.71
934.286	4780.76
934.594	4662.58
934.902	4681.33
935.21	4644.5
935.519	4700.99
935.827	4605.18
936.135	4641.33
936.443	4526.53
936.751	4526.76
937.059	4579.41
937.367	4498.51
937.674	4513.88
937.982	4496.25
938.29	4426.65
938.597	4455.35
938.905	4449.25
939.213	4420.1
939.52	4381.45
939.827	4424.39
940.135	4337.16
940.442	4385.29
940.749	4312.53
941.056	4334.9
941.363	4289.03
941.67	4288.8
941.977	4222.36
942.284	4196.82
942.591	4200.67
942.898	4193.21
943.205	4195.02
943.511	4159.99
943.818	4151.63
944.125	4119.09
944.431	4068.24
944.738	4086.09
945.044	4065.75
945.35	4032.08
945.657	4020.11
945.963	4034.34
946.269	4003.16
946.575	3935.14
946.881	3946.21
947.187	3967
947.493	3944.4
947.799	3951.41
948.105	3909.83
948.41	3897.4
948.716	3906.66
949.022	3839.32
949.327	3862.82
949.633	3828.7
949.938	3823.5
950.244	3780.56
950.549	3799.55
950.854	3764.75
951.16	3752.99
951.465	3715.48
951.77	3699.21
952.075	3715.93
952.38	3643.17
952.685	3690.85
952.99	3666.67
953.294	3648.59
953.599	3608.37
953.904	3585.77
954.209	3578.76
954.513	3590.06
954.818	3548.03
955.122	3525.66
955.426	3536.05
955.731	3532.44
956.035	3513.68
956.339	3506.45
956.643	3470.06
956.948	3450.63
957.252	3438.65
957.556	3418.99
957.86	3386.9
958.163	3393.23
958.467	3380.57
958.771	3384.64
959.075	3368.82
959.378	3360.01
959.682	3325.44
959.985	3294.25
960.289	3279.56
960.592	3285.21
960.896	3290.86
961.199	3295.83
961.502	3249.73
961.805	3218.55
962.108	3218.55
962.411	3184.2
962.714	3133.58
963.017	3185.55
963.32	3162.73
963.623	3138.55
963.926	3122.5
964.228	3109.85
964.531	3092.22
964.833	3091.09
965.136	3062.84
965.438	3083.18
965.741	3029.85
966.043	3016.97
966.345	3004.09
966.648	3019
966.95	2997.31
967.252	2943.07
967.554	3002.05
967.856	2940.81
968.158	2920.7
968.46	2883.86
968.761	2918.21
969.063	2906.92
969.365	2858.1
969.666	2915.5
969.968	2872.34
970.269	2855.39
970.571	2840.25
970.872	2816.52
971.174	2791.89
971.475	2833.02
971.776	2822.85
972.077	2794.83
972.378	2766.58
972.679	2765.68
972.98	2750.99
973.281	2738.33
973.582	2724.1
973.883	2697.66
974.183	2717.32
974.484	2670.99
974.785	2681.61
975.085	2690.2
975.386	2665.57
975.686	2672.12
975.986	2638
976.287	2623.98
976.587	2615.17
976.887	2614.95
977.187	2595.28
977.487	2564.55
977.787	2566.81
978.087	2565.23
978.387	2522.74
978.687	2546.02
978.987	2533.59
979.286	2494.5
979.586	2527.26
979.885	2482.29
980.185	2465.34
980.484	2470.32
980.784	2453.82
981.083	2447.94
981.382	2447.49
981.682	2407.49
981.981	2438.23
982.28	2419.7
982.579	2378.79
982.878	2390.77
983.177	2384.44
983.475	2404.33
983.774	2354.39
984.073	2346.48
984.372	2354.84
984.67	2311.9
984.969	2306.03
985.267	2284.56
985.566	2282.3
985.864	2303.32
986.162	2270.32
986.461	2274.84
986.759	2261.73
987.057	2242.53
987.355	2254.73
987.653	2245.46
987.951	2191.68
988.249	2198.46
988.547	2205.24
988.844	2179.02
989.142	2198.91
989.44	2161.62
989.737	2145.81
990.035	2166.82
990.332	2127.05
990.63	2096.99
990.927	2108.07
991.224	2123.66
991.521	2104
991.819	2066.94
992.116	2117.11
992.413	2083.89
992.71	2063.77
993.006	2069.65
993.303	2038.69
993.6	2035.75
993.897	2024.45
994.193	2038.69
994.49	2011.35
994.787	1991.46
995.083	1969.09
995.379	1974.06
995.676	1976.32
995.972	1969.76
996.268	1976.09
996.565	1932.48
996.861	1931.35
997.157	1922.53
997.453	1932.93
997.749	1888.86
998.044	1864.91
998.34	1897.68
998.636	1901.97
998.932	1863.55
999.227	1876.89
999.523	1849.77
999.818	1868.75
1000.114	1853.38
1000.409	1802.31
1000.704	1787.4
1001	1817.68
1001.295	1784.23
1001.59	1801.86
1001.885	1797.57
1002.18	1755.98
1002.475	1757.34
1002.77	1738.81
1003.065	1719.15
1003.359	1727.74
1003.654	1714.4
1003.949	1725.93
1004.243	1720.51
1004.538	1676.89
1004.832	1689.32
1005.127	1682.99
1005.421	1660.39
1005.715	1659.94
1006.009	1638.47
1006.304	1624.46
1006.598	1650.45
1006.892	1596.67
1007.186	1610.23
1007.48	1599.38
1007.773	1596.67
1008.067	1590.34
1008.361	1598.7
1008.655	1594.18
1008.948	1570.23
1009.242	1552.83
1009.535	1564.35
1009.829	1535.88
1010.122	1568.65
1010.415	1542.88
1010.708	1541.08
1011.001	1504.47
1011.295	1483.68
1011.588	1494.52
1011.881	1467.18
1012.173	1468.31
1012.466	1450.46
1012.759	1467.18
1013.052	1445.26
1013.344	1460.85
1013.637	1448.65
1013.93	1438.93
1014.222	1435.77
1014.514	1401.42
1014.807	1438.71
1015.099	1400.29
1015.391	1380.85
1015.683	1403.9
1015.976	1360.29
1016.268	1359.84
1016.56	1374.3
1016.851	1374.98
1017.143	1357.35
1017.435	1323.23
1017.727	1312.38
1018.018	1316.9
1018.31	1292.72
1018.602	1297.92
1018.893	1274.64
1019.185	1285.26
1019.476	1283.91
1019.767	1282.1
1020.058	1282.55
1020.35	1262.66
1020.641	1257.92
1020.932	1240.74
1021.223	1248.43
1021.514	1221.31
1021.804	1202.78
1022.095	1202.1
1022.386	1225.38
1022.677	1173.85
1022.967	1201.42
1023.258	1160.75
1023.548	1177.47
1023.839	1168.2
1024.129	1152.16
1024.419	1160.29
1024.709	1125.94
1025	1123.91
1025.29	1149.9
1025.58	1127.3
1025.87	1123.91
1026.16	1100.18
1026.449	1099.96
1026.739	1113.97
1027.029	1072.61
1027.319	1063.57
1027.608	1078.94
1027.898	1064.7
1028.187	1090.47
1028.477	1069
1028.766	1029.45
1029.055	1052.95
1029.344	1024.25
1029.634	1047.08
1029.923	1045.27
1030.212	1036
1030.501	1003.69
1030.79	996
1031.078	987.64
1031.367	994.42
1031.656	943.58
1031.945	972.95
1032.233	967.08
1032.522	971.15
1032.81	975.89
1033.099	965.27
1033.387	948.1
1033.675	957.36
1033.963	938.83
1034.251	945.16
1034.54	939.74
1034.828	931.83
1035.116	910.13
1035.403	916.01
1035.691	892.5
1035.979	866.29
1036.267	883.01
1036.554	884.82
1036.842	850.92
1037.129	866.74
1037.417	866.29
1037.704	862.9
1037.992	883.47
1038.279	852.51
1038.566	839.4
1038.853	839.4
1039.14	839.4
