Data from hue_150_FLMS001491_00082.txt Node
Date: Tue Feb 07 16:54:38 GMT 2017
User: dcchb
Spectrometer: FLMS00149
Trigger mode: 0
Integration Time (sec): 2.000000E-2
Scans to average: 10
Electric dark correction enabled: true
Nonlinearity correction enabled: false
Boxcar width: 0
XAxis mode: Wavelengths
Number of Pixels in Spectrum: 2048
>>>>>Begin Spectral Data<<<<<
341.393	-17.71
341.776	-17.71
342.16	-17.71
342.543	-58.39
342.927	-64.49
343.31	-68.78
343.693	-71.72
344.077	-66.3
344.46	-70.14
344.843	-62.68
345.226	-31.72
345.61	-44.83
345.993	-8.9
346.376	-3.02
346.759	22.51
347.142	12.12
347.525	31.55
347.908	49.18
348.291	93.47
348.674	96.86
349.057	122.4
349.44	105.45
349.823	139.8
350.206	163.07
350.588	198.1
350.971	201.94
351.354	218.21
351.737	230.19
352.119	258.67
352.502	265.67
352.884	265.22
353.267	278.33
353.65	276.29
354.032	302.73
354.414	321.26
354.797	312.45
355.179	325.33
355.562	318.32
355.944	316.97
356.326	331.66
356.709	356.52
357.091	353.13
357.473	345.67
357.855	340.92
358.238	318.55
358.62	340.25
359.002	353.8
359.384	357.65
359.766	338.89
360.148	309.96
360.53	344.54
360.912	328.04
361.294	347.25
361.676	311.55
362.057	349.96
362.439	340.7
362.821	334.37
363.203	317.2
363.584	332.11
363.966	313.35
364.348	320.36
364.729	333.47
365.111	323.3
365.493	322.62
365.874	310.42
366.256	327.36
366.637	311.55
367.019	319.91
367.4	298.44
367.781	319.23
368.163	318.1
368.544	340.25
368.925	307.7
369.306	314.03
369.688	328.27
370.069	326.23
370.45	313.35
370.831	304.31
371.212	314.71
371.593	330.08
371.974	288.72
372.355	307.03
372.736	321.26
373.117	315.84
373.498	315.39
373.879	318.55
374.26	307.25
374.641	316.74
375.021	324.2
375.402	316.74
375.783	316.29
376.163	328.49
376.544	333.92
376.925	314.26
377.305	312
377.686	336.18
378.066	317.42
378.447	331.66
378.827	322.39
379.208	314.94
379.588	318.78
379.968	333.47
380.349	330.08
380.729	328.95
381.109	329.62
381.489	327.14
381.87	325.56
382.25	342.05
382.63	337.53
383.01	351.09
383.39	346.35
383.77	332.11
384.15	342.51
384.53	357.65
384.91	357.87
385.29	363.07
385.67	356.29
386.049	368.27
386.429	344.76
386.809	362.62
387.189	363.97
387.568	361.71
387.948	356.29
388.328	363.07
388.707	360.36
389.087	354.93
389.466	371.66
389.846	364.88
390.225	379.34
390.605	382.96
390.984	383.18
391.363	358.55
391.743	368.49
392.122	363.75
392.501	377.31
392.881	366.46
393.26	392.67
393.639	381.6
394.018	387.25
394.397	402.16
394.776	364.88
395.155	378.66
395.534	392.45
395.913	387.02
396.292	367.82
396.671	391.32
397.05	386.8
397.429	373.24
397.808	389.06
398.186	409.85
398.565	389.96
398.944	400.36
399.323	402.39
399.701	393.13
400.08	424.31
400.458	420.24
400.837	401.94
401.215	404.2
401.594	407.59
401.972	393.8
402.351	415.72
402.729	413.46
403.107	422.95
403.486	413.92
403.864	429.51
404.242	416.63
404.62	426.57
404.999	419.11
405.377	431.77
405.755	432.45
406.133	404.42
406.511	455.04
406.889	462.73
407.267	428.83
407.645	467.47
408.023	433.35
408.401	461.82
408.779	476.51
409.156	450.75
409.534	482.39
409.912	475.83
410.29	463.63
410.667	457.08
411.045	468.15
411.422	459.79
411.8	473.58
412.178	470.64
412.555	489.85
412.933	494.37
413.31	492.11
413.687	506.79
414.065	516.06
414.442	516.29
414.819	508.6
415.197	515.16
415.574	475.83
415.951	512.22
416.328	540.01
416.705	520.58
417.082	519.22
417.46	529.84
417.837	527.13
418.214	534.82
418.591	544.31
418.967	569.84
419.344	545.44
419.721	547.47
420.098	551.99
420.475	542.5
420.852	567.36
421.228	570.3
421.605	579.11
421.982	577.75
422.358	565.78
422.735	581.37
423.111	576.17
423.488	572.1
423.864	573.69
424.241	593.35
424.617	613.23
424.994	593.35
425.37	594.48
425.746	616.17
426.123	631.99
426.499	615.27
426.875	623.63
427.251	641.48
427.627	643.74
428.003	652.55
428.379	642.84
428.756	657.3
429.132	659.78
429.507	667.24
429.883	659.33
430.259	670.63
430.635	647.13
431.011	675.6
431.387	686.22
431.763	694.59
432.138	709.5
432.514	736.62
432.89	724.42
433.265	732.78
433.641	740.91
434.016	741.36
434.392	742.72
434.767	756.96
435.143	758.99
435.518	763.74
435.894	759.22
436.269	755.6
436.644	813.91
437.02	801.7
437.395	776.84
437.77	809.39
438.145	777.52
438.52	813.45
438.895	835.37
439.271	808.03
439.646	848.03
440.021	839.22
440.395	819.33
440.77	848.48
441.145	869.04
441.52	883.73
441.895	887.8
442.27	878.31
442.645	880.8
443.019	882.83
443.394	893.9
443.769	888.71
444.143	878.08
444.518	930.29
444.892	908.37
445.267	945.43
445.641	936.39
446.016	944.98
446.39	942.49
446.764	943.17
447.139	957.4
447.513	959.21
447.887	957.86
448.262	951.08
448.636	963.96
449.01	970.29
449.384	997.86
449.758	998.53
450.132	987.46
450.506	1017.97
450.88	1021.13
451.254	1030.85
451.628	1047.35
452.002	1038.76
452.376	1053.22
452.75	1045.99
453.123	1073.11
453.497	1066.55
453.871	1108.81
454.244	1127.57
454.618	1109.72
454.992	1135.25
455.365	1140.9
455.739	1160.11
456.112	1168.92
456.486	1172.77
456.859	1189.26
457.232	1199.66
457.606	1220.45
457.979	1236.27
458.352	1297.51
458.725	1260.22
459.099	1264.97
459.472	1320.11
459.845	1293.44
460.218	1300.22
460.591	1332.54
460.964	1349.03
461.337	1387
461.71	1354.23
462.083	1398.75
462.456	1411.18
462.829	1404.4
463.201	1475.81
463.574	1475.36
463.947	1509.71
464.32	1513.77
464.692	1574.79
465.065	1552.19
465.438	1571.85
465.81	1577.95
466.183	1623.83
466.555	1666.54
466.928	1631.06
467.3	1687.33
467.672	1708.34
468.045	1787.21
468.417	1776.59
468.789	1755.58
469.161	1819.53
469.534	1832.18
469.906	1858.85
470.278	1905.85
470.65	1940.43
471.022	1984.95
471.394	1994.67
471.766	2073.99
472.138	2071.73
472.51	2120.09
472.882	2158.95
473.253	2189.24
473.625	2249.57
473.997	2304.49
474.369	2332.28
474.74	2372.51
475.112	2439.85
475.484	2482.34
475.855	2538.38
476.227	2571.37
476.598	2609.79
476.97	2697.02
477.341	2790.58
477.713	2818.37
478.084	2881.87
478.455	2991.02
478.827	3055.88
479.198	3141.08
479.569	3211.81
479.94	3277.34
480.311	3393.72
480.682	3466.26
481.053	3553.72
481.424	3650.89
481.795	3738.8
482.166	3805.46
482.537	3895.63
482.908	4000.26
483.279	4118.9
483.65	4235.74
484.021	4358.67
484.391	4438.22
484.762	4549.85
485.133	4647.93
485.503	4756.85
485.874	4877.75
486.244	4981.93
486.615	5156.62
486.985	5244.75
487.356	5340.57
487.726	5435.03
488.097	5624.63
488.467	5674.34
488.837	5879.08
489.207	5973.32
489.578	6132.64
489.948	6276.81
490.318	6390.26
490.688	6439.29
491.058	6640.87
491.428	6780.08
491.798	6930.58
492.168	7083.57
492.538	7198.14
492.908	7348.87
493.278	7526.05
493.648	7550.9
494.017	7679.04
494.387	7781.86
494.757	7979.59
495.126	8149.31
495.496	8181.17
495.866	8316.98
496.235	8444.66
496.605	8582.51
496.974	8636.3
497.344	8753.36
497.713	8848.95
498.082	8949.28
498.452	9105.44
498.821	9273.12
499.19	9231.08
499.559	9373
499.928	9427.01
500.298	9622.94
500.667	9764.18
501.036	9788.81
501.405	9900.67
501.774	9990.84
502.143	10061.8
502.512	10161
502.88	10255.24
503.249	10311.28
503.618	10391.28
503.987	10462.24
504.356	10552.18
504.724	10581.78
505.093	10716.7
505.462	10665.85
505.83	10846.86
506.199	10986.97
506.567	11012.96
506.936	11064.71
507.304	11232.39
507.672	11246.63
508.041	11334.98
508.409	11396.68
508.777	11468.77
509.145	11566.84
509.514	11567.29
509.882	11623.79
510.25	11629.89
510.618	11763.22
510.986	11729.32
511.354	11831.92
511.722	11970.9
512.09	12092.7
512.458	12040.28
512.826	12122.76
513.193	12167.28
513.561	12188.75
513.929	12212.7
514.297	12307.84
514.664	12392.81
515.032	12426.26
515.4	12473.71
515.767	12508.96
516.135	12588.06
516.502	12423.77
516.869	12642.97
517.237	12690.66
517.604	12656.53
517.972	12784.21
518.339	12770.43
518.706	12786.25
519.073	12821.5
519.44	12890.42
519.808	12954.83
520.175	12881.84
520.542	13102.4
520.909	13124.99
521.276	13012.45
521.643	13144.2
522.009	13189.17
522.376	13235.73
522.743	13236.4
523.11	13277.98
523.477	13465.78
523.843	13408.83
524.21	13495.61
524.577	13503.06
524.943	13535.6
525.31	13433.23
525.676	13650.63
526.043	13643.62
526.409	13609.27
526.776	13795.26
527.142	13698.31
527.508	13756.62
527.874	13821.02
528.241	13798.65
528.607	13872.54
528.973	13871.41
529.339	13821.02
529.705	13852.43
530.071	13938.53
530.437	13877.06
530.803	13832.77
531.169	13959.55
531.535	13851.3
531.901	13830.74
532.267	13897.63
532.632	13919.78
532.998	14007.46
533.364	13873.45
533.73	13894.92
534.095	13891.98
534.461	13847.91
534.826	13970.62
535.192	13885.65
535.557	13889.27
535.923	13835.94
536.288	13923.16
536.653	13877.74
537.019	13833.9
537.384	13794.13
537.749	13837.52
538.114	13801.81
538.479	13739.67
538.845	13700.57
539.21	13683.4
539.575	13719.78
539.94	13738.54
540.305	13703.96
540.67	13655.38
541.034	13565.21
541.399	13589.84
541.764	13555.72
542.129	13511.65
542.494	13560.46
542.858	13573.57
543.223	13408.38
543.587	13454.7
543.952	13347.81
544.316	13371.32
544.681	13373.35
545.045	13341.71
545.41	13435.72
545.774	13343.29
546.138	13228.49
546.503	13282.96
546.867	13199.12
547.231	13232.56
547.595	13134.03
547.959	13152.11
548.324	13103.98
548.688	13082.74
549.052	13055.17
549.416	13089.51
549.779	13059.68
550.143	13020.36
550.507	13015.17
550.871	13023.08
551.235	12958.9
551.599	12966.35
551.962	12947.6
552.326	12886.81
552.689	12982.17
553.053	12859.92
553.417	12862.63
553.78	12903.3
554.143	12850.42
554.507	12829.41
554.87	12785.12
555.234	12837.54
555.597	12739.69
555.96	12804.1
556.323	12811.1
556.686	12763.65
557.05	12832.8
557.413	12805
557.776	12743.99
558.139	12754.38
558.502	12748.28
558.865	12647.72
559.228	12812.69
559.59	12778.34
559.953	12726.81
560.316	12874.83
560.679	12741.28
561.041	12804.55
561.404	12792.12
561.767	12776.75
562.129	12761.16
562.492	12798.9
562.854	12835.96
563.217	12801.16
563.579	12824.66
563.941	12870.54
564.304	12914.15
564.666	12895.85
565.028	12837.32
565.39	12892.46
565.753	12973.81
566.115	12929.97
566.477	13004.09
566.839	12917.09
567.201	13054.94
567.563	12972.46
567.925	13059.91
568.287	13027.14
568.648	12989.86
569.01	13049.52
569.372	13102.85
569.734	13010.87
570.095	13175.16
570.457	13148.5
570.819	13177.42
571.18	13066.92
571.542	13232.56
571.903	13252.22
572.265	13178.78
572.626	13169.51
572.987	13225.56
573.349	13315.27
573.71	13274.82
574.071	13252
574.432	13304.88
574.794	13405.89
575.155	13398.21
575.516	13260.58
575.877	13369.51
576.238	13367.47
576.599	13375.61
576.96	13383.52
577.32	13372.44
577.681	13373.35
578.042	13440.92
578.403	13381.26
578.763	13277.08
579.124	13384.2
579.485	13461.71
579.845	13408.6
580.206	13393.69
580.566	13433.46
580.927	13391.2
581.287	13459.9
581.648	13419.22
582.008	13425.78
582.368	13347.81
582.728	13520.92
583.089	13407.25
583.449	13420.13
583.809	13399.11
584.169	13430.07
584.529	13349.39
584.889	13407.02
585.249	13303.52
585.609	13271.43
585.969	13443.63
586.329	13324.54
586.688	13423.29
587.048	13341.71
587.408	13252.9
587.768	13335.16
588.127	13204.54
588.487	13263.97
588.846	13340.81
589.206	13269.4
589.565	13207.93
589.925	13286.12
590.284	13248.83
590.643	13257.42
591.003	13172.45
591.362	13341.49
591.721	13179.91
592.08	13294.25
592.44	13241.83
592.799	13212.9
593.158	13231.21
593.517	13267.59
593.876	13217.19
594.235	13188.04
594.593	13192.34
594.952	13108.05
595.311	13158.21
595.67	13260.13
596.029	13313.24
596.387	13272.11
596.746	13282.05
597.104	13148.72
597.463	13173.35
597.822	13248.38
598.18	13095.84
598.538	13097.65
598.897	13216.06
599.255	13025.11
599.613	13207.03
599.972	13190.3
600.33	13129.74
600.688	13136.29
601.046	13236.86
601.404	13198.21
601.762	13268.49
602.12	13232.34
602.478	13240.47
602.836	13234.14
603.194	13132.23
603.552	13167.93
603.91	13118.67
604.268	13234.82
604.625	13066.46
604.983	13214.03
605.341	13039.35
605.698	13212.9
606.056	13181.94
606.413	13160.93
606.771	13226.46
607.128	13263.07
607.485	13140.36
607.843	13244.31
608.2	13236.4
608.557	13312.33
608.914	13224.43
609.272	13313.69
609.629	13261.26
609.986	13264.65
610.343	13288.38
610.7	13379.9
611.057	13368.83
611.414	13329.06
611.771	13388.72
612.127	13330.64
612.484	13418.09
612.841	13363.63
613.198	13398.66
613.554	13346.91
613.911	13379
614.267	13446.79
614.624	13424.2
614.98	13381.03
615.337	13442.5
615.693	13496.74
616.05	13478.43
616.406	13550.07
616.762	13553.46
617.118	13455.83
617.475	13475.27
617.831	13566.56
618.187	13578.32
618.543	13505.32
618.899	13687.92
619.255	13533.57
619.611	13616.96
619.967	13610.18
620.323	13672.78
620.678	13549.62
621.034	13486.34
621.39	13556.39
621.746	13459.45
622.101	13676.17
622.457	13543.06
622.812	13595.26
623.168	13631.87
623.523	13632.33
623.879	13648.14
624.234	13609.95
624.589	13664.87
624.945	13564.3
625.3	13609.73
625.655	13549.39
626.01	13583.74
626.365	13560.91
626.72	13543.29
627.075	13597.3
627.43	13581.03
627.785	13522.72
628.14	13598.65
628.495	13577.41
628.85	13511.42
629.205	13481.82
629.559	13530.18
629.914	13552.1
630.269	13633.68
630.623	13519.79
630.978	13516.4
631.332	13536.96
631.687	13535.83
632.041	13456.51
632.396	13471.65
632.75	13490.86
633.104	13450.64
633.459	13334.93
633.813	13396.17
634.167	13357.3
634.521	13325.44
634.875	13322.95
635.229	13290.64
635.583	13216.06
635.937	13311.2
636.291	13260.13
636.645	13258.32
636.999	13210.19
637.352	13204.31
637.706	13255.16
638.06	13242.05
638.413	13137.65
638.767	13148.04
639.121	13232.56
639.474	12965.68
639.828	13057.88
640.181	13165.9
640.534	13162.73
640.888	13148.04
641.241	13009.97
641.594	13017.2
641.947	13147.37
642.301	13063.07
642.654	13045.45
643.007	13177.65
643.36	13046.35
643.713	13032.34
644.066	13080.02
644.419	13002.29
644.771	12880.71
645.124	12875.28
645.477	12810.88
645.83	12747.83
646.182	12568.4
646.535	12677.1
646.888	12649.53
647.24	12522.3
647.593	12639.36
647.945	12595.06
648.298	12600.26
648.65	12566.14
649.002	12483.65
649.355	12563.65
649.707	12511.45
650.059	12670.54
650.411	12803.42
650.763	12775.17
651.115	12885
651.467	12833.93
651.819	12823.53
652.171	12879.8
652.523	12816.53
652.875	12808.62
653.227	12794.38
653.578	12890.42
653.93	12845.68
654.282	12681.62
654.633	12719.35
654.985	12738.56
655.337	12814.72
655.688	12722.52
656.039	12800.71
656.391	12718.68
656.742	12727.94
657.094	12670.77
657.445	12869.63
657.796	12808.84
658.147	12760.03
658.498	12729.3
658.849	12808.84
659.2	12769.97
659.551	12680.26
659.902	12830.54
660.253	12725.68
660.604	12788.73
660.955	12705.12
661.306	12807.94
661.656	12800.93
662.007	12842.74
662.358	12817.88
662.708	12863.31
663.059	12850.88
663.409	12663.54
663.76	12823.76
664.11	12826.92
664.461	12927.94
664.811	12788.51
665.161	12862.4
665.511	12806.81
665.862	12793.03
666.212	12869.41
666.562	12805
666.912	12785.57
667.262	12808.39
667.612	12777.43
667.962	12762.52
668.312	12803.19
668.662	12860.37
669.011	12871.44
669.361	12787.38
669.711	12833.25
670.06	12717.77
670.41	12758.45
670.76	12692.91
671.109	12782.63
671.459	12759.13
671.808	12776.08
672.157	12840.71
672.507	12659.47
672.856	12752.8
673.205	12675.29
673.554	12729.52
673.904	12722.07
674.253	12786.92
674.602	12761.39
674.951	12579.92
675.3	12474.16
675.649	12631
675.998	12605.01
676.346	12680.94
676.695	12690.66
677.044	12562.3
677.393	12586.25
677.741	12586.25
678.09	12525.69
678.438	12567.95
678.787	12624.89
679.135	12602.75
679.484	12424.45
679.832	12514.61
680.181	12354.62
680.529	12430.55
680.877	12380.15
681.225	12419.02
681.573	12483.65
681.922	12396.43
682.27	12347.39
682.618	12366.82
682.966	12294.73
683.314	12348.74
683.661	12171.57
684.009	12158.01
684.357	12170.89
684.705	12229.88
685.053	12253.83
685.4	12166.83
685.748	12083.21
686.095	12071.24
686.443	12058.58
686.79	11972.71
687.138	12080.73
687.485	12005.93
687.832	11964.8
688.18	11964.57
688.527	11938.81
688.874	11897.68
689.221	11833.05
689.568	11736.56
689.915	11811.36
690.262	11736.78
690.609	11718.03
690.956	11708.08
691.303	11697.69
691.65	11672.6
691.997	11597.12
692.344	11503.79
692.69	11548.54
693.037	11475.32
693.383	11377.47
693.73	11421.08
694.077	11406.39
694.423	11353.52
694.769	11337.02
695.116	11257.7
695.462	11258.6
695.808	11186.97
696.155	11274.42
696.501	11113.52
696.847	11156.23
697.193	11018.61
697.539	11051.38
697.885	10983.13
698.231	10912.62
698.577	10911.49
698.923	10898.84
699.269	10797.6
699.614	10754.21
699.96	10733.19
700.306	10736.13
700.651	10697.71
700.997	10643.93
701.342	10632.4
701.688	10616.36
702.033	10551.05
702.379	10525.29
702.724	10536.59
703.069	10425.86
703.415	10354.45
703.76	10390.15
704.105	10333.2
704.45	10318.29
704.795	10283.49
705.14	10255.69
705.485	10222.47
705.83	10173.89
706.175	10180.66
706.52	10151.74
706.865	10086.2
707.209	10062.93
707.554	9985.42
707.899	10086.43
708.243	9969.82
708.588	9961.46
708.932	9898.19
709.277	9911.52
709.621	9911.29
709.966	9886.66
710.31	9856.15
710.654	9801.69
710.998	9822.48
711.342	9769.15
711.687	9831.97
712.031	9728.02
712.375	9724.41
712.719	9675.82
713.063	9676.95
713.407	9709.72
713.75	9601.02
714.094	9670.85
714.438	9558.99
714.782	9645.54
715.125	9522.38
715.469	9583.62
715.812	9530.96
716.156	9437.86
716.499	9485.09
716.843	9505.65
717.186	9393.57
717.53	9428.59
717.873	9490.06
718.216	9432.21
718.559	9344.75
718.902	9358.09
719.246	9349.27
719.589	9327.58
719.932	9252.1
720.275	9266.79
720.617	9209.62
720.96	9295.72
721.303	9270.41
721.646	9282.61
721.989	9199
722.331	9248.26
722.674	9208.49
723.016	9230.18
723.359	9178.66
723.701	9162.61
724.044	9119.68
724.386	9106.12
724.729	9116.51
725.071	9168.04
725.413	9061.15
725.755	9087.36
726.097	9052.11
726.439	8981.83
726.782	9016.4
727.124	9050.52
727.465	9057.08
727.807	9062.05
728.149	9022.05
728.491	8896.18
728.833	8984.99
729.175	8963.52
729.516	9009.85
729.858	8976.4
730.199	8960.13
730.541	8933.47
730.882	8953.8
731.224	8934.6
731.565	8938.66
731.906	9005.1
732.248	8943.41
732.589	8939.79
732.93	8884.88
733.271	8914.71
733.612	8967.59
733.953	8964.88
734.294	8972.79
734.635	8965.33
734.976	8983.41
735.317	8896.4
735.658	8956.97
735.999	8926.69
736.339	8921.94
736.68	8957.65
737.021	8962.62
737.361	8933.01
737.702	9044.88
738.042	8920.36
738.383	8942.05
738.723	9015.5
739.063	8954.03
739.404	9026.34
739.744	9028.6
740.084	8986.57
740.424	8955.61
740.764	8942.28
741.104	9020.92
741.444	8942.96
741.784	9053.46
742.124	9071.77
742.464	9014.37
742.804	9016.63
743.143	9046.23
743.483	9051.65
743.823	9020.02
744.162	9113.57
744.502	9175.49
744.841	9138.88
745.181	9260.69
745.52	9191.76
745.86	9270.63
746.199	9327.13
746.538	9320.12
746.877	9382.49
747.216	9398.54
747.556	9447.35
747.895	9447.12
748.234	9539.55
748.573	9556.73
748.911	9559.44
749.25	9691.41
749.589	9652.77
749.928	9754.69
750.267	9831.3
750.605	9884.18
750.944	9899.99
751.283	10020.67
751.621	10205.3
751.96	10190.38
752.298	10262.7
752.636	10367.33
752.975	10389.7
753.313	10476.25
753.651	10570.03
753.989	10639.64
754.327	10672.85
754.666	10839.86
755.004	10913.3
755.342	11078.04
755.679	11109.23
756.017	11252.05
756.355	11462.44
756.693	11531.36
757.031	11703.79
757.368	11769.55
757.706	11951.01
758.044	11986.04
758.381	12254.73
758.719	12339.93
759.056	12477.1
759.394	12610.88
759.731	12693.14
760.068	12957.09
760.405	13052.68
760.743	13092.68
761.08	13230.98
761.417	13402.5
761.754	13507.81
762.091	13815.15
762.428	13898.53
762.765	13954.58
763.102	14183.95
763.438	14299.43
763.775	14417.84
764.112	14640.43
764.449	14764.05
764.785	14909.13
765.122	15004.04
765.458	15138.27
765.795	15320.87
766.131	15368.32
766.467	15543.69
766.804	15631.14
767.14	15780.97
767.476	15917.24
767.812	16058.48
768.148	16151.35
768.485	16182.99
768.821	16401.74
769.157	16490.1
769.492	16675.41
769.828	16754.95
770.164	16735.07
770.5	16907.49
770.836	16905.69
771.171	17119.47
771.507	17137.54
771.842	17234.72
772.178	17288.5
772.513	17377.76
772.849	17480.13
773.184	17496.4
773.519	17678.09
773.855	17627.47
774.19	17701.37
774.525	17747.25
774.86	17879.9
775.195	17868.15
775.53	17884.42
775.865	17969.16
776.2	17959.44
776.535	17935.94
776.87	17990.18
777.205	18079.67
777.539	18061.36
777.874	18185.88
778.209	18058.88
778.543	18133.9
778.878	18136.84
779.212	18193.79
779.547	18215.48
779.881	18335.93
780.215	18163.05
780.55	18326.67
780.884	18233.79
781.218	18221.81
781.552	18370.28
781.886	18282.37
782.22	18282.6
782.554	18238.08
782.888	18177.74
783.222	18107.24
783.556	18132.77
783.889	18176.16
784.223	18053.45
784.557	18169.38
784.89	18184.07
785.224	18012.1
785.557	17929.84
785.891	18063.85
786.224	18095.48
786.558	18164.18
786.891	18024.07
787.224	17947.69
787.557	17836.28
787.891	17901.37
788.224	17968.71
788.557	17913.12
788.89	17916.51
789.223	17924.64
789.556	17818.43
789.888	17764.65
790.221	17738.88
790.554	17650.98
790.887	17752.67
791.219	17591.54
791.552	17596.74
791.884	17551.54
792.217	17476.29
792.549	17483.07
792.882	17351.78
793.214	17404.2
793.546	17420.25
793.879	17333.92
794.211	17293.02
794.543	17342.74
794.875	17352
795.207	17283.3
795.539	17220.03
795.871	17251.44
796.203	17161.72
796.535	17017.55
796.867	17013.48
797.198	16989.3
797.53	16982.07
797.862	16997.21
798.193	16871.56
798.525	16776.88
798.856	16811.22
799.188	16632.7
799.519	16683.32
799.85	16562.87
800.182	16606.03
800.513	16575.07
800.844	16529.2
801.175	16528.07
801.506	16592.47
801.837	16435.42
802.168	16431.57
802.499	16298.47
802.83	16304.35
803.161	16354.06
803.491	16342.99
803.822	16284.23
804.153	16186.38
804.483	16067.52
804.814	16065.26
805.145	15984.58
805.475	16038.59
805.805	15974.18
806.136	15950.91
806.466	15961.3
806.796	15889.67
807.126	15808.99
807.457	15744.59
807.787	15707.75
808.117	15826.62
808.447	15722.67
808.777	15692.84
809.107	15627.3
809.436	15554.08
809.766	15600.18
810.096	15580.97
810.426	15501.65
810.755	15485.84
811.085	15448.32
811.414	15412.39
811.744	15369.68
812.073	15332.17
812.403	15325.39
812.732	15292.62
813.061	15238.61
813.39	15105.28
813.719	15120.42
814.049	15241.55
814.378	15113.19
814.707	15123.81
815.036	15053.76
815.365	15009.24
815.693	14889.69
816.022	14908.9
816.351	14941.44
816.68	14838.4
817.008	14917.49
817.337	14722.01
817.665	14733.99
817.994	14879.07
818.322	14766.31
818.651	14718.85
818.979	14618.29
819.307	14744.84
819.636	14717.49
819.964	14604.95
820.292	14577.16
820.62	14554.11
820.948	14522.02
821.276	14681.79
821.604	14499.2
821.932	14594.56
822.259	14464.39
822.587	14506.2
822.915	14515.24
823.243	14528.12
823.57	14426.2
823.898	14527.22
824.225	14400.44
824.553	14416.94
824.88	14530.61
825.207	14531.96
825.535	14419.42
825.862	14480.66
826.189	14497.16
826.516	14525.41
826.843	14588.01
827.17	14580.55
827.497	14510.72
827.824	14503.71
828.151	14534.45
828.478	14563.37
828.805	14526.31
829.131	14551.17
829.458	14459.2
829.785	14424.17
830.111	14545.3
830.438	14588.91
830.764	14501.68
831.09	14562.92
831.417	14520.89
831.743	14604.95
832.069	14466.65
832.395	14442.93
832.722	14460.33
833.048	14482.92
833.374	14509.36
833.7	14398.86
834.026	14493.77
834.351	14477.5
834.677	14343.72
835.003	14415.58
835.329	14399.54
835.654	14350.05
835.98	14275.7
836.306	14394.11
836.631	14247.9
836.956	14344.85
837.282	14346.66
837.607	14239.54
837.932	14220.78
838.258	14225.08
838.583	14326.09
838.908	14228.02
839.233	14202.03
839.558	14156.61
839.883	14033.44
840.208	14089.49
840.533	14067.34
840.858	14040.22
841.182	13990.06
841.507	14027.34
841.832	13943.05
842.156	13912.32
842.481	13928.36
842.805	13861.25
843.13	13892.21
843.454	13901.47
843.778	13682.27
844.103	13763.62
844.427	13666.9
844.751	13644.98
845.075	13670.74
845.399	13694.47
845.723	13528.37
846.047	13547.13
846.371	13476.17
846.695	13469.39
847.019	13388.26
847.343	13304.88
847.666	13291.09
847.99	13250.19
848.313	13113.24
848.637	13146.01
848.96	13135.84
849.284	13090.64
849.607	12942.85
849.931	12879.58
850.254	12832.8
850.577	12789.41
850.9	12707.83
851.223	12740.6
851.546	12598.91
851.869	12581.51
852.192	12640.26
852.515	12514.84
852.838	12452.92
853.161	12447.72
853.483	12324.56
853.806	12346.48
854.129	12271.01
854.451	12241.85
854.774	12232.14
855.096	12136.77
855.419	12093.16
855.741	12179.03
856.063	12036.66
856.385	11983.78
856.708	11922.54
857.03	11949.88
857.352	11965.02
857.674	11981.75
857.996	11785.37
858.318	11835.54
858.64	11784.69
858.961	11722.32
859.283	11653.85
859.605	11666.05
859.926	11659.5
860.248	11619.04
860.57	11537.69
860.891	11574.98
861.212	11504.7
861.534	11493.4
861.855	11412.5
862.176	11490.69
862.498	11487.97
862.819	11468.31
863.14	11369.33
863.461	11360.52
863.782	11320.07
864.103	11263.35
864.424	11315.1
864.745	11344.25
865.065	11204.14
865.386	11211.6
865.707	11151.71
866.027	11111.71
866.348	11179.73
866.668	11168.21
866.989	11101.09
867.309	11087.08
867.63	11081.21
867.95	11096.57
868.27	11076.69
868.59	11045.05
868.91	11006.41
869.23	10971.83
869.55	10932.06
869.87	10953.07
870.19	10931.38
870.51	10928.89
870.83	10982.23
871.15	10805.28
871.469	10928.67
871.789	10984.71
872.109	10841.21
872.428	10814.09
872.748	10803.25
873.067	10821.1
873.386	10850.93
873.706	10713.98
874.025	10672.4
874.344	10700.65
874.663	10747.88
874.982	10670.82
875.301	10714.66
875.62	10691.61
875.939	10612.74
876.258	10653.65
876.577	10608.45
876.896	10610.26
877.214	10567.55
877.533	10493.65
877.852	10572.07
878.17	10477.83
878.489	10545.4
878.807	10430.6
879.125	10506.53
879.444	10502.46
879.762	10506.98
880.08	10487.1
880.398	10397.61
880.716	10392.64
881.034	10386.99
881.352	10404.84
881.67	10380.66
881.988	10321.68
882.306	10303.83
882.624	10218.18
882.941	10190.61
883.259	10148.8
883.577	10168.69
883.894	10155.81
884.212	10097.95
884.529	10117.16
884.846	10096.15
885.164	10064.96
885.481	10006.21
885.798	10052.08
886.115	10004.4
886.432	9977.96
886.75	9923.72
887.067	9953.55
887.383	9907.45
887.7	9886.66
888.017	9876.04
888.334	9848.7
888.651	9789.26
888.967	9805.99
889.284	9755.36
889.6	9739.09
889.917	9685.99
890.233	9709.04
890.55	9606.22
890.866	9647.12
891.182	9645.09
891.498	9564.86
891.815	9522.83
892.131	9507.01
892.447	9491.87
892.763	9384.75
893.079	9439.22
893.395	9457.07
893.71	9362.38
894.026	9312.89
894.342	9300.91
894.657	9284.19
894.973	9224.31
895.289	9234.02
895.604	9210.75
895.92	9135.49
896.235	9151.99
896.55	9077.64
896.865	9055.27
897.181	9070.19
897.496	8996.74
897.811	8996.29
898.126	8929.17
898.441	8923.3
898.756	8879.23
899.071	8787.71
899.386	8841.49
899.7	8766.01
900.015	8744.54
900.33	8689.86
900.644	8619.58
900.959	8624.1
901.273	8652.57
901.588	8622.06
901.902	8557.88
902.216	8564.21
902.531	8516.98
902.845	8538.67
903.159	8408.51
903.473	8377.77
903.787	8340.71
904.101	8304.78
904.415	8251.45
904.729	8231.79
905.042	8168.74
905.356	8209.64
905.67	8159.25
905.984	8174.16
906.297	8147.95
906.611	8066.82
906.924	8066.37
907.237	7995.86
907.551	7992.47
907.864	7999.48
908.177	7956.09
908.491	7934.85
908.804	7849.43
909.117	7770.78
909.43	7764.46
909.743	7759.03
910.056	7733.27
910.368	7750.67
910.681	7649.43
910.994	7616.66
911.307	7575.99
911.619	7522.43
911.932	7539.15
912.244	7506.84
912.557	7451.7
912.869	7412.15
913.181	7360.4
913.494	7431.36
913.806	7339.61
914.118	7320.63
914.43	7249.67
914.742	7286.96
915.054	7225.04
915.366	7156.56
915.678	7173.06
915.99	7118.37
916.302	7058.71
916.613	7021.2
916.925	7034.31
917.236	7018.26
917.548	7008.77
917.859	6984.59
918.171	6960.86
918.482	6895.55
918.794	6852.39
919.105	6849.9
919.416	6804.93
919.727	6831.83
920.038	6712.51
920.349	6754.54
920.66	6745.27
920.971	6695.33
921.282	6672.28
921.593	6644.03
921.903	6565.39
922.214	6608.56
922.525	6516.81
922.835	6539.86
923.146	6504.83
923.456	6402.91
923.767	6441.78
924.077	6435.23
924.387	6384.15
924.697	6380.31
925.008	6344.16
925.318	6352.52
925.628	6302.8
925.938	6292.41
926.248	6274.78
926.558	6229.58
926.867	6244.72
927.177	6233.65
927.487	6151.39
927.796	6098.74
928.106	6076.59
928.416	6043.15
928.725	6003.15
929.034	6007.44
929.344	5960.21
929.653	5985.97
929.962	5934.9
930.271	5922.92
930.581	5886.77
930.89	5853.32
931.199	5837.73
931.508	5838.86
931.817	5844.51
932.125	5785.07
932.434	5792.08
932.743	5734.23
933.051	5710.95
933.36	5707.79
933.669	5640.67
933.977	5643.16
934.286	5628.69
934.594	5569.94
934.902	5558.41
935.21	5530.84
935.519	5516.38
935.827	5482.26
936.135	5421.47
936.443	5433.9
936.751	5421.92
937.059	5440.9
937.367	5393.45
937.674	5379.89
937.982	5359.1
938.29	5340.34
938.597	5297.63
938.905	5247.01
939.213	5204.52
939.52	5239.55
939.827	5197.52
940.135	5189.16
940.442	5155.03
940.749	5121.14
941.056	5108.93
941.363	5060.8
941.67	5070.74
941.977	5057.18
942.284	4984.87
942.591	5010.63
942.898	4933.57
943.205	4964.08
943.511	4984.42
943.818	4953.91
944.125	4912.55
944.431	4916.4
944.738	4859.45
945.044	4801.37
945.35	4743.75
945.657	4733.35
945.963	4746.23
946.269	4715.05
946.575	4772.9
946.881	4728.38
947.187	4699
947.493	4694.48
947.799	4664.43
948.105	4652.22
948.41	4578.55
948.716	4639.57
949.022	4545.33
949.327	4592.79
949.633	4537.42
949.938	4467.59
950.244	4484.77
950.549	4477.99
950.854	4454.94
951.16	4441.15
951.465	4454.04
951.77	4373.13
952.075	4387.6
952.38	4332
952.685	4344.21
952.99	4271.67
953.294	4307.37
953.599	4271.22
953.904	4242.29
954.209	4238.22
954.513	4224.21
954.818	4224.21
955.122	4221.95
955.426	4162.52
955.731	4143.76
956.035	4114.84
956.339	4136.76
956.643	4124.55
956.948	4117.32
957.252	4049.3
957.556	4041.84
957.86	4057.44
958.163	4038.23
958.467	4003.43
958.771	3991.9
959.075	3974.5
959.378	3947.38
959.682	3971.56
959.985	3897.44
960.289	3912.35
960.592	3899.93
960.896	3890.89
961.199	3862.86
961.502	3820.38
961.805	3816.31
962.108	3801.17
962.411	3803.66
962.714	3756.2
963.017	3768.4
963.32	3738.8
963.623	3750.55
963.926	3713.49
964.228	3715.07
964.531	3659.71
964.833	3681.85
965.136	3621.51
965.438	3577.22
965.741	3606.15
966.043	3617.9
966.345	3561.4
966.648	3562.99
966.95	3536.32
967.252	3530.9
967.554	3569.76
967.856	3500.61
968.158	3477.34
968.46	3517.56
968.761	3494.74
969.063	3415.87
969.365	3410.9
969.666	3438.69
969.968	3422.42
970.269	3379.04
970.571	3402.99
970.872	3358.7
971.174	3315.99
971.475	3318.7
971.776	3282.54
972.077	3270.11
972.378	3279.15
972.679	3262.65
972.98	3256.78
973.281	3252.03
973.582	3252.94
973.883	3221.3
974.183	3221.98
974.484	3194.41
974.785	3166.16
975.085	3169.78
975.386	3151.92
975.686	3123.45
975.986	3094.98
976.287	3090
976.587	3101.98
976.887	3076.22
977.187	3083.22
977.487	3078.25
977.787	3053.17
978.087	3052.26
978.387	2971.81
978.687	2991.7
978.987	2962.32
979.286	2967.97
979.586	2956.9
979.885	2944.92
980.185	2958.26
980.484	2931.14
980.784	2930.23
981.083	2864.7
981.382	2878.48
981.682	2851.14
981.981	2865.83
982.28	2807.3
982.579	2820.86
982.878	2840.07
983.177	2835.32
983.475	2779.73
983.774	2800.29
984.073	2762.1
984.372	2709.9
984.67	2714.65
984.969	2700.18
985.267	2690.47
985.566	2698.15
985.864	2654.99
986.162	2689.11
986.461	2641.88
986.759	2645.95
987.057	2645.72
987.355	2600.3
987.653	2658.38
987.951	2605.27
988.249	2577.02
988.547	2574.54
988.844	2554.2
989.142	2576.57
989.44	2532.73
989.737	2520.07
990.035	2534.99
990.332	2497.48
990.63	2527.76
990.927	2481.43
991.224	2489.12
991.521	2477.14
991.819	2468.55
992.116	2416.35
992.413	2439.17
992.71	2420.64
993.006	2404.6
993.303	2396.69
993.6	2370.93
993.897	2358.72
994.193	2379.29
994.49	2343.58
994.787	2336.8
995.083	2350.81
995.379	2321.21
995.676	2319.85
995.972	2282.57
996.268	2289.8
996.565	2283.7
996.861	2276.47
997.157	2267.43
997.453	2242.34
997.749	2233.75
998.044	2199.63
998.34	2198.05
998.636	2267.88
998.932	2182
999.227	2162.57
999.523	2165.28
999.818	2136.36
1000.114	2177.94
1000.409	2131.61
1000.704	2126.64
1001	2114.89
1001.295	2083.25
1001.59	2067.21
1001.885	2085.06
1002.18	2066.08
1002.475	2052.29
1002.77	2033.08
1003.065	2019.3
1003.359	2019.07
1003.654	1979.3
1003.949	2008.22
1004.243	1995.12
1004.538	1963.25
1004.832	1959.64
1005.127	1979.75
1005.421	1951.95
1005.715	1925.97
1006.009	1929.36
1006.304	1940.2
1006.598	1891.84
1006.892	1892.07
1007.186	1899.3
1007.48	1864.05
1007.773	1866.53
1008.067	1824.73
1008.361	1839.41
1008.655	1805.07
1008.948	1825.4
1009.242	1799.19
1009.535	1790.38
1009.829	1763.26
1010.122	1774.33
1010.415	1771.39
1010.708	1746.76
1011.001	1768.68
1011.295	1753.32
1011.588	1712.86
1011.881	1707.89
1012.173	1720.32
1012.466	1721.23
1012.759	1696.14
1013.052	1682.81
1013.344	1668.35
1013.637	1645.3
1013.93	1634.9
1014.222	1658.4
1014.514	1625.18
1014.807	1629.48
1015.099	1594.45
1015.391	1570.27
1015.683	1605.75
1015.976	1575.24
1016.268	1565.75
1016.56	1580.44
1016.851	1550.61
1017.143	1532.76
1017.435	1536.37
1017.727	1494.11
1018.018	1516.71
1018.31	1511.97
1018.602	1505.86
1018.893	1474
1019.185	1465.19
1019.476	1440.78
1019.767	1464.28
1020.058	1446.88
1020.35	1430.39
1020.641	1428.58
1020.932	1436.94
1021.223	1394.68
1021.514	1388.13
1021.804	1389.03
1022.095	1396.26
1022.386	1367.79
1022.677	1344.96
1022.967	1357.62
1023.258	1321.69
1023.548	1339.54
1023.839	1324.85
1024.129	1310.16
1024.419	1310.39
1024.709	1275.36
1025	1301.58
1025.29	1296.83
1025.58	1264.74
1025.87	1278.98
1026.16	1279.66
1026.449	1267.45
1026.739	1264.06
1027.029	1243.27
1027.319	1239.66
1027.608	1237.4
1027.898	1203.73
1028.187	1213.89
1028.477	1237.62
1028.766	1180.9
1029.055	1187
1029.344	1183.84
1029.634	1168.25
1029.923	1163.27
1030.212	1154.01
1030.501	1183.84
1030.79	1134.12
1031.078	1157.17
1031.367	1112.2
1031.656	1119.89
1031.945	1119.21
1032.233	1113.56
1032.522	1064.75
1032.81	1093.67
1033.099	1061.13
1033.387	1076.27
1033.675	1067.68
1033.963	1068.36
1034.251	1061.36
1034.54	1043.05
1034.828	1043.28
1035.116	1035.59
1035.403	1009.83
1035.691	996.5
1035.979	989.27
1036.267	1014.35
1036.554	976.16
1036.842	1000.34
1037.129	996.73
1037.417	981.58
1037.704	981.81
1037.992	975.48
1038.279	960.34
1038.566	967.12
1038.853	967.12
1039.14	967.12
