Data from hue_170_FLMS001491_00094.txt Node
Date: Tue Feb 07 16:49:31 GMT 2017
User: dcchb
Spectrometer: FLMS00149
Trigger mode: 0
Integration Time (sec): 2.000000E-2
Scans to average: 10
Electric dark correction enabled: true
Nonlinearity correction enabled: false
Boxcar width: 0
XAxis mode: Wavelengths
Number of Pixels in Spectrum: 2048
>>>>>Begin Spectral Data<<<<<
341.393	-18.77
341.776	-18.77
342.16	-18.77
342.543	-64.19
342.927	-63.52
343.31	-71.2
343.693	-44.76
344.077	-72.78
344.46	-54.93
344.843	-49.05
345.226	-46.11
345.61	-16.96
345.993	-44.53
346.376	-2.73
346.759	15.35
347.142	30.49
347.525	35.24
347.908	53.77
348.291	74.33
348.674	84.5
349.057	109.36
349.44	133.77
349.823	155.24
350.206	173.09
350.588	202.92
350.971	206.99
351.354	224.61
351.737	239.08
352.119	246.08
352.502	280.2
352.884	276.36
353.267	272.52
353.65	287.66
354.032	286.76
354.414	312.97
354.797	315.23
355.179	334.89
355.562	304.38
355.944	336.47
356.326	333.76
356.709	343.25
357.091	336.93
357.473	339.19
357.855	357.49
358.238	343.93
358.62	341.45
359.002	326.53
359.384	319.98
359.766	333.76
360.148	320.2
360.53	334.44
360.912	334.21
361.294	322.24
361.676	319.07
362.057	343.48
362.439	308
362.821	314.1
363.203	328.34
363.584	300.09
363.966	325.63
364.348	321.56
364.729	324.5
365.111	318.85
365.493	322.01
365.874	327.89
366.256	287.44
366.637	300.54
367.019	316.59
367.4	303.71
367.781	303.93
368.163	303.93
368.544	314.33
368.925	309.36
369.306	322.92
369.688	296.02
370.069	302.12
370.45	308.68
370.831	310.94
371.212	311.62
371.593	300.54
371.974	323.59
372.355	295.57
372.736	296.25
373.117	333.31
373.498	310.71
373.879	304.38
374.26	325.4
374.641	303.25
375.021	308.23
375.402	314.33
375.783	317.04
376.163	333.54
376.544	343.71
376.925	324.05
377.305	322.46
377.686	311.62
378.066	329.02
378.447	318.4
378.827	325.85
379.208	339.19
379.588	331.05
379.968	317.94
380.349	340.09
380.729	321.79
381.109	335.34
381.489	329.92
381.87	344.84
382.25	324.27
382.63	331.73
383.01	342.58
383.39	316.81
383.77	325.4
384.15	346.64
384.53	346.42
384.91	329.69
385.29	348.45
385.67	342.58
386.049	343.71
386.429	364.5
386.809	358.17
387.189	329.92
387.568	350.71
387.948	343.71
388.328	331.28
388.707	355.46
389.087	356.13
389.466	347.1
389.846	364.27
390.225	345.51
390.605	364.27
390.984	378.51
391.363	344.61
391.743	368.34
392.122	376.7
392.501	379.41
392.881	380.09
393.26	364.27
393.639	368.56
394.018	370.6
394.397	359.98
394.776	354.33
395.155	344.84
395.534	352.97
395.913	361.11
396.292	369.47
396.671	379.41
397.05	380.54
397.429	395
397.808	375.8
398.186	382.8
398.565	390.03
398.944	393.42
399.323	401.78
399.701	391.16
400.08	380.77
400.458	397.04
400.837	397.49
401.215	409.69
401.594	402.69
401.972	400.2
402.351	386.64
402.729	397.72
403.107	413.99
403.486	420.54
403.864	414.44
404.242	420.99
404.62	423.93
404.999	407.21
405.377	421.9
405.755	413.08
406.133	423.7
406.511	418.73
406.889	441.78
407.267	432.74
407.645	447.66
408.023	446.98
408.401	432.29
408.779	450.14
409.156	436.36
409.534	428.22
409.912	454.21
410.29	455.34
410.667	470.71
411.045	474.32
411.422	481.33
411.8	472.52
412.178	490.59
412.555	511.16
412.933	486.3
413.31	512.74
413.687	503.25
414.065	509.13
414.442	507.54
414.819	519.52
415.197	521.55
415.574	524.04
415.951	527.2
416.328	559.52
416.705	525.85
417.082	539.63
417.46	550.93
417.837	565.17
418.214	577.37
418.591	569.24
418.967	569.24
419.344	595.22
419.721	591.16
420.098	570.59
420.475	612.17
420.852	582.8
421.228	616.92
421.605	615.79
421.982	602.46
422.358	630.93
422.735	630.93
423.111	646.07
423.488	625.51
423.864	660.76
424.241	657.37
424.617	659.18
424.994	660.99
425.37	662.12
425.746	692.17
426.123	696.69
426.499	686.97
426.875	696.46
427.251	698.95
427.627	717.71
428.003	726.29
428.379	745.95
428.756	743.47
429.132	773.3
429.507	730.36
429.883	751.83
430.259	778.72
430.635	754.99
431.011	749.8
431.387	820.3
431.763	805.16
432.138	806.97
432.514	790.25
432.89	823.92
433.265	817.59
433.641	864.14
434.016	844.03
434.392	872.96
434.767	861.66
435.143	872.28
435.518	884.26
435.894	910.92
436.269	923.58
436.644	935.33
437.02	976.46
437.395	938.94
437.77	968.55
438.145	999.28
438.52	992.28
438.895	1004.25
439.271	1032.28
439.646	1017.59
440.021	1049.68
440.395	1022.78
440.77	1024.59
441.145	1055.33
441.52	1062.1
441.895	1048.09
442.27	1088.77
442.645	1093.74
443.019	1077.47
443.394	1092.39
443.769	1109.34
444.143	1110.69
444.518	1133.97
444.892	1147.75
445.267	1147.3
445.641	1158.6
446.016	1162.89
446.39	1181.42
446.764	1177.58
447.139	1178.49
447.513	1181.65
447.887	1209.67
448.262	1211.71
448.636	1222.33
449.01	1205.83
449.384	1242.89
449.758	1256.68
450.132	1254.42
450.506	1245.38
450.88	1294.64
451.254	1256.68
451.628	1328.09
452.002	1323.34
452.376	1353.17
452.75	1353.4
453.123	1355.2
453.497	1361.08
453.871	1376.22
454.244	1408.76
454.618	1408.31
454.992	1437.01
455.365	1444.92
455.739	1497.35
456.112	1500.74
456.486	1510.91
456.859	1525.14
457.232	1529.89
457.606	1527.4
457.979	1557.69
458.352	1616.21
458.725	1627.51
459.099	1636.33
459.472	1668.42
459.845	1699.15
460.218	1691.24
460.591	1690.34
460.964	1695.53
461.337	1760.84
461.71	1778.02
462.083	1798.36
462.456	1840.84
462.829	1820.05
463.201	1881.07
463.574	1927.84
463.947	1893.5
464.32	1961.29
464.692	1959.03
465.065	1999.03
465.438	2022.98
465.81	2065.92
466.183	2090.55
466.555	2139.36
466.928	2160.38
467.3	2188.18
467.672	2194.28
468.045	2278.8
468.417	2288.29
468.789	2294.16
469.161	2337.33
469.534	2382.07
469.906	2420.49
470.278	2489.41
470.65	2496.42
471.022	2572.35
471.394	2630.2
471.766	2637.66
472.138	2681.95
472.51	2766.47
472.882	2828.61
473.253	2828.84
473.625	2906.58
473.997	2962.17
474.369	3015.05
474.74	3051.21
475.112	3124.65
475.484	3226.34
475.855	3286.68
476.227	3319.9
476.598	3395.6
476.97	3474.02
477.341	3591.76
477.713	3613
478.084	3721.02
478.455	3776.61
478.827	3882.6
479.198	3955.81
479.569	4028.81
479.94	4169.82
480.311	4213.21
480.682	4318.52
481.053	4456.82
481.424	4524.39
481.795	4655.91
482.166	4712.18
482.537	4827.66
482.908	4980.42
483.279	5053.41
483.65	5192.62
484.021	5257.47
484.391	5385.83
484.762	5476.9
485.133	5560.52
485.503	5672.61
485.874	5866.72
486.244	5915.31
486.615	6108.98
486.985	6208.64
487.356	6315.75
487.726	6443.88
488.097	6576.08
488.467	6615.86
488.837	6795.97
489.207	6923.87
489.578	7137.43
489.948	7185.79
490.318	7296.74
490.688	7354.59
491.058	7543.06
491.428	7672.78
491.798	7821.7
492.168	7972.43
492.538	8129.49
492.908	8132.43
493.278	8295.36
493.648	8375.36
494.017	8536.71
494.387	8576.26
494.757	8683.6
495.126	8864.84
495.496	8929.69
495.866	9005.62
496.235	9145.28
496.605	9206.3
496.974	9310.25
497.344	9437.93
497.713	9468.44
498.082	9535.1
498.452	9725.15
498.821	9724.93
499.19	9825.72
499.559	9880.63
499.928	9980.29
500.298	10051.47
500.667	10183.22
501.036	10176.89
501.405	10307.51
501.774	10294.63
502.143	10427.28
502.512	10452.14
502.88	10570.33
503.249	10624.11
503.618	10710.44
503.987	10693.94
504.356	10780.27
504.724	10816.2
505.093	10951.34
505.462	10895.52
505.83	11054.38
506.199	11089.41
506.567	11191.1
506.936	11150.43
507.304	11273.59
507.672	11313.81
508.041	11335.96
508.409	11431.1
508.777	11478.1
509.145	11566.01
509.514	11550.42
509.882	11646.23
510.25	11650.98
510.618	11685.33
510.986	11751.77
511.354	11794.93
511.722	11853.23
512.09	11963.97
512.458	11939.11
512.826	11988.15
513.193	12020.91
513.561	11992.66
513.929	12104.3
514.297	12222.04
514.664	12213.68
515.032	12203.05
515.4	12290.28
515.767	12346.33
516.135	12307.01
516.502	12238.31
516.869	12410.06
517.237	12399.89
517.604	12296.39
517.972	12484.86
518.339	12411.18
518.706	12470.62
519.073	12465.19
519.44	12537.51
519.808	12572.31
520.175	12496.38
520.542	12626.32
520.909	12717.39
521.276	12687.79
521.643	12703.83
522.009	12786.32
522.376	12750.61
522.743	12892.53
523.11	12833.55
523.477	12925.97
523.843	12989.93
524.21	12938.18
524.577	12998.29
524.943	13025.86
525.31	13031.96
525.676	13070.38
526.043	13135.46
526.409	13101.79
526.776	13217.27
527.142	13172.07
527.508	13246.64
527.874	13221.56
528.241	13254.55
528.607	13207.32
528.973	13196.25
529.339	13244.84
529.705	13306.3
530.071	13196.02
530.437	13269.92
530.803	13213.65
531.169	13260.2
531.535	13183.59
531.901	13186.98
532.267	13198.28
532.632	13186.76
532.998	13173.42
533.364	13233.08
533.73	13163.93
534.095	13181.11
534.461	13222.24
534.826	13128.45
535.192	13101.79
535.557	13215.91
535.923	13139.98
536.288	13079.87
536.653	13002.81
537.019	12953.09
537.384	13020.21
537.749	12948.57
538.114	12928.91
538.479	12888.23
538.845	12799.42
539.21	12761.46
539.575	12777.28
539.94	12730.27
540.305	12805.3
540.67	12672.42
541.034	12615.47
541.399	12729.37
541.764	12622.03
542.129	12635.36
542.494	12564.85
542.858	12553.33
543.223	12479.21
543.587	12500.67
543.952	12429.04
544.316	12443.05
544.681	12384.29
545.045	12306.55
545.41	12331.64
545.774	12227.69
546.138	12184.52
546.503	12146.33
546.867	12071.76
547.231	12232.88
547.595	12134.36
547.959	12069.95
548.324	11971.87
548.688	11986.34
549.052	11923.06
549.416	11969.16
549.779	11904.76
550.143	11847.58
550.507	11855.72
550.871	11831.77
551.235	11770.52
551.599	11775.27
551.962	11612.56
552.326	11643.75
552.689	11619.12
553.053	11632.9
553.417	11573.92
553.78	11625.44
554.143	11588.16
554.507	11492.79
554.87	11533.92
555.234	11551.55
555.597	11474.94
555.96	11524.43
556.323	11498.89
556.686	11426.13
557.05	11434.94
557.413	11415.05
557.776	11401.27
558.139	11364.43
558.502	11321.5
558.865	11327.6
559.228	11363.75
559.59	11392.91
559.953	11288.5
560.316	11299.12
560.679	11362.85
561.041	11283.98
561.404	11302.29
561.767	11237.88
562.129	11287.6
562.492	11333.47
562.854	11305.9
563.217	11269.52
563.579	11327.6
563.941	11335.51
564.304	11363.3
564.666	11349.07
565.028	11307.03
565.39	11362.4
565.753	11323.76
566.115	11420.02
566.477	11384.32
566.839	11333.25
567.201	11404.43
567.563	11364.88
567.925	11402.62
568.287	11366.24
568.648	11375.05
569.01	11427.26
569.372	11466.13
569.734	11408.5
570.095	11414.6
570.457	11483.75
570.819	11383.19
571.18	11415.5
571.542	11489.63
571.903	11395.39
572.265	11431.55
572.626	11469.51
572.987	11514.03
573.349	11477.42
573.71	11504.99
574.071	11443.98
574.432	11501.6
574.794	11617.08
575.155	11507.03
575.516	11519.01
575.877	11554.03
576.238	11593.35
576.599	11569.85
576.96	11565.33
577.32	11581.83
577.681	11524.43
578.042	11544.77
578.403	11489.63
578.763	11500.02
579.124	11528.95
579.485	11510.87
579.845	11613.47
580.206	11518.78
580.566	11482.62
580.927	11495.73
581.287	11529.63
581.648	11394.49
582.008	11532.11
582.368	11503.86
582.728	11496.41
583.089	11472.68
583.449	11491.66
583.809	11516.97
584.169	11458.89
584.529	11391.78
584.889	11455.28
585.249	11450.98
585.609	11361.5
585.969	11402.17
586.329	11426.8
586.688	11384.32
587.048	11345.9
587.408	11327.82
587.768	11361.72
588.127	11403.08
588.487	11328.5
588.846	11361.04
589.206	11352.68
589.565	11293.93
589.925	11361.5
590.284	11274.49
590.643	11318.56
591.003	11313.59
591.362	11297.54
591.721	11311.33
592.08	11265.23
592.44	11306.13
592.799	11309.52
593.158	11276.07
593.517	11293.93
593.876	11257.54
594.235	11163.99
594.593	11179.35
594.952	11222.29
595.311	11206.7
595.67	11207.15
596.029	11320.37
596.387	11271.55
596.746	11237.2
597.104	11205.11
597.463	11148.17
597.822	11216.19
598.18	11147.94
598.538	11166.7
598.897	11181.39
599.255	11129.41
599.613	11229.75
599.972	11176.87
600.33	11174.61
600.688	11084.21
601.046	11201.73
601.404	11238.79
601.762	11129.86
602.12	11234.72
602.478	11172.12
602.836	11147.94
603.194	11062.29
603.552	11150.88
603.91	11110.88
604.268	11117.89
604.625	11093.48
604.983	11118.11
605.341	11091.45
605.698	11171.22
606.056	11147.72
606.413	11182.74
606.771	11219.35
607.128	11140.71
607.485	11069.07
607.843	11170.99
608.2	11253.7
608.557	11160.6
608.914	11106.81
609.272	11201.27
609.629	11232.46
609.986	11168.28
610.343	11140.94
610.7	11248.28
611.057	11206.92
611.414	11206.24
611.771	11232.91
612.127	11239.24
612.484	11233.36
612.841	11297.54
613.198	11278.33
613.554	11266.36
613.911	11300.48
614.267	11254.61
614.624	11246.24
614.98	11264.32
615.337	11293.7
615.693	11288.5
616.05	11326.47
616.406	11403.08
616.762	11324.66
617.118	11295.73
617.475	11331.89
617.831	11386.58
618.187	11342.51
618.543	11385.22
618.899	11349.29
619.255	11343.87
619.611	11283.53
619.967	11392.68
620.323	11416.41
620.678	11397.88
621.034	11396.3
621.39	11360.37
621.746	11312.23
622.101	11464.54
622.457	11350.65
622.812	11321.95
623.168	11391.78
623.523	11460.93
623.879	11438.78
624.234	11386.58
624.589	11404.21
624.945	11414.6
625.3	11440.59
625.655	11415.96
626.01	11416.63
626.365	11433.58
626.72	11450.98
627.075	11429.06
627.43	11337.77
627.785	11361.72
628.14	11342.06
628.495	11404.66
628.85	11307.03
629.205	11336.86
629.559	11382.29
629.914	11273.14
630.269	11321.27
630.623	11309.52
630.978	11261.38
631.332	11232.91
631.687	11254.83
632.041	11277.43
632.396	11307.26
632.75	11253.48
633.104	11251.67
633.459	11200.82
633.813	11224.55
634.167	11242.18
634.521	11226.81
634.875	11246.24
635.229	11191.33
635.583	11105.68
635.937	11162.18
636.291	11145.23
636.645	11151.56
636.999	11060.49
637.352	11150.43
637.706	11036.31
638.06	11134.16
638.413	11037.66
638.767	11030.88
639.121	11008.96
639.474	10901.62
639.828	11010.77
640.181	10966.93
640.534	10946.36
640.888	10886.71
641.241	10909.08
641.594	10937.33
641.947	10950.88
642.301	10922.64
642.654	10928.29
643.007	10876.54
643.36	10855.07
643.713	10861.4
644.066	10905.69
644.419	10839.02
644.771	10791.34
645.124	10731.46
645.477	10627.73
645.83	10657.11
646.182	10592.7
646.535	10499.82
646.888	10563.1
647.24	10595.64
647.593	10560.61
647.945	10549.99
648.298	10487.17
648.65	10531.23
649.002	10432.48
649.355	10592.02
649.707	10569.43
650.059	10559.93
650.411	10730.33
650.763	10717.44
651.115	10839.93
651.467	10738.91
651.819	10766.26
652.171	10772.13
652.523	10769.65
652.875	10706.6
653.227	10700.27
653.578	10765.58
653.93	10773.26
654.282	10613.27
654.633	10710.44
654.985	10721.06
655.337	10756.77
655.688	10727.16
656.039	10819.36
656.391	10727.16
656.742	10761.06
657.094	10783.66
657.445	10841.73
657.796	10786.37
658.147	10740.72
658.498	10814.62
658.849	10858.01
659.2	10862.75
659.551	10855.07
659.902	10875.86
660.253	10775.52
660.604	10933.71
660.955	10774.17
661.306	10840.6
661.656	10780.27
662.007	10784.34
662.358	10848.29
662.708	10817.33
663.059	10854.39
663.409	10856.88
663.76	10837.22
664.11	10836.76
664.461	10908.85
664.811	10830.66
665.161	10917.21
665.511	10821.62
665.862	10851.9
666.212	10865.46
666.562	10891.9
666.912	10893.03
667.262	10909.53
667.612	10894.61
667.962	10903.43
668.312	10836.54
668.662	10927.38
669.011	10888.97
669.361	10872.02
669.711	10875.63
670.06	10842.86
670.41	10852.36
670.76	10865.91
671.109	10826.14
671.459	10849.19
671.808	10781.85
672.157	10867.27
672.507	10785.69
672.856	10775.97
673.205	10771
673.554	10840.15
673.904	10808.29
674.253	10896.42
674.602	10756.09
674.951	10621.18
675.3	10581.18
675.649	10755.64
675.998	10763.54
676.346	10789.31
676.695	10719.93
677.044	10624.34
677.393	10715.18
677.741	10716.77
678.09	10658.69
678.438	10634.28
678.787	10632.25
679.135	10681.51
679.484	10627.73
679.832	10633.15
680.181	10534.85
680.529	10612.81
680.877	10565.81
681.225	10493.72
681.573	10571.91
681.922	10493.27
682.27	10424.8
682.618	10438.36
682.966	10399.26
683.314	10446.04
683.661	10418.02
684.009	10314.29
684.357	10295.53
684.705	10346.15
685.053	10360.62
685.4	10290.56
685.748	10246.72
686.095	10231.36
686.443	10182.09
686.79	10157.46
687.138	10190
687.485	10143.67
687.832	10102.32
688.18	10146.39
688.527	10061.87
688.874	10028.87
689.221	9993.4
689.568	9943.23
689.915	9980.74
690.262	10041.3
690.609	9887.86
690.956	9888.31
691.303	9855.77
691.65	9766.73
691.997	9783.46
692.344	9744.14
692.69	9721.76
693.037	9684.48
693.383	9576.91
693.73	9676.34
694.077	9568.77
694.423	9560.86
694.769	9496.69
695.116	9448.1
695.462	9446.74
695.808	9417.59
696.155	9438.16
696.501	9332.62
696.847	9390.02
697.193	9256.24
697.539	9275.22
697.885	9174.21
698.231	9208.78
698.577	9138.73
698.923	9170.37
699.269	9090.59
699.614	9046.75
699.96	9028.22
700.306	9023.93
700.651	9028.68
700.997	8964.04
701.342	8914.55
701.688	8856.93
702.033	8825.52
702.379	8853.09
702.724	8797.72
703.069	8788.46
703.415	8702.81
703.76	8593.88
704.105	8691.28
704.45	8612.41
704.795	8642.92
705.14	8526.99
705.485	8571.06
705.83	8480.44
706.175	8577.61
706.52	8491.97
706.865	8486.09
707.209	8388.47
707.554	8379.88
707.899	8452.19
708.243	8345.3
708.588	8423.95
708.932	8287
709.277	8268.02
709.621	8277.73
709.966	8273.89
710.31	8276.6
710.654	8170.39
710.998	8159.77
711.342	8152.77
711.687	8129.72
712.031	8112.09
712.375	8052.66
712.719	8093.33
713.063	8093.33
713.407	8127.23
713.75	8030.74
714.094	8014.01
714.438	8037.74
714.782	8011.98
715.125	7967.91
715.469	7985.99
715.812	7895.82
716.156	7829.84
716.499	7886.33
716.843	7849.5
717.186	7837.52
717.53	7891.53
717.873	7859.44
718.216	7870.51
718.559	7829.84
718.902	7778.54
719.246	7792.1
719.589	7706.45
719.932	7758.43
720.275	7760.69
720.617	7691.54
720.96	7680.46
721.303	7727.69
721.646	7692.89
721.989	7714.36
722.331	7662.61
722.674	7683.17
723.016	7659.9
723.359	7629.84
723.701	7685.21
724.044	7658.99
724.386	7583.97
724.729	7694.02
725.071	7600.24
725.413	7560.69
725.755	7624.87
726.097	7602.95
726.439	7558.88
726.782	7556.4
727.124	7616.28
727.465	7573.12
727.807	7556.4
728.149	7562.05
728.491	7608.37
728.833	7563.85
729.175	7506.46
729.516	7495.61
729.858	7546.23
730.199	7517.53
730.541	7543.74
730.882	7530.18
731.224	7523.4
731.565	7458.55
731.906	7579
732.248	7546.45
732.589	7582.84
732.93	7456.51
733.271	7543.52
733.612	7526.34
733.953	7580.58
734.294	7506.23
734.635	7560.01
734.976	7510.75
735.317	7534.93
735.658	7521.82
735.999	7540.8
736.339	7471.88
736.68	7568.83
737.021	7537.87
737.361	7543.52
737.702	7574.02
738.042	7578.09
738.383	7605.66
738.723	7563.85
739.063	7544.19
739.404	7570.18
739.744	7644.76
740.084	7576.06
740.424	7625.77
740.764	7656.73
741.104	7695.38
741.444	7638.2
741.784	7688.82
742.124	7722.27
742.464	7753.45
742.804	7797.29
743.143	7757.97
743.483	7779.22
743.823	7795.94
744.162	7807.01
744.502	7879.1
744.841	7839.33
745.181	7900.34
745.52	7913.22
745.86	8003.84
746.199	8041.36
746.538	8029.83
746.877	8131.75
747.216	8178.53
747.556	8208.13
747.895	8246.32
748.234	8274.12
748.573	8330.39
748.911	8468.92
749.25	8473.21
749.589	8528.58
749.928	8578.52
750.267	8679.31
750.605	8678.4
750.944	8778.74
751.283	8860.09
751.621	8929.47
751.96	9000.2
752.298	9068.9
752.636	9264.38
752.975	9234.09
753.313	9343.69
753.651	9513.63
753.989	9578.72
754.327	9664.14
754.666	9804.93
755.004	9894.87
755.342	9950.01
755.679	10184.58
756.017	10293.05
756.355	10425.93
756.693	10583.66
757.031	10671.34
757.368	10757.22
757.706	10912.92
758.044	11083.08
758.381	11326.92
758.719	11342.29
759.056	11519.68
759.394	11617.53
759.731	11730.98
760.068	11990.41
760.405	12137.97
760.743	12210.51
761.08	12548.36
761.417	12549.71
761.754	12765.53
762.091	12936.59
762.428	13053.2
762.765	13153.99
763.102	13353.53
763.438	13519.86
763.775	13714.65
764.112	13838.94
764.449	13990.35
764.785	14172.95
765.122	14300.17
765.458	14388.08
765.795	14532.49
766.131	14777.22
766.467	14901.97
766.804	15033.94
767.14	15074.62
767.476	15294.95
767.812	15431.44
768.148	15582.63
768.485	15620.82
768.821	15670.31
769.157	15908.49
769.492	15977.64
769.828	16087.02
770.164	16168.15
770.5	16275.26
770.836	16441.59
771.171	16498.08
771.507	16508.7
771.842	16543.96
772.178	16754.12
772.513	16795.02
772.849	16866.66
773.184	16933.33
773.519	17051.74
773.855	17149.59
774.19	17199.99
774.525	17201.12
774.86	17311.62
775.195	17342.35
775.53	17469.58
775.865	17442.47
776.2	17368.57
776.535	17483.59
776.87	17536.25
777.205	17512.07
777.539	17539.86
777.874	17751.84
778.209	17598.62
778.543	17692.85
778.878	17642.91
779.212	17734.21
779.547	17669.13
779.881	17806.07
780.215	17738.95
780.55	17802.46
780.884	17731.72
781.218	17760.2
781.552	17845.62
781.886	17796.58
782.22	17879.29
782.554	17772.4
782.888	17712.74
783.222	17706.19
783.556	17719.07
783.889	17704.61
784.223	17652.86
784.557	17559.3
784.89	17703.93
785.224	17620.99
785.557	17631.16
785.891	17600.88
786.224	17580.77
786.558	17689.24
786.891	17584.61
787.224	17500.32
787.557	17550.71
787.891	17528.34
788.224	17544.84
788.557	17652.18
788.89	17484.27
789.223	17512.75
789.556	17433.2
789.888	17397.72
790.221	17285.41
790.554	17201.57
790.887	17296.93
791.219	17250.83
791.552	17316.37
791.884	17212.19
792.217	17142.59
792.549	17136.71
792.882	17047
793.214	17024.4
793.546	16990.05
793.879	16949.6
794.211	16924.96
794.543	17000.89
794.875	16907.11
795.207	16946.43
795.539	16872.31
795.871	16851.97
796.203	16719.55
796.535	16648.36
796.867	16699.21
797.198	16644.97
797.53	16557.97
797.862	16480.91
798.193	16616.72
798.525	16476.84
798.856	16474.35
799.188	16340.8
799.519	16316.84
799.85	16268.48
800.182	16293.79
800.513	16288.82
800.844	16211.54
801.175	16207.47
801.506	16283.63
801.837	16148.49
802.168	16039.11
802.499	16136.51
802.83	15993.24
803.161	15971.32
803.491	16007.93
803.822	15979.23
804.153	15832.11
804.483	15833.92
804.814	15755.28
805.145	15664.43
805.475	15650.65
805.805	15619.01
806.136	15696.3
806.466	15682.74
806.796	15572.23
807.126	15601.84
807.457	15526.58
807.787	15429.86
808.117	15457.43
808.447	15423.99
808.777	15412.46
809.107	15357.77
809.436	15286.82
809.766	15247.04
810.096	15289.98
810.426	15220.6
810.755	15275.97
811.085	15249.53
811.414	15125.69
811.744	15038.46
812.073	15058.12
812.403	15011.79
812.732	14984
813.061	15000.27
813.39	14885.47
813.719	14852.7
814.049	14939.71
814.378	14820.16
814.707	14791.01
815.036	14772.7
815.365	14728.64
815.693	14571.58
816.022	14660.84
816.351	14556.89
816.68	14483.22
817.008	14577.46
817.337	14498.81
817.665	14444.8
817.994	14456.33
818.322	14432.15
818.651	14282.77
818.979	14334.07
819.307	14392.38
819.636	14335.65
819.964	14268.54
820.292	14394.41
820.62	14355.77
820.948	14319.61
821.276	14302.21
821.604	14298.82
821.932	14295.2
822.259	14284.36
822.587	14224.24
822.915	14229.22
823.243	14295.66
823.57	14276.45
823.898	14288.42
824.225	14280.29
824.553	14198.93
824.88	14255.2
825.207	14249.33
825.535	14268.09
825.862	14333.17
826.189	14260.4
826.516	14375.88
826.843	14395.31
827.17	14335.2
827.497	14383.79
827.824	14291.59
828.151	14307.18
828.478	14240.29
828.805	14381.75
829.131	14206.39
829.458	14261.76
829.785	14239.84
830.111	14306.73
830.438	14408.87
830.764	14324.13
831.09	14298.59
831.417	14303.11
831.743	14319.61
832.069	14290.23
832.395	14211.14
832.722	14352.38
833.048	14268.99
833.374	14231.48
833.7	14215.21
834.026	14261.76
834.351	14228.76
834.677	14112.16
835.003	14264.47
835.329	14092.95
835.654	14137.92
835.98	14055.66
836.306	14068.09
836.631	14049.79
836.956	14106.51
837.282	14093.4
837.607	14025.83
837.932	13951.26
838.258	13998.49
838.583	14008.88
838.908	13882.78
839.233	13906.51
839.558	13895.21
839.883	13864.48
840.208	13770.25
840.533	13757.14
840.858	13799.4
841.182	13708.78
841.507	13764.37
841.832	13699.29
842.156	13677.59
842.481	13784.48
842.805	13645.5
843.13	13585.39
843.454	13593.07
843.778	13586.75
844.103	13492.06
844.427	13434.89
844.751	13502.23
845.075	13458.16
845.399	13414.1
845.723	13338.84
846.047	13389.01
846.371	13257.49
846.695	13274.67
847.019	13164.84
847.343	13111.96
847.666	13055.01
847.99	13071.51
848.313	12979.76
848.637	12819.76
848.96	12855.69
849.284	12883.94
849.607	12753.55
849.931	12610.95
850.254	12654.34
850.577	12591.75
850.9	12498.41
851.223	12540.67
851.546	12426.1
851.869	12297.74
852.192	12445.53
852.515	12261.58
852.838	12199.89
853.161	12125.09
853.483	12136.62
853.806	12107.92
854.129	12073.11
854.451	11995.38
854.774	11942.04
855.096	11889.39
855.419	11911.99
855.741	11852.33
856.063	11820.69
856.385	11843.06
856.708	11769.17
857.03	11706.8
857.352	11667.7
857.674	11683.52
857.996	11664.99
858.318	11488.05
858.64	11613.24
858.961	11539.34
859.283	11492.11
859.605	11472
859.926	11435.17
860.248	11442.17
860.57	11428.39
860.891	11323.08
861.212	11266.36
861.534	11324.89
861.855	11245.57
862.176	11240.82
862.498	11283.76
862.819	11204.66
863.14	11173.7
863.461	11192.91
863.782	11116.3
864.103	11176.42
864.424	11015.97
864.745	11105.23
865.065	10992.69
865.386	11010.32
865.707	11059.13
866.027	11029.98
866.348	10968.06
866.668	11013.03
866.989	10936.2
867.309	10903.2
867.63	10938
867.95	10880.38
868.27	10860.04
868.59	10857.33
868.91	10823.66
869.23	10787.95
869.55	10712.25
869.87	10834.5
870.19	10783.88
870.51	10751.12
870.83	10840.38
871.15	10751.57
871.469	10711.57
871.789	10754.51
872.109	10697.11
872.428	10657.78
872.748	10688.74
873.067	10640.61
873.386	10597.67
873.706	10636.32
874.025	10474.74
874.344	10512.7
874.663	10477.68
874.982	10551.57
875.301	10519.48
875.62	10524
875.939	10447.17
876.258	10367.62
876.577	10371.46
876.896	10413.05
877.214	10308.64
877.533	10376.44
877.852	10290.11
878.17	10333.27
878.489	10354.52
878.807	10233.62
879.125	10283.11
879.444	10215.54
879.762	10256.44
880.08	10280.17
880.398	10217.34
880.716	10232.26
881.034	10169.44
881.352	10139.15
881.67	10107.97
881.988	10112.94
882.306	10080.85
882.624	10028.2
882.941	10041.98
883.259	10025.71
883.577	9943.23
883.894	9984.81
884.212	10000.63
884.529	9922.66
884.846	9893.29
885.164	9848.77
885.481	9921.98
885.798	9891.48
886.115	9811.48
886.432	9794.08
886.75	9763.8
887.067	9761.09
887.383	9728.32
887.7	9756.11
888.017	9698.49
888.334	9710.69
888.651	9652.39
888.967	9594.54
889.284	9536.68
889.6	9491.26
889.917	9515.44
890.233	9462.11
890.55	9468.89
890.866	9465.95
891.182	9445.16
891.498	9390.47
891.815	9385.95
892.131	9292.17
892.447	9313.19
892.763	9274.09
893.079	9277.93
893.395	9228.44
893.71	9254.43
894.026	9129.69
894.342	9160.42
894.657	9069.35
894.973	9088.56
895.289	9129.01
895.604	9053.31
895.92	8985.29
896.235	8954.1
896.55	8886.08
896.865	8884.95
897.181	8851.05
897.496	8884.72
897.811	8858.06
898.126	8769.02
898.441	8714.78
898.756	8669.36
899.071	8634.34
899.386	8654
899.7	8591.85
900.015	8591.85
900.33	8500.1
900.644	8522.25
900.959	8574
901.273	8477.05
901.588	8474.79
901.902	8437.5
902.216	8423.27
902.531	8336.94
902.845	8322.03
903.159	8248.58
903.473	8256.27
903.787	8146.44
904.101	8154.57
904.415	8159.55
904.729	8115.48
905.042	8045.88
905.356	8040.23
905.67	8047.68
905.984	7944.41
906.297	7988.93
906.611	7933.79
906.924	7960.23
907.237	7895.82
907.551	7851.76
907.864	7808.14
908.177	7748.71
908.491	7706.22
908.804	7656.96
909.117	7660.12
909.43	7640.69
909.743	7584.42
910.056	7570.86
910.368	7550.97
910.681	7492.22
910.994	7438.66
911.307	7482.5
911.619	7381.03
911.932	7339.91
912.244	7323.86
912.557	7351.88
912.869	7282.05
913.181	7284.77
913.494	7227.14
913.806	7219.91
914.118	7173.36
914.43	7065.11
914.742	7156.41
915.054	7148.72
915.366	7075.73
915.678	7051.55
915.99	7032.34
916.302	6987.6
916.613	6948.5
916.925	6912.8
917.236	6868.05
917.548	6874.16
917.859	6912.35
918.171	6799.36
918.482	6783.76
918.794	6743.31
919.105	6769.3
919.416	6652.01
919.727	6673.48
920.038	6689.98
920.349	6612.47
920.66	6622.64
920.971	6597.33
921.282	6542.19
921.593	6547.61
921.903	6466.71
922.214	6443.21
922.525	6454.28
922.835	6451.34
923.146	6401.4
923.456	6368.86
923.767	6299.48
924.077	6334.28
924.387	6270.56
924.697	6249.99
925.008	6255.41
925.318	6222.42
925.628	6221.52
925.938	6165.7
926.248	6120.95
926.558	6078.47
926.867	6080.28
927.177	6035.08
927.487	6083.44
927.796	6017.23
928.106	6029.21
928.416	5970.68
928.725	5942.2
929.034	5854.07
929.344	5905.37
929.653	5892.49
929.962	5831.24
930.271	5815.65
930.581	5846.39
930.89	5770.23
931.199	5698.82
931.508	5694.75
931.817	5696.11
932.125	5721.42
932.434	5685.94
932.743	5640.52
933.051	5573.62
933.36	5540.63
933.669	5564.81
933.977	5538.15
934.286	5557.58
934.594	5454.31
934.902	5394.42
935.21	5414.53
935.519	5463.12
935.827	5391.48
936.135	5390.58
936.443	5371.82
936.751	5356.68
937.059	5306.06
937.367	5298.6
937.674	5290.02
937.982	5246.85
938.29	5248.21
938.597	5228.1
938.905	5158.49
939.213	5162.79
939.52	5103.35
939.827	5099.74
940.135	5114.88
940.442	5084.15
940.749	5023.58
941.056	5013.64
941.363	4999.63
941.67	4979.52
941.977	4986.97
942.284	4906.98
942.591	4911.5
942.898	4864.72
943.205	4874.21
943.511	4895
943.818	4829.46
944.125	4786.98
944.431	4796.24
944.738	4777.49
945.044	4744.72
945.35	4731.84
945.657	4706.75
945.963	4669.02
946.269	4629.24
946.575	4663.59
946.881	4652.29
947.187	4677.83
947.493	4599.64
947.799	4575.91
948.105	4518.51
948.41	4544.5
948.716	4539.3
949.022	4459.3
949.327	4497.49
949.633	4413.43
949.938	4408.46
950.244	4425.18
950.549	4378.85
950.854	4402.36
951.16	4378.18
951.465	4327.78
951.77	4307.22
952.075	4282.36
952.38	4285.97
952.685	4272.87
952.99	4245.07
953.294	4271.06
953.599	4281.23
953.904	4219.99
954.209	4157.62
954.513	4158.29
954.818	4118.75
955.122	4159.65
955.426	4114.45
955.731	4085.08
956.035	4032.2
956.339	4032.87
956.643	4105.19
956.948	4052.53
957.252	4023.38
957.556	4013.44
957.86	3942.71
958.163	3915.14
958.467	3957.4
958.771	3939.54
959.075	3863.39
959.378	3883.5
959.682	3863.84
959.985	3880.34
960.289	3824.07
960.592	3792.88
960.896	3855.03
961.199	3837.4
961.502	3775.93
961.805	3749.04
962.108	3719.44
962.411	3739.1
962.714	3681.02
963.017	3670.4
963.32	3712.43
963.623	3650.29
963.926	3671.98
964.228	3638.53
964.531	3626.78
964.833	3594.47
965.136	3611.87
965.438	3564.41
965.741	3538.42
966.043	3580.91
966.345	3509.05
966.648	3507.69
966.95	3474.7
967.252	3471.76
967.554	3462.27
967.856	3448.03
968.158	3411.87
968.46	3438.99
968.761	3408.94
969.063	3390.18
969.365	3367.13
969.666	3387.02
969.968	3296.85
970.269	3336.62
970.571	3339.56
970.872	3299.79
971.174	3249.39
971.475	3304.31
971.776	3284.19
972.077	3218.21
972.378	3232.67
972.679	3243.29
972.98	3201.71
973.281	3197.42
973.582	3142.73
973.883	3166
974.183	3114.03
974.484	3103.86
974.785	3083.29
975.085	3111.32
975.386	3127.59
975.686	3091.66
975.986	3092.56
976.287	3079.23
976.587	3024.09
976.887	2987.93
977.187	3020.25
977.487	3017.31
977.787	2979.12
978.087	2998.1
978.387	2930.98
978.687	2943.86
978.987	2931.43
979.286	2942.73
979.586	2913.81
979.885	2875.16
980.185	2883.98
980.484	2851.66
980.784	2879.46
981.083	2838.1
981.382	2845.33
981.682	2833.58
981.981	2830.65
982.28	2800.36
982.579	2781.83
982.878	2752.68
983.177	2749.29
983.475	2745.68
983.774	2700.03
984.073	2761.72
984.372	2697.32
984.67	2659.58
984.969	2654.61
985.267	2682.63
985.566	2661.61
985.864	2650.54
986.162	2629.97
986.461	2621.39
986.759	2609.86
987.057	2596.98
987.355	2568.96
987.653	2612.35
987.951	2556.08
988.249	2558.56
988.547	2535.51
988.844	2523.76
989.142	2546.81
989.44	2474.05
989.737	2494.61
990.035	2446.25
990.332	2481.73
990.63	2458.68
990.927	2445.8
991.224	2427.49
991.521	2409.19
991.819	2401.73
992.116	2410.77
992.413	2391.11
992.71	2402.18
993.006	2386.14
993.303	2351.79
993.6	2308.85
993.897	2344.56
994.193	2318.12
994.49	2297.33
994.787	2279.47
995.083	2281.28
995.379	2249.42
995.676	2283.54
995.972	2252.36
996.268	2251.68
996.565	2238.57
996.861	2187.27
997.157	2210.55
997.453	2206.26
997.749	2201.28
998.044	2176.2
998.34	2192.47
998.636	2189.53
998.932	2145.24
999.227	2122.64
999.523	2121.51
999.818	2105.92
1000.114	2095.3
1000.409	2079.71
1000.704	2099.82
1001	2071.8
1001.295	2039.48
1001.59	2024.79
1001.885	2036.77
1002.18	2025.92
1002.475	2018.24
1002.77	2018.69
1003.065	1975.53
1003.359	1978.46
1003.654	1974.85
1003.949	1919.03
1004.243	1949.09
1004.538	1930.1
1004.832	1923.55
1005.127	1926.94
1005.421	1917.68
1005.715	1914.51
1006.009	1886.04
1006.304	1883.1
1006.598	1814.18
1006.892	1840.39
1007.186	1828.64
1007.48	1820.28
1007.773	1818.47
1008.067	1790.9
1008.361	1809.2
1008.655	1802.2
1008.948	1806.94
1009.242	1789.09
1009.535	1787.96
1009.829	1729.88
1010.122	1727.62
1010.415	1705.03
1010.708	1707.29
1011.001	1729.88
1011.295	1711.35
1011.588	1696.89
1011.881	1668.64
1012.173	1669.32
1012.466	1664.12
1012.759	1642.88
1013.052	1653.5
1013.344	1616.44
1013.637	1653.28
1013.93	1605.37
1014.222	1590
1014.514	1594.97
1014.807	1590.9
1015.099	1595.2
1015.391	1579.61
1015.683	1576.89
1015.976	1538.93
1016.268	1524.01
1016.56	1542.77
1016.851	1505.93
1017.143	1518.36
1017.435	1531.92
1017.727	1521.98
1018.018	1502.55
1018.31	1470.68
1018.602	1466.84
1018.893	1467.07
1019.185	1455.54
1019.476	1446.5
1019.767	1431.36
1020.058	1403.56
1020.35	1414.64
1020.641	1397.01
1020.932	1401.3
1021.223	1384.58
1021.514	1368.54
1021.804	1367.86
1022.095	1375.54
1022.386	1377.12
1022.677	1349.33
1022.967	1332.83
1023.258	1326.73
1023.548	1320.63
1023.839	1302.78
1024.129	1299.39
1024.419	1291.03
1024.709	1293.06
1025	1256.22
1025.29	1265.49
1025.58	1256.9
1025.87	1236.79
1026.16	1234.53
1026.449	1230.01
1026.739	1221.65
1027.029	1188.43
1027.319	1192.95
1027.608	1200.41
1027.898	1169.9
1028.187	1197.92
1028.477	1192.04
1028.766	1183.91
1029.055	1168.09
1029.344	1164.25
1029.634	1150.69
1029.923	1148.88
1030.212	1152.05
1030.501	1128.54
1030.79	1134.87
1031.078	1127.64
1031.367	1099.17
1031.656	1121.31
1031.945	1095.32
1032.233	1088.54
1032.522	1072.05
1032.81	1068.88
1033.099	1056.68
1033.387	1049.22
1033.675	1051.03
1033.963	1042.44
1034.251	1049.22
1034.54	1018.04
1034.828	1027.3
1035.116	1000.86
1035.403	1018.04
1035.691	993.41
1035.979	1008.32
1036.267	988.43
1036.554	986.85
1036.842	981.43
1037.129	980.98
1037.417	957.47
1037.704	952.5
1037.992	956.57
1038.279	940.98
1038.566	939.17
1038.853	939.17
1039.14	939.17
