Data from hue_240_FLMS001491_00034.txt Node
Date: Tue Feb 07 16:35:23 GMT 2017
User: dcchb
Spectrometer: FLMS00149
Trigger mode: 0
Integration Time (sec): 2.000000E-2
Scans to average: 10
Electric dark correction enabled: true
Nonlinearity correction enabled: false
Boxcar width: 0
XAxis mode: Wavelengths
Number of Pixels in Spectrum: 2048
>>>>>Begin Spectral Data<<<<<
341.393	-15.17
341.776	-15.17
342.16	-15.17
342.543	-48.39
342.927	-67.82
343.31	-66.24
343.693	-74.83
344.077	-64.89
344.46	-65.34
344.843	-58.33
345.226	-35.28
345.61	-11.33
345.993	-21.5
346.376	-0.03
346.759	6.98
347.142	45.85
347.525	33.19
347.908	51.72
348.291	68.22
348.674	81.78
349.057	110.03
349.44	112.51
349.823	124.94
350.206	164.94
350.588	173.75
350.971	181.44
351.354	190.7
351.737	227.99
352.119	239.74
352.502	263.24
352.884	250.36
353.267	290.36
353.65	292.62
354.032	293.52
354.414	294.88
354.797	318.61
355.179	310.25
355.562	318.16
355.944	307.53
356.326	320.42
356.709	320.19
357.091	319.29
357.473	333.07
357.855	327.19
358.238	330.13
358.62	333.3
359.002	319.29
359.384	339.85
359.766	327.65
360.148	348.44
360.53	316.35
360.912	334.2
361.294	318.83
361.676	328.55
362.057	315.9
362.439	312.51
362.821	324.03
363.203	298.95
363.584	333.07
363.966	314.77
364.348	322.45
364.729	312.96
365.111	331.04
365.493	320.42
365.874	308.66
366.256	305.73
366.637	305.95
367.019	320.19
367.4	316.57
367.781	315.67
368.163	309.79
368.544	298.04
368.925	308.21
369.306	306.18
369.688	311.15
370.069	320.42
370.45	288.55
370.831	295.56
371.212	298.72
371.593	315.22
371.974	306.18
372.355	292.62
372.736	320.42
373.117	299.85
373.498	298.72
373.879	303.92
374.26	316.57
374.641	318.16
375.021	320.42
375.402	317.48
375.783	306.86
376.163	311.6
376.544	312.73
376.925	329
377.305	324.71
377.686	321.77
378.066	294.2
378.447	320.42
378.827	322.22
379.208	309.34
379.588	324.03
379.968	319.96
380.349	313.86
380.729	318.83
381.109	340.08
381.489	336.23
381.87	322
382.25	336.01
382.63	334.88
383.01	329.45
383.39	330.13
383.77	338.04
384.15	336.23
384.53	340.08
384.91	341.43
385.29	337.14
385.67	349.34
386.049	352.05
386.429	327.19
386.809	346.86
387.189	346.18
387.568	333.3
387.948	348.44
388.328	341.21
388.707	346.63
389.087	380.75
389.466	355.44
389.846	344.14
390.225	358.83
390.605	353.86
390.984	361.54
391.363	367.65
391.743	367.87
392.122	380.98
392.501	362
392.881	347.53
393.26	365.84
393.639	370.58
394.018	349.12
394.397	384.82
394.776	385.95
395.155	368.1
395.534	395.44
395.913	374.43
396.292	359.51
396.671	385.5
397.05	404.25
397.429	399.28
397.808	390.7
398.186	387.98
398.565	384.37
398.944	395.67
399.323	390.24
399.701	387.08
400.08	404.93
400.458	401.77
400.837	411.94
401.215	440.19
401.594	407.42
401.972	405.84
402.351	419.17
402.729	413.52
403.107	428.44
403.486	418.94
403.864	418.72
404.242	438.15
404.62	444.25
404.999	419.85
405.377	429.34
405.755	437.47
406.133	432.73
406.511	428.89
406.889	434.31
407.267	436.12
407.645	461.88
408.023	467.3
408.401	438.6
408.779	467.53
409.156	460.98
409.534	473.18
409.912	476.12
410.29	469.79
410.667	474.76
411.045	486.96
411.422	499.39
411.8	524.48
412.178	510.47
412.555	522.67
412.933	505.72
413.31	515.89
413.687	533.07
414.065	554.08
414.442	560.63
414.819	568.54
415.197	566.28
415.574	577.81
415.951	581.2
416.328	558.15
416.705	578.71
417.082	606.28
417.46	609.22
417.837	605.83
418.214	620.07
418.591	600.86
418.967	605.38
419.344	630.46
419.721	627.98
420.098	644.47
420.475	637.24
420.852	637.47
421.228	655.55
421.605	664.81
421.982	681.99
422.358	664.81
422.735	700.97
423.111	690.8
423.488	695.55
423.864	702.33
424.241	724.92
424.617	719.05
424.994	746.62
425.37	738.26
425.746	755.66
426.123	777.8
426.499	764.92
426.875	773.06
427.251	781.87
427.627	813.51
428.003	834.3
428.379	814.19
428.756	799.5
429.132	830.68
429.507	862.55
429.883	846.5
430.259	886.95
430.635	881.53
431.011	857.8
431.387	879.27
431.763	907.97
432.138	952.26
432.514	938.03
432.89	929.21
433.265	957.23
433.641	954.75
434.016	983
434.392	998.82
434.767	996.1
435.143	1032.94
435.518	1047.18
435.894	1044.24
436.269	1069.1
436.644	1071.81
437.02	1106.38
437.395	1087.85
437.77	1116.33
438.145	1132.15
438.52	1167.62
438.895	1172.37
439.271	1154.29
439.646	1209.88
440.021	1214.63
440.395	1230.22
440.77	1237.45
441.145	1227.06
441.52	1278.58
441.895	1252.82
442.27	1279.49
442.645	1264.12
443.019	1285.14
443.394	1284.23
443.769	1314.29
444.143	1312.71
444.518	1342.76
444.892	1318.13
445.267	1357.9
445.641	1380.95
446.016	1379.14
446.39	1384.79
446.764	1401.29
447.139	1392.03
447.513	1416.88
447.887	1412.59
448.262	1448.3
448.636	1429.99
449.01	1443.1
449.384	1440.16
449.758	1478.35
450.132	1490.55
450.506	1501.4
450.88	1501.4
451.254	1492.59
451.628	1505.69
452.002	1552.02
452.376	1572.81
452.75	1540.5
453.123	1564.9
453.497	1614.39
453.871	1639.48
454.244	1636.99
454.618	1684.22
454.992	1683.09
455.365	1671.57
455.739	1715.18
456.112	1721.51
456.486	1727.61
456.859	1737.33
457.232	1786.37
457.606	1778.46
457.979	1775.74
458.352	1835.86
458.725	1807.16
459.099	1837.66
459.472	1896.65
459.845	1877.66
460.218	1899.13
460.591	1932.35
460.964	1958.79
461.337	1978.9
461.71	2018
462.083	2031.1
462.456	2027.72
462.829	2044.44
463.201	2059.35
463.574	2103.65
463.947	2099.58
464.32	2182.51
464.692	2177.09
465.065	2172.57
465.438	2190.42
465.81	2246.92
466.183	2274.26
466.555	2270.87
466.928	2293.02
467.3	2308.16
467.672	2392.45
468.045	2375.95
468.417	2404.88
468.789	2429.29
469.161	2449.4
469.534	2485.56
469.906	2480.13
470.278	2551.77
470.65	2565.78
471.022	2604.88
471.394	2667.7
471.766	2687.36
472.138	2678.32
472.51	2691.65
472.882	2799.67
473.253	2813.68
473.625	2796.51
473.997	2880.57
474.369	2902.49
474.74	2935.04
475.112	2984.75
475.484	3056.16
475.855	3073.34
476.227	3106.56
476.598	3164.18
476.97	3149.95
477.341	3255.71
477.713	3267.46
478.084	3305.87
478.455	3382.26
478.827	3407.57
479.198	3506.32
479.569	3469.03
479.94	3584.51
480.311	3570.27
480.682	3656.82
481.053	3714
481.424	3762.81
481.795	3838.51
482.166	3864.28
482.537	3874.9
482.908	3964.84
483.279	4001.9
483.65	4057.72
484.021	4144.04
484.391	4210.26
484.762	4205.06
485.133	4256.81
485.503	4291.38
485.874	4388.33
486.244	4371.83
486.615	4468.1
486.985	4531.38
487.356	4579.06
487.726	4600.08
488.097	4673.97
488.467	4714.2
488.837	4814.08
489.207	4864.7
489.578	4892.05
489.948	4877.58
490.318	4980.86
490.688	4972.5
491.058	5061.76
491.428	5169.78
491.798	5167.07
492.168	5225.82
492.538	5230.57
492.908	5325.93
493.278	5354.63
493.648	5367.74
494.017	5472.14
494.387	5434.63
494.757	5504.01
495.126	5584.23
495.496	5560.73
495.866	5575.87
496.235	5646.6
496.605	5639.6
496.974	5709.88
497.344	5794.17
497.713	5765.47
498.082	5793.94
498.452	5851.12
498.821	5927.05
499.19	5876.65
499.559	5970.89
499.928	5962.53
500.298	6003.88
500.667	5984.22
501.036	6010.44
501.405	6075.29
501.774	6074.61
502.143	6126.59
502.512	6151.22
502.88	6166.82
503.249	6142.64
503.618	6256.53
503.987	6227.15
504.356	6286.81
504.724	6282.52
505.093	6335.4
505.462	6294.72
505.83	6353.03
506.199	6383.08
506.567	6421.05
506.936	6466.47
507.304	6487.94
507.672	6519.12
508.041	6555.51
508.409	6562.29
508.777	6596.18
509.145	6649.74
509.514	6619.01
509.882	6605.45
510.25	6647.48
510.618	6690.42
510.986	6616.75
511.354	6747.59
511.722	6759.12
512.09	6856.06
512.458	6795.73
512.826	6854.71
513.193	6881.82
513.561	6853.8
513.929	6899.68
514.297	6938.77
514.664	6948.72
515.032	6954.37
515.4	6972.9
515.767	6958.43
516.135	7067.36
516.502	6941.03
516.869	7077.07
517.237	7034.14
517.604	7017.41
517.972	7122.72
518.339	7055.61
518.706	7083.18
519.073	7144.19
519.44	7190.52
519.808	7166.34
520.175	7166.56
520.542	7240.69
520.909	7244.3
521.276	7198.43
521.643	7246.56
522.009	7290.85
522.376	7350.29
522.743	7348.03
523.11	7385.54
523.477	7388.48
523.843	7378.99
524.21	7453.34
524.577	7503.28
524.943	7486.1
525.31	7445.43
525.676	7508.02
526.043	7507.57
526.409	7579.21
526.776	7588.25
527.142	7592.31
527.508	7626.66
527.874	7674.8
528.241	7631.18
528.607	7648.58
528.973	7696.27
529.339	7678.64
529.705	7725.42
530.071	7768.36
530.437	7724.97
530.803	7793.89
531.169	7803.38
531.535	7772.65
531.901	7773.1
532.267	7733.55
532.632	7701.01
532.998	7806.77
533.364	7737.85
533.73	7784.85
534.095	7780.78
534.461	7794.57
534.826	7888.35
535.192	7829.14
535.557	7843.38
535.923	7865.75
536.288	7818.98
536.653	7822.36
537.019	7802.93
537.384	7775.13
537.749	7778.3
538.114	7785.76
538.479	7800.22
538.845	7856.71
539.21	7763.61
539.575	7796.15
539.94	7796.83
540.305	7777.17
540.67	7769.94
541.034	7788.47
541.399	7753.21
541.764	7804.29
542.129	7739.66
542.494	7798.41
542.858	7724.51
543.223	7742.14
543.587	7822.59
543.952	7790.95
544.316	7715.7
544.681	7727.9
545.045	7767
545.41	7748.47
545.774	7714.35
546.138	7692.88
546.503	7744.17
546.867	7679.54
547.231	7740.33
547.595	7694.68
547.959	7736.04
548.324	7674.8
548.688	7688.36
549.052	7705.31
549.416	7700.11
549.779	7673.89
550.143	7660.34
550.507	7687.45
550.871	7741.01
551.235	7700.79
551.599	7677.28
551.962	7722.71
552.326	7608.59
552.689	7811.07
553.053	7609.72
553.417	7670.5
553.78	7700.56
554.143	7655.36
554.507	7717.51
554.87	7668.92
555.234	7725.42
555.597	7661.47
555.96	7638.19
556.323	7707.79
556.686	7683.84
557.05	7678.87
557.413	7675.7
557.776	7733.55
558.139	7765.42
558.502	7718.19
558.865	7703.05
559.228	7790.73
559.59	7788.02
559.953	7730.16
560.316	7809.48
560.679	7754.34
561.041	7820.78
561.404	7848.8
561.767	7878.86
562.129	7852.42
562.492	7957.73
562.854	7902.59
563.217	7889.93
563.579	7904.85
563.941	7980.78
564.304	7938.75
564.666	8058.29
565.028	7979.87
565.39	8028.24
565.753	7962.25
566.115	8037.05
566.477	8126.31
566.839	8048.35
567.201	8115.01
567.563	8100.78
567.925	8222.58
568.287	8195.24
568.648	8163.6
569.01	8182.58
569.372	8244.73
569.734	8163.15
570.095	8350.03
570.457	8266.87
570.819	8269.81
571.18	8319.75
571.542	8366.76
571.903	8354.1
572.265	8363.59
572.626	8410.37
572.987	8384.84
573.349	8415.12
573.71	8447.89
574.071	8485.4
574.432	8511.39
574.794	8589.8
575.155	8538.73
575.516	8455.57
575.877	8580.31
576.238	8577.15
576.599	8625.28
576.96	8628.22
577.32	8643.59
577.681	8685.85
578.042	8676.13
578.403	8686.75
578.763	8665.96
579.124	8734.66
579.485	8720.19
579.845	8743.92
580.206	8730.59
580.566	8804.03
580.927	8690.82
581.287	8815.11
581.648	8792.51
582.008	8827.08
582.368	8890.13
582.728	8802.9
583.089	8849.46
583.449	8863.24
583.809	8894.2
584.169	8822.34
584.529	8858.72
584.889	8913.64
585.249	8871.6
585.609	8852.17
585.969	8941.21
586.329	8957.25
586.688	8933.97
587.048	8915.67
587.408	8947.53
587.768	8920.19
588.127	8943.47
588.487	9025.5
588.846	8989.79
589.206	8980.07
589.565	8959.96
589.925	8984.82
590.284	9020.3
590.643	9080.41
591.003	9030.02
591.362	9002.45
591.721	9067.76
592.08	9004.48
592.44	9070.47
592.799	9069.11
593.158	9084.03
593.517	9081.09
593.876	9076.34
594.235	9081.99
594.593	9074.99
594.952	9130.35
595.311	9062.11
595.67	9126.74
596.029	9168.77
596.387	9231.59
596.746	9196.57
597.104	9180.3
597.463	9149.11
597.822	9183.91
598.18	9157.25
598.538	9166.51
598.897	9239.05
599.255	9129
599.613	9272.5
599.972	9192.72
600.33	9232.5
600.688	9197.47
601.046	9211.48
601.404	9284.93
601.762	9314.08
602.12	9213.97
602.478	9276.34
602.836	9254.19
603.194	9258.49
603.552	9277.24
603.91	9244.93
604.268	9250.35
604.625	9185.04
604.983	9190.92
605.341	9169.22
605.698	9244.93
606.056	9318.6
606.413	9299.39
606.771	9306.39
607.128	9269.56
607.485	9256.45
607.843	9335.55
608.2	9345.71
608.557	9375.09
608.914	9361.31
609.272	9410.8
609.629	9444.7
609.986	9426.39
610.343	9404.92
610.7	9448.08
611.057	9467.97
611.414	9414.87
611.771	9481.53
612.127	9422.1
612.484	9479.5
612.841	9455.32
613.198	9459.38
613.554	9439.95
613.911	9486.05
614.267	9518.37
614.624	9527.86
614.98	9496.45
615.337	9591.58
615.693	9585.03
616.05	9550.23
616.406	9569.21
616.762	9553.17
617.118	9536.9
617.475	9601.08
617.831	9644.01
618.187	9581.19
618.543	9559.27
618.899	9644.46
619.255	9567.63
619.611	9616.89
619.967	9549.78
620.323	9681.98
620.678	9594.75
621.034	9587.29
621.39	9578.25
621.746	9582.54
622.101	9691.69
622.457	9605.37
622.812	9635.42
623.168	9611.92
623.523	9667.29
623.879	9607.4
624.234	9576.9
624.589	9641.98
624.945	9707.97
625.3	9623.9
625.655	9719.04
626.01	9601.53
626.365	9640.17
626.72	9627.74
627.075	9611.47
627.43	9713.84
627.785	9566.95
628.14	9590.68
628.495	9615.54
628.85	9607.4
629.205	9524.02
629.559	9620.96
629.914	9568.08
630.269	9551.36
630.623	9542.32
630.978	9499.61
631.332	9588.42
631.687	9539.61
632.041	9491.02
632.396	9546.84
632.75	9491.47
633.104	9507.97
633.459	9420.97
633.813	9398.82
634.167	9470.01
634.521	9421.64
634.875	9422.55
635.229	9406.28
635.583	9368.99
635.937	9392.27
636.291	9345.94
636.645	9372.15
636.999	9342.78
637.352	9357.01
637.706	9287.86
638.06	9340.07
638.413	9344.81
638.767	9298.94
639.121	9343.45
639.474	9267.52
639.828	9327.18
640.181	9307.3
640.534	9272.72
640.888	9268.2
641.241	9194.08
641.594	9233.63
641.947	9210.58
642.301	9229.33
642.654	9134.42
643.007	9173.52
643.36	9225.27
643.713	9203.8
644.066	9240.18
644.419	9089
644.771	9083.35
645.124	9007.42
645.477	8967.19
645.83	8902.34
646.182	8924.48
646.535	8967.19
646.888	8883.58
647.24	8908.21
647.593	8920.64
647.945	8893.75
648.298	8867.31
648.65	8757.93
649.002	8805.39
649.355	8797.71
649.707	8788.22
650.059	8839.51
650.411	8942.34
650.763	8972.84
651.115	9020.3
651.467	9020.53
651.819	9068.43
652.171	8988.89
652.523	9025.95
652.875	9007.64
653.227	8930.13
653.578	9016.46
653.93	8970.36
654.282	8950.24
654.633	8946.4
654.985	8917.7
655.337	8966.97
655.688	9012.84
656.039	8952.73
656.391	8882
656.742	8950.92
657.094	8978.27
657.445	8933.97
657.796	8979.4
658.147	8918.61
658.498	8967.65
658.849	8964.71
659.2	8946.18
659.551	8919.74
659.902	8996.12
660.253	8965.61
660.604	8950.47
660.955	8962.9
661.306	9002.67
661.656	8879.51
662.007	8851.49
662.358	8944.37
662.708	9009.68
663.059	8955.22
663.409	8911.38
663.76	8997.93
664.11	8980.53
664.461	9035.67
664.811	8934.2
665.161	8941.21
665.511	8940.75
665.862	9022.11
666.212	8953.18
666.562	9007.87
666.912	8938.95
667.262	8919.96
667.612	8931.49
667.962	8936.69
668.312	8971.04
668.662	8975.33
669.011	8988.66
669.361	8935.33
669.711	8929.23
670.06	8918.16
670.41	8912.73
670.76	8902.56
671.109	8953.41
671.459	8883.35
671.808	8881.09
672.157	8855.78
672.507	8778.95
672.856	8872.51
673.205	8875.22
673.554	8866.86
673.904	8818.95
674.253	8905.73
674.602	8811.94
674.951	8727.2
675.3	8665.96
675.649	8773.53
675.998	8764.04
676.346	8821.89
676.695	8833.19
677.044	8731.49
677.393	8787.54
677.741	8716.13
678.09	8732.85
678.438	8773.07
678.787	8747.31
679.135	8766.75
679.484	8674.77
679.832	8706.64
680.181	8699.4
680.529	8698.05
680.877	8682.68
681.225	8632.74
681.573	8717.26
681.922	8613.76
682.27	8591.16
682.618	8577.37
682.966	8572.63
683.314	8640.65
683.661	8541.44
684.009	8515.45
684.357	8533.53
684.705	8494.66
685.053	8545.28
685.4	8518.62
685.748	8410.6
686.095	8424.61
686.443	8400.65
686.79	8349.13
687.138	8402.24
687.485	8290.83
687.832	8264.61
688.18	8299.64
688.527	8288.12
688.874	8268.45
689.221	8260.32
689.568	8194.78
689.915	8178.29
690.262	8204.73
690.609	8189.13
690.956	8135.13
691.303	8152.75
691.65	8166.76
691.997	8145.29
692.344	8052.42
692.69	7988.01
693.037	8057.16
693.383	7976.26
693.73	7977.62
694.077	7884.51
694.423	7914.34
694.769	7925.87
695.116	7869.14
695.462	7838.41
695.808	7779.65
696.155	7855.58
696.501	7774
696.847	7769.71
697.193	7736.94
697.539	7731.07
697.885	7654.91
698.231	7627.12
698.577	7621.24
698.923	7662.6
699.269	7569.26
699.614	7539.43
699.96	7491.75
700.306	7517.74
700.651	7476.84
700.997	7431.41
701.342	7400
701.688	7395.48
702.033	7414.92
702.379	7350.06
702.724	7322.27
703.069	7323.17
703.415	7242.95
703.76	7306.45
704.105	7306.22
704.45	7298.31
704.795	7164.76
705.14	7188.48
705.485	7160.46
705.83	7160.01
706.175	7159.56
706.52	7102.16
706.865	7071.42
707.209	7070.52
707.554	7034.36
707.899	7067.81
708.243	6978.09
708.588	6994.36
708.932	6901.26
709.277	6920.47
709.621	6908.04
709.966	6885.89
710.31	6916.85
710.654	6836.4
710.998	6846.35
711.342	6882.95
711.687	6847.02
712.031	6846.12
712.375	6762.51
712.719	6767.48
713.063	6781.26
713.407	6838.89
713.75	6714.82
714.094	6757.76
714.438	6708.04
714.782	6733.81
715.125	6699
715.469	6727.48
715.812	6711.43
716.156	6631.44
716.499	6632.34
716.843	6683.86
717.186	6656.97
717.53	6588.27
717.873	6632.57
718.216	6605.67
718.559	6540.14
718.902	6609.06
719.246	6582.17
719.589	6541.95
719.932	6584.43
720.275	6502.85
720.617	6555.51
720.96	6506.47
721.303	6559.57
721.646	6516.41
721.989	6501.72
722.331	6538.56
722.674	6498.33
723.016	6473.47
723.359	6509.41
723.701	6486.35
724.044	6428.5
724.386	6388.05
724.729	6500.82
725.071	6461.04
725.413	6415.85
725.755	6441.16
726.097	6419.46
726.439	6379.47
726.782	6398
727.124	6386.24
727.465	6419.92
727.807	6379.69
728.149	6385.79
728.491	6348.51
728.833	6376.08
729.175	6329.97
729.516	6338.56
729.858	6391.44
730.199	6404.78
730.541	6331.33
730.882	6310.99
731.224	6346.25
731.565	6323.2
731.906	6325.46
732.248	6355.06
732.589	6293.59
732.93	6319.13
733.271	6299.47
733.612	6390.76
733.953	6310.99
734.294	6241.39
734.635	6296.53
734.976	6288.85
735.317	6273.03
735.658	6268.28
735.999	6327.04
736.339	6318.45
736.68	6309.64
737.021	6280.48
737.361	6206.36
737.702	6244.1
738.042	6256.98
738.383	6251.11
738.723	6296.98
739.063	6309.86
739.404	6306.7
739.744	6283.87
740.084	6288.85
740.424	6330.2
740.764	6305.79
741.104	6345.12
741.444	6329.75
741.784	6296.08
742.124	6361.16
742.464	6372.23
742.804	6398.45
743.143	6340.82
743.483	6372.01
743.823	6370.65
744.162	6395.06
744.502	6421.05
744.841	6386.7
745.181	6473.02
745.52	6501.04
745.86	6486.58
746.199	6501.04
746.538	6500.59
746.877	6542.62
747.216	6582.85
747.556	6627.82
747.895	6573.81
748.234	6631.44
748.573	6647.71
748.911	6624.88
749.25	6685.22
749.589	6762.05
749.928	6801.6
750.267	6851.99
750.605	6872.56
750.944	6928.83
751.283	6930.19
751.621	7019
751.96	7014.7
752.298	7059
752.636	7147.58
752.975	7191.2
753.313	7240.91
753.651	7317.29
753.989	7334.47
754.327	7447.91
754.666	7438.42
755.004	7573.78
755.342	7574.91
755.679	7663.27
756.017	7756.6
756.355	7874.11
756.693	7945.98
757.031	8012.87
757.368	8036.82
757.706	8142.13
758.044	8164.5
758.381	8372.41
758.719	8438.17
759.056	8496.92
759.394	8575.57
759.731	8629.8
760.068	8741.21
760.405	8856.91
760.743	8885.39
761.08	8994.31
761.417	9038.38
761.754	9170.35
762.091	9316.34
762.428	9437.69
762.765	9388.65
763.102	9618.48
763.438	9608.98
763.775	9710.9
764.112	9891.92
764.449	9877.68
764.785	9943.67
765.122	10011.01
765.458	10048.3
765.795	10228.63
766.131	10294.39
766.467	10388.63
766.804	10383.2
767.14	10493.26
767.476	10611.44
767.812	10560.37
768.148	10715.4
768.485	10748.16
768.821	10758.33
769.157	10892.11
769.492	10959.01
769.828	10981.15
770.164	10931.66
770.5	10978.44
770.836	11172.56
771.171	11136.85
771.507	11204.2
771.842	11183.18
772.178	11312.67
772.513	11338.2
772.849	11331.43
773.184	11426.34
773.519	11443.29
773.855	11413.46
774.19	11407.13
774.525	11479.44
774.86	11540.91
775.195	11526.45
775.53	11608.93
775.865	11579.1
776.2	11542.72
776.535	11460.46
776.87	11549.27
777.205	11521.02
777.539	11528.93
777.874	11595.6
778.209	11542.49
778.543	11601.47
778.878	11572.32
779.212	11610.74
779.547	11641.7
779.881	11661.36
780.215	11548.59
780.55	11654.58
780.884	11663.62
781.218	11639.67
781.552	11575.03
781.886	11600.12
782.22	11555.83
782.554	11567.13
782.888	11493.68
783.222	11438.09
783.556	11462.27
783.889	11444.42
784.223	11443.29
784.557	11453.68
784.89	11462.04
785.224	11415.04
785.557	11377.53
785.891	11403.74
786.224	11337.75
786.558	11428.82
786.891	11287.36
787.224	11248.49
787.557	11334.14
787.891	11299.79
788.224	11291.43
788.557	11290.3
788.89	11313.57
789.223	11229.73
789.556	11215.27
789.888	11174.59
790.221	11140.24
790.554	11108.61
790.887	11176.18
791.219	11044.65
791.552	10990.64
791.884	10964.2
792.217	11008.5
792.549	10976.18
792.882	10902.06
793.214	10919.91
793.546	10929.4
793.879	10854.15
794.211	10835.62
794.543	10902.51
794.875	10792.68
795.207	10810.76
795.539	10845.34
795.871	10774.38
796.203	10692.35
796.535	10623.2
796.867	10629.3
797.198	10578
797.53	10666.36
797.862	10575.96
798.193	10611.44
798.525	10477.66
798.856	10535.29
799.188	10456.19
799.519	10493.71
799.85	10307.95
800.182	10338.01
800.513	10402.86
800.844	10247.61
801.175	10373.48
801.506	10364.67
801.837	10356.08
802.168	10316.54
802.499	10233.83
802.83	10159.48
803.161	10172.13
803.491	10156.99
803.822	10206.03
804.153	10126.26
804.483	10064.79
804.814	10002.65
805.145	10029.54
805.475	10003.78
805.805	9980.05
806.136	9990.22
806.466	9941.63
806.796	9975.08
807.126	9829.77
807.457	9908.19
807.787	9921.97
808.117	9881.07
808.447	9772.6
808.777	9759.94
809.107	9758.81
809.436	9774.18
809.766	9785.25
810.096	9718.59
810.426	9602.21
810.755	9720.39
811.085	9664.8
811.414	9636.1
811.744	9557.23
812.073	9627.29
812.403	9531.92
812.732	9541.87
813.061	9505.71
813.39	9474.52
813.719	9420.52
814.049	9460.06
814.378	9458.71
814.707	9424.81
815.036	9400.18
815.365	9391.14
815.693	9335.77
816.022	9285.38
816.351	9323.34
816.68	9218.03
817.008	9258.94
817.337	9237.24
817.665	9170.58
817.994	9248.77
818.322	9203.8
818.651	9209.22
818.979	9162.67
819.307	9249.45
819.636	9130.81
819.964	9029.79
820.292	9147.3
820.62	9117.47
820.948	9047.64
821.276	9112.05
821.604	9198.37
821.932	9135.32
822.259	9064.37
822.587	9058.04
822.915	9057.81
823.243	9109.79
823.57	9150.47
823.898	9108.21
824.225	9093.29
824.553	9073.41
824.88	9093.07
825.207	9074.76
825.535	9078.6
825.862	9148.43
826.189	9046.74
826.516	9134.19
826.843	9120.41
827.17	9101.65
827.497	9118.83
827.824	9118.15
828.151	9166.51
828.478	9107.98
828.805	9182.1
829.131	9068.66
829.458	9117.25
829.785	9046.74
830.111	9039.96
830.438	9153.86
830.764	9134.87
831.09	9082.44
831.417	9026.4
831.743	9073.41
832.069	9032.73
832.395	9024.82
832.722	9077.02
833.048	9009.68
833.374	9029.79
833.7	8979.62
834.026	9030.24
834.351	9054.42
834.677	8991.83
835.003	9053.29
835.329	8981.2
835.654	9013.52
835.98	8951.83
836.306	8937.82
836.631	8945.05
836.956	8973.52
837.282	8963.13
837.607	8908.66
837.932	8875.67
838.258	8878.83
838.583	8918.61
838.908	8827.76
839.233	8845.84
839.558	8855.11
839.883	8761.32
840.208	8828.21
840.533	8745.5
840.858	8771.04
841.182	8872.73
841.507	8743.47
841.832	8720.65
842.156	8720.19
842.481	8637.48
842.805	8703.47
843.13	8666.18
843.454	8724.71
843.778	8629.12
844.103	8650.14
844.427	8578.73
844.751	8596.58
845.075	8574.44
845.399	8521.56
845.723	8524.49
846.047	8494.21
846.371	8400.65
846.695	8424.83
847.019	8382.12
847.343	8344.61
847.666	8242.24
847.99	8306.42
848.313	8268
848.637	8190.26
848.96	8212.86
849.284	8136.48
849.607	8109.36
849.931	8100.1
850.254	8060.55
850.577	8028.69
850.9	7969.71
851.223	8004.96
851.546	7945.98
851.869	7892.19
852.192	7940.33
852.515	7842.7
852.838	7847.22
853.161	7780.78
853.483	7758.64
853.806	7706.66
854.129	7753.89
854.451	7667.57
854.774	7634.57
855.096	7650.62
855.419	7644.74
855.741	7620.11
856.063	7557.74
856.385	7523.39
856.708	7553.67
857.03	7483.84
857.352	7474.13
857.674	7448.14
857.996	7449.49
858.318	7424.41
858.64	7348.48
858.961	7391.64
859.283	7340.8
859.605	7390.74
859.926	7319.33
860.248	7310.51
860.57	7390.06
860.891	7343.51
861.212	7262.38
861.534	7237.97
861.855	7218.54
862.176	7188.71
862.498	7214.02
862.819	7217.86
863.14	7147.58
863.461	7136.73
863.782	7128.37
864.103	7140.35
864.424	7093.57
864.745	7122.72
865.065	7081.37
865.386	7099.45
865.707	7054.02
866.027	7044.76
866.348	7055.15
866.668	7043.18
866.989	7031.2
867.309	6975.16
867.63	7031.88
867.95	7000.24
868.27	7006.12
868.59	6971.77
868.91	6970.86
869.23	6939.45
869.55	6904.2
869.87	6937.42
870.19	6902.39
870.51	6968.38
870.83	6858.1
871.15	6830.53
871.469	6839.34
871.789	6850.19
872.109	6809.96
872.428	6803.86
872.748	6830.53
873.067	6854.03
873.386	6851.32
873.706	6834.14
874.025	6694.03
874.344	6812.45
874.663	6781.71
874.982	6784.65
875.301	6757.08
875.62	6751.43
875.939	6732
876.258	6713.69
876.577	6715.95
876.896	6751.88
877.214	6671.43
877.533	6638.89
877.852	6643.19
878.17	6652.45
878.489	6692.45
878.807	6623.75
879.125	6604.32
879.444	6579.46
879.762	6540.59
880.08	6546.92
880.398	6604.09
880.716	6548.05
881.034	6569.29
881.352	6563.41
881.67	6561.61
881.988	6508.05
882.306	6478.67
882.624	6486.58
882.941	6482.29
883.259	6424.21
883.577	6452.46
883.894	6467.6
884.212	6437.54
884.529	6396.87
884.846	6367.04
885.164	6360.03
885.481	6345.79
885.798	6373.14
886.115	6285.23
886.432	6301.73
886.75	6268.28
887.067	6265.12
887.383	6289.75
887.7	6246.36
888.017	6270.32
888.334	6268.28
888.651	6204.1
888.967	6193.03
889.284	6160.04
889.6	6140.83
889.917	6148.06
890.233	6119.36
890.55	6092.69
890.866	6095.86
891.182	6035.29
891.498	6109.64
891.815	6013.6
892.131	6019.02
892.447	6034.62
892.763	6000.94
893.079	6005.92
893.395	5913.71
893.71	5953.71
894.026	5909.19
894.342	5935.41
894.657	5915.07
894.973	5869.42
895.289	5868.97
895.604	5871.23
895.92	5821.29
896.235	5792.14
896.55	5805.47
896.865	5805.24
897.181	5727.73
897.496	5772.25
897.811	5746.04
898.126	5687.96
898.441	5698.58
898.756	5683.44
899.071	5588.07
899.386	5631.91
899.7	5547.4
900.015	5577.68
900.33	5496.55
900.644	5512.82
900.959	5539.26
901.273	5551.01
901.588	5483.9
901.902	5476.89
902.216	5422.2
902.531	5419.04
902.845	5407.06
903.159	5375.65
903.473	5342.88
903.787	5365.93
904.101	5310.34
904.415	5301.3
904.729	5294.75
905.042	5274.41
905.356	5249.55
905.67	5228.08
905.984	5209.33
906.297	5193.73
906.611	5181.3
906.924	5130.68
907.237	5166.62
907.551	5133.17
907.864	5094.08
908.177	5099.72
908.491	5111.25
908.804	5021.31
909.117	4962.55
909.43	4984.93
909.743	4973.17
910.056	4980.63
910.368	4918.49
910.681	4919.62
910.994	4927.07
911.307	4881.65
911.619	4835.78
911.932	4865.15
912.244	4818.6
912.557	4809.56
912.869	4811.14
913.181	4763.91
913.494	4780.64
913.806	4715.78
914.118	4702.22
914.43	4672.62
914.742	4683.24
915.054	4683.69
915.366	4663.13
915.678	4583.35
915.99	4609.34
916.302	4593.98
916.613	4520.76
916.925	4554.43
917.236	4532.73
917.548	4531.6
917.859	4525.73
918.171	4458.84
918.482	4502.23
918.794	4441.89
919.105	4444.83
919.416	4393.53
919.727	4423.58
920.038	4432.4
920.349	4379.07
920.66	4357.37
920.971	4382.91
921.282	4329.35
921.593	4301.33
921.903	4309.91
922.214	4316.69
922.525	4257.03
922.835	4213.87
923.146	4224.04
923.456	4199.86
923.767	4205.74
924.077	4195.79
924.387	4158.51
924.697	4148.79
925.008	4142.01
925.318	4117.38
925.628	4109.92
925.938	4109.24
926.248	4102.69
926.558	4041.22
926.867	4033.54
927.177	3990.38
927.487	3956.25
927.796	3944.05
928.106	3946.08
928.416	3932.07
928.725	3939.08
929.034	3896.82
929.344	3893.65
929.653	3874.9
929.962	3879.19
930.271	3837.84
930.581	3815.01
930.89	3826.99
931.199	3812.53
931.508	3797.84
931.817	3823.6
932.125	3734.56
932.434	3757.61
932.743	3712.64
933.051	3700.44
933.36	3671.74
933.669	3690.04
933.977	3684.17
934.286	3680.78
934.594	3668.58
934.902	3607.56
935.21	3595.58
935.519	3584.06
935.827	3542.93
936.135	3580.44
936.443	3540.22
936.751	3538.41
937.059	3549.03
937.367	3519.2
937.674	3521.46
937.982	3495.47
938.29	3458.86
938.597	3517.85
938.905	3459.54
939.213	3446.21
939.52	3394.46
939.827	3417.06
940.135	3405.08
940.442	3380.67
940.749	3381.58
941.056	3372.09
941.363	3329.83
941.67	3277.85
941.977	3318.53
942.284	3276.27
942.591	3296.16
942.898	3265.2
943.205	3269.04
943.511	3269.94
943.818	3213.67
944.125	3196.5
944.431	3200.11
944.738	3218.64
945.044	3172.54
945.35	3152.88
945.657	3128.25
945.963	3134.8
946.269	3134.8
946.575	3119.89
946.881	3120.79
947.187	3061.36
947.493	3075.37
947.799	3073.79
948.105	3016.16
948.41	3026.56
948.716	2994.02
949.022	3026.11
949.327	3044.64
949.633	2992.44
949.938	2965.32
950.244	2957.18
950.549	2940.91
950.854	2928.93
951.16	2906.34
951.465	2923.74
951.77	2902.95
952.075	2894.58
952.38	2859.11
952.685	2921.7
952.99	2846.45
953.294	2841.7
953.599	2836.51
953.904	2828.15
954.209	2773.91
954.513	2809.39
954.818	2804.42
955.122	2794.02
955.426	2760.8
955.731	2746.57
956.035	2756.06
956.339	2709.73
956.643	2723.29
956.948	2716.96
957.252	2690.97
957.556	2676.74
957.86	2678.09
958.163	2681.48
958.467	2658.66
958.771	2648.04
959.075	2675.16
959.378	2595.38
959.682	2617.98
959.985	2586.34
960.289	2597.64
960.592	2572.79
960.896	2582.95
961.199	2533.69
961.502	2543.86
961.805	2550.19
962.108	2534.37
962.411	2513.35
962.714	2487.59
963.017	2490.75
963.32	2544.76
963.623	2481.49
963.926	2458.89
964.228	2484.43
964.531	2455.05
964.833	2462.73
965.136	2408.95
965.438	2456.18
965.741	2420.25
966.043	2390.87
966.345	2403.75
966.648	2416.86
966.95	2405.78
967.252	2337.09
967.554	2367.14
967.856	2339.12
968.158	2337.99
968.46	2331.44
968.761	2325.56
969.063	2290.31
969.365	2296.18
969.666	2304.32
969.968	2276.3
970.269	2251.89
970.571	2288.5
970.872	2251.44
971.174	2198.11
971.475	2226.13
971.776	2224.55
972.077	2206.24
972.378	2235.39
972.679	2186.13
972.98	2169.41
973.281	2215.73
973.582	2179.8
973.883	2153.81
974.183	2143.64
974.484	2112.23
974.785	2138.67
975.085	2126.47
975.386	2130.09
975.686	2099.13
975.986	2089.41
976.287	2074.04
976.587	2072.23
976.887	2063.65
977.187	2071.78
977.487	2084.44
977.787	2036.98
978.087	2024.78
978.387	2010.09
978.687	2003.99
978.987	2025.91
979.286	2017.55
979.586	1983.42
979.885	1948.62
980.185	1963.76
980.484	1972.58
980.784	1971.67
981.083	1945.46
981.382	1948.17
981.682	1945.23
981.981	1929.19
982.28	1945.01
982.579	1917.66
982.878	1923.54
983.177	1897.55
983.475	1912.69
983.774	1891.9
984.073	1862.97
984.372	1878.34
984.67	1859.81
984.969	1868.62
985.267	1856.19
985.566	1861.84
985.864	1860.04
986.162	1849.64
986.461	1828.17
986.759	1795.63
987.057	1802.41
987.355	1794.73
987.653	1791.34
987.951	1816.42
988.249	1763.77
988.547	1782.98
988.844	1758.57
989.142	1735.52
989.44	1722.64
989.737	1752.69
990.035	1716.08
990.332	1737.33
990.63	1732.58
990.927	1705.24
991.224	1707.05
991.521	1707.27
991.819	1667.72
992.116	1691.45
992.413	1695.75
992.71	1653.94
993.006	1643.54
993.303	1656.2
993.6	1664.33
993.897	1643.77
994.193	1609.19
994.49	1630.21
994.787	1613.26
995.083	1595.64
995.379	1593.6
995.676	1589.76
995.972	1575.75
996.268	1590.89
996.565	1574.62
996.861	1574.85
997.157	1593.83
997.453	1571
997.749	1553.83
998.044	1544.34
998.34	1546.15
998.636	1543.21
998.932	1511.12
999.227	1499.37
999.523	1509.99
999.818	1480.84
1000.114	1492.81
1000.409	1507.5
1000.704	1462.53
1001	1481.74
1001.295	1470.89
1001.59	1453.94
1001.885	1453.04
1002.18	1424.12
1002.475	1448.52
1002.77	1429.99
1003.065	1404
1003.359	1417.79
1003.654	1412.59
1003.949	1412.36
1004.243	1357.9
1004.538	1385.47
1004.832	1371.69
1005.127	1368.3
1005.421	1340.73
1005.715	1367.85
1006.009	1363.78
1006.304	1335.08
1006.598	1325.81
1006.892	1328.52
1007.186	1324.91
1007.48	1344.8
1007.773	1302.54
1008.067	1294.85
1008.361	1258.92
1008.655	1313.61
1008.948	1288.98
1009.242	1270.45
1009.535	1252.14
1009.829	1262.31
1010.122	1260.28
1010.415	1262.54
1010.708	1263.89
1011.001	1211.69
1011.295	1242.42
1011.588	1221.63
1011.881	1171.47
1012.173	1182.09
1012.466	1218.47
1012.759	1192.93
1013.052	1190.45
1013.344	1204.46
1013.637	1198.81
1013.93	1157.46
1014.222	1186.16
1014.514	1160.85
1014.807	1167.4
1015.099	1121.98
1015.391	1164.23
1015.683	1163.56
1015.976	1134.41
1016.268	1146.16
1016.56	1119.26
1016.851	1114.07
1017.143	1121.52
1017.435	1098.93
1017.727	1080.4
1018.018	1077.68
1018.31	1080.17
1018.602	1078.59
1018.893	1073.39
1019.185	1072.26
1019.476	1032.49
1019.767	1044.46
1020.058	1043.11
1020.35	1040.4
1020.641	1018.48
1020.932	1012.37
1021.223	1024.13
1021.514	998.82
1021.804	981.41
1022.095	1018.48
1022.386	969.66
1022.677	973.51
1022.967	972.15
1023.258	995.2
1023.548	978.7
1023.839	952.26
1024.129	954.75
1024.419	964.01
1024.709	955.2
1025	952.72
1025.29	927.63
1025.58	919.5
1025.87	925.6
1026.16	913.39
1026.449	914.98
1026.739	905.03
1027.029	902.32
1027.319	900.29
1027.608	909.78
1027.898	886.05
1028.187	890.12
1028.477	885.15
1028.766	879.27
1029.055	875.2
1029.344	883.34
1029.634	863.9
1029.923	833.17
1030.212	857.8
1030.501	842.21
1030.79	826.84
1031.078	847.18
1031.367	824.13
1031.656	819.61
1031.945	824.36
1032.233	844.7
1032.522	823.68
1032.81	796.33
1033.099	787.52
1033.387	792.49
1033.675	811.02
1033.963	797.46
1034.251	797.24
1034.54	768.09
1034.828	816
1035.116	771.02
1035.403	780.52
1035.691	790.91
1035.979	770.57
1036.267	765.6
1036.554	744.58
1036.842	754.75
1037.129	764.7
1037.417	752.72
1037.704	735.32
1037.992	750.69
1038.279	736.45
1038.566	724.25
1038.853	724.25
1039.14	724.25
