Data from hue_24_FLMS001491_00020.txt Node
Date: Tue Feb 07 17:11:52 GMT 2017
User: dcchb
Spectrometer: FLMS00149
Trigger mode: 0
Integration Time (sec): 2.000000E-2
Scans to average: 10
Electric dark correction enabled: true
Nonlinearity correction enabled: false
Boxcar width: 0
XAxis mode: Wavelengths
Number of Pixels in Spectrum: 2048
>>>>>Begin Spectral Data<<<<<
341.393	-8.69
341.776	-8.69
342.16	-8.69
342.543	-67.89
342.927	-83.26
343.31	-60.66
343.693	-62.92
344.077	-54.79
344.46	-55.24
344.843	-57.72
345.226	-50.27
345.61	-45.97
345.993	-24.96
346.376	-27.44
346.759	19.79
347.142	36.28
347.525	61.37
347.908	58.2
348.291	62.95
348.674	92.1
349.057	109.28
349.44	129.84
349.823	149.73
350.206	154.47
350.588	189.27
350.971	217.75
351.354	246.9
351.737	240.57
352.119	266.11
352.502	258.88
352.884	279.67
353.267	283.51
353.65	305.88
354.032	302.04
354.414	310.18
354.797	314.7
355.179	328.25
355.562	330.51
355.944	304.3
356.326	324.41
356.709	336.62
357.091	337.07
357.473	337.97
357.855	339.78
358.238	338.65
358.62	356.95
359.002	359.44
359.384	341.36
359.766	334.13
360.148	328.71
360.53	344.3
360.912	365.77
361.294	349.5
361.676	347.24
362.057	331.64
362.439	326.45
362.821	321.7
363.203	339.55
363.584	321.7
363.966	340.23
364.348	335.26
364.729	324.19
365.111	352.21
365.493	320.12
365.874	321.25
366.256	330.29
366.637	306.11
367.019	309.05
367.4	332.77
367.781	313.57
368.163	338.65
368.544	333.9
368.925	325.09
369.306	310.85
369.688	325.32
370.069	322.38
370.45	317.86
370.831	319.89
371.212	316.5
371.593	329.61
371.974	325.09
372.355	307.69
372.736	332.77
373.117	326.45
373.498	326.45
373.879	337.75
374.26	325.99
374.641	315.15
375.021	334.36
375.402	331.19
375.783	328.71
376.163	337.75
376.544	345.88
376.925	349.5
377.305	334.58
377.686	322.83
378.066	322.6
378.447	332.1
378.827	354.92
379.208	342.04
379.588	309.5
379.968	322.15
380.349	356.73
380.729	360.34
381.109	346.56
381.489	343.39
381.87	332.32
382.25	346.11
382.63	340.68
383.01	353.34
383.39	330.06
383.77	328.71
384.15	342.94
384.53	364.86
384.91	360.8
385.29	375.94
385.67	349.27
386.049	359.21
386.429	358.08
386.809	353.56
387.189	384.52
387.568	373.22
387.948	359.21
388.328	382.04
388.707	368.03
389.087	397.86
389.466	385.88
389.846	377.07
390.225	381.81
390.605	383.62
390.984	388.14
391.363	363.51
391.743	363.51
392.122	381.13
392.501	379.55
392.881	392.66
393.26	391.3
393.639	402.6
394.018	415.48
394.397	378.42
394.776	388.82
395.155	406.44
395.534	371.42
395.913	383.39
396.292	415.03
396.671	414.13
397.05	416.39
397.429	401.92
397.808	395.14
398.186	410.74
398.565	406.9
398.944	384.52
399.323	405.09
399.701	391.53
400.08	422.26
400.458	411.42
400.837	411.87
401.215	415.94
401.594	429.04
401.972	411.64
402.351	445.77
402.729	424.97
403.107	441.7
403.486	435.14
403.864	444.41
404.242	437.4
404.62	434.24
404.999	438.08
405.377	449.15
405.755	427.46
406.133	444.18
406.511	461.58
406.889	439.66
407.267	445.77
407.645	454.35
408.023	449.61
408.401	472.88
408.779	464.07
409.156	478.53
409.534	481.24
409.912	481.7
410.29	468.82
410.667	482.15
411.045	474.01
411.422	482.83
411.8	506.78
412.178	489.38
412.555	498.19
412.933	489.83
413.31	514.69
413.687	503.39
414.065	517.4
414.442	509.04
414.819	507.68
415.197	498.87
415.574	523.05
415.951	513.33
416.328	516.05
416.705	529.6
417.082	525.31
417.46	537.29
417.837	528.93
418.214	538.64
418.591	552.43
418.967	535.03
419.344	552.2
419.721	558.98
420.098	566.89
420.475	548.14
420.852	549.94
421.228	562.37
421.605	571.64
421.982	565.99
422.358	587.91
422.735	599.89
423.111	589.94
423.488	583.39
423.864	594.24
424.241	592.65
424.617	578.42
424.994	611.64
425.37	599.43
425.746	598.3
426.123	611.18
426.499	640.56
426.875	621.58
427.251	623.39
427.627	635.36
428.003	650.96
428.379	646.44
428.756	648.02
429.132	665.65
429.507	662.03
429.883	681.92
430.259	683.95
430.635	681.24
431.011	670.39
431.387	691.41
431.763	693.22
432.138	723.27
432.514	695.48
432.89	712.65
433.265	716.94
433.641	733.89
434.016	750.16
434.392	732.09
434.767	742.93
435.143	742.25
435.518	765.53
435.894	740.9
436.269	759.2
436.644	742.03
437.02	757.85
437.395	785.19
437.77	791.52
438.145	773.67
438.52	817.73
438.895	816.83
439.271	830.39
439.646	800.11
440.021	834
440.395	848.24
440.77	809.37
441.145	831.07
441.52	858.64
441.895	849.6
442.27	895.7
442.645	864.29
443.019	874.45
443.394	845.3
443.769	880.33
444.143	860.22
444.518	879.2
444.892	897.5
445.267	876.04
445.641	888.69
446.016	891.86
446.39	907.45
446.764	908.8
447.139	911.06
447.513	918.97
447.887	931.4
448.262	918.3
448.636	923.49
449.01	953.77
449.384	943.38
449.758	977.5
450.132	962.59
450.506	983.83
450.88	972.3
451.254	974.34
451.628	1002.59
452.002	1006.65
452.376	989.93
452.75	1017.73
453.123	1012.3
453.497	1025.41
453.871	1028.57
454.244	1061.34
454.618	1095.24
454.992	1081.23
455.365	1073.09
455.739	1097.5
456.112	1109.02
456.486	1119.87
456.859	1147.89
457.232	1116.93
457.606	1147.22
457.979	1165.29
458.352	1182.02
458.725	1192.86
459.099	1183.82
459.472	1199.87
459.845	1236.25
460.218	1241.45
460.591	1273.77
460.964	1262.92
461.337	1295.01
461.71	1326.65
462.083	1311.96
462.456	1322.58
462.829	1308.57
463.201	1339.3
463.574	1349.92
463.947	1358.51
464.32	1389.47
464.692	1376.81
465.065	1403.48
465.438	1440.99
465.81	1436.47
466.183	1458.17
466.555	1475.12
466.928	1505.85
467.3	1519.86
467.672	1515.12
468.045	1557.83
468.417	1569.35
468.789	1563.02
469.161	1603.93
469.534	1650.71
469.906	1678.5
470.278	1685.96
470.65	1708.78
471.022	1716.92
471.394	1742.45
471.766	1752.4
472.138	1805.73
472.51	1827.65
472.882	1851.83
473.253	1867.2
473.625	1889.12
473.997	1977.25
474.369	1942
474.74	1989.68
475.112	2012.73
475.484	2072.39
475.855	2100.41
476.227	2092.05
476.598	2175.89
476.97	2172.5
477.341	2224.02
477.713	2249.33
478.084	2301.08
478.455	2360.29
478.827	2410.91
479.198	2459.5
479.569	2481.64
479.94	2522.55
480.311	2579.49
480.682	2621.08
481.053	2649.77
481.424	2765.03
481.795	2757.34
482.166	2830.79
482.537	2889.09
482.908	2922.54
483.279	2969.54
483.65	3047.73
484.021	3064.68
484.391	3144
484.762	3181.74
485.133	3200.95
485.503	3265.8
485.874	3375.41
486.244	3376.76
486.615	3449.08
486.985	3531.33
487.356	3551.22
487.726	3600.48
488.097	3653.14
488.467	3721.61
488.837	3806.13
489.207	3878.44
489.578	3953.92
489.948	3981.04
490.318	4005.9
490.688	4081.83
491.058	4110.3
491.428	4202.73
491.798	4211.32
492.168	4308.71
492.538	4362.72
492.908	4363.4
493.278	4430.75
493.648	4461.48
494.017	4540.57
494.387	4574.7
494.757	4605.66
495.126	4676.84
495.496	4750.96
495.866	4765.88
496.235	4796.39
496.605	4854.91
496.974	4883.39
497.344	4950.05
497.713	4980.56
498.082	5008.13
498.452	5025.76
498.821	5098.07
499.19	5103.5
499.559	5126.77
499.928	5204.06
500.298	5229.59
500.667	5287.9
501.036	5278.18
501.405	5384.62
501.774	5343.72
502.143	5457.84
502.512	5436.82
502.88	5460.55
503.249	5468.46
503.618	5544.16
503.987	5502.81
504.356	5624.84
504.724	5625.97
505.093	5677.04
505.462	5675.68
505.83	5739.86
506.199	5738.06
506.567	5805.17
506.936	5813.08
507.304	5918.39
507.672	5908.67
508.041	5921.33
508.409	5972.63
508.777	5975.11
509.145	6068.44
509.514	6049.46
509.882	6149.57
510.25	6111.6
510.618	6159.97
510.986	6169
511.354	6189.34
511.722	6301.88
512.09	6340.3
512.458	6274.99
512.826	6369.9
513.193	6353.86
513.561	6363.35
513.929	6405.16
514.297	6485.15
514.664	6551.37
515.032	6502.33
515.4	6533.97
515.767	6613.51
516.135	6607.86
516.502	6599.95
516.869	6718.37
517.237	6731.7
517.604	6702.55
517.972	6750.01
518.339	6775.99
518.706	6773.28
519.073	6867.97
519.44	6892.83
519.808	6938.93
520.175	6927.63
520.542	6988.87
520.909	7031.35
521.276	7044.69
521.643	7090.56
522.009	7102.54
522.376	7171.46
522.743	7244.91
523.11	7246.26
523.477	7342.98
523.843	7306.15
524.21	7444
524.577	7495.3
524.943	7485.35
525.31	7530.1
525.676	7596.99
526.043	7528.74
526.409	7656.2
526.776	7711.11
527.142	7780.94
527.508	7795.63
527.874	7820.94
528.241	7862.29
528.607	7931.22
528.973	7896.42
529.339	7970.31
529.705	8066.13
530.071	8116.52
530.437	8187.48
530.803	8203.75
531.169	8268.16
531.535	8245.33
531.901	8288.27
532.267	8293.24
532.632	8316.97
532.998	8430.64
533.364	8435.61
533.73	8506.8
534.095	8548.38
534.461	8555.61
534.826	8570.75
535.192	8634.25
535.557	8708.15
535.923	8696.17
536.288	8689.84
536.653	8810.52
537.019	8778.88
537.384	8804.64
537.749	8909.72
538.114	8875.15
538.479	8889.84
538.845	8939.55
539.21	8874.47
539.575	8971.87
539.94	8963.28
540.305	9099.1
540.67	9066.1
541.034	9136.84
541.399	9172.99
541.764	9139.55
542.129	9208.92
542.494	9282.14
542.858	9289.83
543.223	9349.26
543.587	9378.86
543.952	9428.58
544.316	9464.51
544.681	9429.94
545.045	9488.47
545.41	9527.79
545.774	9582.25
546.138	9534.57
546.503	9613.89
546.867	9700.44
547.231	9747.22
547.595	9738.18
547.959	9769.81
548.324	9761.45
548.688	9737.27
549.052	9875.35
549.416	9908.57
549.779	9932.52
550.143	10008.9
550.507	9986.76
550.871	10067.21
551.235	10075.79
551.599	10099.07
551.962	10123.02
552.326	10157.37
552.689	10179.07
553.053	10244.83
553.417	10146.53
553.78	10363.02
554.143	10266.75
554.507	10333.87
554.87	10383.58
555.234	10494.31
555.597	10495.9
555.96	10517.82
556.323	10533.18
556.686	10505.84
557.05	10539.96
557.413	10616.8
557.776	10698.38
558.139	10730.24
558.502	10733.63
558.865	10718.26
559.228	10807.75
559.59	10910.12
559.953	10890.69
560.316	10950.35
560.679	10982.66
561.041	11041.19
561.404	11088.42
561.767	11157.12
562.129	11079.61
562.492	11192.15
562.854	11174.97
563.217	11245.48
563.579	11295.2
563.941	11340.62
564.304	11351.02
564.666	11418.81
565.028	11450
565.39	11507.4
565.753	11612.7
566.115	11609.99
566.477	11653.15
566.839	11681.4
567.201	11769.31
567.563	11784.68
567.925	11797.33
568.287	11827.16
568.648	11862.87
569.01	11939.02
569.372	12001.17
569.734	12013.6
570.095	12082.75
570.457	12163.88
570.819	12217.21
571.18	12209.75
571.542	12328.62
571.903	12289.97
572.265	12378.56
572.626	12432.34
572.987	12478.22
573.349	12523.87
573.71	12530.19
574.071	12659.46
574.432	12660.59
574.794	12742.16
575.155	12841.37
575.516	12821.71
575.877	12909.17
576.238	13023.74
576.599	13065.32
576.96	13173.11
577.32	13257.41
577.681	13363.84
578.042	13375.82
578.403	13547.57
578.763	13608.36
579.124	13655.59
579.485	13818.52
579.845	13957.05
580.206	14024.17
580.566	14052.19
580.927	14201.34
581.287	14402.46
581.648	14520.88
582.008	14740.76
582.368	14800.64
582.728	15060.3
583.089	15167.64
583.449	15329.44
583.809	15421.19
584.169	15640.85
584.529	15795.19
584.889	16029.31
585.249	16139.59
585.609	16460.26
585.969	16613.02
586.329	16747.03
586.688	17012.79
587.048	17321.93
587.408	17408.48
587.768	17676.05
588.127	17959.88
588.487	18227.22
588.846	18533.88
589.206	18583.37
589.565	18910.14
589.925	19378.6
590.284	19506.73
590.643	19748.31
591.003	20088.64
591.362	20366.82
591.721	20617.89
592.08	20919.58
592.44	21262.39
592.799	21480.69
593.158	21784.87
593.517	22071.41
593.876	22411.29
594.235	22682.69
594.593	23001.56
594.952	23229.8
595.311	23543.01
595.67	23805.15
596.029	24337.11
596.387	24629.99
596.746	24960.15
597.104	25148.39
597.463	25392.23
597.822	25860.01
598.18	26043.06
598.538	26260.23
598.897	26772.98
599.255	26857.95
599.613	27553.07
599.972	27697.93
600.33	28035.55
600.688	28251.81
601.046	28619.49
601.404	28912.14
601.762	29262.41
602.12	29643.64
602.478	29981.03
602.836	30093.12
603.194	30250.18
603.552	30602.03
603.91	30850.16
604.268	31319.3
604.625	31385.52
604.983	31903.7
605.341	31890.36
605.698	32379.16
606.056	32641.08
606.413	32965.14
606.771	33126.26
607.128	33508.17
607.485	33566.25
607.843	33840.14
608.2	34256.4
608.557	34577.97
608.914	34700.46
609.272	34988.13
609.629	35339.54
609.986	35577.72
610.343	35662.69
610.7	36214.99
611.057	36268.78
611.414	36465.38
611.771	36753.29
612.127	36945.14
612.484	37218.13
612.841	37388.75
613.198	37468.07
613.554	37623.09
613.911	37924.1
614.267	38198.22
614.624	38183.3
614.98	38483.64
615.337	38769.5
615.693	38881.82
616.05	38971.31
616.406	39241.58
616.762	39430.05
617.118	39412.2
617.475	39744.84
617.831	39950.94
618.187	40117.49
618.543	40187.77
618.899	40474.77
619.255	40710.7
619.611	40684.03
619.967	40906.62
620.323	41146.62
620.678	41082.21
621.034	41125.6
621.39	41309.1
621.746	41361.75
622.101	41966.48
622.457	41512.71
622.812	41684.68
623.168	41926.93
623.523	42101.62
623.879	42184.1
624.234	42079.47
624.589	42298
624.945	42455.96
625.3	42529.18
625.655	42502.96
626.01	42708.61
626.365	42742.73
626.72	42781.6
627.075	42890.75
627.43	42860.7
627.785	42874.93
628.14	43089.62
628.495	43271.98
628.85	43237.41
629.205	43092.78
629.559	43288.03
629.914	43247.35
630.269	43287.12
630.623	43252.32
630.978	43219.78
631.332	43436.5
631.687	43587.91
632.041	43262.27
632.396	43516.72
632.75	43388.82
633.104	43455.93
633.459	43435.37
633.813	43405.77
634.167	43460.23
634.521	43505.42
634.875	43618.64
635.229	43716.27
635.583	43593.56
635.937	43474.92
636.291	43396.73
636.645	43604.63
636.999	43424.3
637.352	43599.43
637.706	43417.52
638.06	43540.45
638.413	43560.34
638.767	43375.48
639.121	43669.49
639.474	43344.52
639.828	43486.22
640.181	43497.29
640.534	43617.96
640.888	43527.12
641.241	43296.39
641.594	43310.63
641.947	43390.17
642.301	43400.34
642.654	43380
643.007	43518.53
643.36	43511.98
643.713	43419.32
644.066	43557.63
644.419	43247.8
644.771	43085.77
645.124	42780.47
645.477	42730.53
645.83	42469.29
646.182	42384.1
646.535	42164.22
646.888	42338.9
647.24	42120.6
647.593	42332.8
647.945	42224.33
648.298	42011.45
648.65	41928.52
649.002	42051.9
649.355	42105.46
649.707	42220.26
650.059	42326.47
650.411	42782.73
650.763	42671.77
651.115	43273.34
651.467	43039.22
651.819	42947.25
652.171	42941.82
652.523	42926.68
652.875	42936.4
653.227	42651.21
653.578	43022.5
653.93	42891.43
654.282	42794.26
654.633	42696.86
654.985	42871.54
655.337	42861.6
655.688	42959
656.039	42994.25
656.391	42742.51
656.742	42809.4
657.094	42848.94
657.445	42852.79
657.796	42820.7
658.147	42784.99
658.498	42683.52
658.849	42707.93
659.2	42786.8
659.551	42728.04
659.902	42781.38
660.253	42770.3
660.604	42754.48
660.955	42471.55
661.306	42773.47
661.656	42723.07
662.007	42703.19
662.358	42536.41
662.708	42566.47
663.059	42760.81
663.409	42336.87
663.76	42649.4
664.11	42573.02
664.461	42743.18
664.811	42677.42
665.161	42630.64
665.511	42461.61
665.862	42581.61
666.212	42654.82
666.562	42625.9
666.912	42476.98
667.262	42520.59
667.612	42619.12
667.962	42609.18
668.312	42550.87
668.662	42842.84
669.011	42622.51
669.361	42564.88
669.711	42504.32
670.06	42435.17
670.41	42460.48
670.76	42467.26
671.109	42532.34
671.459	42346.58
671.808	42191.56
672.157	42407.83
672.507	42275.4
672.856	42181.62
673.205	42110.88
673.554	42467.94
673.904	42271.11
674.253	42352.91
674.602	42324.44
674.951	41658.47
675.3	41577.11
675.649	42081.73
675.998	42180.49
676.346	42134.84
676.695	42216.42
677.044	41960.38
677.393	42126.7
677.741	42199.24
678.09	42128.96
678.438	41902.98
678.787	42107.72
679.135	42069.76
679.484	41879.03
679.832	42075.86
680.181	41804.23
680.529	41825.69
680.877	41854.17
681.225	41659.82
681.573	41732.14
681.922	41617.11
682.27	41474.74
682.618	41557.45
682.966	41377.12
683.314	41522.88
683.661	41355.2
684.009	41138.25
684.357	41087.63
684.705	41164.92
685.053	41103
685.4	41008.54
685.748	40824.59
686.095	40927.19
686.443	40630.47
686.79	40655.1
687.138	40783.46
687.485	40693.75
687.832	40719.96
688.18	40687.64
688.527	40462.34
688.874	40443.36
689.221	40295.79
689.568	40310.93
689.915	40196.13
690.262	40211.05
690.609	40079.3
690.956	39868.46
691.303	39957.04
691.65	39691.74
691.997	39779.65
692.344	39559.54
692.69	39316.38
693.037	39496.26
693.383	39030.74
693.73	39289.72
694.077	39093.79
694.423	39016.28
694.769	38982.38
695.116	38923.62
695.462	38777.41
695.808	38593.69
696.155	38782.16
696.501	38475.27
696.847	38609.06
697.193	38263.75
697.539	38433.69
697.885	38146.02
698.231	38042.52
698.577	38139.92
698.923	37950.09
699.269	37696.31
699.614	37577.9
699.96	37656.99
700.306	37581.51
700.651	37459.26
700.997	37366.6
701.342	37270.79
701.688	37385.81
702.033	37118.02
702.379	37144.24
702.724	36958.25
703.069	37097
703.415	36788.99
703.76	36699.95
704.105	36684.81
704.45	36619.5
704.795	36481.2
705.14	36326.18
705.485	36226.52
705.83	36200.31
706.175	36262.45
706.52	36076.01
706.865	35954.21
707.209	35875.79
707.554	35786.76
707.899	35925.74
708.243	35535.92
708.588	35533.2
708.932	35281.91
709.277	35362.36
709.621	35332.31
709.966	35058.87
710.31	35097.28
710.654	34839.89
710.998	35048.47
711.342	34950.62
711.687	34683.28
712.031	34682.83
712.375	34670.63
712.719	34613
713.063	34599.9
713.407	34750.4
713.75	34568.03
714.094	34396.28
714.438	34391.54
714.782	34404.65
715.125	34248.94
715.469	34247.14
715.812	34116.97
716.156	33892.8
716.499	33947.26
716.843	33997.2
717.186	33633.14
717.53	33939.57
717.873	33876.75
718.216	33907.48
718.559	33702.52
718.902	33458.23
719.246	33639.47
719.589	33406.48
719.932	33199.71
720.275	33233.6
720.617	33331.23
720.96	33240.38
721.303	33053.27
721.646	33153.61
721.989	32971.24
722.331	33095.3
722.674	32892.6
723.016	32864.35
723.359	32920.84
723.701	32763.33
724.044	32698.93
724.386	32536.45
724.729	32742.32
725.071	32505.71
725.413	32626.61
725.755	32432.95
726.097	32413.74
726.439	32327.19
726.782	32252.16
727.124	32353.85
727.465	32202.9
727.807	32097.59
728.149	32185.95
728.491	31999.06
728.833	31993.64
729.175	32054.2
729.516	32113.18
729.858	31908.67
730.199	31949.12
730.541	31936.01
730.882	31781.21
731.224	31707.54
731.565	31604.95
731.906	31620.99
732.248	31662.12
732.589	31485.4
732.93	31456.02
733.271	31495.34
733.612	31505.74
733.953	31406.31
734.294	31350.04
734.635	31267.55
734.976	31157.5
735.317	31077.95
735.658	30996.37
735.999	31058.52
736.339	31078.41
736.68	31090.84
737.021	31054.23
737.361	30939.65
737.702	30980.1
738.042	30928.81
738.383	30897.62
738.723	30874.8
739.063	30624.41
739.404	30745.99
739.744	30786.21
740.084	30547.12
740.424	30511.19
740.764	30560.91
741.104	30579.89
741.444	30473.68
741.784	30324.75
742.124	30445.65
742.464	30531.75
742.804	30168.15
743.143	30127.02
743.483	30263.51
743.823	30059.22
744.162	30099.45
744.502	30104.65
744.841	30144.19
745.181	30127.92
745.52	30032.33
745.86	30140.13
746.199	29975.61
746.538	29972.67
746.877	29883.64
747.216	29763.19
747.556	29748.27
747.895	29851.55
748.234	29614.72
748.573	29596.64
748.911	29577.43
749.25	29525.68
749.589	29410.2
749.928	29483.19
750.267	29537.88
750.605	29418.79
750.944	29458.79
751.283	29406.13
751.621	29341.5
751.96	29195.74
752.298	29165.69
752.636	29077.1
752.975	29120.49
753.313	28981.29
753.651	29111.9
753.989	28876.88
754.327	28797.11
754.666	28782.42
755.004	28880.27
755.342	28764.79
755.679	28676.44
756.017	28536.33
756.355	28598.25
756.693	28464.24
757.031	28505.59
757.368	28245.71
757.706	28289.78
758.044	28271.25
758.381	28270.34
758.719	28066.28
759.056	28208.88
759.394	28090.01
759.731	27857.7
760.068	27814.31
760.405	27777.48
760.743	27711.71
761.08	27730.7
761.417	27532.74
761.754	27464.72
762.091	27442.8
762.428	27481.44
762.765	27216.59
763.102	27398.73
763.438	27243.48
763.775	27026.76
764.112	27223.82
764.449	27062.69
764.785	27003.48
765.122	26720.1
765.458	26689.59
765.795	26671.06
766.131	26653.44
766.467	26579.09
766.804	26410.05
767.14	26240.79
767.476	26302.49
767.812	26185.65
768.148	26187.69
768.485	25946.34
768.821	25903.63
769.157	25895.49
769.492	25703.63
769.828	25671.77
770.164	25434.71
770.5	25415.05
770.836	25397.43
771.171	25361.49
771.507	25198.33
771.842	25011.22
772.178	25035.85
772.513	25032.24
772.849	24906.14
773.184	24840.15
773.519	24790.89
773.855	24675.18
774.19	24519.26
774.525	24478.81
774.86	24456.66
775.195	24476.77
775.53	24314.97
775.865	24199.04
776.2	23936.9
776.535	23893.28
776.87	23875.88
777.205	23813.51
777.539	23746.4
777.874	23691.71
778.209	23505.72
778.543	23481.77
778.878	23331.94
779.212	23288.55
779.547	23189.57
779.881	23211.27
780.215	23048.56
780.55	23147.77
780.884	22917.72
781.218	22943.93
781.552	22813.31
781.886	22684.73
782.22	22559.08
782.554	22448.12
782.888	22359.31
783.222	22266.43
783.556	22176.72
783.889	22115.03
784.223	21919.32
784.557	21983.05
784.89	21983.05
785.224	21852.21
785.557	21653.12
785.891	21659.67
786.224	21514.82
786.558	21528.15
786.891	21365.89
787.224	21271.21
787.557	21246.35
787.891	21327.93
788.224	21165.67
788.557	21213.58
788.89	21113.47
789.223	20914.38
789.556	20903.53
789.888	20781.73
790.221	20809.75
790.554	20607.95
790.887	20608.4
791.219	20516.65
791.552	20511.9
791.884	20344.9
792.217	20384.9
792.549	20266.26
792.882	20223.1
793.214	20089.99
793.546	20213.38
793.879	19982.43
794.211	19814.97
794.543	20017.91
794.875	19831.02
795.207	19881.41
795.539	19770
795.871	19666.5
796.203	19542.66
796.535	19413.63
796.867	19448.43
797.198	19297.92
797.53	19340.18
797.862	19119.85
798.193	19234.88
798.525	19048.21
798.856	19092.51
799.188	18931.83
799.519	18842.12
799.85	18797.37
800.182	18777.03
800.513	18729.58
800.844	18545.4
801.175	18642.35
801.506	18617.04
801.837	18535.68
802.168	18441.9
802.499	18304.05
802.83	18268.12
803.161	18215.02
803.491	18181.34
803.822	18250.49
804.153	18110.39
804.483	18007.79
804.814	17985.19
805.145	17945.64
805.475	17843.27
805.805	17839.43
806.136	17798.08
806.466	17811.18
806.796	17779.77
807.126	17563.73
807.457	17564.41
807.787	17501.81
808.117	17539.1
808.447	17439.89
808.777	17434.02
809.107	17427.47
809.436	17325.77
809.766	17292.78
810.096	17224.76
810.426	17257.3
810.755	17150.41
811.085	17129.39
811.414	17093.91
811.744	16974.37
812.073	16943.18
812.403	16859.8
812.732	16771.89
813.061	16794.26
813.39	16679.91
813.719	16584.32
814.049	16810.31
814.378	16634.27
814.707	16544.1
815.036	16489.41
815.365	16524.89
815.693	16396.53
816.022	16312.24
816.351	16372.8
816.68	16166.48
817.008	16286.7
817.337	16082.42
817.665	16064.34
817.994	16079.48
818.322	16045.13
818.651	16009.2
818.979	16008.29
819.307	15956.09
819.636	16034.73
819.964	15840.39
820.292	15927.39
820.62	15933.95
820.948	15798.36
821.276	15875.42
821.604	15815.98
821.932	15849.88
822.259	15821.41
822.587	15832.71
822.915	15739.37
823.243	15779.37
823.57	15777.34
823.898	15833.16
824.225	15655.31
824.553	15771.01
824.88	15731.46
825.207	15755.65
825.535	15682.88
825.862	15782.54
826.189	15708.19
826.516	15747.28
826.843	15791.35
827.17	15741.18
827.497	15764.23
827.824	15757.68
828.151	15825.02
828.478	15764.46
828.805	15778.92
829.131	15732.82
829.458	15575.76
829.785	15640.17
830.111	15614.18
830.438	15841.29
830.764	15724.46
831.09	15784.12
831.417	15613.73
831.743	15670
832.069	15642.43
832.395	15645.14
832.722	15711.13
833.048	15661.41
833.374	15568.76
833.7	15525.59
834.026	15562.66
834.351	15525.37
834.677	15509.78
835.003	15484.01
835.329	15582.99
835.654	15523.33
835.98	15382.55
836.306	15496.89
836.631	15359.72
836.956	15439.5
837.282	15468.19
837.607	15344.81
837.932	15330.8
838.258	15226.17
838.583	15232.72
838.908	15140.52
839.233	15193.85
839.558	15180.29
839.883	15109.56
840.208	15123.57
840.533	15087.87
840.858	15054.19
841.182	15088.54
841.507	14983.46
841.832	14911.6
842.156	14907.53
842.481	14866.63
842.805	14813.07
843.13	14881.09
843.454	14714.77
843.778	14757.03
844.103	14720.87
844.427	14692.17
844.751	14727.65
845.075	14600.42
845.399	14624.83
845.723	14539.18
846.047	14588.44
846.371	14398.84
846.695	14428
847.019	14353.65
847.343	14241.56
847.666	14162.92
847.99	14177.83
848.313	14134.9
848.637	14033.88
848.96	13955.92
849.284	13945.98
849.607	13809.93
849.931	13847.67
850.254	13762.93
850.577	13655.59
850.9	13570.62
851.223	13548.7
851.546	13504.63
851.869	13338.31
852.192	13390.51
852.515	13250.63
852.838	13319.32
853.161	13306.9
853.483	13179.67
853.806	13142.15
854.129	13117.97
854.451	13049.95
854.774	13004.98
855.096	13050.41
855.419	12998.43
855.741	12907.36
856.063	12914.82
856.385	12833.46
856.708	12760.02
857.03	12755.5
857.352	12771.09
857.674	12737.42
857.996	12668.49
858.318	12593.92
858.64	12607.93
858.961	12564.09
859.283	12457.88
859.605	12408.61
859.926	12447.48
860.248	12389.63
860.57	12328.16
860.891	12373.36
861.212	12304.66
861.534	12221.5
861.855	12188.28
862.176	12268.73
862.498	12192.12
862.819	12173.14
863.14	12218.79
863.461	12148.28
863.782	12068.28
864.103	12090.66
864.424	12052.47
864.745	12041.17
865.065	11981.28
865.386	11945.35
865.707	11886.37
866.027	11922.75
866.348	11878.91
866.668	11864
866.989	11750.1
867.309	11809.31
867.63	11813.83
867.95	11794.39
868.27	11751.91
868.59	11798.01
868.91	11742.19
869.23	11709.65
869.55	11632.59
869.87	11742.19
870.19	11695.19
870.51	11719.82
870.83	11671.91
871.15	11584.91
871.469	11626.26
871.789	11667.39
872.109	11595.53
872.428	11475.76
872.748	11616.09
873.067	11522.08
873.386	11483.89
873.706	11473.27
874.025	11365.48
874.344	11383.56
874.663	11415.19
874.982	11388.08
875.301	11360.05
875.62	11288.19
875.939	11312.37
876.258	11371.13
876.577	11243
876.896	11244.35
877.214	11222.2
877.533	11232.6
877.852	11236.89
878.17	11140.85
878.489	11147.18
878.807	11172.94
879.125	11161.42
879.444	11087.97
879.762	11054.75
880.08	11034.41
880.398	11005.71
880.716	11071.7
881.034	10987.86
881.352	11054.07
881.67	10905.15
881.988	10930.69
882.306	10921.65
882.624	10904.47
882.941	10748.32
883.259	10818.83
883.577	10799.62
883.894	10799.84
884.212	10746.06
884.529	10706.96
884.846	10698.6
885.164	10689.34
885.481	10661.32
885.798	10813.4
886.115	10606.4
886.432	10563.69
886.75	10601.43
887.067	10570.92
887.383	10514.88
887.7	10579.28
888.017	10443.92
888.334	10456.58
888.651	10386.29
888.967	10442.79
889.284	10502.68
889.6	10402.11
889.917	10309.91
890.233	10286.86
890.55	10209.35
890.866	10216.13
891.182	10273.53
891.498	10195.34
891.815	10095.45
892.131	10099.3
892.447	9996.02
892.763	9986.08
893.079	9980.43
893.395	9958.51
893.71	9934.56
894.026	9914.89
894.342	9894.33
894.657	9885.29
894.973	9849.59
895.289	9838.29
895.604	9787.67
895.92	9658.18
896.235	9653.43
896.55	9620.89
896.865	9654.34
897.181	9618.41
897.496	9667.22
897.811	9472.87
898.126	9526.66
898.441	9509.26
898.756	9482.59
899.071	9380.22
899.386	9349.71
899.7	9328.92
900.015	9314.01
900.33	9148.14
900.644	9206.89
900.959	9249.83
901.273	9121.02
901.588	9149.49
901.902	9043.96
902.216	9073.56
902.531	9050.51
902.845	9064.75
903.159	8953.79
903.473	8916.73
903.787	8855.94
904.101	8796.28
904.415	8841.48
904.729	8782.72
905.042	8726.9
905.356	8707.24
905.67	8748.82
905.984	8740.91
906.297	8676.74
906.611	8625.66
906.924	8638.09
907.237	8561.03
907.551	8501.82
907.864	8482.84
908.177	8431.77
908.491	8465.22
908.804	8382.28
909.117	8340.47
909.43	8311.55
909.743	8344.09
910.056	8219.35
910.368	8208.05
910.681	8201.27
910.994	8212.79
911.307	8129.18
911.619	8124.89
911.932	8165.79
912.244	8005.11
912.557	8016.87
912.869	8006.47
913.181	7962.86
913.494	7918.56
913.806	7897.77
914.118	7844.21
914.43	7787.72
914.742	7765.35
915.054	7683.31
915.366	7747.04
915.678	7650.1
915.99	7620.94
916.302	7631.34
916.613	7502.75
916.925	7534.17
917.236	7519.25
917.548	7414.4
917.859	7437.22
918.171	7395.64
918.482	7389.99
918.794	7323.1
919.105	7330.56
919.416	7263.44
919.727	7276.77
920.038	7244.23
920.349	7168.3
920.66	7172.37
920.971	7148.41
921.282	7157.45
921.593	7090.79
921.903	7071.81
922.214	7020.73
922.525	7012.6
922.835	6936.67
923.146	6915.88
923.456	6909.1
923.767	6903.22
924.077	6891.02
924.387	6796.33
924.697	6773.73
925.008	6752.49
925.318	6722.89
925.628	6739.84
925.938	6642.89
926.248	6587.3
926.558	6601.99
926.867	6564.7
927.177	6542.33
927.487	6520.86
927.796	6454.87
928.106	6477.47
928.416	6501.2
928.725	6389.56
929.034	6375.55
929.344	6373.07
929.653	6367.19
929.962	6324.71
930.271	6239.29
930.581	6241.09
930.89	6199.51
931.199	6152.73
931.508	6230.47
931.817	6128.78
932.125	6103.47
932.434	6072.51
932.743	5999.97
933.051	6007.43
933.36	5970.82
933.669	5945.06
933.977	5972.4
934.286	5921.33
934.594	5948.67
934.902	5872.52
935.21	5845.4
935.519	5857.6
935.827	5812.4
936.135	5812.4
936.443	5729.24
936.751	5731.95
937.059	5720.43
937.367	5678.85
937.674	5668.45
937.982	5666.87
938.29	5584.61
938.597	5534.9
938.905	5512.07
939.213	5519.53
939.52	5512.07
939.827	5501
940.135	5473.66
940.442	5420.55
940.749	5481.11
941.056	5462.13
941.363	5386.43
941.67	5306.88
941.977	5294.68
942.284	5284.96
942.591	5281.57
942.898	5262.59
943.205	5219.2
943.511	5237.73
943.818	5227.11
944.125	5202.25
944.431	5123.61
944.738	5108.24
945.044	5104.63
945.35	5101.91
945.657	5032.31
945.963	5025.76
946.269	5032.31
946.575	4998.87
946.881	4938.75
947.187	4935.14
947.493	4904.63
947.799	4903.05
948.105	4897.63
948.41	4871.41
948.716	4851.07
949.022	4813.56
949.327	4818.76
949.633	4788.02
949.938	4760.68
950.244	4736.05
950.549	4710.06
950.854	4658.99
951.16	4676.16
951.465	4626.67
951.77	4641.59
952.075	4637.52
952.38	4628.48
952.685	4568.59
952.99	4538.99
953.294	4541.7
953.599	4524.3
953.904	4505.09
954.209	4456.06
954.513	4433.68
954.818	4448.6
955.122	4452.89
955.426	4374.93
955.731	4395.72
956.035	4347.13
956.339	4351.65
956.643	4336.51
956.948	4307.13
957.252	4310.07
957.556	4291.77
957.86	4277.53
958.163	4253.57
958.467	4191.2
958.771	4190.3
959.075	4207.25
959.378	4176.29
959.682	4170.64
959.985	4149.85
960.289	4097.87
960.592	4090.19
960.896	4102.17
961.199	4081.38
961.502	4025.11
961.805	4009.29
962.108	4017.42
962.411	3974.03
962.714	3990.3
963.017	3938.1
963.32	3974.49
963.623	3935.84
963.926	3917.09
964.228	3832.57
964.531	3897.43
964.833	3870.53
965.136	3804.77
965.438	3853.81
965.741	3773.59
966.043	3753.02
966.345	3758.67
966.648	3761.61
966.95	3709.86
967.252	3687.04
967.554	3701.72
967.856	3705.79
968.158	3638.22
968.46	3645.68
968.761	3644.33
969.063	3643.65
969.365	3591.22
969.666	3610.88
969.968	3559.13
970.269	3576.53
970.571	3567.94
970.872	3503.54
971.174	3500.37
971.475	3483.2
971.776	3439.58
972.077	3451.34
972.378	3431
972.679	3425.12
972.98	3406.59
973.281	3428.29
973.582	3355.07
973.883	3376.31
974.183	3399.36
974.484	3392.35
974.785	3340.83
975.085	3328.63
975.386	3304.22
975.686	3306.03
975.986	3306.71
976.287	3264.45
976.587	3253.15
976.887	3251.12
977.187	3226.48
977.487	3148.29
977.787	3156.2
978.087	3209.99
978.387	3176.99
978.687	3142.19
978.987	3145.36
979.286	3123.89
979.586	3106.71
979.885	3041.63
980.185	3058.35
980.484	3068.3
980.784	3078.24
981.083	3008.86
981.382	3007.05
981.682	3006.6
981.981	2998.24
982.28	3015.87
982.579	2981.74
982.878	2969.77
983.177	2933.61
983.475	2940.84
983.774	2882.09
984.073	2912.37
984.372	2881.18
984.67	2867.4
984.969	2850.67
985.267	2864.01
985.566	2808.87
985.864	2836.66
986.162	2791.47
986.461	2780.62
986.759	2783.56
987.057	2768.64
987.355	2751.02
987.653	2727.74
987.951	2717.34
988.249	2688.87
988.547	2692.94
988.844	2695.2
989.142	2675.09
989.44	2690.9
989.737	2675.99
990.035	2637.35
990.332	2660.62
990.63	2597.35
990.927	2622.66
991.224	2590.79
991.521	2578.59
991.819	2595.99
992.116	2571.36
992.413	2551.7
992.71	2522.09
993.006	2515.32
993.303	2488.2
993.6	2523.9
993.897	2494.52
994.193	2499.95
994.49	2479.61
994.787	2455.2
995.083	2446.84
995.379	2406.62
995.676	2471.47
995.972	2419.95
996.268	2403.68
996.565	2400.06
996.861	2377.69
997.157	2370.01
997.453	2353.51
997.749	2353.51
998.044	2340.4
998.34	2337.92
998.636	2318.03
998.932	2288.88
999.227	2285.26
999.523	2275.55
999.818	2258.6
1000.114	2257.02
1000.409	2220.41
1000.704	2238.49
1001	2233.51
1001.295	2220.86
1001.59	2196.68
1001.885	2178.6
1002.18	2138.15
1002.475	2129.34
1002.77	2139.73
1003.065	2108.77
1003.359	2111.26
1003.654	2100.86
1003.949	2084.37
1004.243	2065.61
1004.538	2071.94
1004.832	2052.05
1005.127	2051.6
1005.421	2039.62
1005.715	2043.92
1006.009	2020.19
1006.304	2002.56
1006.598	2000.53
1006.892	1983.13
1007.186	1957.14
1007.48	1946.06
1007.773	1972.28
1008.067	1917.82
1008.361	1939.96
1008.655	1893.64
1008.948	1926.18
1009.242	1897.7
1009.535	1901.77
1009.829	1880.08
1010.122	1876.91
1010.415	1866.97
1010.708	1858.84
1011.001	1845.73
1011.295	1840.53
1011.588	1798.72
1011.881	1820.19
1012.173	1792.85
1012.466	1779.97
1012.759	1759.4
1013.052	1782.45
1013.344	1777.93
1013.637	1749.69
1013.93	1715.34
1014.222	1722.34
1014.514	1675.79
1014.807	1697.71
1015.099	1697.03
1015.391	1672.85
1015.683	1675.11
1015.976	1656.35
1016.268	1654.55
1016.56	1651.84
1016.851	1646.41
1017.143	1619.75
1017.435	1603.93
1017.727	1600.09
1018.018	1600.31
1018.31	1558.96
1018.602	1593.31
1018.893	1553.08
1019.185	1551.72
1019.476	1539.75
1019.767	1528.22
1020.058	1532.74
1020.35	1520.99
1020.641	1458.39
1020.932	1481.22
1021.223	1487.32
1021.514	1455.23
1021.804	1482.12
1022.095	1457.94
1022.386	1456.59
1022.677	1403.03
1022.967	1416.59
1023.258	1419.52
1023.548	1409.58
1023.839	1368.45
1024.129	1383.59
1024.419	1374.33
1024.709	1368.23
1025	1367.1
1025.29	1350.6
1025.58	1360.32
1025.87	1310.38
1026.16	1307.89
1026.449	1287.1
1026.739	1310.83
1027.029	1299.98
1027.319	1310.15
1027.608	1288.68
1027.898	1253.2
1028.187	1264.95
1028.477	1229.7
1028.766	1230.6
1029.055	1251.39
1029.344	1238.96
1029.634	1207.1
1029.923	1201.9
1030.212	1189.7
1030.501	1200.1
1030.79	1177.72
1031.078	1190.6
1031.367	1182.92
1031.656	1158.97
1031.945	1167.55
1032.233	1165.29
1032.522	1172.07
1032.81	1154.67
1033.099	1118.97
1033.387	1111.06
1033.675	1132.07
1033.963	1123.04
1034.251	1094.34
1034.54	1089.14
1034.828	1092.53
1035.116	1083.71
1035.403	1090.04
1035.691	1075.35
1035.979	1060.66
1036.267	1073.55
1036.554	1046.2
1036.842	1017.95
1037.129	1023.83
1037.417	1017.28
1037.704	1024.51
1037.992	987.67
1038.279	1004.17
1038.566	1003.72
1038.853	1003.72
1039.14	1003.72
