Data from hue_280_FLMS001491_00002.txt Node
Date: Tue Feb 07 15:54:43 GMT 2017
User: dcchb
Spectrometer: FLMS00149
Trigger mode: 0
Integration Time (sec): 2.000000E-2
Scans to average: 10
Electric dark correction enabled: true
Nonlinearity correction enabled: false
Boxcar width: 0
XAxis mode: Wavelengths
Number of Pixels in Spectrum: 2048
>>>>>Begin Spectral Data<<<<<
341.393	-13.52
341.776	-13.52
342.16	-13.52
342.543	-82.44
342.927	-76.57
343.31	-65.49
343.693	-53.29
344.077	-64.59
344.46	-77.92
344.843	-39.28
345.226	-43.12
345.61	-29.56
345.993	-17.58
346.376	-13.06
346.759	6.82
347.142	26.71
347.525	38.91
347.908	62.87
348.291	74.39
348.674	78.46
349.057	115.75
349.44	122.75
349.823	141.28
350.206	158.68
350.588	195.52
350.971	210.66
351.354	221.51
351.737	216.76
352.119	268.06
352.502	252.24
352.884	274.84
353.267	282.75
353.65	293.37
354.032	311.67
354.414	304.44
354.797	297.89
355.179	296.53
355.562	317.1
355.944	333.82
356.326	303.54
356.709	330.88
357.091	318.23
357.473	327.04
357.855	332.46
358.238	353.71
358.62	333.37
359.002	344.21
359.384	320.94
359.766	322.07
360.148	343.31
360.53	337.43
360.912	332.01
361.294	331.79
361.676	334.95
362.057	312.58
362.439	306.93
362.821	343.76
363.203	319.36
363.584	315.51
363.966	317.55
364.348	296.53
364.729	306.93
365.111	316.87
365.493	305.57
365.874	305.35
366.256	301.5
366.637	298.79
367.019	317.55
367.4	314.38
367.781	321.84
368.163	303.99
368.544	318
368.925	326.36
369.306	320.71
369.688	330.88
370.069	296.08
370.45	306.7
370.831	307.15
371.212	304.22
371.593	313.03
371.974	323.88
372.355	322.07
372.736	334.95
373.117	322.52
373.498	316.42
373.879	309.86
374.26	323.2
374.641	332.91
375.021	323.88
375.402	338.79
375.783	329.53
376.163	318
376.544	336.08
376.925	322.52
377.305	332.91
377.686	320.26
378.066	326.36
378.447	314.84
378.827	331.56
379.208	355.29
379.588	331.56
379.968	323.88
380.349	348.28
380.729	341.28
381.109	332.69
381.489	346.93
381.87	334.95
382.25	340.82
382.63	338.11
383.01	333.14
383.39	333.37
383.77	347.15
384.15	349.86
384.53	343.31
384.91	348.73
385.29	335.85
385.67	352.8
386.049	358.68
386.429	335.4
386.809	367.26
387.189	343.31
387.568	373.59
387.948	367.26
388.328	349.19
388.707	364.33
389.087	375.17
389.466	376.08
389.846	357.77
390.225	376.76
390.605	365.91
390.984	375.63
391.363	370.43
391.743	365.23
392.122	381.28
392.501	382.63
392.881	397.09
393.26	398.22
393.639	368.17
394.018	376.76
394.397	372.24
394.776	408.85
395.155	398.9
395.534	377.21
395.913	385.12
396.292	413.82
396.671	404.33
397.05	395.51
397.429	411.33
397.808	410.88
398.186	413.14
398.565	411.78
398.944	424.89
399.323	425.79
399.701	400.71
400.08	416.3
400.458	430.77
400.837	425.12
401.215	434.38
401.594	414.49
401.972	439.58
402.351	410.2
402.729	434.38
403.107	428.28
403.486	445.91
403.864	452.69
404.242	442.97
404.62	460.37
404.999	443.65
405.377	451.78
405.755	464.21
406.133	476.87
406.511	458.56
406.889	492.91
407.267	450.88
407.645	493.81
408.023	496.75
408.401	463.53
408.779	520.48
409.156	475.28
409.534	509.63
409.912	503.76
410.29	524.55
410.667	554.15
411.045	524.55
411.422	564.77
411.8	569.74
412.178	555.51
412.555	546.92
412.933	580.59
413.31	576.98
413.687	590.76
414.065	589.86
414.442	614.72
414.819	601.83
415.197	612.91
415.574	626.47
415.951	635.28
416.328	645.45
416.705	657.88
417.082	645.68
417.46	650.87
417.837	651.1
418.214	665.56
418.591	672.79
418.967	677.54
419.344	684.09
419.721	722.06
420.098	685.67
420.475	716.86
420.852	716.86
421.228	727.93
421.605	746.69
421.982	746.92
422.358	784.65
422.735	780.13
423.111	759.8
423.488	802.06
423.864	766.8
424.241	812.45
424.617	823.3
424.994	821.72
425.37	835.95
425.746	863.07
426.123	861.71
426.499	863.52
426.875	874.6
427.251	871.88
427.627	893.35
428.003	916.85
428.379	924.54
428.756	908.49
429.132	952.33
429.507	940.13
429.883	976.06
430.259	967.7
430.635	973.12
431.011	968.38
431.387	1011.54
431.763	1045.44
432.138	1070.75
432.514	1063.07
432.89	1038.43
433.265	1066.23
433.641	1102.61
434.016	1108.04
434.392	1151.2
434.767	1155.94
435.143	1139.45
435.518	1148.94
435.894	1188.03
436.269	1184.19
436.644	1209.5
437.02	1242.5
437.395	1205.43
437.77	1257.86
438.145	1284.08
438.52	1298.77
438.895	1276.17
439.271	1293.34
439.646	1373.34
440.021	1350.74
440.395	1339.22
440.77	1342.15
441.145	1371.76
441.52	1405.88
441.895	1391.19
442.27	1412.66
442.645	1410.4
443.019	1446.11
443.394	1435.94
443.769	1433.45
444.143	1429.84
444.518	1461.47
444.892	1487.23
445.267	1454.92
445.641	1530.62
446.016	1498.08
446.39	1508.03
446.764	1494.24
447.139	1513.67
447.513	1543.5
447.887	1528.36
448.262	1549.15
448.636	1533.56
449.01	1536.5
449.384	1558.42
449.758	1570.17
450.132	1580.11
450.506	1604.97
450.88	1623.28
451.254	1626.67
451.628	1632.09
452.002	1644.97
452.376	1658.53
452.75	1647
453.123	1682.94
453.497	1687.23
453.871	1736.27
454.244	1734.91
454.618	1720.68
454.992	1755.48
455.365	1761.35
455.739	1788.92
456.112	1806.55
456.486	1853.1
456.859	1836.6
457.232	1828.47
457.606	1871.63
457.979	1874.12
458.352	1898.3
458.725	1918.86
459.099	1917.73
459.472	1933.32
459.845	1981.23
460.218	1992.98
460.591	2017.62
460.964	1997.96
461.337	2027.33
461.71	2039.31
462.083	2070.95
462.456	2074.34
462.829	2080.67
463.201	2118.86
463.574	2098.97
463.947	2146.2
464.32	2185.07
464.692	2197.72
465.065	2187.1
465.438	2270.27
465.81	2249.7
466.183	2283.15
466.555	2314.56
466.928	2324.05
467.3	2326.76
467.672	2352.52
468.045	2375.8
468.417	2402.24
468.789	2403.14
469.161	2432.75
469.534	2479.75
469.906	2510.94
470.278	2575.79
470.65	2543.48
471.022	2586.19
471.394	2625.28
471.766	2640.88
472.138	2683.14
472.51	2677.49
472.882	2700.54
473.253	2751.61
473.625	2767.88
473.997	2835.45
474.369	2809.91
474.74	2845.39
475.112	2936.46
475.484	2941.43
475.855	2970.59
476.227	3021.43
476.598	3054.65
476.97	3040.19
477.341	3163.58
477.713	3182.78
478.084	3164.25
478.455	3254.65
478.827	3230.47
479.198	3293.97
479.569	3319.28
479.94	3364.93
480.311	3473.85
480.682	3468.88
481.053	3516.56
481.424	3599.04
481.795	3615.54
482.166	3692.6
482.537	3684.24
482.908	3734.18
483.279	3757.68
483.65	3801.75
484.021	3850.11
484.391	3894.4
484.762	3927.17
485.133	3969.88
485.503	4036.55
485.874	4076.32
486.244	4052.37
486.615	4162.64
486.985	4226.82
487.356	4256.88
487.726	4298.46
488.097	4301.85
488.467	4321.51
488.837	4423.2
489.207	4418.91
489.578	4493.71
489.948	4549.53
490.318	4576.65
490.688	4594.27
491.058	4658.45
491.428	4675.85
491.798	4710.65
492.168	4785.45
492.538	4812.12
492.908	4860.93
493.278	4906.35
493.648	4902.96
494.017	4988.16
494.387	4987.03
494.757	5005.79
495.126	5058.67
495.496	5085.56
495.866	5076.97
496.235	5091.21
496.605	5161.26
496.974	5123.75
497.344	5256.63
497.713	5230.41
498.082	5265.89
498.452	5326.68
498.821	5362.16
499.19	5286.46
499.559	5379.34
499.928	5388.38
500.298	5372.33
500.667	5464.76
501.036	5446.68
501.405	5534.36
501.774	5478.09
502.143	5530.74
502.512	5564.64
502.88	5603.96
503.249	5590.18
503.618	5588.82
503.987	5664.07
504.356	5638.54
504.724	5660.01
505.093	5690.74
505.462	5789.04
505.83	5759.21
506.199	5764.86
506.567	5861.36
506.936	5806.44
507.304	5867.01
507.672	5872.43
508.041	5868.14
508.409	5951.3
508.777	5958.08
509.145	5941.36
509.514	5977.74
509.882	5973.67
510.25	5992.88
510.618	6008.7
510.986	6001.24
511.354	6084.85
511.722	6121.92
512.09	6166.43
512.458	6091.86
512.826	6145.87
513.193	6194.91
513.561	6248.69
513.929	6214.57
514.297	6275.81
514.664	6262.7
515.032	6272.42
515.4	6307.9
515.767	6331.63
516.135	6337.95
516.502	6336.6
516.869	6363.26
517.237	6401.46
517.604	6431.06
517.972	6402.13
518.339	6416.82
518.706	6370.04
519.073	6430.83
519.44	6493.88
519.808	6509.7
520.175	6521
520.542	6539.98
520.909	6544.73
521.276	6571.85
521.643	6586.76
522.009	6641.9
522.376	6706.53
522.743	6671.73
523.11	6707.44
523.477	6796.47
523.843	6836.47
524.21	6824.04
524.577	6864.49
524.943	6858.85
525.31	6962.12
525.676	6956.92
526.043	6928
526.409	6978.16
526.776	7047.77
527.142	7104.94
527.508	7040.31
527.874	7068.56
528.241	7101.32
528.607	7141.32
528.973	7169.12
529.339	7189.91
529.705	7194.88
530.071	7290.92
530.437	7250.25
530.803	7309
531.169	7342.45
531.535	7318.49
531.901	7272.17
532.267	7398.04
532.632	7445.72
532.998	7457.02
533.364	7518.04
533.73	7485.5
534.095	7540.41
534.461	7503.57
534.826	7610.01
535.192	7584.02
535.557	7664.47
535.923	7591.48
536.288	7580.63
536.653	7675.32
537.019	7646.85
537.384	7645.72
537.749	7664.93
538.114	7684.36
538.479	7696.56
538.845	7717.35
539.21	7784.47
539.575	7705.38
539.94	7774.75
540.305	7783.57
540.67	7832.15
541.034	7817.46
541.399	7924.81
541.764	7846.39
542.129	7866.5
542.494	7906.05
542.858	7922.09
543.223	7932.94
543.587	7977.01
543.952	7995.54
544.316	7950.12
544.681	7930.46
545.045	8038.7
545.41	7998.25
545.774	8080.51
546.138	8052.03
546.503	8054.97
546.867	8088.19
547.231	8143.11
547.595	8128.64
547.959	8188.53
548.324	8164.57
548.688	8127.29
549.052	8200.96
549.416	8148.08
549.779	8179.26
550.143	8188.3
550.507	8298.13
550.871	8301.29
551.235	8241.86
551.599	8284.8
551.962	8293.16
552.326	8337.22
552.689	8359.37
553.053	8320.28
553.417	8309.43
553.78	8411.8
554.143	8390.78
554.507	8430.1
554.87	8414.96
555.234	8491.57
555.597	8466.03
555.96	8458.8
556.323	8490.21
556.686	8511.23
557.05	8567.95
557.413	8569.31
557.776	8589.42
558.139	8680.27
558.502	8663.54
558.865	8641.85
559.228	8702.19
559.59	8672.36
559.953	8709.19
560.316	8772.47
560.679	8783.31
561.041	8824.44
561.404	8873.03
561.767	8885.91
562.129	8908.06
562.492	9013.82
562.854	8933.82
563.217	8946.02
563.579	8964.78
563.941	9040.93
564.304	9067.6
564.666	9088.84
565.028	9093.14
565.39	9164.77
565.753	9200.03
566.115	9202.96
566.477	9222.85
566.839	9246.58
567.201	9277.54
567.563	9308.72
567.925	9341.94
568.287	9359.34
568.648	9390.53
569.01	9461.26
569.372	9530.19
569.734	9446.35
570.095	9573.8
570.457	9624.65
570.819	9589.62
571.18	9621.26
571.542	9636.85
571.903	9676.4
572.265	9773.57
572.626	9774.25
572.987	9761.59
573.349	9772.67
573.71	9813.8
574.071	9897.86
574.432	9955.03
574.794	10026.22
575.155	9962.49
575.516	10035.26
575.877	10056.05
576.238	10052.43
576.599	10127.46
576.96	10208.81
577.32	10191.19
577.681	10268.7
578.042	10382.37
578.403	10294.69
578.763	10339.88
579.124	10428.47
579.485	10538.75
579.845	10545.08
580.206	10529.71
580.566	10566.77
580.927	10632.98
581.287	10728.12
581.648	10683.6
582.008	10793.88
582.368	10785.3
582.728	10868.23
583.089	10932.86
583.449	10964.73
583.809	10957.72
584.169	11088.34
584.529	11146.64
584.889	11214.44
585.249	11247.43
585.609	11242.23
585.969	11327.88
586.329	11447.2
586.688	11468.67
587.048	11608.55
587.408	11582.34
587.768	11586.86
588.127	11719.28
588.487	11836.34
588.846	11897.13
589.206	11954.3
589.565	11955.43
589.925	12051.02
590.284	12094.64
590.643	12156.11
591.003	12272.71
591.362	12400.85
591.721	12487.17
592.08	12351.58
592.44	12486.95
592.799	12587.51
593.158	12606.04
593.517	12749.99
593.876	12752.48
594.235	12813.04
594.593	12927.84
594.952	12977.1
595.311	13062.52
595.67	13020.26
596.029	13186.36
596.387	13202.63
596.746	13393.14
597.104	13287.6
597.463	13376.87
597.822	13489.41
598.18	13444.21
598.538	13441.72
598.897	13615.96
599.255	13555.84
599.613	13808.49
599.972	13747.03
600.33	13781.83
600.688	13885.55
601.046	13934.37
601.404	13987.25
601.762	14037.87
602.12	14144.98
602.478	14140.24
602.836	14193.79
603.194	14190.18
603.552	14285.32
603.91	14196.51
604.268	14380.91
604.625	14364.64
604.983	14482.15
605.341	14404.64
605.698	14526.44
606.056	14604.86
606.413	14569.15
606.771	14601.92
607.128	14660.22
607.485	14660.9
607.843	14685.53
608.2	14804.85
608.557	14922.59
608.914	14803.72
609.272	14924.4
609.629	14954
609.986	15061.12
610.343	14913.55
610.7	15077.39
611.057	15093.66
611.414	15106.31
611.771	15085.52
612.127	15214.33
612.484	15219.53
612.841	15229.25
613.198	15312.18
613.554	15261.34
613.911	15379.98
614.267	15385.63
614.624	15275.35
614.98	15399.86
615.337	15607.99
615.693	15532.52
616.05	15492.29
616.406	15711.95
616.762	15474.44
617.118	15582.01
617.475	15572.97
617.831	15646.64
618.187	15665.39
618.543	15673.98
618.899	15740.42
619.255	15723.02
619.611	15716.92
619.967	15819.97
620.323	15873.98
620.678	15855.22
621.034	15814.32
621.39	15780.42
621.746	15753.75
622.101	15930.47
622.457	15699.29
622.812	15914.43
623.168	15873.75
623.523	15846.18
623.879	16073.74
624.234	15961.88
624.589	15953.07
624.945	15963.01
625.3	15984.71
625.655	15958.72
626.01	15967.53
626.365	15944.93
626.72	15983.35
627.075	15987.87
627.43	15921.66
627.785	15879.17
628.14	15995.33
628.495	16050.92
628.85	15936.8
629.205	15986.74
629.559	16000.07
629.914	15972.73
630.269	16006.85
630.623	15889.79
630.978	15883.01
631.332	15951.04
631.687	15933.18
632.041	15912.62
632.396	15887.08
632.75	15852.05
633.104	15895.22
633.459	15846.41
633.813	15860.64
634.167	15829.46
634.521	15904.26
634.875	15883.69
635.229	15836.01
635.583	15751.04
635.937	15743.36
636.291	15738.16
636.645	15740.65
636.999	15723.24
637.352	15731.15
637.706	15641.21
638.06	15729.8
638.413	15631.95
638.767	15737.93
639.121	15596.47
639.474	15592.17
639.828	15576.13
640.181	15659.29
640.534	15578.84
640.888	15553.53
641.241	15553.31
641.594	15461.56
641.947	15520.54
642.301	15499.07
642.654	15531.16
643.007	15580.65
643.36	15534.32
643.713	15467.21
644.066	15517.37
644.419	15453.87
644.771	15287.78
645.124	15231.28
645.477	15259.08
645.83	15072.64
646.182	14974.56
646.535	14992.42
646.888	15007.78
647.24	15031.74
647.593	15066.09
647.945	14929.59
648.298	14964.62
648.65	14963.94
649.002	14905.41
649.355	14998.97
649.707	14917.39
650.059	15038.52
650.411	15179.98
650.763	15272.64
651.115	15382.46
651.467	15390.37
651.819	15250.94
652.171	15300.66
652.523	15315.12
652.875	15332.75
653.227	15212.52
653.578	15400.99
653.93	15340.43
654.282	15284.84
654.633	15317.15
654.985	15270.15
655.337	15305.18
655.688	15327.32
656.039	15439.18
656.391	15271.73
656.742	15270.15
657.094	15273.99
657.445	15344.5
657.796	15318.06
658.147	15265.63
658.498	15318.74
658.849	15405.51
659.2	15265.18
659.551	15297.95
659.902	15436.25
660.253	15367.32
660.604	15323.26
660.955	15316.48
661.306	15482.8
661.656	15328.68
662.007	15385.17
662.358	15375.91
662.708	15341.56
663.059	15430.82
663.409	15368.68
663.76	15473.76
664.11	15414.55
664.461	15491.61
664.811	15481.22
665.161	15385.17
665.511	15444.83
665.862	15422.01
666.212	15527.09
666.562	15494.78
666.912	15433.08
667.262	15390.6
667.612	15388.79
667.962	15500.88
668.312	15471.95
668.662	15444.38
669.011	15410.26
669.361	15400.54
669.711	15517.15
670.06	15384.95
670.41	15291.84
670.76	15357.6
671.109	15382.46
671.459	15420.2
671.808	15270.83
672.157	15394.67
672.507	15236.25
672.856	15195.8
673.205	15365.51
673.554	15372.97
673.904	15270.38
674.253	15267.44
674.602	15229.47
674.951	15071.96
675.3	15014.79
675.649	15316.02
675.998	15114.45
676.346	15128.46
676.695	15179.76
677.044	15108.57
677.393	15129.81
677.741	15106.76
678.09	15119.19
678.438	15053.88
678.787	15126.88
679.135	15111.28
679.484	15003.26
679.832	15061.12
680.181	14998.74
680.529	14896.15
680.877	14900.44
681.225	14919.42
681.573	14996.03
681.922	14894.79
682.27	14897.28
682.618	14798.98
682.966	14861.8
683.314	14826.32
683.661	14735.7
684.009	14643.27
684.357	14608.47
684.705	14638.98
685.053	14641.69
685.4	14565.08
685.748	14573.67
686.095	14572.09
686.443	14478.31
686.79	14451.19
687.138	14472.2
687.485	14489.15
687.832	14365.99
688.18	14315.82
688.527	14261.36
688.874	14274.92
689.221	14252.55
689.568	14199.89
689.915	14045.55
690.262	14096.17
690.609	14093.91
690.956	14075.38
691.303	13988.6
691.65	13945.44
691.997	13878.32
692.344	13785.22
692.69	13746.57
693.037	13779.79
693.383	13691.43
693.73	13651.89
694.077	13650.53
694.423	13591.78
694.769	13532.12
695.116	13481.95
695.462	13523.3
695.808	13436.75
696.155	13453.02
696.501	13360.6
696.847	13297.55
697.193	13260.94
697.539	13301.84
697.885	13139.81
698.231	13142.3
698.577	13122.64
698.923	13048.96
699.269	12996.31
699.614	12921.51
699.96	12877.67
700.306	12863.21
700.651	12818.01
700.997	12759.93
701.342	12747.73
701.688	12671.57
702.033	12755.87
702.379	12667.96
702.724	12612.37
703.069	12642.42
703.415	12430.22
703.76	12410.34
704.105	12451.47
704.45	12413.5
704.795	12311.36
705.14	12221.42
705.485	12234.52
705.83	12185.48
706.175	12218.03
706.52	12160.4
706.865	12092.15
707.209	12075.88
707.554	12005.83
707.899	12106.84
708.243	11977.35
708.588	11967.64
708.932	11868.66
709.277	11923.57
709.621	11797.02
709.966	11785.04
710.31	11784.82
710.654	11641.09
710.998	11710.24
711.342	11661.88
711.687	11717.7
712.031	11598.16
712.375	11538.5
712.719	11580.98
713.063	11575.11
713.407	11606.52
713.75	11518.38
714.094	11505.5
714.438	11478.16
714.782	11430.7
715.125	11361.78
715.469	11375.56
715.812	11308.45
716.156	11282.46
716.499	11343.7
716.843	11266.86
717.186	11230.48
717.53	11303.02
717.873	11297.15
718.216	11263.7
718.559	11234.55
718.902	11111.84
719.246	11178.51
719.589	11164.27
719.932	11107.32
720.275	11148.68
720.617	11083.37
720.96	11024.39
721.303	11103.93
721.646	11077.04
721.989	10980.32
722.331	11077.94
722.674	10962.24
723.016	11044.5
723.359	11015.35
723.701	10985.97
724.044	10966.53
724.386	10881.79
724.729	10896.71
725.071	10903.03
725.413	10929.25
725.755	10949.81
726.097	10844.95
726.439	10836.59
726.782	10816.03
727.124	10922.69
727.465	10823.49
727.807	10873.2
728.149	10840.21
728.491	10804.28
728.833	10863.26
729.175	10795.46
729.516	10815.58
729.858	10764.51
730.199	10878.63
730.541	10784.17
730.882	10770.83
731.224	10798.85
731.565	10778.52
731.906	10753.21
732.248	10783.94
732.589	10710.72
732.93	10680.21
733.271	10712.53
733.612	10766.31
733.953	10798.18
734.294	10718.63
734.635	10725.86
734.976	10719.08
735.317	10703.04
735.658	10680.44
735.999	10751.4
736.339	10720.44
736.68	10758.4
737.021	10771.06
737.361	10726.54
737.702	10729.93
738.042	10767.22
738.383	10770.61
738.723	10788.01
739.063	10741.45
739.404	10830.27
739.744	10790.04
740.084	10767.44
740.424	10789.36
740.764	10796.37
741.104	10865.07
741.444	10803.6
741.784	10844.05
742.124	10852.64
742.464	10823.49
742.804	10912.75
743.143	10889.25
743.483	10980.54
743.823	10947.55
744.162	10924.5
744.502	11004.5
744.841	10998.62
745.181	11074.78
745.52	11010.83
745.86	11108
746.199	11135.12
746.538	11157.94
746.877	11278.62
747.216	11301.89
747.556	11299.18
747.895	11364.26
748.234	11387.54
748.573	11479.74
748.911	11584.82
749.25	11672.5
749.589	11600.19
749.928	11722.45
750.267	11768.09
750.605	11814.65
750.944	11952.72
751.283	12039.27
751.621	12160.85
751.96	12111.14
752.298	12278.36
752.636	12377.12
752.975	12357.01
753.313	12459.15
753.651	12627.05
753.989	12777.11
754.327	12823.66
754.666	12907.05
755.004	13009.87
755.342	13150.88
755.679	13287.38
756.017	13419.35
756.355	13463.87
756.693	13669.74
757.031	13898.43
757.368	14005.55
757.706	14111.76
758.044	14183.17
758.381	14354.47
758.719	14442.83
759.056	14685.08
759.394	14795.59
759.731	14877.62
760.068	15028.35
760.405	15176.82
760.743	15331.84
761.08	15514.89
761.417	15618.61
761.754	15784.94
762.091	15943.13
762.428	16123.23
762.765	16156.68
763.102	16341.76
763.438	16464.47
763.775	16582.21
764.112	16764.12
764.449	16954.4
764.785	17025.58
765.122	17074.17
765.458	17171.79
765.795	17349.42
766.131	17487.04
766.467	17623.08
766.804	17700.14
767.14	17833.47
767.476	17948.95
767.812	18016.74
768.148	18208.15
768.485	18230.52
768.821	18132.9
769.157	18322.27
769.492	18510.29
769.828	18602.04
770.164	18483.17
770.5	18659.66
770.836	18756.39
771.171	18740.34
771.507	18861.92
771.842	18747.8
772.178	18989.15
772.513	19009.49
772.849	19144.17
773.184	19137.17
773.519	19266.88
773.855	19219.88
774.19	19190.72
774.525	19121.8
774.86	19405.41
775.195	19367.67
775.53	19423.03
775.865	19343.94
776.2	19285.19
776.535	19351.85
776.87	19395.46
777.205	19304.17
777.539	19322.7
777.874	19589.58
778.209	19339.19
778.543	19417.16
778.878	19375.35
779.212	19441.11
779.547	19400.66
779.881	19438.63
780.215	19384.62
780.55	19466.2
780.884	19348.69
781.218	19348.69
781.552	19293.55
781.886	19417.61
782.22	19291.74
782.554	19269.14
782.888	19185.07
783.222	19223.72
783.556	19178.75
783.889	19264.17
784.223	19020.33
784.557	19149.6
784.89	19212.64
785.224	19082.93
785.557	19105.53
785.891	19094.46
786.224	19108.47
786.558	19125.87
786.891	18825.31
787.224	18764.52
787.557	18783.05
787.891	18816.5
788.224	18871.64
788.557	18816.27
788.89	18790.73
789.223	18852.43
789.556	18601.36
789.888	18687.69
790.221	18541.93
790.554	18442.04
790.887	18543.06
791.219	18502.38
791.552	18482.49
791.884	18296.06
792.217	18388.94
792.549	18243.63
792.882	18168.15
793.214	18082.28
793.546	18068.27
793.879	18031.88
794.211	17964.77
794.543	18094.26
794.875	17877.54
795.207	18072.34
795.539	17941.04
795.871	17934.03
796.203	17838.9
796.535	17758.22
796.867	17686.36
797.198	17617.88
797.53	17639.58
797.862	17512.35
798.193	17574.04
798.525	17491.11
798.856	17530.43
799.188	17378.57
799.519	17280.72
799.85	17218.12
800.182	17328.63
800.513	17297.67
800.844	17093.6
801.175	17150.78
801.506	17186.26
801.837	17106.49
802.168	17064.45
802.499	17001.4
802.83	16910.56
803.161	16848.19
803.491	16843.89
803.822	16836.21
804.153	16816.55
804.483	16647.51
804.814	16667.63
805.145	16646.16
805.475	16595.99
805.805	16498.14
806.136	16477.12
806.466	16568.19
806.796	16417.24
807.126	16321.65
807.457	16357.58
807.787	16372.04
808.117	16246.39
808.447	16200.29
808.777	16306.51
809.107	16162.78
809.436	16195.55
809.766	16122.78
810.096	16025.84
810.426	15919.17
810.755	16024.93
811.085	15987.87
811.414	15821.32
811.744	15828.33
812.073	15768.44
812.403	15785.16
812.732	15780.64
813.061	15680.31
813.39	15658.16
813.719	15684.6
814.049	15704.71
814.378	15610.71
814.707	15580.42
815.036	15527.54
815.365	15471.27
815.693	15372.52
816.022	15315.12
816.351	15350.37
816.68	15243.03
817.008	15370.49
817.337	15172.75
817.665	15179.76
817.994	15210.94
818.322	15170.94
818.651	15134.56
818.979	15089.59
819.307	15106.99
819.636	15043.94
819.964	14968.24
820.292	15048.91
820.62	14971.17
820.948	14987.22
821.276	15000.1
821.604	14914.68
821.932	15031.51
822.259	14969.82
822.587	14902.7
822.915	14921.91
823.243	14972.98
823.57	14900.89
823.898	14938.41
824.225	14896.83
824.553	14780.9
824.88	14841.01
825.207	14982.93
825.535	14912.87
825.862	14994.68
826.189	14856.6
826.516	14904.51
826.843	14984.96
827.17	15019.76
827.497	14994
827.824	14998.29
828.151	14986.09
828.478	15001.46
828.805	15037.16
829.131	14916.03
829.458	14875.81
829.785	14891.85
830.111	14951.51
830.438	15014.56
830.764	14948.58
831.09	14945.19
831.417	14798.75
831.743	14917.62
832.069	14934.34
832.395	14864.74
832.722	14802.14
833.048	14845.53
833.374	14826.77
833.7	14782.48
834.026	14749.49
834.351	14832.87
834.677	14835.13
835.003	14833.55
835.329	14763.95
835.654	14769.37
835.98	14768.69
836.306	14740.22
836.631	14616.38
836.956	14671.3
837.282	14655.48
837.607	14681.01
837.932	14676.72
838.258	14635.82
838.583	14498.64
838.908	14507.23
839.233	14494.35
839.558	14492.09
839.883	14410.51
840.208	14395.14
840.533	14412.09
840.858	14412.77
841.182	14418.65
841.507	14367.12
841.832	14296.16
842.156	14275.15
842.481	14239.67
842.805	14208.03
843.13	14180.01
843.454	14235.6
843.778	14035.83
844.103	14065.66
844.427	14051.65
844.751	14122.83
845.075	14010.3
845.399	13987.47
845.723	13819.34
846.047	13846.68
846.371	13772.56
846.695	13718.1
847.019	13586.8
847.343	13611.89
847.666	13584.54
847.99	13522.17
848.313	13444.43
848.637	13276.98
848.96	13312.91
849.284	13304.1
849.607	13142.07
849.931	13165.57
850.254	13117.44
850.577	13032.24
850.9	12882.19
851.223	12966.71
851.546	12862.3
851.869	12878.35
852.192	12906.37
852.515	12813.49
852.838	12737.79
853.161	12724.91
853.483	12680.39
853.806	12626.38
854.129	12615.08
854.451	12531.69
854.774	12480.62
855.096	12409.89
855.419	12441.3
855.741	12377.12
856.063	12372.82
856.385	12286.27
856.708	12333.73
857.03	12158.14
857.352	12220.06
857.674	12195.2
857.996	12072.27
858.318	12046.28
858.64	12055.54
858.961	12066.17
859.283	11941.88
859.605	11924.47
859.926	11883.8
860.248	11922.44
860.57	11903.46
860.891	11815.78
861.212	11789.79
861.534	11610.81
861.855	11707.76
862.176	11724.25
862.498	11694.42
862.819	11683.58
863.14	11651.49
863.461	11681.32
863.782	11538.5
864.103	11656.01
864.424	11589.79
864.745	11603.81
865.065	11494.66
865.386	11427.99
865.707	11519.51
866.027	11426.18
866.348	11489.68
866.668	11388.44
866.989	11381.44
867.309	11350.93
867.63	11340.76
867.95	11279.29
868.27	11208.34
868.59	11262.12
868.91	11269.12
869.23	11212.63
869.55	11254.21
869.87	11226.87
870.19	11193.65
870.51	11161.56
870.83	11158.85
871.15	11092.86
871.469	11123.37
871.789	11131.5
872.109	11076.59
872.428	10986.19
872.748	11021.67
873.067	11058.73
873.386	11046.08
873.706	11013.76
874.025	10944.16
874.344	10911.62
874.663	10987.32
874.982	10940.55
875.301	10871.62
875.62	10832.98
875.939	10775.35
876.258	10854.9
876.577	10813.77
876.896	10853.09
877.214	10708.24
877.533	10750.27
877.852	10749.59
878.17	10765.64
878.489	10759.99
878.807	10724.28
879.125	10668.46
879.444	10645.19
879.762	10720.89
880.08	10679.08
880.398	10594.11
880.716	10632.08
881.034	10587.33
881.352	10563.38
881.67	10478.86
881.988	10489.48
882.306	10516.38
882.624	10483.38
882.941	10396.61
883.259	10344.4
883.577	10375.36
883.894	10291.07
884.212	10351.41
884.529	10360.45
884.846	10297.4
885.164	10245.42
885.481	10182.83
885.798	10247.23
886.115	10156.39
886.432	10162.71
886.75	10085.2
887.067	10128.14
887.383	10084.52
887.7	10102.38
888.017	10021.7
888.334	10087.69
888.651	10023.51
888.967	10002.94
889.284	9937.18
889.6	9886.56
889.917	9831.65
890.233	9888.6
890.55	9778.99
890.866	9796.39
891.182	9765.21
891.498	9764.08
891.815	9676.85
892.131	9641.37
892.447	9580.13
892.763	9586.46
893.079	9603.63
893.395	9566.8
893.71	9595.72
894.026	9480.02
894.342	9419.68
894.657	9433.69
894.973	9493.13
895.289	9389.4
895.604	9401.38
895.92	9324.99
896.235	9251.1
896.55	9256.52
896.865	9311.66
897.181	9242.29
897.496	9214.49
897.811	9172.46
898.126	9126.36
898.441	9113.25
898.756	9093.14
899.071	8956.87
899.386	9019.24
899.7	8919.81
900.015	8888.4
900.33	8873.03
900.644	8854.95
900.959	8870.77
901.273	8784.9
901.588	8724.78
901.902	8678.46
902.216	8704.22
902.531	8648.85
902.845	8641.85
903.159	8480.5
903.473	8471.68
903.787	8515.98
904.101	8406.6
904.415	8489.99
904.729	8368.86
905.042	8376.77
905.356	8304.68
905.67	8360.5
905.984	8317.79
906.297	8270.33
906.611	8240.73
906.924	8219.94
907.237	8127.74
907.551	8121.86
907.864	8168.64
908.177	8094.97
908.491	8094.97
908.804	8035.99
909.117	8013.39
909.43	7903.79
909.743	7905.15
910.056	7876.67
910.368	7860.85
910.681	7823.57
910.994	7785.15
911.307	7763
911.619	7729.56
911.932	7728.88
912.244	7640.75
912.557	7747.64
912.869	7588.09
913.181	7592.39
913.494	7554.87
913.806	7438.49
914.118	7474.2
914.43	7407.53
914.742	7403.24
915.054	7383.35
915.366	7371.6
915.678	7308.32
915.99	7287.53
916.302	7227.2
916.613	7201.66
916.925	7184.03
917.236	7144.94
917.548	7119.4
917.859	7139.29
918.171	7043.92
918.482	7039.63
918.794	6983.36
919.105	6986.07
919.416	6934.32
919.727	6910.14
920.038	6894.1
920.349	6855.91
920.66	6791.5
920.971	6845.06
921.282	6815.46
921.593	6721.9
921.903	6739.07
922.214	6719.87
922.525	6629.7
922.835	6649.13
923.146	6623.15
923.456	6582.69
923.767	6609.36
924.077	6575.46
924.387	6511.28
924.697	6476.48
925.008	6458.18
925.318	6428.35
925.628	6415.01
925.938	6334.11
926.248	6283.04
926.558	6355.81
926.867	6303.15
927.177	6278.3
927.487	6282.82
927.796	6187
928.106	6188.81
928.416	6183.16
928.725	6115.14
929.034	6094.35
929.344	6111.29
929.653	6084.18
929.962	6093.67
930.271	6057.96
930.581	5934.12
930.89	5964.63
931.199	5916.95
931.508	5958.98
931.817	5870.62
932.125	5893.67
932.434	5876.27
932.743	5800.12
933.051	5758.99
933.36	5770.51
933.669	5693.9
933.977	5717.86
934.286	5683.96
934.594	5690.97
934.902	5670.63
935.21	5608.03
935.519	5650.29
935.827	5582.04
936.135	5554.02
936.443	5501.82
936.751	5556.51
937.059	5458.66
937.367	5458.66
937.674	5450.75
937.982	5434.25
938.29	5382.27
938.597	5332.11
938.905	5327.36
939.213	5302.28
939.52	5248.04
939.827	5293.24
940.135	5218.21
940.442	5266.57
940.749	5242.16
941.056	5218.89
941.363	5167.36
941.67	5142.96
941.977	5100.7
942.284	5055.5
942.591	5048.72
942.898	5061.15
943.205	5052.56
943.511	5017.76
943.818	5028.84
944.125	4925.11
944.431	4936.18
944.738	4911.33
945.044	4877.43
945.35	4876.75
945.657	4840.14
945.963	4834.94
946.269	4803.76
946.575	4825.68
946.881	4766.24
947.187	4773.48
947.493	4698
947.799	4712.23
948.105	4686.92
948.41	4644.89
948.716	4681.5
949.022	4678.34
949.327	4635.85
949.633	4568.51
949.938	4594.27
950.244	4572.13
950.549	4529.64
950.854	4554.72
951.16	4504.78
951.465	4490.09
951.77	4444.67
952.075	4447.38
952.38	4373.26
952.685	4434.5
952.99	4392.7
953.294	4359.02
953.599	4308.86
953.904	4334.17
954.209	4300.49
954.513	4289.2
954.818	4248.97
955.122	4190.67
955.426	4214.39
955.731	4186.37
956.035	4139.37
956.339	4127.17
956.643	4174.17
956.948	4110.89
957.252	4135.3
957.556	4093.95
957.86	4022.76
958.163	4069.09
958.467	4080.84
958.771	4064.34
959.075	4009.88
959.378	4003.1
959.682	3981.18
959.985	3960.62
960.289	3952.25
960.592	3936.21
960.896	3951.12
961.199	3924.46
961.502	3909.09
961.805	3860.51
962.108	3829.55
962.411	3819.6
962.714	3781.19
963.017	3766.5
963.32	3811.24
963.623	3754.75
963.926	3764.69
964.228	3755.42
964.531	3745.25
964.833	3706.16
965.136	3678.82
965.438	3682.43
965.741	3650.34
966.043	3611.92
966.345	3586.16
966.648	3622.32
966.95	3580.97
967.252	3515.88
967.554	3564.47
967.856	3571.47
968.158	3531.02
968.46	3487.86
968.761	3514.75
969.063	3484.47
969.365	3478.82
969.666	3457.13
969.968	3400.18
970.269	3426.84
970.571	3404.02
970.872	3405.6
971.174	3364.7
971.475	3329.67
971.776	3310.24
972.077	3338.94
972.378	3322.89
972.679	3337.58
972.98	3311.37
973.281	3297.81
973.582	3260.97
973.883	3279.5
974.183	3233.18
974.484	3228.66
974.785	3228.43
975.085	3204.48
975.386	3193.18
975.686	3158.15
975.986	3173.97
976.287	3165.16
976.587	3106.4
976.887	3103.92
977.187	3084.71
977.487	3049.23
977.787	3080.19
978.087	3055.33
978.387	3049.23
978.687	3008.1
978.987	3005.39
979.286	3005.16
979.586	2979.17
979.885	2983.92
980.185	2920.64
980.484	2966.74
980.784	2931.72
981.083	2888.55
981.382	2913.19
981.682	2884.49
981.981	2874.09
982.28	2856.46
982.579	2858.27
982.878	2828.67
983.177	2804.04
983.475	2817.82
983.774	2797.03
984.073	2827.09
984.372	2743.47
984.67	2791.16
984.969	2803.36
985.267	2733.98
985.566	2756.13
985.864	2724.94
986.162	2717.49
986.461	2638.17
986.759	2666.86
987.057	2649.01
987.355	2667.99
987.653	2651.05
987.951	2621.44
988.249	2628.67
988.547	2634.32
988.844	2565.4
989.142	2571.5
989.44	2547.32
989.737	2551.16
990.035	2559.52
990.332	2513.65
990.63	2536.25
990.927	2522.91
991.224	2495.12
991.521	2471.39
991.819	2491.5
992.116	2468.68
992.413	2453.76
992.71	2456.02
993.006	2433.2
993.303	2400.43
993.6	2428.45
993.897	2408.34
994.193	2374.9
994.49	2354.56
994.787	2358.62
995.083	2351.84
995.379	2328.79
995.676	2328.12
995.972	2293.32
996.268	2295.12
996.565	2305.07
996.861	2235.92
997.157	2273.65
997.453	2225.29
997.749	2240.66
998.044	2224.62
998.34	2202.92
998.636	2203.83
998.932	2208.12
999.227	2163.15
999.523	2150.49
999.818	2148.91
1000.114	2118.18
1000.409	2147.56
1000.704	2121.57
1001	2089.03
1001.295	2078.86
1001.59	2058.07
1001.885	2077.5
1002.18	2082.25
1002.475	2058.29
1002.77	2046.09
1003.065	2022.81
1003.359	2024.62
1003.654	2034.79
1003.949	2018.07
1004.243	1970.61
1004.538	2002.25
1004.832	1963.83
1005.127	1944.4
1005.421	1934
1005.715	1922.48
1006.009	1932.87
1006.304	1922.93
1006.598	1907.34
1006.892	1921.35
1007.186	1863.04
1007.48	1899.2
1007.773	1852.42
1008.067	1829.6
1008.361	1834.12
1008.655	1804.29
1008.948	1782.59
1009.242	1795.7
1009.535	1807
1009.829	1781.69
1010.122	1759.77
1010.415	1765.87
1010.708	1741.47
1011.001	1747.57
1011.295	1742.14
1011.588	1692.43
1011.881	1707.34
1012.173	1732.88
1012.466	1682.71
1012.759	1698.53
1013.052	1689.04
1013.344	1677.29
1013.637	1636.61
1013.93	1648.13
1014.222	1605.88
1014.514	1644.97
1014.807	1603.39
1015.099	1601.81
1015.391	1603.39
1015.683	1599.77
1015.976	1569.94
1016.268	1564.07
1016.56	1540.79
1016.851	1571.3
1017.143	1527.46
1017.435	1555.03
1017.727	1522.71
1018.018	1546.22
1018.31	1498.08
1018.602	1473.9
1018.893	1504.18
1019.185	1469.83
1019.476	1460.12
1019.767	1456.05
1020.058	1441.59
1020.35	1435.48
1020.641	1404.07
1020.932	1425.99
1021.223	1400.01
1021.514	1413.56
1021.804	1390.06
1022.095	1366.56
1022.386	1371.76
1022.677	1400.91
1022.967	1346
1023.258	1332.66
1023.548	1334.47
1023.839	1322.49
1024.129	1312.1
1024.419	1302.61
1024.709	1303.28
1025	1301.93
1025.29	1269.84
1025.58	1267.35
1025.87	1268.71
1026.16	1262.38
1026.449	1261.03
1026.739	1245.66
1027.029	1248.15
1027.319	1236.17
1027.608	1238.43
1027.898	1216.51
1028.187	1203.17
1028.477	1207.92
1028.766	1201.37
1029.055	1177.64
1029.344	1160.24
1029.634	1157.07
1029.923	1174.47
1030.212	1146
1030.501	1129.96
1030.79	1132.67
1031.078	1133.57
1031.367	1129.5
1031.656	1111.88
1031.945	1103.74
1032.233	1113.23
1032.522	1094.7
1032.81	1067.81
1033.099	1082.27
1033.387	1075.72
1033.675	1071.43
1033.963	1049.28
1034.251	1059.22
1034.54	1053.35
1034.828	1038.21
1035.116	1038.21
1035.403	1019.68
1035.691	1013.8
1035.979	1046.57
1036.267	1005.89
1036.554	1007.93
1036.842	955.27
1037.129	1015.61
1037.417	982.16
1037.704	992.33
1037.992	976.06
1038.279	969.28
1038.566	963.86
1038.853	963.86
1039.14	963.86
