Data from hue_220_FLMS001491_00020.txt Node
Date: Tue Feb 07 16:38:37 GMT 2017
User: dcchb
Spectrometer: FLMS00149
Trigger mode: 0
Integration Time (sec): 2.000000E-2
Scans to average: 10
Electric dark correction enabled: true
Nonlinearity correction enabled: false
Boxcar width: 0
XAxis mode: Wavelengths
Number of Pixels in Spectrum: 2048
>>>>>Begin Spectral Data<<<<<
341.393	-5.34
341.776	-5.34
342.16	-5.34
342.543	-58.67
342.927	-59.8
343.31	-81.04
343.693	-74.04
344.077	-66.81
344.46	-68.16
344.843	-56.86
345.226	-52.34
345.61	-23.87
345.993	-16.86
346.376	18.62
346.759	11.84
347.142	36.92
347.525	50.93
347.908	64.04
348.291	50.93
348.674	99.74
349.057	106.97
349.44	116.24
349.823	146.75
350.206	175.22
350.588	219.06
350.971	215.22
351.354	244.37
351.737	228.1
352.119	249.12
352.502	265.16
352.884	278.72
353.267	276.69
353.65	283.92
354.032	302
354.414	297.25
354.797	320.98
355.179	338.15
355.562	312.39
355.944	337.48
356.326	330.7
356.709	350.36
357.091	335.44
357.473	330.47
357.855	335.22
358.238	333.64
358.62	349
359.002	352.39
359.384	323.47
359.766	317.36
360.148	345.39
360.53	344.93
360.912	317.82
361.294	341.77
361.676	338.15
362.057	326.63
362.439	342.9
362.821	336.57
363.203	355.78
363.584	301.09
363.966	337.93
364.348	320.75
364.729	320.75
365.111	325.5
365.493	304.03
365.874	303.13
366.256	312.62
366.637	316.91
367.019	337.25
367.4	313.75
367.781	313.52
368.163	307.87
368.544	288.66
368.925	313.07
369.306	309.68
369.688	320.98
370.069	308.33
370.45	301.77
370.831	322.11
371.212	308.55
371.593	302.22
371.974	309.91
372.355	322.79
372.736	311.26
373.117	321.66
373.498	313.07
373.879	317.36
374.26	316.01
374.641	334.31
375.021	308.55
375.402	318.49
375.783	318.04
376.163	297.25
376.544	320.53
376.925	316.69
377.305	328.21
377.686	330.02
378.066	327.99
378.447	321.21
378.827	332.51
379.208	342
379.588	315.33
379.968	315.1
380.349	334.09
380.729	333.86
381.109	311.49
381.489	311.94
381.87	332.96
382.25	337.93
382.63	340.19
383.01	348.1
383.39	340.64
383.77	342.45
384.15	352.17
384.53	351.71
384.91	350.13
385.29	325.05
385.67	344.71
386.049	351.26
386.429	353.97
386.809	339.28
387.189	369.11
387.568	365.27
387.948	359.85
388.328	347.42
388.707	346.52
389.087	372.05
389.466	353.97
389.846	360.75
390.225	366.18
390.605	353.3
390.984	372.73
391.363	350.13
391.743	385.61
392.122	375.67
392.501	366.18
392.881	360.53
393.26	375.67
393.639	377.02
394.018	375.89
394.397	375.89
394.776	369.34
395.155	397.81
395.534	384.48
395.913	365.27
396.292	381.77
396.671	392.84
397.05	390.81
397.429	386.97
397.808	381.77
398.186	396.68
398.565	403.69
398.944	419.28
399.323	410.7
399.701	393.97
400.08	405.72
400.458	403.92
400.837	417.47
401.215	430.58
401.594	402.33
401.972	434.42
402.351	406.85
402.729	409.34
403.107	437.59
403.486	429.23
403.864	406.4
404.242	437.14
404.62	452.73
404.999	429.68
405.377	453.18
405.755	421.99
406.133	464.48
406.511	452.95
406.889	438.94
407.267	468.32
407.645	483.24
408.023	483.46
408.401	499.05
408.779	490.02
409.156	492.28
409.534	520.75
409.912	497.92
410.29	498.83
410.667	515.55
411.045	528.21
411.422	532.5
411.8	537.25
412.178	552.61
412.555	532.05
412.933	570.92
413.31	574.31
413.687	600.07
414.065	588.54
414.442	585.38
414.819	591.48
415.197	609.56
415.574	600.07
415.951	631.48
416.328	611.37
416.705	642.78
417.082	632.84
417.46	656.11
417.837	668.09
418.214	661.08
418.591	686.39
418.967	674.64
419.344	686.62
419.721	703.12
420.098	695.21
420.475	709.67
420.852	748.99
421.228	732.04
421.605	747.18
421.982	769.56
422.358	770.69
422.735	770.01
423.111	818.59
423.488	798.03
423.864	824.24
424.241	841.42
424.617	838.48
424.994	858.59
425.37	851.14
425.746	858.37
426.123	891.81
426.499	900.17
426.875	913.06
427.251	920.96
427.627	943.56
428.003	946.95
428.379	978.36
428.756	989.89
429.132	997.35
429.507	985.14
429.883	1000.74
430.259	1030.79
430.635	1049.77
431.011	1066.95
431.387	1060.17
431.763	1109.43
432.138	1111.47
432.514	1094.07
432.89	1141.98
433.265	1157.57
433.641	1177.68
434.016	1192.37
434.392	1214.74
434.767	1196.21
435.143	1248.41
435.518	1273.95
435.894	1292.71
436.269	1323.89
436.644	1333.38
437.02	1339.03
437.395	1354.4
437.77	1378.13
438.145	1407.05
438.52	1424.68
438.895	1436.43
439.271	1462.42
439.646	1472.14
440.021	1524.11
440.395	1532.02
440.77	1521.4
441.145	1560.27
441.52	1587.84
441.895	1574.73
442.27	1614.28
442.645	1616.09
443.019	1658.8
443.394	1658.35
443.769	1655.18
444.143	1683.43
444.518	1711.23
444.892	1740.38
445.267	1737.67
445.641	1752.13
446.016	1762.3
446.39	1791.45
446.764	1777.44
447.139	1782.18
447.513	1799.13
447.887	1808.4
448.262	1819.7
448.636	1841.39
449.01	1868.96
449.384	1877.1
449.758	1914.38
450.132	1875.74
450.506	1899.47
450.88	1915.74
451.254	1957.1
451.628	1984.89
452.002	2015.17
452.376	1982.18
452.75	2023.08
453.123	2009.75
453.497	2075.06
453.871	2071.22
454.244	2134.49
454.618	2119.35
454.992	2165.9
455.365	2143.31
455.739	2198.9
456.112	2201.83
456.486	2248.16
456.859	2244.32
457.232	2316.86
457.606	2286.13
457.979	2295.39
458.352	2308.27
458.725	2374.49
459.099	2380.59
459.472	2401.83
459.845	2446.12
460.218	2477.31
460.591	2477.99
460.964	2499.23
461.337	2560.02
461.71	2571.09
462.083	2612.22
462.456	2630.98
462.829	2622.84
463.201	2682.27
463.574	2712.1
463.947	2696.51
464.32	2803.4
464.692	2809.5
465.065	2815.6
465.438	2876.17
465.81	2884.08
466.183	2931.08
466.555	2972.21
466.928	2978.31
467.3	2940.8
467.672	3033.23
468.045	3105.31
468.417	3088.82
468.789	3111.19
469.161	3159.55
469.534	3187.35
469.906	3226.21
470.278	3259.66
470.65	3314.35
471.022	3368.81
471.394	3422.82
471.766	3431.18
472.138	3438.64
472.51	3543.04
472.882	3586.66
473.253	3612.42
473.625	3700.33
473.997	3746.43
474.369	3724.51
474.74	3784.17
475.112	3796.37
475.484	3896.71
475.855	3947.55
476.227	3947.1
476.598	4079.3
476.97	4109.13
477.341	4171.27
477.713	4196.13
478.084	4228.45
478.455	4352.74
478.827	4369.24
479.198	4450.82
479.569	4489.46
479.94	4580.53
480.311	4637.93
480.682	4739.4
481.053	4803.57
481.424	4882.89
481.795	4950.01
482.166	4947.07
482.537	5000.18
482.908	5086.73
483.279	5105.71
483.65	5218.48
484.021	5248.53
484.391	5328.53
484.762	5409.66
485.133	5395.42
485.503	5487.85
485.874	5582.99
486.244	5603.55
486.615	5698.24
486.985	5744.57
487.356	5848.97
487.726	5888.52
488.097	5941.4
488.467	6008.97
488.837	6077.21
489.207	6161.5
489.578	6243.08
489.948	6275.63
490.318	6297.09
490.688	6352.69
491.058	6409.18
491.428	6505.68
491.798	6531.89
492.168	6646.24
492.538	6688.27
492.908	6717.65
493.278	6772.79
493.648	6761.26
494.017	6911.32
494.387	6964.2
494.757	6955.61
495.126	7045.55
495.496	7089.62
495.866	7067.47
496.235	7109.73
496.605	7175.04
496.974	7159.44
497.344	7245.09
497.713	7293.45
498.082	7271.76
498.452	7408.7
498.821	7368.7
499.19	7429.72
499.559	7457.29
499.928	7446.44
500.298	7526.89
500.667	7579.55
501.036	7520.34
501.405	7537.51
501.774	7617.74
502.143	7631.75
502.512	7635.82
502.88	7720.11
503.249	7716.94
503.618	7770.5
503.987	7748.81
504.356	7833.1
504.724	7844.4
505.093	7827
505.462	7859.99
505.83	7884.17
506.199	7931.4
506.567	7988.12
506.936	7967.56
507.304	8065.18
507.672	8016.37
508.041	8050.04
508.409	8098.4
508.777	8090.04
509.145	8168.23
509.514	8125.29
509.882	8167.78
510.25	8170.94
510.618	8172.3
510.986	8151.96
511.354	8223.37
511.722	8281.45
512.09	8270.83
512.458	8245.29
512.826	8280.32
513.193	8362.8
513.561	8343.59
513.929	8328
514.297	8395.34
514.664	8438.05
515.032	8374.78
515.4	8490.26
515.767	8420.88
516.135	8444.38
516.502	8377.04
516.869	8512.4
517.237	8484.16
517.604	8401.45
517.972	8445.51
518.339	8459.52
518.706	8502.46
519.073	8499.3
519.44	8494.32
519.808	8543.81
520.175	8532.29
520.542	8587.2
520.909	8603.47
521.276	8523.48
521.643	8601.21
522.009	8566.41
522.376	8670.59
522.743	8592.4
523.11	8669.91
523.477	8695.45
523.843	8719.86
524.21	8698.16
524.577	8828.1
524.943	8765.28
525.31	8762.34
525.676	8744.71
526.043	8734.32
526.409	8761.21
526.776	8837.14
527.142	8766.86
527.508	8802.57
527.874	8814.54
528.241	8856.8
528.607	8797.82
528.973	8800.31
529.339	8788.33
529.705	8839.63
530.071	8858.61
530.437	8847.99
530.803	8814.99
531.169	8862.22
531.535	8828.33
531.901	8784.94
532.267	8781.1
532.632	8838.95
532.998	8805.5
533.364	8790.81
533.73	8809.57
534.095	8782
534.461	8783.36
534.826	8758.5
535.192	8798.5
535.557	8805.05
535.923	8776.8
536.288	8765.5
536.653	8761.66
537.019	8667.65
537.384	8739.06
537.749	8682.57
538.114	8653.42
538.479	8666.07
538.845	8699.74
539.21	8605.06
539.575	8603.93
539.94	8574.1
540.305	8563.7
540.67	8596.24
541.034	8545.62
541.399	8498.17
541.764	8512.86
542.129	8528.67
542.494	8498.17
542.858	8501.56
543.223	8453.42
543.587	8506.53
543.952	8451.61
544.316	8439.64
544.681	8364.61
545.045	8405.51
545.41	8391.05
545.774	8402.12
546.138	8337.72
546.503	8364.84
546.867	8297.72
547.231	8246.2
547.595	8243.71
547.959	8262.92
548.324	8185.86
548.688	8212.75
549.052	8219.53
549.416	8118.29
549.779	8122.58
550.143	8147.44
550.507	8161.68
550.871	8101.11
551.235	8085.07
551.599	8123.94
551.962	8109.02
552.326	8071.51
552.689	8042.81
553.053	8049.14
553.417	7996.94
553.78	8125.52
554.143	7995.35
554.507	8026.54
554.87	8037.84
555.234	8008.24
555.597	7903.15
555.96	7967.78
556.323	7916.49
556.686	7900.67
557.05	7963.72
557.413	7933.21
557.776	7927.33
558.139	7951.29
558.502	7933.44
558.865	7928.24
559.228	8025.64
559.59	7947.67
559.953	7965.75
560.316	7989.48
560.679	7966.2
561.041	8014.56
561.404	8049.14
561.767	7979.08
562.129	8008.91
562.492	8018.18
562.854	7951.06
563.217	7993.32
563.579	7982.25
563.941	7964.62
564.304	7969.14
564.666	8046.2
565.028	8050.49
565.39	8030.16
565.753	8070.83
566.115	8026.77
566.477	8056.14
566.839	8056.82
567.201	8059.76
567.563	8106.31
567.925	8198.29
568.287	8106.09
568.648	8135.01
569.01	8121.45
569.372	8220.89
569.734	8168.23
570.095	8222.02
570.457	8193.99
570.819	8203.26
571.18	8236.48
571.542	8294.78
571.903	8271.51
572.265	8287.55
572.626	8259.08
572.987	8318.51
573.349	8306.31
573.71	8343.14
574.071	8363.48
574.432	8346.31
574.794	8398.96
575.155	8405.74
575.516	8381.79
575.877	8433.31
576.238	8455.68
576.599	8439.41
576.96	8461.33
577.32	8506.53
577.681	8509.01
578.042	8498.62
578.403	8520.76
578.763	8574.55
579.124	8538.62
579.485	8548.11
579.845	8615.45
580.206	8583.81
580.566	8564.83
580.927	8662.46
581.287	8664.94
581.648	8638.05
582.008	8645.06
582.368	8659.97
582.728	8689.8
583.089	8678.95
583.449	8736.8
583.809	8734.77
584.169	8742.23
584.529	8719.63
584.889	8842.34
585.249	8743.13
585.609	8750.59
585.969	8809.57
586.329	8832.62
586.688	8801.21
587.048	8838.04
587.408	8853.86
587.768	8836.24
588.127	8846.41
588.487	8806.18
588.846	8890.7
589.206	8895.9
589.565	8924.14
589.925	8965.95
590.284	9019.51
590.643	8948.78
591.003	9001.43
591.362	9022.67
591.721	8989
592.08	9014.99
592.44	9040.75
592.799	9111.71
593.158	9003.24
593.517	9097.47
593.876	9092.05
594.235	9107.19
594.593	9075.1
594.952	9095.89
595.311	9000.53
595.67	9090.24
596.029	9147.64
596.387	9178.83
596.746	9179.28
597.104	9095.21
597.463	9215.66
597.822	9192.84
598.18	9165.72
598.538	9134.08
598.897	9258.82
599.255	9123.91
599.613	9221.54
599.972	9169.11
600.33	9225.15
600.688	9225.83
601.046	9212.5
601.404	9238.94
601.762	9251.59
602.12	9341.76
602.478	9273.29
602.836	9270.12
603.194	9204.81
603.552	9263.34
603.91	9261.54
604.268	9304.47
604.625	9301.99
604.983	9282.55
605.341	9230.8
605.698	9351.7
606.056	9280.74
606.413	9277.81
606.771	9318.26
607.128	9364.13
607.485	9295.43
607.843	9254.3
608.2	9394.64
608.557	9362.78
608.914	9339.05
609.272	9403.45
609.629	9373.85
609.986	9399.61
610.343	9360.29
610.7	9446.16
611.057	9453.85
611.414	9465.6
611.771	9444.81
612.127	9440.51
612.484	9450.91
612.841	9537.24
613.198	9460.63
613.554	9428.09
613.911	9533.85
614.267	9481.42
614.624	9474.19
614.98	9518.25
615.337	9525.71
615.693	9515.09
616.05	9517.8
616.406	9517.57
616.762	9539.04
617.118	9530.91
617.475	9566.16
617.831	9606.61
618.187	9601.87
618.543	9607.06
618.899	9583.11
619.255	9635.09
619.611	9585.82
619.967	9682.77
620.323	9642.54
620.678	9641.19
621.034	9651.58
621.39	9644.35
621.746	9622.2
622.101	9710.11
622.457	9616.56
622.812	9647.51
623.168	9671.69
623.523	9620.85
623.879	9662.66
624.234	9590.34
624.589	9613.39
624.945	9699.26
625.3	9639.38
625.655	9655.2
626.01	9669.89
626.365	9676.89
626.72	9622.43
627.075	9594.63
627.43	9605.26
627.785	9563
628.14	9600.51
628.495	9634.41
628.85	9706.04
629.205	9563.22
629.559	9646.84
629.914	9653.84
630.269	9611.36
630.623	9553.28
630.978	9573.62
631.332	9628.98
631.687	9619.49
632.041	9557.35
632.396	9631.7
632.75	9524.35
633.104	9533.62
633.459	9482.1
633.813	9470.57
634.167	9475.54
634.521	9466.28
634.875	9532.26
635.229	9496.56
635.583	9432.38
635.937	9386.05
636.291	9361.42
636.645	9445.49
636.999	9398.93
637.352	9388.54
637.706	9312.16
638.06	9434.64
638.413	9385.6
638.767	9327.98
639.121	9391.02
639.474	9291.37
639.828	9312.38
640.181	9344.02
640.534	9287.75
640.888	9274.64
641.241	9257.69
641.594	9250.46
641.947	9316.22
642.301	9268.09
642.654	9243.46
643.007	9262.44
643.36	9307.86
643.713	9253.4
644.066	9302.89
644.419	9217.47
644.771	9211.37
645.124	9075.55
645.477	9084.14
645.83	9023.58
646.182	8981.32
646.535	8962.11
646.888	9054.08
647.24	8938.38
647.593	8937.93
647.945	8968.44
648.298	8954.88
648.65	8862.9
649.002	8848.21
649.355	8921.21
649.707	8962.56
650.059	8956.69
650.411	9022.9
650.763	9099.51
651.115	9151.03
651.467	9183.57
651.819	9084.82
652.171	9037.14
652.523	9061.99
652.875	9090.47
653.227	9030.36
653.578	9109.22
653.93	9068.09
654.282	9097.25
654.633	9066.29
654.985	9052.5
655.337	9031.94
655.688	9069
656.039	9102.9
656.391	9072.84
656.742	9082.78
657.094	9167.08
657.445	9104.25
657.796	9092.73
658.147	9072.84
658.498	9113.07
658.849	9166.4
659.2	9101.54
659.551	9086.63
659.902	9132.05
660.253	9175.44
660.604	9182.44
660.955	9118.49
661.306	9130.47
661.656	9128.66
662.007	9163.69
662.358	9102.67
662.708	9072.16
663.059	9124.59
663.409	9067.87
663.76	9146.28
664.11	9193.74
664.461	9165.72
664.811	9128.43
665.161	9159.84
665.511	9079.62
665.862	9123.69
666.212	9217.24
666.562	9137.47
666.912	9181.09
667.262	9124.14
667.612	9152.84
667.962	9181.54
668.312	9172.72
668.662	9152.39
669.011	9105.16
669.361	9155.1
669.711	9103.12
670.06	9088.89
670.41	9080.98
670.76	9093.86
671.109	9170.92
671.459	9063.8
671.808	9103.12
672.157	9104.7
672.507	9075.78
672.856	9060.19
673.205	9090.69
673.554	9097.02
673.904	9032.16
674.253	9129.79
674.602	9059.28
674.951	8934.99
675.3	8875.78
675.649	9042.56
675.998	8983.13
676.346	9026.29
676.695	9051.6
677.044	8982.9
677.393	8998.72
677.741	8972.96
678.09	8942.22
678.438	8901.32
678.787	8920.3
679.135	8888.89
679.484	8949.23
679.832	8903.58
680.181	8950.58
680.529	8937.7
680.877	8878.95
681.225	8813.41
681.573	8947.65
681.922	8809.12
682.27	8768.44
682.618	8700.87
682.966	8788.55
683.314	8732.06
683.661	8737.71
684.009	8757.82
684.357	8661.55
684.705	8715.56
685.053	8735.67
685.4	8704.49
685.748	8592.85
686.095	8598.5
686.443	8589.46
686.79	8526.41
687.138	8588.33
687.485	8530.93
687.832	8549.69
688.18	8520.76
688.527	8475.57
688.874	8448.45
689.221	8468.11
689.568	8394.67
689.915	8336.36
690.262	8382.69
690.609	8349.47
690.956	8295.23
691.303	8312.41
691.65	8329.81
691.997	8251.62
692.344	8160.77
692.69	8174.33
693.037	8177.04
693.383	8097.72
693.73	8135.24
694.077	8089.59
694.423	8078.06
694.769	8029.93
695.116	8048.91
695.462	8048.46
695.808	7963.94
696.155	7976.15
696.501	7835.81
696.847	7907
697.193	7846.21
697.539	7823.61
697.885	7769.82
698.231	7785.19
698.577	7735.47
698.923	7699.09
699.269	7661.13
699.614	7642.14
699.96	7577.06
700.306	7629.26
700.651	7595.82
700.997	7508.36
701.342	7488.93
701.688	7546.78
702.033	7440.57
702.379	7446.67
702.724	7462.04
703.069	7462.26
703.415	7269.5
703.76	7314.69
704.105	7309.05
704.45	7307.01
704.795	7258.88
705.14	7250.97
705.485	7241.25
705.83	7194.92
706.175	7174.59
706.52	7164.42
706.865	7097.53
707.209	7151.76
707.554	7082.84
707.899	7137.3
708.243	7096.62
708.588	7006
708.932	7012.56
709.277	7018.88
709.621	7017.3
709.966	6974.59
710.31	6995.38
710.654	6953.12
710.998	6952.22
711.342	6916.97
711.687	6852.33
712.031	6875.38
712.375	6844.88
712.719	6860.7
713.063	6866.12
713.407	6850.3
713.75	6775.95
714.094	6829.74
714.438	6722.85
714.782	6766.69
715.125	6713.35
715.469	6727.59
715.812	6674.26
716.156	6712.22
716.499	6695.95
716.843	6730.76
717.186	6648.5
717.53	6666.12
717.873	6676.97
718.216	6646.24
718.559	6599.46
718.902	6632.45
719.246	6605.11
719.589	6567.14
719.932	6587.71
720.275	6547.94
720.617	6546.58
720.96	6573.47
721.303	6599.01
721.646	6535.73
721.989	6538.22
722.331	6522.17
722.674	6541.16
723.016	6493.7
723.359	6535.73
723.701	6511.78
724.044	6483.08
724.386	6476.3
724.729	6519.24
725.071	6479.46
725.413	6457.77
725.755	6473.59
726.097	6418.22
726.439	6410.54
726.782	6383.65
727.124	6423.19
727.465	6446.47
727.807	6398.79
728.149	6410.54
728.491	6389.75
728.833	6398.56
729.175	6355.17
729.516	6443.31
729.858	6368.28
730.199	6394.49
730.541	6432.68
730.882	6375.06
731.224	6376.41
731.565	6384.32
731.906	6335.06
732.248	6398.33
732.589	6366.47
732.93	6351.1
733.271	6372.35
733.612	6409.63
733.953	6445.34
734.294	6372.8
734.635	6376.87
734.976	6392.46
735.317	6372.57
735.658	6377.32
735.999	6404.66
736.339	6405.57
736.68	6377.09
737.021	6415.96
737.361	6380.93
737.702	6459.12
738.042	6409.18
738.383	6400.82
738.723	6379.58
739.063	6458.22
739.404	6456.19
739.744	6410.54
740.084	6454.38
740.424	6459.35
740.764	6459.8
741.104	6466.58
741.444	6448.05
741.784	6516.07
742.124	6495.51
742.464	6549.52
742.804	6524.88
743.143	6486.69
743.483	6592.45
743.823	6579.8
744.162	6599.46
744.502	6628.16
744.841	6626.58
745.181	6766.23
745.52	6731.21
745.86	6763.75
746.199	6758.33
746.538	6790.19
746.877	6877.42
747.216	6975.04
747.556	6913.12
747.895	6951.77
748.234	7015.95
748.573	7097.75
748.911	7068.83
749.25	7149.95
749.589	7201.7
749.928	7268.37
750.267	7336.62
750.605	7350.63
750.944	7438.08
751.283	7460
751.621	7591.98
751.96	7650.96
752.298	7714.91
752.636	7804.17
752.975	7874.68
753.313	7912.87
753.651	8106.76
753.989	8202.58
754.327	8241.9
754.666	8313.31
755.004	8440.99
755.342	8623.36
755.679	8733.19
756.017	8761.66
756.355	8944.93
756.693	9123.23
757.031	9206.62
757.368	9321.65
757.706	9409.1
758.044	9598.25
758.381	9727.51
758.719	9909.43
759.056	10005.7
759.394	10238.01
759.731	10289.08
760.068	10436.65
760.405	10588.28
760.743	10765.45
761.08	10913.02
761.417	11062.62
761.754	11217.87
762.091	11461.93
762.428	11576.05
762.765	11651.3
763.102	11837.97
763.438	11979.66
763.775	12204.74
764.112	12347.78
764.449	12579.87
764.785	12680.66
765.122	12825.74
765.458	12967.2
765.795	13114.32
766.131	13328.55
766.467	13436.79
766.804	13514.08
767.14	13672.95
767.476	13917.23
767.812	14010.56
768.148	14220.28
768.485	14234.29
768.821	14459.59
769.157	14622.53
769.492	14710.43
769.828	14952.46
770.164	14900.94
770.5	15042.85
770.836	15184.77
771.171	15148.84
771.507	15364.2
771.842	15380.92
772.178	15499.34
772.513	15672.67
772.849	15695.04
773.184	15827.69
773.519	15957.41
773.855	16100.9
774.19	16089.83
774.525	16140.68
774.86	16222.48
775.195	16368.69
775.53	16361.24
775.865	16444.17
776.2	16439.2
776.535	16445.75
776.87	16530.05
777.205	16645.75
777.539	16685.3
777.874	16800.77
778.209	16658.18
778.543	16814.33
778.878	16852.97
779.212	16858.4
779.547	16845.52
779.881	17016.81
780.215	16955.12
780.55	17140.2
780.884	17018.85
781.218	17071.27
781.552	17207.32
781.886	17059.3
782.22	17093.87
782.554	17073.99
782.888	17000.32
783.222	17089.13
783.556	17082.57
783.889	17029.69
784.223	17027.89
784.557	17040.99
784.89	17078.05
785.224	17149.92
785.557	17052.07
785.891	17009.13
786.224	17060.65
786.558	17076.25
786.891	16924.84
787.224	16924.16
787.557	16881.45
787.891	17006.19
788.224	17076.92
788.557	16932.07
788.89	16951.28
789.223	16994.67
789.556	16901.79
789.888	16944.27
790.221	16819.76
790.554	16697.27
790.887	16737.27
791.219	16746.76
791.552	16721.23
791.884	16669.48
792.217	16702.47
792.549	16699.76
792.882	16629.48
793.214	16584.28
793.546	16682.81
793.879	16558.97
794.211	16416.6
794.543	16519.88
794.875	16511.29
795.207	16589.48
795.539	16426.77
795.871	16512.64
796.203	16361.01
796.535	16341.35
796.867	16309.71
797.198	16291.41
797.53	16286.21
797.862	16127.34
798.193	16202.14
798.525	16065.88
798.856	16082.83
799.188	16008.7
799.519	15911.08
799.85	15923.51
800.182	15914.02
800.513	15897.29
800.844	15840.8
801.175	15852.78
801.506	15890.74
801.837	15730.97
802.168	15788.82
802.499	15787.92
802.83	15623.18
803.161	15681.93
803.491	15594.93
803.822	15670.18
804.153	15500.69
804.483	15398.55
804.814	15478.55
805.145	15387.93
805.475	15367.59
805.805	15288.04
806.136	15403.75
806.466	15415.72
806.796	15367.14
807.126	15223.87
807.457	15220.25
807.787	15305.22
808.117	15235.39
808.447	15081.95
808.777	15178.67
809.107	15078.56
809.436	15055.28
809.766	15090.99
810.096	14910.65
810.426	14960.37
810.755	14895.51
811.085	14867.94
811.414	14905.91
811.744	14771.9
812.073	14755.85
812.403	14763.76
812.732	14688.74
813.061	14763.76
813.39	14681.28
813.719	14584.79
814.049	14699.36
814.378	14576.42
814.707	14562.64
815.036	14461.17
815.365	14525.13
815.693	14454.39
816.022	14404.23
816.351	14373.04
816.68	14276.77
817.008	14424.56
817.337	14222.76
817.665	14215.76
817.994	14181.63
818.322	14247.17
818.651	14152.26
818.979	14135.08
819.307	14185.47
819.636	14094.4
819.964	14142.09
820.292	14162.65
820.62	14166.27
820.948	14056.66
821.276	14079.49
821.604	14080.62
821.932	14020.51
822.259	14101.41
822.587	14080.39
822.915	14084.46
823.243	14061.64
823.57	14042.88
823.898	14103.67
824.225	14012.37
824.553	14041.98
824.88	14095.53
825.207	14069.09
825.535	14076.1
825.862	14050.11
826.189	13974.41
826.516	14166.72
826.843	14093.27
827.17	14211.01
827.497	14146.38
827.824	14085.14
828.151	14166.49
828.478	14112.26
828.805	14160.39
829.131	14067.96
829.458	14090.34
829.785	14038.81
830.111	14142.31
830.438	14126.72
830.764	14166.04
831.09	14139.6
831.417	14029.09
831.743	14176.89
832.069	14145.7
832.395	14041.07
832.722	14049.66
833.048	14040.62
833.374	13998.13
833.7	14039.26
834.026	14053.27
834.351	14056.89
834.677	14000.62
835.003	14059.83
835.329	14031.58
835.654	14020.73
835.98	13933.5
836.306	13903.9
836.631	13944.35
836.956	13912.04
837.282	13961.07
837.607	13974.63
837.932	13871.13
838.258	13863.22
838.583	13782.77
838.908	13766.5
839.233	13836.33
839.558	13725.15
839.883	13675.43
840.208	13705.71
840.533	13719.95
840.858	13676.56
841.182	13618.71
841.507	13682.44
841.832	13569.67
842.156	13590.91
842.481	13556.34
842.805	13475.66
843.13	13475.66
843.454	13432.27
843.778	13386.4
844.103	13382.11
844.427	13257.82
844.751	13369.22
845.075	13316.12
845.399	13246.97
845.723	13197.7
846.047	13184.6
846.371	13114.99
846.695	13101.44
847.019	13054.43
847.343	12938.05
847.666	12874.1
847.99	12865.51
848.313	12829.8
848.637	12656.93
848.96	12724.5
849.284	12717.72
849.607	12563.37
849.931	12627.55
850.254	12427.33
850.577	12429.81
850.9	12387.33
851.223	12397.5
851.546	12307.56
851.869	12248.8
852.192	12288.58
852.515	12168.8
852.838	12104.85
853.161	12082.48
853.483	12096.04
853.806	11985.76
854.129	11993.89
854.451	11982.82
854.774	11924.74
855.096	11851.52
855.419	11803.39
855.741	11820.11
856.063	11701.47
856.385	11670.74
856.708	11664.86
857.03	11601.36
857.352	11642.94
857.674	11536.73
857.996	11524.53
858.318	11474.59
858.64	11472.55
858.961	11426.45
859.283	11426.68
859.605	11328.15
859.926	11297.19
860.248	11299.22
860.57	11321.82
860.891	11280.92
861.212	11198.43
861.534	11195.04
861.855	11138.32
862.176	11183.52
862.498	11166.8
862.819	11186.01
863.14	11122.96
863.461	11056.74
863.782	11068.04
864.103	10967.71
864.424	11008.83
864.745	10972.23
865.065	10974.71
865.386	10845.68
865.707	10836.41
866.027	10918.22
866.348	10813.81
866.668	10843.87
866.989	10878.89
867.309	10767.26
867.63	10765.45
867.95	10800.7
868.27	10730.65
868.59	10753.02
868.91	10673.02
869.23	10753.25
869.55	10655.4
869.87	10765.23
870.19	10648.84
870.51	10763.87
870.83	10624.89
871.15	10573.59
871.469	10562.07
871.789	10615.4
872.109	10501.73
872.428	10552.58
872.748	10528.85
873.067	10517.32
873.386	10577.21
873.706	10499.92
874.025	10385.8
874.344	10390.77
874.663	10376.54
874.982	10393.94
875.301	10419.7
875.62	10395.97
875.939	10333.15
876.258	10342.41
876.577	10339.25
876.896	10249.76
877.214	10334.28
877.533	10332.02
877.852	10196.2
878.17	10249.08
878.489	10212.92
878.807	10195.07
879.125	10253.37
879.444	10236.2
879.762	10131.57
880.08	10107.16
880.398	10095.41
880.716	10090.67
881.034	10082.98
881.352	10083.21
881.67	10090.21
881.988	10011.12
882.306	9987.62
882.624	10014.28
882.941	9960.27
883.259	9936.09
883.577	9885.7
883.894	9930.45
884.212	9880.05
884.529	9820.84
884.846	9766.83
885.164	9786.27
885.481	9741.07
885.798	9805.7
886.115	9704.91
886.432	9725.7
886.75	9620.4
887.067	9639.38
887.383	9573.84
887.7	9669.66
888.017	9592.37
888.334	9659.49
888.651	9600.74
888.967	9518.48
889.284	9451.81
889.6	9481.87
889.917	9410.68
890.233	9452.49
890.55	9361.42
890.866	9386.96
891.182	9336.34
891.498	9339.73
891.815	9271.25
892.131	9264.25
892.447	9201.42
892.763	9202.55
893.079	9174.53
893.395	9105.38
893.71	9116.23
894.026	9043.01
894.342	9102.22
894.657	9040.75
894.973	8914.2
895.289	8970.92
895.604	9008.89
895.92	8877.37
896.235	8792.4
896.55	8845.5
896.865	8820.42
897.181	8746.75
897.496	8780.19
897.811	8690.7
898.126	8665.17
898.441	8683.7
898.756	8695.9
899.071	8584.04
899.386	8609.12
899.7	8540.88
900.015	8502.23
900.33	8409.13
900.644	8422.91
900.959	8421.56
901.273	8389.47
901.588	8355.57
901.902	8324.39
902.216	8330.04
902.531	8299.3
902.845	8217.95
903.159	8170.72
903.473	8135.69
903.787	8123.71
904.101	8110.15
904.415	8070.61
904.729	8011.63
905.042	8015.02
905.356	7986.09
905.67	7944.51
905.984	7947.22
906.297	7934.79
906.611	7890.05
906.924	7870.16
907.237	7797.62
907.551	7787.45
907.864	7758.3
908.177	7728.02
908.491	7685.76
908.804	7641.47
909.117	7618.64
909.43	7535.03
909.743	7501.13
910.056	7486.22
910.368	7453
910.681	7400.34
910.994	7424.97
911.307	7424.52
911.619	7343.17
911.932	7357.86
912.244	7283.06
912.557	7242.61
912.869	7175.49
913.181	7195.15
913.494	7158.09
913.806	7095.72
914.118	7084.42
914.43	7071.09
914.742	7054.14
915.054	6982.5
915.366	6988.83
915.678	6928.94
915.99	6948.15
916.302	6906.34
916.613	6848.49
916.925	6813.92
917.236	6848.04
917.548	6768.72
917.859	6790.19
918.171	6771.88
918.482	6701.6
918.794	6680.36
919.105	6652.11
919.416	6602.17
919.727	6616.18
920.038	6623.41
920.349	6614.15
920.66	6480.14
920.971	6537.31
921.282	6457.09
921.593	6512.91
921.903	6483.76
922.214	6406.24
922.525	6370.54
922.835	6394.94
923.146	6298.45
923.456	6316.3
923.767	6242.63
924.077	6284.67
924.387	6194.95
924.697	6168.74
925.008	6205.8
925.318	6136.19
925.628	6160.83
925.938	6069.08
926.248	6050.55
926.558	6047.84
926.867	6044.9
927.177	6018.68
927.487	5947.95
927.796	5935.52
928.106	5928.29
928.416	5912.02
928.725	5859.14
929.034	5812.14
929.344	5825.92
929.653	5836.09
929.962	5781.4
930.271	5801.51
930.581	5746.37
930.89	5722.19
931.199	5730.33
931.508	5641.74
931.817	5666.15
932.125	5634.74
932.434	5592.48
932.743	5554.06
933.051	5566.72
933.36	5541.18
933.669	5494.86
933.977	5524.69
934.286	5456.21
934.594	5432.71
934.902	5442.2
935.21	5366.05
935.519	5398.36
935.827	5366.27
936.135	5314.97
936.443	5296.67
936.751	5284.47
937.059	5276.78
937.367	5267.52
937.674	5275.43
937.982	5260.29
938.29	5178.03
938.597	5209.44
938.905	5108.88
939.213	5128.09
939.52	5052.61
939.827	5090.8
940.135	5005.38
940.442	5068.43
940.749	5036.34
941.056	5006.96
941.363	4920.41
941.67	4980.97
941.977	4948.43
942.284	4915.66
942.591	4907.53
942.898	4823.01
943.205	4834.76
943.511	4859.62
943.818	4813.29
944.125	4783.01
944.431	4739.85
944.738	4745.95
945.044	4695.55
945.35	4696.46
945.657	4674.76
945.963	4640.64
946.269	4618.72
946.575	4641.77
946.881	4618.04
947.187	4601.09
947.493	4552.06
947.799	4542.11
948.105	4515.45
948.41	4500.53
948.716	4528.55
949.022	4466.63
949.327	4466.63
949.633	4394.77
949.938	4419.4
950.244	4383.7
950.549	4365.39
950.854	4325.17
951.16	4319.52
951.465	4287.88
951.77	4284.04
952.075	4254.89
952.38	4234.78
952.685	4212.63
952.99	4204.27
953.294	4193.42
953.599	4166.3
953.904	4200.2
954.209	4142.12
954.513	4137.83
954.818	4105.51
955.122	4046.08
955.426	4079.98
955.731	4057.38
956.035	4046.98
956.339	4033.43
956.643	4047.21
956.948	4013.31
957.252	3985.52
957.556	4001.56
957.86	3927.67
958.163	3910.72
958.467	3936.7
958.771	3862.58
959.075	3890.38
959.378	3846.76
959.682	3864.84
959.985	3844.28
960.289	3836.59
960.592	3833.2
960.896	3789.59
961.199	3749.14
961.502	3740.33
961.805	3758.4
962.108	3712.98
962.411	3709.59
962.714	3684.06
963.017	3661.01
963.32	3691.51
963.623	3654.45
963.926	3655.58
964.228	3614.9
964.531	3592.98
964.833	3581.23
965.136	3555.47
965.438	3549.82
965.741	3548.92
966.043	3541.23
966.345	3489.71
966.648	3482.93
966.95	3465.08
967.252	3433.67
967.554	3428.24
967.856	3424.85
968.158	3355.25
968.46	3425.08
968.761	3394.8
969.063	3402.93
969.365	3350.73
969.666	3362.71
969.968	3314.35
970.269	3300.56
970.571	3291.75
970.872	3310.96
971.174	3250.62
971.475	3264.41
971.776	3240.45
972.077	3221.92
972.378	3207.46
972.679	3211.98
972.98	3198.64
973.281	3171.98
973.582	3149.61
973.883	3178.76
974.183	3138.53
974.484	3109.61
974.785	3103.96
975.085	3098.76
975.386	3108.48
975.686	3077.29
975.986	3033.9
976.287	3075.26
976.587	3019.21
976.887	2996.62
977.187	3006.56
977.487	2994.13
977.787	2970.63
978.087	2957.52
978.387	2929.27
978.687	2960.68
978.987	2897.18
979.286	2956.84
979.586	2890.63
979.885	2872.55
980.185	2831.2
980.484	2867.81
980.784	2814.47
981.083	2842.27
981.382	2792.55
981.682	2786.9
981.981	2768.6
982.28	2803.63
982.579	2740.58
982.878	2771.31
983.177	2725.21
983.475	2714.36
983.774	2700.13
984.073	2716.17
984.372	2694.48
984.67	2692.22
984.969	2687.25
985.267	2649.96
985.566	2607.7
985.864	2623.29
986.162	2622.84
986.461	2604.54
986.759	2624.2
987.057	2567.02
987.355	2553.46
987.653	2563.41
987.951	2568.38
988.249	2531.09
988.547	2506.23
988.844	2483.86
989.142	2508.72
989.44	2483.64
989.737	2473.01
990.035	2481.83
990.332	2456.29
990.63	2466.46
990.927	2450.19
991.224	2451.77
991.521	2447.48
991.819	2422.39
992.116	2367.48
992.413	2386.24
992.71	2381.49
993.006	2354.37
993.303	2356.63
993.6	2336.97
993.897	2309.18
994.193	2329.74
994.49	2314.15
994.787	2313.47
995.083	2307.14
995.379	2292
995.676	2257.88
995.972	2249.97
996.268	2222.85
996.565	2217.2
996.861	2219.46
997.157	2185.56
997.453	2193.93
997.749	2189.41
998.044	2165.45
998.34	2168.39
998.636	2149.86
998.932	2165.68
999.227	2151.67
999.523	2132.01
999.818	2118.22
1000.114	2095.62
1000.409	2078.22
1000.704	2067.15
1001	2028.73
1001.295	2034.16
1001.59	2056.98
1001.885	2067.83
1002.18	2007.72
1002.475	2017.43
1002.77	2009.07
1003.065	1964.33
1003.359	1983.54
1003.654	1972.69
1003.949	1956.87
1004.243	1959.13
1004.538	1937.89
1004.832	1919.81
1005.127	1895.4
1005.421	1889.98
1005.715	1917.77
1006.009	1867.83
1006.304	1862.63
1006.598	1853.14
1006.892	1848.62
1007.186	1850.88
1007.48	1838.68
1007.773	1782.41
1008.067	1819.02
1008.361	1788.74
1008.655	1806.36
1008.948	1760.26
1009.242	1736.54
1009.535	1763.65
1009.829	1747.84
1010.122	1774.73
1010.415	1750.32
1010.708	1714.39
1011.001	1698.12
1011.295	1683.2
1011.588	1714.84
1011.881	1681.85
1012.173	1663.54
1012.466	1628.52
1012.759	1652.24
1013.052	1630.78
1013.344	1629.19
1013.637	1619.93
1013.93	1608.18
1014.222	1595.3
1014.514	1599.82
1014.807	1579.48
1015.099	1594.17
1015.391	1569.76
1015.683	1564.56
1015.976	1525.69
1016.268	1536.99
1016.56	1553.72
1016.851	1506.26
1017.143	1521.4
1017.435	1485.47
1017.727	1487.28
1018.018	1484.79
1018.31	1469.42
1018.602	1453.38
1018.893	1450.44
1019.185	1420.84
1019.476	1419.03
1019.767	1447.5
1020.058	1438.92
1020.35	1399.82
1020.641	1363.66
1020.932	1415.41
1021.223	1389.2
1021.514	1373.38
1021.804	1343.1
1022.095	1348.3
1022.386	1339.48
1022.677	1334.06
1022.967	1328.41
1023.258	1308.98
1023.548	1292.93
1023.839	1314.4
1024.129	1302.2
1024.419	1291.35
1024.709	1236.44
1025	1258.36
1025.29	1271.01
1025.58	1258.58
1025.87	1251.13
1026.16	1244.12
1026.449	1219.04
1026.739	1212.03
1027.029	1236.89
1027.319	1190.56
1027.608	1165.93
1027.898	1224.23
1028.187	1215.42
1028.477	1185.36
1028.766	1182.43
1029.055	1174.29
1029.344	1169.77
1029.634	1145.14
1029.923	1141.3
1030.212	1141.75
1030.501	1144.91
1030.79	1113.95
1031.078	1104.01
1031.367	1075.76
1031.656	1101.52
1031.945	1111.92
1032.233	1073.05
1032.522	1065.59
1032.81	1105.37
1033.099	1050.68
1033.387	1063.56
1033.675	1031.02
1033.963	1044.13
1034.251	1054.07
1034.54	1045.48
1034.828	1036.44
1035.116	1033.5
1035.403	998.02
1035.691	1004.58
1035.979	1001.41
1036.267	1014.3
1036.554	993.5
1036.842	971.58
1037.129	991.47
1037.417	955.31
1037.704	947.86
1037.992	941.3
1038.279	962.55
1038.566	953.28
1038.853	953.28
1039.14	953.28
