Data from hue_100_FLMS001491_00008.txt Node
Date: Tue Feb 07 17:02:34 GMT 2017
User: dcchb
Spectrometer: FLMS00149
Trigger mode: 0
Integration Time (sec): 2.000000E-2
Scans to average: 10
Electric dark correction enabled: true
Nonlinearity correction enabled: false
Boxcar width: 0
XAxis mode: Wavelengths
Number of Pixels in Spectrum: 2048
>>>>>Begin Spectral Data<<<<<
341.393	-15.49
341.776	-15.49
342.16	-15.49
342.543	-55.72
342.927	-74.25
343.31	-71.54
343.693	-78.32
344.077	-73.35
344.46	-75.15
344.843	-66.11
345.226	-31.76
345.61	-25.21
345.993	-13.46
346.376	11.62
346.759	1
347.142	31.51
347.525	37.39
347.908	49.59
348.291	78.97
348.674	102.7
349.057	122.13
349.44	126.2
349.823	142.69
350.206	168.23
350.588	186.08
350.971	195.57
351.354	233.09
351.737	229.25
352.119	260.21
352.502	260.66
352.884	289.13
353.267	284.16
353.65	309.92
354.032	317.38
354.414	292.07
354.797	307.66
355.179	320.77
355.562	321.45
355.944	316.7
356.326	330.94
356.709	339.75
357.091	350.82
357.473	336.81
357.855	347.21
358.238	324.16
358.62	335.68
359.002	328.23
359.384	329.36
359.766	347.66
360.148	320.54
360.53	369.13
360.912	342.46
361.294	337.72
361.676	305.85
362.057	326.64
362.439	329.58
362.821	333.2
363.203	331.62
363.584	325.97
363.966	311.73
364.348	329.36
364.729	323.71
365.111	329.58
365.493	323.25
365.874	329.36
366.256	335.01
366.637	298.17
367.019	320.09
367.4	306.31
367.781	306.08
368.163	320.54
368.544	312.63
368.925	306.31
369.306	323.71
369.688	321.67
370.069	304.95
370.45	307.66
370.831	309.92
371.212	302.01
371.593	346.08
371.974	325.74
372.355	309.24
372.736	322.12
373.117	320.77
373.498	319.19
373.879	311.5
374.26	311.96
374.641	306.76
375.021	326.42
375.402	319.19
375.783	326.87
376.163	319.19
376.544	339.75
376.925	321.67
377.305	312.41
377.686	331.62
378.066	332.07
378.447	347.89
378.827	338.62
379.208	354.21
379.588	330.94
379.968	328.9
380.349	342.91
380.729	353.76
381.109	343.37
381.489	345.63
381.87	367.32
382.25	348.11
382.63	343.14
383.01	370.71
383.39	351.95
383.77	340.2
384.15	343.14
384.53	351.5
384.91	368.9
385.29	347.66
385.67	363.71
386.049	358.28
386.429	364.61
386.809	383.37
387.189	372.52
387.568	368.22
387.948	379.75
388.328	363.48
388.707	388.11
389.087	385.63
389.466	376.36
389.846	359.19
390.225	366.42
390.605	382.46
390.984	391.05
391.363	381.56
391.743	394.66
392.122	392.4
392.501	401.67
392.881	387.21
393.26	373.42
393.639	393.99
394.018	372.74
394.397	382.46
394.776	392.4
395.155	397.83
395.534	400.54
395.913	425.17
396.292	407.09
396.671	373.65
397.05	414.78
397.429	402.57
397.808	407.32
398.186	450.93
398.565	410.94
398.944	398.28
399.323	426.75
399.701	417.72
400.08	412.07
400.458	402.57
400.837	398.73
401.215	430.82
401.594	441.44
401.972	436.47
402.351	439.18
402.729	441.44
403.107	429.47
403.486	424.95
403.864	439.18
404.242	432.18
404.62	455.68
404.999	471.5
405.377	446.41
405.755	456.36
406.133	469.69
406.511	470.37
406.889	458.39
407.267	471.72
407.645	467.88
408.023	462.23
408.401	487.32
408.779	461.1
409.156	505.62
409.534	480.54
409.912	479.41
410.29	506.75
410.667	488.22
411.045	482.12
411.422	502.68
411.8	504.49
412.178	495.68
412.555	538.16
412.933	516.47
413.31	529.8
413.687	502.68
414.065	519.86
414.442	522.8
414.819	530.93
415.197	551.95
415.574	542.46
415.951	542.91
416.328	534.32
416.705	546.98
417.082	551.27
417.46	556.24
417.837	555.34
418.214	547.88
418.591	573.19
418.967	574.32
419.344	570.25
419.721	568.9
420.098	591.95
420.475	594.21
420.852	592.63
421.228	584.04
421.605	601.21
421.982	601.21
422.358	624.26
422.735	603.47
423.111	650.48
423.488	632.17
423.864	605.28
424.241	631.04
424.617	617.71
424.994	630.82
425.37	620.2
425.746	652.29
426.123	634.66
426.499	660.42
426.875	659.06
427.251	650.7
427.627	665.39
428.003	699.29
428.379	688.67
428.756	683.7
429.132	698.84
429.507	663.13
429.883	705.17
430.259	715.33
430.635	737.48
431.011	719.4
431.387	734.77
431.763	751.27
432.138	745.62
432.514	757.37
432.89	759.63
433.265	755.79
433.641	767.76
434.016	782
434.392	779.74
434.767	840.53
435.143	793.98
435.518	784.26
435.894	823.81
436.269	848.21
436.644	824.26
437.02	844.37
437.395	844.6
437.77	865.61
438.145	865.61
438.52	857.48
438.895	867.42
439.271	864.71
439.646	891.15
440.021	924.82
440.395	898.83
440.77	885.27
441.145	914.43
441.52	913.97
441.895	927.76
442.27	942.9
442.645	951.26
443.019	950.36
443.394	949.23
443.769	938.61
444.143	969.34
444.518	972.95
444.892	972.73
445.267	980.86
445.641	970.24
446.016	985.84
446.39	1001.88
446.764	1008.43
447.139	998.72
447.513	1028.55
447.887	1013.41
448.262	1020.86
448.636	1036.46
449.01	1033.07
449.384	1031.26
449.758	1059.51
450.132	1059.28
450.506	1086.85
450.88	1112.39
451.254	1102.22
451.628	1120.3
452.002	1128.88
452.376	1123.91
452.75	1112.39
453.123	1130.46
453.497	1159.84
453.871	1171.82
454.244	1179.5
454.618	1227.64
454.992	1221.76
455.365	1225.83
455.739	1232.38
456.112	1268.99
456.486	1288.88
456.859	1270.57
457.232	1317.13
457.606	1280.74
457.979	1327.3
458.352	1369.33
458.725	1356.22
459.099	1365.26
459.472	1371.59
459.845	1414.98
460.218	1412.49
460.591	1426.28
460.964	1409.33
461.337	1460.85
461.71	1476.67
462.083	1517.8
462.456	1531.36
462.829	1523.45
463.201	1547.63
463.574	1527.74
463.947	1600.96
464.32	1610.45
464.692	1629.43
465.065	1681.41
465.438	1686.83
465.81	1716.89
466.183	1729.32
466.555	1787.62
466.928	1777
467.3	1779.26
467.672	1835.76
468.045	1865.13
468.417	1888.41
468.789	1916.66
469.161	1926.38
469.534	1962.31
469.906	1991.46
470.278	2024.68
470.65	2087.05
471.022	2135.64
471.394	2182.87
471.766	2208.63
472.138	2256.76
472.51	2285.91
472.882	2367.72
473.253	2398.91
473.625	2434.16
473.997	2464.21
474.369	2529.52
474.74	2527.26
475.112	2609.97
475.484	2699.24
475.855	2774.26
476.227	2783.53
476.598	2897.65
476.97	2951.21
477.341	3024.65
477.713	3049.96
478.084	3132.22
478.455	3208.6
478.827	3324.08
479.198	3389.16
479.569	3456.51
479.94	3571.76
480.311	3607.46
480.682	3728.14
481.053	3880.45
481.424	4005.42
481.795	4059.88
482.166	4159.99
482.537	4224.85
482.908	4334.67
483.279	4470.04
483.65	4567.66
484.021	4754.78
484.391	4782.12
484.762	4902.79
485.133	5025.05
485.503	5110.92
485.874	5332.16
486.244	5392.5
486.615	5514.76
486.985	5681.76
487.356	5834.07
487.726	5936.21
488.097	6073.39
488.467	6205.36
488.837	6382.98
489.207	6527.61
489.578	6677.44
489.948	6820.03
490.318	7015.06
490.688	7112.23
491.058	7237.65
491.428	7420.24
491.798	7500.01
492.168	7749.05
492.538	7929.83
492.908	8025.65
493.278	8167.79
493.648	8294.12
494.017	8506.77
494.387	8626.99
494.757	8769.59
495.126	8924.16
495.496	8996.7
495.866	9080.54
496.235	9293.87
496.605	9406.86
496.974	9554.65
497.344	9740.18
497.713	9858.37
498.082	9956.22
498.452	10091.58
498.821	10190.34
499.19	10269.43
499.559	10354.63
499.928	10529.77
500.298	10674.17
500.667	10855.86
501.036	10830.77
501.405	10981.96
501.774	11063.54
502.143	11170.88
502.512	11324.77
502.88	11389.86
503.249	11375.17
503.618	11658.78
503.987	11619
504.356	11807.47
504.724	11911.65
505.093	11924.53
505.462	12008.37
505.83	12235.48
506.199	12322.03
506.567	12450.39
506.936	12438.64
507.304	12649.94
507.672	12719.54
508.041	12719.54
508.409	12929.93
508.777	13009.7
509.145	13058.51
509.514	13023.71
509.882	13216.47
510.25	13212.41
510.618	13305.51
510.986	13361.33
511.354	13495.56
511.722	13473.87
512.09	13641.55
512.458	13630.93
512.826	13747.08
513.193	13790.7
513.561	13832.96
513.929	13926.96
514.297	14061.65
514.664	14123.8
515.032	14141.2
515.4	14265.94
515.767	14332.83
516.135	14358.14
516.502	14306.62
516.869	14474.97
517.237	14587.96
517.604	14510.9
517.972	14632.93
518.339	14620.73
518.706	14631.58
519.073	14707.96
519.44	14825.02
519.808	14874.28
520.175	14841.97
520.542	15028.4
520.909	15049.65
521.276	15091
521.643	15189.98
522.009	15227.04
522.376	15262.97
522.743	15307.27
523.11	15316.53
523.477	15525.79
523.843	15526.92
524.21	15613.02
524.577	15666.35
524.943	15708.61
525.31	15664.32
525.676	15831.32
526.043	15846.91
526.409	15848.27
526.776	16012.11
527.142	15961.49
527.508	15928.49
527.874	15984.09
528.241	15983.41
528.607	16121.93
528.973	16153.57
529.339	16140.01
529.705	16139.34
530.071	16205.32
530.437	16218.88
530.803	16227.02
531.169	16297.3
531.535	16217.98
531.901	16154.93
532.267	16328.94
532.632	16281.48
532.998	16316.73
533.364	16339.1
533.73	16293.23
534.095	16461.81
534.461	16327.13
534.826	16371.42
535.192	16314.7
535.557	16337.3
535.923	16340.69
536.288	16387.92
536.653	16388.59
537.019	16299.56
537.384	16217.07
537.749	16256.39
538.114	16390.63
538.479	16133.01
538.845	16169.39
539.21	16171.43
539.575	16126.91
539.94	16112.22
540.305	16220.01
540.67	16095.95
541.034	16119.68
541.399	16155.61
541.764	16118.32
542.129	16075.38
542.494	16004.2
542.858	16087.13
543.223	15995.16
543.587	16034.48
543.952	15937.08
544.316	15929.85
544.681	15832
545.045	15856.63
545.41	15917.19
545.774	15855.95
546.138	15843.3
546.503	15922.17
546.867	15726.69
547.231	15771.66
547.595	15727.14
547.959	15729.4
548.324	15678.33
548.688	15631.33
549.052	15643.08
549.416	15605.56
549.779	15656.64
550.143	15637.88
550.507	15641.5
550.871	15676.75
551.235	15527.37
551.599	15571.89
551.962	15450.77
552.326	15459.58
552.689	15466.58
553.053	15452.57
553.417	15410.54
553.78	15452.12
554.143	15330.32
554.507	15409.19
554.87	15381.62
555.234	15595.62
555.597	15339.36
555.96	15366.7
556.323	15424.78
556.686	15373.93
557.05	15471.1
557.413	15464.33
557.776	15341.39
558.139	15403.08
558.502	15330.77
558.865	15429.75
559.228	15445.57
559.59	15447.6
559.953	15375.74
560.316	15485.57
560.679	15380.71
561.041	15526.7
561.404	15503.42
561.767	15577.32
562.129	15450.99
562.492	15578.22
562.854	15589.97
563.217	15539.35
563.579	15644.89
563.941	15626.58
564.304	15740.48
564.666	15667.48
565.028	15772.57
565.39	15636.75
565.753	15744.54
566.115	15726.69
566.477	15780.02
566.839	15807.59
567.201	15732.79
567.563	15852.34
567.925	15981.15
568.287	15801.72
568.648	15914.03
569.01	15882.85
569.372	15960.36
569.734	15980.92
570.095	15976.18
570.457	16057.08
570.819	16118.77
571.18	16061.6
571.542	16113.12
571.903	16001.26
572.265	16100.69
572.626	16112.44
572.987	16155.83
573.349	16146.57
573.71	16131.65
574.071	16169.17
574.432	16172.1
574.794	16276.73
575.155	16240.12
575.516	16146.34
575.877	16171.65
576.238	16226.11
576.599	16333.23
576.96	16351.76
577.32	16299.56
577.681	16310.4
578.042	16330.52
578.403	16347.47
578.763	16360.57
579.124	16364.19
579.485	16383.62
579.845	16375.94
580.206	16347.69
580.566	16305.66
580.927	16362.83
581.287	16428.59
581.648	16356.28
582.008	16308.37
582.368	16294.36
582.728	16375.94
583.089	16377.3
583.449	16287.35
583.809	16406
584.169	16445.09
584.529	16314.25
584.889	16355.38
585.249	16293
585.609	16254.59
585.969	16347.47
586.329	16243.97
586.688	16356.5
587.048	16313.79
587.408	16159.45
587.768	16322.16
588.127	16271.31
588.487	16166.91
588.846	16266.56
589.206	16247.13
589.565	16142.27
589.925	16274.93
590.284	16236.28
590.643	16231.99
591.003	16208.49
591.362	16208.94
591.721	16140.69
592.08	16141.37
592.44	16192.22
592.799	16161.26
593.158	16128.49
593.517	16127.81
593.876	16224.31
594.235	16113.12
594.593	16161.93
594.952	16187.7
595.311	16111.09
595.67	16147.7
596.029	16242.61
596.387	16201.25
596.746	16177.98
597.104	16107.25
597.463	16119.45
597.822	16174.59
598.18	16013.92
598.538	16123.97
598.897	16208.26
599.255	15980.24
599.613	16255.72
599.972	16140.24
600.33	16199.67
600.688	16144.76
601.046	16260.91
601.404	16178.2
601.762	16133.46
602.12	16187.02
602.478	16099.56
602.836	16163.97
603.194	16120.35
603.552	16132.1
603.91	16066.57
604.268	16165.55
604.625	16059.11
604.983	16179.56
605.341	16134.59
605.698	16124.87
606.056	16108.15
606.413	16202.38
606.771	16272.67
607.128	16164.65
607.485	16212.55
607.843	16198.54
608.2	16079.68
608.557	16281.7
608.914	16255.26
609.272	16218.43
609.629	16286
609.986	16321.48
610.343	16300.46
610.7	16342.72
611.057	16289.84
611.414	16345.66
611.771	16310.63
612.127	16455.94
612.484	16421.81
612.841	16418.42
613.198	16422.27
613.554	16350.86
613.911	16472.66
614.267	16367.8
614.624	16429.72
614.98	16417.97
615.337	16507.24
615.693	16583.39
616.05	16512.89
616.406	16571.19
616.762	16475.6
617.118	16577.06
617.475	16583.62
617.831	16503.17
618.187	16592.2
618.543	16547.46
618.899	16621.36
619.255	16652.99
619.611	16585.65
619.967	16645.08
620.323	16687.57
620.678	16641.02
621.034	16660.9
621.39	16658.87
621.746	16581.13
622.101	16793.33
622.457	16649.15
622.812	16685.99
623.168	16708.81
623.523	16700.45
623.879	16767.34
624.234	16653.22
624.589	16677.17
624.945	16620.9
625.3	16664.07
625.655	16571.64
626.01	16595.37
626.365	16610.96
626.72	16607.57
627.075	16551.98
627.43	16580.45
627.785	16570.06
628.14	16571.87
628.495	16631.07
628.85	16630.4
629.205	16585.88
629.559	16625.65
629.914	16502.94
630.269	16551.53
630.623	16558.99
630.978	16542.71
631.332	16523.51
631.687	16583.39
632.041	16475.82
632.396	16611.19
632.75	16478.99
633.104	16487.57
633.459	16371.19
633.813	16452.55
634.167	16420.91
634.521	16403.74
634.875	16430.18
635.229	16326.9
635.583	16235.83
635.937	16260.24
636.291	16293.23
636.645	16290.29
636.999	16269.28
637.352	16268.37
637.706	16215.49
638.06	16140.92
638.413	16172.78
638.767	16099.79
639.121	16145.89
639.474	16044.2
639.828	16029.73
640.181	16007.59
640.534	16090.75
640.888	15995.38
641.241	15913.13
641.594	16047.59
641.947	16072.44
642.301	15862.05
642.654	15989.28
643.007	15953.8
643.36	15969.85
643.713	15951.54
644.066	15979.34
644.419	15831.55
644.771	15798.33
645.124	15599.46
645.477	15660.25
645.83	15579.58
646.182	15480.82
646.535	15380.26
646.888	15450.77
647.24	15384.55
647.593	15378
647.945	15338.68
648.298	15280.38
648.65	15336.87
649.002	15272.24
649.355	15460.48
649.707	15371.45
650.059	15496.87
650.411	15591.78
650.763	15646.69
651.115	15743.87
651.467	15666.13
651.819	15705
652.171	15732.79
652.523	15603.98
652.875	15667.48
653.227	15557.88
653.578	15709.74
653.93	15681.95
654.282	15543.19
654.633	15567.83
654.985	15694.38
655.337	15613.93
655.688	15674.94
656.039	15746.58
656.391	15645.11
656.742	15573.7
657.094	15600.14
657.445	15754.71
657.796	15706.58
658.147	15704.09
658.498	15665
658.849	15601.5
659.2	15656.18
659.551	15617.54
659.902	15693.7
660.253	15645.34
660.604	15694.83
660.955	15586.81
661.306	15637.88
661.656	15707.03
662.007	15682.4
662.358	15632
662.708	15633.59
663.059	15748.84
663.409	15533.48
663.76	15730.31
664.11	15709.29
664.461	15809.17
664.811	15613.47
665.161	15639.91
665.511	15583.64
665.862	15766.69
666.212	15780.93
666.562	15705.9
666.912	15708.84
667.262	15653.25
667.612	15726.47
667.962	15786.58
668.312	15698.44
668.662	15714.49
669.011	15633.59
669.361	15595.4
669.711	15585.23
670.06	15626.58
670.41	15565.79
670.76	15638.78
671.109	15586.81
671.459	15655.51
671.808	15575.28
672.157	15555.62
672.507	15520.14
672.856	15559.92
673.205	15527.6
673.554	15547.03
673.904	15601.72
674.253	15640.82
674.602	15451.22
674.951	15303.65
675.3	15176.65
675.649	15410.99
675.998	15356.76
676.346	15447.38
676.695	15445.57
677.044	15281.28
677.393	15344.55
677.741	15423.42
678.09	15396.3
678.438	15353.37
678.787	15398.34
679.135	15371.9
679.484	15206.48
679.832	15304.33
680.181	15215.97
680.529	15253.26
680.877	15171.45
681.225	15156.31
681.573	15271.11
681.922	15173.03
682.27	15144.79
682.618	14998.12
682.966	15036.31
683.314	15031.34
683.661	14923.1
684.009	14931.91
684.357	14865.7
684.705	14910.67
685.053	14845.81
685.4	14830.22
685.748	14683.55
686.095	14753.61
686.443	14687.17
686.79	14642.65
687.138	14673.84
687.485	14716.32
687.832	14612.82
688.18	14660.05
688.527	14553.16
688.874	14535.08
689.221	14523.11
689.568	14385.71
689.915	14384.81
690.262	14356.11
690.609	14342.32
690.956	14319.5
691.303	14258.93
691.65	14271.59
691.997	14161.08
692.344	14144.36
692.69	14032.72
693.037	14008.32
693.383	13879.51
693.73	13990.01
694.077	13903.01
694.423	13886.74
694.769	13777.82
695.116	13747.08
695.462	13698.95
695.808	13618.27
696.155	13692.62
696.501	13529.91
696.847	13626.63
697.193	13537.82
697.539	13530.14
697.885	13399.52
698.231	13334.21
698.577	13390.48
698.923	13278.62
699.269	13300.09
699.614	13187.55
699.96	13196.14
700.306	13050.6
700.651	13098.74
700.997	12982.13
701.342	12960.21
701.688	12959.08
702.033	12953.66
702.379	12879.31
702.724	12786.88
703.069	12826.43
703.415	12748.46
703.76	12763.61
704.105	12731.74
704.45	12699.43
704.795	12551.63
705.14	12535.36
705.485	12556.6
705.83	12421.47
706.175	12496.72
706.52	12468.47
706.865	12308.02
707.209	12349.83
707.554	12246.56
707.899	12343.05
708.243	12141.7
708.588	12174.69
708.932	12059.67
709.277	12050.63
709.621	12087.69
709.966	11984.19
710.31	11986
710.654	11876.4
710.998	11956.39
711.342	11984.42
711.687	11885.89
712.031	11812.67
712.375	11720.69
712.719	11762.05
713.063	11741.03
713.407	11837.3
713.75	11786.46
714.094	11730.64
714.438	11693.12
714.782	11714.37
715.125	11588.72
715.469	11669.85
715.812	11554.6
716.156	11506.01
716.499	11505.56
716.843	11504.88
717.186	11438.44
717.53	11488.84
717.873	11478.89
718.216	11475.96
718.559	11454.26
718.902	11367.94
719.246	11396.64
719.589	11372.23
719.932	11357.09
720.275	11289.07
720.617	11306.02
720.96	11249.29
721.303	11266.47
721.646	11276.41
721.989	11245.68
722.331	11234.15
722.674	11221.27
723.016	11213.82
723.359	11197.54
723.701	11279.58
724.044	11117.55
724.386	11120.03
724.729	11206.58
725.071	11124.55
725.413	11094.95
725.755	11175.17
726.097	11099.92
726.439	11068.73
726.782	10968.4
727.124	11082.29
727.465	11098.34
727.807	11097.43
728.149	11037.1
728.491	10997.78
728.833	11027.38
729.175	10976.08
729.516	10967.27
729.858	10980.6
730.199	10987.61
730.541	10898.8
730.882	10896.76
731.224	10971.34
731.565	10951.45
731.906	10895.18
732.248	10892.47
732.589	10857.21
732.93	10903.32
733.271	10896.99
733.612	10910.55
733.953	10866.03
734.294	10821.96
734.635	10842.07
734.976	10821.51
735.317	10848.63
735.658	10813.15
735.999	10863.09
736.339	10863.77
736.68	10893.6
737.021	10831.45
737.361	10816.09
737.702	10896.99
738.042	10859.02
738.383	10907.83
738.723	10883.65
739.063	10864.45
739.404	10961.62
739.744	10891.56
740.084	10880.26
740.424	10948.74
740.764	10852.02
741.104	10965.91
741.444	10874.84
741.784	10908.06
742.124	11010.43
742.464	11056.98
742.804	10988.06
743.143	11001.17
743.483	11100.15
743.823	11002.75
744.162	11022.86
744.502	11148.05
744.841	11062.86
745.181	11177.66
745.52	11217.21
745.86	11262.85
746.199	11237.32
746.538	11267.37
746.877	11343.76
747.216	11456.97
747.556	11420.14
747.895	11468.72
748.234	11432.11
748.573	11524.77
748.911	11587.14
749.25	11698.55
749.589	11725.44
749.928	11826.45
750.267	11904.64
750.605	11960.01
750.944	11989.39
751.283	12042.27
751.621	12101.7
751.96	12195.71
752.298	12251.3
752.636	12456.27
752.975	12450.62
753.313	12562.03
753.651	12700.1
753.989	12813.55
754.327	12849.7
754.666	12988.46
755.004	13124.5
755.342	13252.63
755.679	13288.11
756.017	13434.32
756.355	13583.7
756.693	13729.91
757.031	13896.46
757.368	14004.7
757.706	14162.21
758.044	14229.1
758.381	14509.1
758.719	14604.91
759.056	14655.53
759.394	14885.13
759.731	14971.91
760.068	15217.78
760.405	15265.91
760.743	15381.84
761.08	15615.06
761.417	15758.55
761.754	15967.59
762.091	16118.32
762.428	16206
762.765	16440.34
763.102	16556.27
763.438	16721.02
763.775	16794.69
764.112	17031.52
764.449	17243.04
764.785	17420.21
765.122	17416.59
765.458	17606.19
765.795	17738.62
766.131	17834.21
766.467	18044.37
766.804	18106.06
767.14	18181.09
767.476	18389.45
767.812	18497.24
768.148	18722.54
768.485	18755.54
768.821	18807.97
769.157	18928.19
769.492	19129.54
769.828	19216.99
770.164	19213.83
770.5	19338.57
770.836	19399.36
771.171	19399.59
771.507	19563.88
771.842	19500.38
772.178	19661.73
772.513	19829.86
772.849	19727.49
773.184	19911.44
773.519	20055.84
773.855	19948.05
774.19	20045
774.525	20191.66
774.86	20169.51
775.195	20257.19
775.53	20218.55
775.865	20281.83
776.2	20249.51
776.535	20198.66
776.87	20264.88
777.205	20331.09
777.539	20319.34
777.874	20443.86
778.209	20306.01
778.543	20401.6
778.878	20427.58
779.212	20380.58
779.547	20397.98
779.881	20588.03
780.215	20473.23
780.55	20550.52
780.884	20449.5
781.218	20501.03
781.552	20492.22
781.886	20478.66
782.22	20433.69
782.554	20469.17
782.888	20199.34
783.222	20307.81
783.556	20259.68
783.889	20255.61
784.223	20187.14
784.557	20122.06
784.89	20228.49
785.224	20071.66
785.557	20068.72
785.891	20002.06
786.224	20071.66
786.558	20157.53
786.891	19924.77
787.224	19932
787.557	19930.65
787.891	19952.57
788.224	19830.09
788.557	19837.32
788.89	19853.36
789.223	19826.47
789.556	19695.63
789.888	19763.87
790.221	19720.48
790.554	19553.94
790.887	19666.02
791.219	19566.59
791.552	19540.6
791.884	19409.76
792.217	19486.82
792.549	19446.82
792.882	19291.57
793.214	19258.12
793.546	19244.56
793.879	19115.08
794.211	19173.15
794.543	19078.24
794.875	19089.54
795.207	19214.51
795.539	19047.28
795.871	19071.24
796.203	18863.78
796.535	18831.47
796.867	18787.85
797.198	18848.64
797.53	18876.44
797.862	18635.54
798.193	18638.7
798.525	18616.56
798.856	18680.29
799.188	18450.01
799.519	18383.34
799.85	18372.5
800.182	18367.53
800.513	18326.62
800.844	18288.43
801.175	18264.03
801.506	18221.31
801.837	18198.26
802.168	18179.06
802.499	18153.29
802.83	18020.42
803.161	17974.77
803.491	17916.24
803.822	18004.6
804.153	17866.07
804.483	17768.22
804.814	17778.16
805.145	17736.81
805.475	17720.76
805.805	17644.61
806.136	17735.45
806.466	17631.73
806.796	17632.86
807.126	17478.28
807.457	17432.86
807.787	17431.05
808.117	17390.15
808.447	17347.21
808.777	17339.98
809.107	17188.35
809.436	17206.65
809.766	17207.78
810.096	17078.97
810.426	17079.65
810.755	17060.44
811.085	16992.87
811.414	16965.53
811.744	16921.69
812.073	16883.04
812.403	16883.04
812.732	16811.63
813.061	16754.01
813.39	16766.89
813.719	16717.17
814.049	16764.18
814.378	16614.58
814.707	16615.03
815.036	16631.53
815.365	16577.06
815.693	16333.23
816.022	16423.17
816.351	16312.89
816.68	16241.25
817.008	16350.4
817.337	16271.08
817.665	16172.1
817.994	16200.58
818.322	16184.08
818.651	16107.25
818.979	16091.65
819.307	16105.66
819.636	16085.55
819.964	16071.09
820.292	16035.38
820.62	16061.82
820.948	16062.28
821.276	16113.12
821.604	15973.69
821.932	16049.62
822.259	15994.25
822.587	15988.15
822.915	15978.89
823.243	16000.81
823.57	15990.64
823.898	15934.14
824.225	15944.31
824.553	15906.57
824.88	15952
825.207	16006.91
825.535	15966.23
825.862	16089.17
826.189	15970.53
826.516	15973.01
826.843	16038.77
827.17	15975.72
827.497	16027.25
827.824	15993.35
828.151	16025.44
828.478	16092.56
828.805	16068.6
829.131	15953.8
829.458	15941.15
829.785	15806.91
830.111	15940.47
830.438	16033.12
830.764	15976.18
831.09	15998.1
831.417	15859.79
831.743	15982.28
832.069	15961.26
832.395	15860.47
832.722	15920.81
833.048	15921.49
833.374	15933.24
833.7	15842.17
834.026	15864.09
834.351	15868.61
834.677	15875.61
835.003	15899.79
835.329	15862.05
835.654	15768.27
835.98	15720.82
836.306	15755.62
836.631	15687.14
836.956	15739.12
837.282	15672.46
837.607	15661.16
837.932	15616.41
838.258	15636.3
838.583	15643.08
838.908	15463.2
839.233	15572.57
839.558	15498
839.883	15425.91
840.208	15357.66
840.533	15380.71
840.858	15496.87
841.182	15374.84
841.507	15449.41
841.832	15346.36
842.156	15297.55
842.481	15220.94
842.805	15317.21
843.13	15170.55
843.454	15147.27
843.778	15104.79
844.103	15101.17
844.427	15013.26
844.751	15037.9
845.075	14996.77
845.399	14929.65
845.723	14924.23
846.047	14920.16
846.371	14818.47
846.695	14818.92
847.019	14636.1
847.343	14639.71
847.666	14500.51
847.99	14470.45
848.313	14406.73
848.637	14329.89
848.96	14353.39
849.284	14342.55
849.607	14199.05
849.931	14148.88
850.254	14110.69
850.577	14035.66
850.9	13985.04
851.223	13957.7
851.546	13838.83
851.869	13733.3
852.192	13824.59
852.515	13707.99
852.838	13685.61
853.161	13639.06
853.483	13581.44
853.806	13429.12
854.129	13407.66
854.451	13390.48
854.774	13299.18
855.096	13368.33
855.419	13246.3
855.741	13161.33
856.063	13228.45
856.385	13147.55
856.708	13087.66
857.03	13042.47
857.352	13095.12
857.674	13003.15
857.996	12955.24
858.318	12860.78
858.64	12961.57
858.961	12913.43
859.283	12735.58
859.605	12777.62
859.926	12777.16
860.248	12754.11
860.57	12699.2
860.891	12654.68
861.212	12577.17
861.534	12571.52
861.855	12540.79
862.176	12624.17
862.498	12592.08
862.819	12555.93
863.14	12457.62
863.461	12452.65
863.782	12447.91
864.103	12478.87
864.424	12367.91
864.745	12363.39
865.065	12335.82
865.386	12285.43
865.707	12226.9
866.027	12316.61
866.348	12195.26
866.668	12277.97
866.989	12200.91
867.309	12150.97
867.63	12164.75
867.95	12193
868.27	12096.05
868.59	12086.11
868.91	12042.95
869.23	12062.83
869.55	11991.65
869.87	12043.17
870.19	11967.24
870.51	12082.95
870.83	11965.66
871.15	11957.52
871.469	11870.52
871.789	11906.45
872.109	11893.57
872.428	11830.75
872.748	11866.68
873.067	11819
873.386	11885.89
873.706	11837.3
874.025	11776.74
874.344	11706.23
874.663	11731.32
874.982	11709.17
875.301	11606.57
875.62	11725.67
875.939	11712.11
876.258	11625.56
876.577	11562.96
876.896	11578.1
877.214	11577.2
877.533	11496.97
877.852	11584.88
878.17	11528.38
878.489	11512.34
878.807	11543.52
879.125	11475.96
879.444	11377.65
879.762	11410.19
880.08	11375.39
880.398	11332.46
880.716	11282.74
881.034	11305.56
881.352	11282.51
881.67	11188.96
881.988	11261.27
882.306	11195.28
882.624	11132.91
882.941	11104.44
883.259	11127.26
883.577	11103.31
883.894	11057.44
884.212	11136.76
884.529	11012.46
884.846	10968.17
885.164	11003.88
885.481	10901.73
885.798	10956.65
886.115	10855.63
886.432	10838.01
886.75	10828.06
887.067	10790.32
887.383	10779.7
887.7	10791
888.017	10810.21
888.334	10819.7
888.651	10712.59
888.967	10642.3
889.284	10618.35
889.6	10595.3
889.917	10547.84
890.233	10534.51
890.55	10455.42
890.866	10517.11
891.182	10480.5
891.498	10412.71
891.815	10431.91
892.131	10330.9
892.447	10372.48
892.763	10275.99
893.079	10270.34
893.395	10217.91
893.71	10234.86
894.026	10195.54
894.342	10163.67
894.657	10124.35
894.973	10085.94
895.289	10059.5
895.604	10044.13
895.92	9989.44
896.235	9958.26
896.55	9874.64
896.865	9959.39
897.181	9894.98
897.496	9904.47
897.811	9769.56
898.126	9744.93
898.441	9718.71
898.756	9676.68
899.071	9727.53
899.386	9638.49
899.7	9503.35
900.015	9566.18
900.33	9449.12
900.644	9547.64
900.959	9483.24
901.273	9462.67
901.588	9334.54
901.902	9318.27
902.216	9301.1
902.531	9301.55
902.845	9256.8
903.159	9154.89
903.473	9205.96
903.787	9160.54
904.101	9065.4
904.415	9141.33
904.729	8994.44
905.042	8993.53
905.356	8939.75
905.67	8997.83
905.984	8955.34
906.297	8849.13
906.611	8808.45
906.924	8777.95
907.237	8768.91
907.551	8770.72
907.864	8661.11
908.177	8690.72
908.491	8617.73
908.804	8583.6
909.117	8545.86
909.43	8453.89
909.743	8421.35
910.056	8408.01
910.368	8366.43
910.681	8359.43
910.994	8363.95
911.307	8291.18
911.619	8268.36
911.932	8264.51
912.244	8162.82
912.557	8215.02
912.869	8075.82
913.181	8075.37
913.494	8076.04
913.806	7980.91
914.118	7997.18
914.43	7942.04
914.742	7958.76
915.054	7894.81
915.366	7881.02
915.678	7816.39
915.99	7793.79
916.302	7717.86
916.613	7683.29
916.925	7671.08
917.236	7688.03
917.548	7577.07
917.859	7633.34
918.171	7536.62
918.482	7568.26
918.794	7475.38
919.105	7540.47
919.416	7394.03
919.727	7441.71
920.038	7359.45
920.349	7323.3
920.66	7301.38
920.971	7280.13
921.282	7203.53
921.593	7254.37
921.903	7205.33
922.214	7191.1
922.525	7174.83
922.835	7137.54
923.146	7093.47
923.456	7065.68
923.767	6996.53
924.077	6989.07
924.387	6961.5
924.697	6943.19
925.008	6879.24
925.318	6897.54
925.628	6877.21
925.938	6874.49
926.248	6791.33
926.558	6728.06
926.867	6773.71
927.177	6755.63
927.487	6696.42
927.796	6590.66
928.106	6649.64
928.416	6613.48
928.725	6617.33
929.034	6538.23
929.344	6502.75
929.653	6511.79
929.962	6421.85
930.271	6413.04
930.581	6383.89
930.89	6381.63
931.199	6339.37
931.508	6314.74
931.817	6273.61
932.125	6290.55
932.434	6277.22
932.743	6232.25
933.051	6166.94
933.36	6171.46
933.669	6160.16
933.977	6128.53
934.286	6127.17
934.594	6092.37
934.902	6015.76
935.21	5998.59
935.519	5989.32
935.827	5968.76
936.135	5962.2
936.443	5907.74
936.751	5866.61
937.059	5878.81
937.367	5838.36
937.674	5880.4
937.982	5820.28
938.29	5765.15
938.597	5758.82
938.905	5669.33
939.213	5659.84
939.52	5660.97
939.827	5679.95
940.135	5633.62
940.442	5574.64
940.749	5557.69
941.056	5563.57
941.363	5536.9
941.67	5527.19
941.977	5485.6
942.284	5415.78
942.591	5412.61
942.898	5432.72
943.205	5418.26
943.511	5353.4
943.818	5356.34
944.125	5287.64
944.431	5317.47
944.738	5307.08
945.044	5278.83
945.35	5206.06
945.657	5169.91
945.963	5163.13
946.269	5112.73
946.575	5163.35
946.881	5097.14
947.187	5047.88
947.493	5041.32
947.799	5035.67
948.105	4988.44
948.41	4986.18
948.716	5009.23
949.022	4997.71
949.327	4952.74
949.633	4874.77
949.938	4881.78
950.244	4888.33
950.549	4836.36
950.854	4856.69
951.16	4810.82
951.465	4739.64
951.77	4777.37
952.075	4755.68
952.38	4732.63
952.685	4717.94
952.99	4704.61
953.294	4662.58
953.599	4646.98
953.904	4610.6
954.209	4609.47
954.513	4636.59
954.818	4569.02
955.122	4533.54
955.426	4526.08
955.731	4489.92
956.035	4518.62
956.339	4442.92
956.643	4469.13
956.948	4457.38
957.252	4409.7
957.556	4399.53
957.86	4321.79
958.163	4387.55
958.467	4327.67
958.771	4311.62
959.075	4297.39
959.378	4261.68
959.682	4257.84
959.985	4225.3
960.289	4230.72
960.592	4156.6
960.896	4172.19
961.199	4153.44
961.502	4149.37
961.805	4146.66
962.108	4156.83
962.411	4127.22
962.714	4098.3
963.017	4075.25
963.32	4097.84
963.623	4006.77
963.926	4009.48
964.228	4002.03
964.531	3997.51
964.833	4001.12
965.136	3956.83
965.438	3929.04
965.741	3914.57
966.043	3884.52
966.345	3857.4
966.648	3867.12
966.95	3897.4
967.252	3818.08
967.554	3774.46
967.856	3781.47
968.158	3740.79
968.46	3742.37
968.761	3686.78
969.063	3727.68
969.365	3689.72
969.666	3668.7
969.968	3615.6
970.269	3637.97
970.571	3667.8
970.872	3618.31
971.174	3556.62
971.475	3585.09
971.776	3561.81
972.077	3556.16
972.378	3561.59
972.679	3527.92
972.98	3529.95
973.281	3480.91
973.582	3513.23
973.883	3487.24
974.183	3484.08
974.484	3421.03
974.785	3432.55
975.085	3436.62
975.386	3444.08
975.686	3371.54
975.986	3403.85
976.287	3348.49
976.587	3360.69
976.887	3313.91
977.187	3290.18
977.487	3291.99
977.787	3253.12
978.087	3264.87
978.387	3225.1
978.687	3242.27
978.987	3188.04
979.286	3155.04
979.586	3179.9
979.885	3158.43
980.185	3128.15
980.484	3146.68
980.784	3082.28
981.083	3113.01
981.382	3105.78
981.682	3064.2
981.981	3099.9
982.28	3024.43
982.579	3060.81
982.878	3010.64
983.177	3032.56
983.475	3007.25
983.774	2979.68
984.073	2995.5
984.372	2986.24
984.67	2952.11
984.969	2924.09
985.267	2948.95
985.566	2899.23
985.864	2899.23
986.162	2902.85
986.461	2872.79
986.759	2818.1
987.057	2832.57
987.355	2825.34
987.653	2828.95
987.951	2825.34
988.249	2800.25
988.547	2787.6
988.844	2761.83
989.142	2752.57
989.44	2704.66
989.737	2726.13
990.035	2715.96
990.332	2675.28
990.63	2710.31
990.927	2675.28
991.224	2661.5
991.521	2648.39
991.819	2627.83
992.116	2640.26
992.413	2586.02
992.71	2644.32
993.006	2585.34
993.303	2614.27
993.6	2559.13
993.897	2561.16
994.193	2558
994.49	2548.05
994.787	2484.55
995.083	2491.78
995.379	2507.6
995.676	2471.9
995.972	2463.76
996.268	2432.35
996.565	2452.24
996.861	2439.13
997.157	2390.32
997.453	2443.65
997.749	2395.97
998.044	2393.03
998.34	2369.53
998.636	2340.6
998.932	2352.81
999.227	2321.39
999.523	2336.76
999.818	2317.33
1000.114	2308.29
1000.409	2279.81
1000.704	2284.33
1001	2278.91
1001.295	2265.35
1001.59	2276.65
1001.885	2253.15
1002.18	2226.71
1002.475	2194.62
1002.77	2223.77
1003.065	2181.74
1003.359	2171.34
1003.654	2170.21
1003.949	2115.07
1004.243	2155.07
1004.538	2097.44
1004.832	2089.76
1005.127	2126.14
1005.421	2037.33
1005.715	2078.24
1006.009	2057.45
1006.304	2051.57
1006.598	1994.85
1006.892	2035.53
1007.186	1993.94
1007.48	2018.35
1007.773	2002.08
1008.067	1969.09
1008.361	1966.83
1008.655	1944.91
1008.948	1927.28
1009.242	1935.19
1009.535	1941.74
1009.829	1936.77
1010.122	1909.2
1010.415	1905.13
1010.708	1875.08
1011.001	1865.59
1011.295	1896.77
1011.588	1851.12
1011.881	1822.65
1012.173	1808.86
1012.466	1813.16
1012.759	1821.07
1013.052	1794.4
1013.344	1755.98
1013.637	1770.45
1013.93	1755.76
1014.222	1752.6
1014.514	1747.62
1014.807	1734.97
1015.099	1715.31
1015.391	1712.6
1015.683	1723.67
1015.976	1716.89
1016.268	1675.31
1016.56	1683.67
1016.851	1657.23
1017.143	1654.29
1017.435	1661.07
1017.727	1632.6
1018.018	1621.07
1018.31	1592.15
1018.602	1610.9
1018.893	1583.11
1019.185	1584.24
1019.476	1595.31
1019.767	1551.24
1020.058	1523
1020.35	1539.95
1020.641	1522.32
1020.932	1499.72
1021.223	1486.84
1021.514	1504.69
1021.804	1504.69
1022.095	1466.05
1022.386	1474.86
1022.677	1446.39
1022.967	1423.79
1023.258	1427.63
1023.548	1426.5
1023.839	1442.09
1024.129	1433.28
1024.419	1421.98
1024.709	1403.9
1025	1383.79
1025.29	1348.99
1025.58	1353.74
1025.87	1349.67
1026.16	1313.51
1026.449	1325.26
1026.739	1334.75
1027.029	1321.87
1027.319	1305.83
1027.608	1306.28
1027.898	1301.08
1028.187	1295.66
1028.477	1302.89
1028.766	1276.68
1029.055	1268.09
1029.344	1252.95
1029.634	1241.65
1029.923	1253.63
1030.212	1204.59
1030.501	1216.34
1030.79	1207.98
1031.078	1193.74
1031.367	1222.67
1031.656	1186.51
1031.945	1185.38
1032.233	1174.31
1032.522	1163.46
1032.81	1110.35
1033.099	1177.24
1033.387	1156.23
1033.675	1139.28
1033.963	1148.32
1034.251	1115.78
1034.54	1084.82
1034.828	1095.66
1035.116	1125.27
1035.403	1104.48
1035.691	1097.47
1035.979	1075.78
1036.267	1069.68
1036.554	1036.68
1036.842	1041.2
1037.129	1038.04
1037.417	1025.38
1037.704	1055.66
1037.992	1025.16
1038.279	1026.51
1038.566	1001.88
1038.853	1001.88
1039.14	1001.88
