Data from hue_60_FLMS001491_74.txt Node
Date: Mon Feb 06 15:17:54 GMT 2017
User: dcchb
Spectrometer: FLMS00149
Trigger mode: 0
Integration Time (sec): 2.000000E-2
Scans to average: 10
Electric dark correction enabled: true
Nonlinearity correction enabled: false
Boxcar width: 0
XAxis mode: Wavelengths
Number of Pixels in Spectrum: 2048
>>>>>Begin Spectral Data<<<<<
341.393	-12.57
341.776	-12.57
342.16	-12.57
342.543	-79.01
342.927	-68.39
343.31	-67.48
343.693	-74.04
344.077	-70.2
344.46	-41.27
344.843	-56.41
345.226	-41.95
345.61	-27.94
345.993	-15.73
346.376	6.19
346.759	-2.63
347.142	26.75
347.525	38.73
347.908	45.96
348.291	76.01
348.674	99.29
349.057	104.71
349.44	137.48
349.823	144.04
350.206	171.61
350.588	200.31
350.971	220.87
351.354	222.68
351.737	221.55
352.119	269.23
352.502	263.81
352.884	271.04
353.267	283.69
353.65	292.51
354.032	306.07
354.414	314.88
354.797	326.86
355.179	353.75
355.562	341.54
355.944	321.21
356.326	356.69
356.709	334.31
357.091	337.03
357.473	357.36
357.855	351.49
358.238	332.51
358.62	341.09
359.002	346.97
359.384	343.8
359.766	356.46
360.148	352.39
360.53	339.74
360.912	335.22
361.294	328.66
361.676	340.64
362.057	334.54
362.439	330.92
362.821	331.6
363.203	334.31
363.584	348.55
363.966	324.82
364.348	333.64
364.729	333.18
365.111	325.73
365.493	310.36
365.874	302.9
366.256	323.92
366.637	328.44
367.019	326.63
367.4	331.15
367.781	311.26
368.163	318.04
368.544	307.65
368.925	311.26
369.306	315.33
369.688	310.13
370.069	326.18
370.45	332.73
370.831	301.32
371.212	323.47
371.593	309.23
371.974	316.23
372.355	335.67
372.736	302.45
373.117	303.58
373.498	298.61
373.879	335.9
374.26	299.51
374.641	328.89
375.021	327.99
375.402	316.01
375.783	316.69
376.163	343.35
376.544	324.82
376.925	329.34
377.305	318.04
377.686	339.74
378.066	316.46
378.447	326.63
378.827	333.18
379.208	322.79
379.588	327.08
379.968	328.44
380.349	321.21
380.729	329.34
381.109	322.56
381.489	348.32
381.87	346.06
382.25	324.37
382.63	327.08
383.01	325.27
383.39	378.38
383.77	352.62
384.15	356.01
384.53	344.71
384.91	363.47
385.29	342.9
385.67	374.09
386.049	356.46
386.429	348.1
386.809	379.96
387.189	363.47
387.568	351.49
387.948	339.28
388.328	373.86
388.707	349
389.087	375.89
389.466	379.51
389.846	362.79
390.225	386.74
390.605	382.22
390.984	368.21
391.363	365.5
391.743	357.14
392.122	384.26
392.501	380.87
392.881	369.34
393.26	398.04
393.639	393.07
394.018	373.63
394.397	396.01
394.776	369.34
395.155	377.25
395.534	371.6
395.913	393.29
396.292	383.58
396.671	375.44
397.05	391.94
397.429	380.41
397.808	391.03
398.186	402.33
398.565	409.34
398.944	369.11
399.323	412.05
399.701	403.46
400.08	408.21
400.458	401.43
400.837	409.34
401.215	405.27
401.594	405.05
401.972	387.65
402.351	432.16
402.729	411.83
403.107	395.1
403.486	393.52
403.864	424.25
404.242	403.01
404.62	401.66
404.999	415.44
405.377	430.58
405.755	415.22
406.133	428.1
406.511	424.71
406.889	406.18
407.267	429.45
407.645	417.7
408.023	429.23
408.401	436.23
408.779	445.27
409.156	444.14
409.534	435.33
409.912	430.58
410.29	455.44
410.667	466.06
411.045	447.3
411.422	436.23
411.8	467.42
412.178	462.9
412.555	454.76
412.933	465.38
413.31	463.35
413.687	483.91
414.065	468.55
414.442	468.55
414.819	485.72
415.197	507.42
415.574	476.68
415.951	486.85
416.328	506.06
416.705	497.02
417.082	510.13
417.46	500.64
417.837	511.03
418.214	500.86
418.591	495.66
418.967	504.25
419.344	507.42
419.721	519.39
420.098	518.72
420.475	505.38
420.852	530.92
421.228	512.16
421.605	519.62
421.982	532.05
422.358	546.74
422.735	538.38
423.111	548.54
423.488	527.3
423.864	550.35
424.241	562.33
424.617	561.2
424.994	553.97
425.37	553.29
425.746	585.15
426.123	560.3
426.499	565.95
426.875	583.35
427.251	584.25
427.627	587.64
428.003	591.71
428.379	602.78
428.756	576.34
429.132	605.27
429.507	570.47
429.883	593.52
430.259	614.76
430.635	609.79
431.011	623.35
431.387	614.76
431.763	636.23
432.138	622.89
432.514	624.7
432.89	657.92
433.265	649.79
433.641	680.52
434.016	658.82
434.392	668.77
434.767	675.55
435.143	674.64
435.518	675.1
435.894	694.08
436.269	687.07
436.644	700.86
437.02	690.01
437.395	689.11
437.77	693.4
438.145	706.28
438.52	716.22
438.895	716.22
439.271	697.24
439.646	728.88
440.021	728.65
440.395	718.94
440.77	725.72
441.145	763.23
441.52	747.18
441.895	744.47
442.27	766.39
442.645	786.28
443.019	758.26
443.394	758.71
443.769	775.88
444.143	754.19
444.518	773.85
444.892	770.01
445.267	776.34
445.641	804.13
446.016	789.67
446.39	805.26
446.764	803
447.139	815.43
447.513	803.91
447.887	832.38
448.262	826.73
448.636	803
449.01	828.31
449.384	825.37
449.758	828.09
450.132	847.07
450.506	863.11
450.88	856.11
451.254	888.2
451.628	873.06
452.002	872.6
452.376	886.62
452.75	880.06
453.123	920.06
453.497	908.76
453.871	925.48
454.244	917.12
454.618	931.36
454.992	935.65
455.365	943.56
455.739	964.35
456.112	969.32
456.486	956.67
456.859	971.13
457.232	1012.26
457.606	1013.62
457.979	1028.76
458.352	1024.69
458.725	1033.28
459.099	1031.24
459.472	1049.32
459.845	1075.54
460.218	1062.2
460.591	1105.14
460.964	1079.83
461.337	1095.42
461.71	1122.09
462.083	1129.09
462.456	1178.81
462.829	1175.87
463.201	1141.3
463.574	1158.47
463.947	1193.05
464.32	1251.58
464.692	1250
465.065	1218.81
465.438	1269.43
465.81	1277.57
466.183	1279.6
466.555	1314.85
466.928	1358.69
467.3	1351.46
467.672	1355.98
468.045	1393.04
468.417	1409.31
468.789	1457.22
469.161	1440.95
469.534	1462.19
469.906	1505.13
470.278	1525.24
470.65	1554.85
471.022	1586.26
471.394	1599.36
471.766	1651.34
472.138	1675.29
472.51	1717.78
472.882	1754.16
473.253	1803.2
473.625	1821.51
473.997	1848.85
474.369	1892.01
474.74	1904.22
475.112	1961.16
475.484	2014.27
475.855	2069.86
476.227	2114.15
476.598	2175.62
476.97	2228.95
477.341	2318.89
477.713	2355.96
478.084	2381.27
478.455	2478.66
478.827	2521.37
479.198	2594.37
479.569	2683.18
479.94	2765.66
480.311	2817.86
480.682	2897.86
481.053	2996.62
481.424	3077.74
481.795	3154.35
482.166	3242.03
482.537	3407.9
482.908	3422.59
483.279	3537.62
483.65	3669.59
484.021	3745.52
484.391	3815.13
484.762	3930.6
485.133	4100.09
485.503	4128.56
485.874	4314.77
486.244	4379.86
486.615	4511.6
486.985	4603.58
487.356	4799.96
487.726	4911.14
488.097	5068.43
488.467	5193.17
488.837	5295.09
489.207	5490.34
489.578	5648.52
489.948	5764.45
490.318	5939.14
490.688	6006.71
491.058	6221.39
491.428	6415.96
491.798	6460.25
492.168	6671.55
492.538	6794.71
492.908	7010.97
493.278	7151.99
493.648	7264.53
494.017	7368.25
494.387	7628.58
494.757	7824.06
495.126	7939.09
495.496	8028.8
495.866	8222.92
496.235	8401.67
496.605	8493.65
496.974	8730.7
497.344	8905.61
497.713	9049.79
498.082	9193.52
498.452	9299.5
498.821	9487.29
499.19	9612.26
499.559	9743.33
499.928	10014.28
500.298	10079.59
500.667	10257.67
501.036	10361.39
501.405	10508.06
501.774	10588.73
502.143	10780.82
502.512	10955.28
502.88	11085.22
503.249	11170.19
503.618	11418.09
503.987	11542.83
504.356	11625.54
504.724	11781.02
505.093	12016.04
505.462	12118.86
505.83	12237.96
506.199	12358.86
506.567	12679.53
506.936	12809.92
507.304	12945.73
507.672	13039.97
508.041	13116.8
508.409	13280.41
508.777	13495.55
509.145	13627.98
509.514	13717.46
509.882	13933.28
510.25	13969.21
510.618	14158.81
510.986	14154.74
511.354	14423.66
511.722	14556.31
512.09	14749.08
512.458	14745.46
512.826	15050.76
513.193	15120.37
513.561	15169.4
513.929	15429.06
514.297	15642.61
514.664	15663.85
515.032	15713.12
515.4	16000.57
515.767	16073.79
516.135	16264.74
516.502	16167.8
516.869	16596.94
517.237	16599.2
517.604	16684.62
517.972	16909.02
518.339	17007.32
518.706	17068.56
519.073	17245.06
519.44	17445.05
519.808	17663.8
520.175	17645.5
520.542	17968.2
520.909	18065.37
521.276	18064.69
521.643	18290.9
522.009	18393.05
522.376	18604.79
522.743	18747.39
523.11	18922.53
523.477	19108.51
523.843	19173.14
524.21	19431.89
524.577	19591.66
524.943	19655.16
525.31	19767.93
525.676	20070.07
526.043	20132.89
526.409	20301.25
526.776	20432.09
527.142	20520.22
527.508	20728.58
527.874	20884.73
528.241	20981.45
528.607	21130.38
528.973	21382.12
529.339	21383.48
529.705	21596.13
530.071	21753.86
530.437	21753.41
530.803	22001.54
531.169	22172.61
531.535	22117.02
531.901	22299.84
532.267	22301.19
532.632	22466.16
532.998	22637.23
533.364	22761.97
533.73	22796.77
534.095	22934.85
534.461	22955.19
534.826	23189.76
535.192	23165.35
535.557	23402.41
535.923	23483.31
536.288	23610.76
536.653	23604.66
537.019	23623.42
537.384	23804.2
537.749	23903.64
538.114	23937.08
538.479	24108.38
538.845	24133.46
539.21	24063.18
539.575	24204.65
539.94	24372.55
540.305	24448.71
540.67	24449.16
541.034	24638.53
541.399	24757.85
541.764	24764.18
542.129	24911.97
542.494	24933.67
542.858	25038.52
543.223	25169.82
543.587	25324.62
543.952	25274
544.316	25271.74
544.681	25353.54
545.045	25562.12
545.41	25624.5
545.774	25730.48
546.138	25790.82
546.503	25778.62
546.867	25833.98
547.231	25942.68
547.595	26152.39
547.959	26254.99
548.324	26247.76
548.688	26294.76
549.052	26433.29
549.416	26552.83
549.779	26514.42
550.143	26633.28
550.507	26918.02
550.871	26886.38
551.235	26954.86
551.599	27170.22
551.962	27193.27
552.326	27215.19
552.689	27384.9
553.053	27339.93
553.417	27378.8
553.78	27865.34
554.143	27710.32
554.507	27800.26
554.87	28004.09
555.234	28062.4
555.597	28004.09
555.96	28138.1
556.323	28343.52
556.686	28386.01
557.05	28560.69
557.413	28696.96
557.776	28849.72
558.139	29027.57
558.502	28943.73
558.865	28998.42
559.228	29309.6
559.59	29461.23
559.953	29236.6
560.316	29537.16
560.679	29776.25
561.041	29820.77
561.404	29976.02
561.767	30194.32
562.129	30119.07
562.492	30445.84
562.854	30298.72
563.217	30399.51
563.579	30662.56
563.941	30726.06
564.304	30952.72
564.666	31061.64
565.028	31223.44
565.39	31296.21
565.753	31479.26
566.115	31582.76
566.477	31674.51
566.839	31750.89
567.201	32012.58
567.563	32016.19
567.925	32216.86
568.287	32326.47
568.648	32384.54
569.01	32550.19
569.372	32769.17
569.734	32695.5
570.095	32964.87
570.457	33086.67
570.819	33046.22
571.18	33126.45
571.542	33255.26
571.903	33461.8
572.265	33544.74
572.626	33529.82
572.987	33715.81
573.349	33779.76
573.71	33876.03
574.071	34016.59
574.432	33987.21
574.794	34327.54
575.155	34288.67
575.516	34140.43
575.877	34400.76
576.238	34565.96
576.599	34615.9
576.96	34747.19
577.32	34732.73
577.681	34775.89
578.042	34885.95
578.403	34905.83
578.763	34910.13
579.124	35121.87
579.485	35073.74
579.845	35188.31
580.206	35213.17
580.566	35229.44
580.927	35236.45
581.287	35388.76
581.648	35257.69
582.008	35384.47
582.368	35436.67
582.728	35582.65
583.089	35482.32
583.449	35486.38
583.809	35603.44
584.169	35712.14
584.529	35606.15
584.889	35809.31
585.249	35701.97
585.609	35591.24
585.969	35822.65
586.329	35598.47
586.688	35683.89
587.048	35719.6
587.408	35792.14
587.768	35739.71
588.127	35891.8
588.487	35724.8
588.846	35951.23
589.206	35689.09
589.565	35732.03
589.925	35889.76
590.284	35842.53
590.643	35936.09
591.003	35986.03
591.362	36142.64
591.721	36031
592.08	36031.23
592.44	36130.43
592.799	36078.23
593.158	36117.55
593.517	36143.09
593.876	36147.38
594.235	36075.75
594.593	36104.22
594.952	36281.39
595.311	36073.26
595.67	36235.06
596.029	36566.58
596.387	36406.59
596.746	36502.4
597.104	36471.44
597.463	36324.78
597.822	36534.04
598.18	36565.45
598.538	36361.16
598.897	36659.23
599.255	36397.09
599.613	36988.26
599.972	36685.9
600.33	36850.87
600.688	36801.38
601.046	36913.69
601.404	36975.61
601.762	36848.16
602.12	37048.15
602.478	36944.42
602.836	37102.39
603.194	36815.39
603.552	37026.91
603.91	36948.49
604.268	37109.62
604.625	37027.81
604.983	37279.1
605.341	37067.36
605.698	37259.9
606.056	37382.38
606.413	37454.02
606.771	37590.73
607.128	37508.7
607.485	37346
607.843	37517.97
608.2	37728.58
608.557	37819.66
608.914	37766.55
609.272	37901.24
609.629	37999.54
609.986	38143.26
610.343	38038.18
610.7	38212.87
611.057	38146.65
611.414	38103.94
611.771	38204.73
612.127	38388
612.484	38375.35
612.841	38524.72
613.198	38428.45
613.554	38527.43
613.911	38634.55
614.267	38686.98
614.624	38650.59
614.98	38652.18
615.337	39040.64
615.693	38773.08
616.05	38920.64
616.406	39015.33
616.762	38936.24
617.118	38937.59
617.475	38914.54
617.831	39142.11
618.187	39335.32
618.543	39292.84
618.899	39422.78
619.255	39320.63
619.611	39333.51
619.967	39465.94
620.323	39667.74
620.678	39504.81
621.034	39453.06
621.39	39535.32
621.746	39396.34
622.101	39857.79
622.457	39516.79
622.812	39884.46
623.168	39771.24
623.523	39770.11
623.879	39944.57
624.234	39733.96
624.589	39835.65
624.945	39837.68
625.3	39834.29
625.655	39874.29
626.01	39837
626.365	40053.49
626.72	39887.62
627.075	39933.5
627.43	40021.41
627.785	39920.84
628.14	39919.26
628.495	40095.98
628.85	40057.79
629.205	39813.5
629.559	40049.88
629.914	39945.7
630.269	39981.18
630.623	40093.72
630.978	39900.5
631.332	40003.55
631.687	40096.88
632.041	39861.18
632.396	40079.26
632.75	39944.8
633.104	39875.87
633.459	39688.08
633.813	39844.46
634.167	39841.52
634.521	39798.81
634.875	39831.35
635.229	39725.37
635.583	39644.69
635.937	39658.7
636.291	39587.07
636.645	39673.39
636.999	39474.53
637.352	39723.11
637.706	39573.96
638.06	39608.31
638.413	39515.66
638.767	39277.47
639.121	39463.91
639.474	39319.95
639.828	39236.34
640.181	39415.55
640.534	39238.83
640.888	39199.05
641.241	39106.85
641.594	39302.78
641.947	39390.01
642.301	39268.43
642.654	39251.26
643.007	39252.16
643.36	39120.19
643.713	39161.77
644.066	39367.86
644.419	39121.32
644.771	38775.11
645.124	38305.74
645.477	38350.49
645.83	38158.4
646.182	38059.42
646.535	37884.96
646.888	38001.35
647.24	37671.64
647.593	37865.53
647.945	37856.94
648.298	37709.83
648.65	37624.41
649.002	37578.08
649.355	37631.19
649.707	37656.04
650.059	37861.69
650.411	38278.17
650.763	38232.53
651.115	38661.89
651.467	38523.59
651.819	38507.32
652.171	38432.52
652.523	38365.18
652.875	38423.71
653.227	38145.97
653.578	38586.64
653.93	38490.6
654.282	38201.34
654.633	38291.06
654.985	38217.16
655.337	38356.82
655.688	38164.5
656.039	38313.65
656.391	38059.2
656.742	37973.55
657.094	38095.58
657.445	38190.49
657.796	38001.35
658.147	38021.68
658.498	38080.44
658.849	38182.13
659.2	38003.38
659.551	37882.25
659.902	38028.92
660.253	37749.6
660.604	37959.99
660.955	37788.24
661.306	37924.29
661.656	37835.25
662.007	37909.14
662.358	37918.41
662.708	37898.52
663.059	37883.16
663.409	37677.96
663.76	38046.99
664.11	37915.47
664.461	37914.57
664.811	37990.5
665.161	37755.93
665.511	37676.38
665.862	37854.46
666.212	37965.19
666.562	37917.96
666.912	37752.31
667.262	37708.92
667.612	37857.39
667.962	37801.12
668.312	37677.51
668.662	37863.5
669.011	37724.29
669.361	37751.63
669.711	37685.87
670.06	37742.14
670.41	37531.08
670.76	37491.53
671.109	37822.59
671.459	37540.79
671.808	37717.06
672.157	37754.57
672.507	37318.2
672.856	37489.95
673.205	37553.22
673.554	37609.72
673.904	37458.76
674.253	37610.4
674.602	37649.94
674.951	36999.56
675.3	36856.74
675.649	37448.37
675.998	37309.84
676.346	37387.58
676.695	37433.9
677.044	37135.15
677.393	37346.22
677.741	37332.44
678.09	37333.11
678.438	37190.75
678.787	37232.33
679.135	37263.74
679.484	36957.98
679.832	37133.12
680.181	36800.93
680.529	37144.87
680.877	36889.51
681.225	36945.78
681.573	37101.71
681.922	36799.12
682.27	36731.1
682.618	36687.71
682.966	36517.99
683.314	36670.98
683.661	36479.58
684.009	36432.57
684.357	36444.1
684.705	36249.08
685.053	36343.99
685.4	36195.29
685.748	36019.25
686.095	35957.78
686.443	35870.33
686.79	35957.11
687.138	35926.6
687.485	35915.98
687.832	35842.98
688.18	35850.44
688.527	35638.7
688.874	35711.24
689.221	35571.58
689.568	35424.46
689.915	35489.55
690.262	35414.07
690.609	35358.48
690.956	35094.53
691.303	35122.33
691.65	35094.08
691.997	35072.38
692.344	34814.76
692.69	34771.37
693.037	34791.49
693.383	34579.97
693.73	34775.67
694.077	34463.59
694.423	34448.44
694.769	34304.04
695.116	34434.66
695.462	34234.21
695.808	34164.16
696.155	34232.86
696.501	33908.35
696.847	34003.48
697.193	33778.41
697.539	33762.36
697.885	33647.11
698.231	33502.71
698.577	33432.65
698.923	33250.74
699.269	33235.14
699.614	33062.94
699.96	33082.6
700.306	33046.22
700.651	32927.58
700.997	32789.73
701.342	32847.58
701.688	32702.95
702.033	32572.56
702.379	32541.15
702.724	32381.83
703.069	32484.43
703.415	32109.97
703.76	32240.14
704.105	32156.75
704.45	32222.06
704.795	31841.51
705.14	31788.4
705.485	31733.04
705.83	31756.31
706.175	31650.33
706.52	31628.86
706.865	31575.07
707.209	31407.39
707.554	31420.05
707.899	31441.74
708.243	31297.34
708.588	31260.96
708.932	30998.14
709.277	31022.32
709.621	31074.07
709.966	30845.15
710.31	30876.56
710.654	30695.1
710.998	30831.59
711.342	30771.25
711.687	30615.55
712.031	30446.06
712.375	30413.97
712.719	30427.53
713.063	30314.54
713.407	30413.3
713.75	30167.88
714.094	30313.41
714.438	30110.71
714.782	30149.35
715.125	29861.67
715.469	30143.25
715.812	29945.06
716.156	29718.85
716.499	29775.12
716.843	29768.79
717.186	29601.11
717.53	29698.29
717.873	29695.12
718.216	29537.84
718.559	29486.99
718.902	29348.69
719.246	29480.21
719.589	29180.56
719.932	29034.35
720.275	29166.55
720.617	28962.26
720.96	29010.4
721.303	28975.14
721.646	28993.22
721.989	28811.53
722.331	28996.16
722.674	28780.34
723.016	28818.99
723.359	28621.93
723.701	28771.98
724.044	28578.77
724.386	28371.54
724.729	28521.37
725.071	28488.6
725.413	28508.94
725.755	28376.06
726.097	28376.74
726.439	28180.59
726.782	28175.62
727.124	28226.46
727.465	28130.42
727.807	28102.17
728.149	28203.86
728.491	28065.56
728.833	28054.49
729.175	27966.81
729.516	27943.53
729.858	27870.54
730.199	27892.91
730.541	27789.64
730.882	27745.12
731.224	27715.97
731.565	27596.65
731.906	27682.75
732.248	27596.65
732.589	27565.46
732.93	27466.71
733.271	27438.91
733.612	27460.15
733.953	27456.09
734.294	27321.4
734.635	27253.61
734.976	27274.17
735.317	27176.77
735.658	27112.82
735.999	27095.87
736.339	27101.29
736.68	27194.4
737.021	27022.88
737.361	26806.84
737.702	26952.6
738.042	26975.65
738.383	26850
738.723	26983.78
739.063	26696.11
739.404	26904.01
739.744	26779.72
740.084	26625.15
740.424	26681.64
740.764	26745.82
741.104	26620.63
741.444	26480.29
741.784	26413.63
742.124	26348.54
742.464	26404.36
742.804	26370.69
743.143	26301.31
743.483	26306.74
743.823	26141.09
744.162	26129.12
744.502	26120.08
744.841	26116.91
745.181	26282.56
745.52	26114.65
745.86	26111.94
746.199	25951.27
746.538	25890.03
746.877	25948.33
747.216	25969.57
747.556	25837.82
747.895	25898.84
748.234	25648.45
748.573	25681.9
748.911	25625.63
749.25	25744.27
749.589	25454.56
749.928	25585.17
750.267	25556.7
750.605	25505.4
750.944	25450.04
751.283	25278.74
751.621	25436.03
751.96	25222.7
752.298	25222.47
752.636	25363.49
752.975	25005.75
753.313	24964.17
753.651	25013.89
753.989	24952.42
754.327	24901.8
754.666	24798.08
755.004	24851.41
755.342	24781.35
755.679	24639.44
756.017	24572.32
756.355	24568.48
756.693	24547.91
757.031	24547.46
757.368	24314.47
757.706	24331.87
758.044	24215.04
758.381	24261.37
758.719	24184.99
759.056	24081.26
759.394	24152.9
759.731	23928.5
760.068	23912.68
760.405	23857.76
760.743	23780.25
761.08	23839.46
761.417	23721.27
761.754	23671.1
762.091	23569.63
762.428	23434.95
762.765	23330.09
763.102	23389.98
763.438	23254.61
763.775	23142.3
764.112	23172.36
764.449	23219.14
764.785	22996.77
765.122	22910.89
765.458	22668.42
765.795	22782.76
766.131	22733.72
766.467	22648.75
766.804	22538.48
767.14	22463.67
767.476	22435.43
767.812	22294.87
768.148	22287.63
768.485	22250.57
768.821	22110.46
769.157	21935.33
769.492	22062.56
769.828	22044.25
770.164	21762.22
770.5	21770.36
770.836	21764.26
771.171	21614.43
771.507	21562.46
771.842	21382.12
772.178	21356.59
772.513	21360.88
772.849	21236.14
773.184	21221.22
773.519	21104.84
773.855	21088.8
774.19	20898.97
774.525	20939.65
774.86	20913.21
775.195	20866.65
775.53	20630.05
775.865	20668.69
776.2	20453.56
776.535	20379.21
776.87	20422.37
777.205	20304.64
777.539	20204.53
777.874	20227.35
778.209	20076.84
778.543	20029.61
778.878	19935.61
779.212	19926.34
779.547	19848.15
779.881	19766.57
780.215	19667.59
780.55	19678.66
780.884	19472.57
781.218	19401.38
781.552	19480.02
781.886	19397.99
782.22	19268.28
782.554	19155.74
782.888	18943.54
783.222	18892.47
783.556	18826.03
783.889	18817.44
784.223	18770.44
784.557	18707.84
784.89	18661.74
785.224	18537.9
785.557	18473.95
785.891	18424.69
786.224	18458.81
786.558	18407.51
786.891	18217.01
787.224	18041.42
787.557	18079.61
787.891	18138.14
788.224	18084.13
788.557	17983.11
788.89	17923.68
789.223	17848.43
789.556	17698.6
789.888	17805.72
790.221	17717.13
790.554	17569.79
790.887	17573.41
791.219	17429.01
791.552	17424.49
791.884	17426.52
792.217	17295
792.549	17205.96
792.882	17086.64
793.214	17119.18
793.546	17070.14
793.879	16930.94
794.211	16904.05
794.543	16909.92
794.875	16777.5
795.207	16836.25
795.539	16732.75
795.871	16716.03
796.203	16571.85
796.535	16560.55
796.867	16478.3
797.198	16356.04
797.53	16377.51
797.862	16280.56
798.193	16354.68
798.525	16225.65
798.856	16234.69
799.188	16020.23
799.519	16104.07
799.85	15873.11
800.182	16004.41
800.513	15875.6
800.844	15780.46
801.175	15912.89
801.506	15810.97
801.837	15755.15
802.168	15638.09
802.499	15639.67
802.83	15557.87
803.161	15574.59
803.491	15432.22
803.822	15554.25
804.153	15435.84
804.483	15303.64
804.814	15269.51
805.145	15243.98
805.475	15219.35
805.805	15187.71
806.136	15135.96
806.466	15088.73
806.796	15070.2
807.126	14958.11
807.457	14944.55
807.787	14942.52
808.117	14879.47
808.447	14831.79
808.777	14827.04
809.107	14693.26
809.436	14754.73
809.766	14695.52
810.096	14607.61
810.426	14537.1
810.755	14642.64
811.085	14499.82
811.414	14499.36
811.744	14352.7
812.073	14363.77
812.403	14396.54
812.732	14281.74
813.061	14267.51
813.39	14181.18
813.719	14150.9
814.049	14188.41
814.378	14195.42
814.707	14070.45
815.036	14087.4
815.365	13958.36
815.693	13845.6
816.022	13835.2
816.351	13787.52
816.68	13793.62
817.008	13801.08
817.337	13757.01
817.665	13587.52
817.994	13663.23
818.322	13687.86
818.651	13596.11
818.979	13545.04
819.307	13644.25
819.636	13518.83
819.964	13503.68
820.292	13521.31
820.62	13459.17
820.948	13451.48
821.276	13462.56
821.604	13414.42
821.932	13422.33
822.259	13394.53
822.587	13409.45
822.915	13349.34
823.243	13468.43
823.57	13426.85
823.898	13448.54
824.225	13350.69
824.553	13384.14
824.88	13373.97
825.207	13422.78
825.535	13371.26
825.862	13392.5
826.189	13344.82
826.516	13403.12
826.843	13397.47
827.17	13438.38
827.497	13414.2
827.824	13429.11
828.151	13453.29
828.478	13374.42
828.805	13427.3
829.131	13336.23
829.458	13347.53
829.785	13254.2
830.111	13352.5
830.438	13396.79
830.764	13303.24
831.09	13307.31
831.417	13289.68
831.743	13319.96
832.069	13335.1
832.395	13275.22
832.722	13267.98
833.048	13114.09
833.374	13226.86
833.7	13096.69
834.026	13228.44
834.351	13267.76
834.677	13206.07
835.003	13236.12
835.329	13194.54
835.654	13146.18
835.98	13079.29
836.306	13066.63
836.631	13046.07
836.956	13039.97
837.282	13020.53
837.607	12959.07
837.932	12985.96
838.258	12969.01
838.583	12967.2
838.908	12960.87
839.233	12920.87
839.558	12879.97
839.883	12814.44
840.208	12881.33
840.533	12900.76
840.858	12884.94
841.182	12868.22
841.507	12741.44
841.832	12710.94
842.156	12702.8
842.481	12690.15
842.805	12714.33
843.13	12616.02
843.454	12546.87
843.778	12519.98
844.103	12460.1
844.427	12470.04
844.751	12515.91
845.075	12372.19
845.399	12457.84
845.723	12326.77
846.047	12299.87
846.371	12266.43
846.695	12242.7
847.019	12151.4
847.343	12082.93
847.666	11987.79
847.99	11914.12
848.313	12009.94
848.637	11842.49
848.96	11896.5
849.284	11814.69
849.607	11733.11
849.931	11693.79
850.254	11578.76
850.577	11570.63
850.9	11493.34
851.223	11458.99
851.546	11492.44
851.869	11387.13
852.192	11433.91
852.515	11323.85
852.838	11291.54
853.161	11309.39
853.483	11224.2
853.806	11149.4
854.129	11161.37
854.451	11061.71
854.774	11042.28
855.096	11078.89
855.419	10990.53
855.741	10955.73
856.063	10860.14
856.385	10905.33
856.708	10825.79
857.03	10862.17
857.352	10797.77
857.674	10667.37
857.996	10719.8
858.318	10732.23
858.64	10701.5
858.961	10638.22
859.283	10592.35
859.605	10606.59
859.926	10587.83
860.248	10520.94
860.57	10408.85
860.891	10509.64
861.212	10427.83
861.534	10450.88
861.855	10367.95
862.176	10384.44
862.498	10346.03
862.819	10390.32
863.14	10378.34
863.461	10294.96
863.782	10209.99
864.103	10199.59
864.424	10296.54
864.745	10261.96
865.065	10138.8
865.386	10163.21
865.707	10111.46
866.027	10128.63
866.348	10132.25
866.668	10133.38
866.989	10017
867.309	9997.34
867.63	10088.86
867.95	10002.31
868.27	9959.37
868.59	10019.48
868.91	9993.49
869.23	9965.25
869.55	9889.32
869.87	9974.51
870.19	9913.5
870.51	9917.79
870.83	9906.49
871.15	9791.92
871.469	9922.08
871.789	9799.38
872.109	9821.75
872.428	9842.31
872.748	9795.31
873.067	9845.7
873.386	9796.44
873.706	9716.44
874.025	9680.96
874.344	9667.63
874.663	9674.41
874.982	9663.11
875.301	9637.57
875.62	9565.03
875.939	9547.86
876.258	9567.06
876.577	9587.4
876.896	9524.58
877.214	9504.47
877.533	9562.09
877.852	9527.52
878.17	9526.39
878.489	9448.42
878.807	9456.33
879.125	9385.37
879.444	9443
879.762	9397.58
880.08	9489.33
880.398	9376.56
880.716	9386.96
881.034	9385.15
881.352	9320.29
881.67	9302.21
881.988	9358.93
882.306	9259.05
882.624	9240.29
882.941	9219.05
883.259	9223.12
883.577	9164.59
883.894	9133.86
884.212	9225.6
884.529	9127.75
884.846	9069.22
885.164	9102.67
885.481	9082.33
885.798	9048.89
886.115	8964.14
886.432	8992.16
886.75	8888.21
887.067	8928.89
887.383	8938.38
887.7	8953.97
888.017	8886.63
888.334	8853.19
888.651	8866.74
888.967	8803.7
889.284	8823.81
889.6	8746.3
889.917	8676.47
890.233	8768.22
890.55	8709.01
890.866	8665.17
891.182	8696.35
891.498	8606.41
891.815	8611.61
892.131	8657.71
892.447	8530.93
892.763	8519.86
893.079	8551.72
893.395	8470.37
893.71	8424.27
894.026	8524.83
894.342	8337.27
894.657	8324.84
894.973	8386.3
895.289	8373.65
895.604	8332.75
895.92	8303.14
896.235	8272.18
896.55	8222.24
896.865	8156.25
897.181	8161.9
897.496	8186.54
897.811	8105.86
898.126	8064.28
898.441	8019.53
898.756	8033.32
899.071	8005.75
899.386	7999.2
899.7	7900.67
900.015	7884.62
900.33	7850.5
900.644	7807.34
900.959	7859.31
901.273	7823.61
901.588	7803.95
901.902	7724.18
902.216	7678.98
902.531	7696.15
902.845	7641.24
903.159	7700.67
903.473	7597.63
903.787	7501.58
904.101	7567.57
904.415	7451.87
904.729	7447.57
905.042	7449.15
905.356	7458.42
905.67	7462.94
905.984	7485.54
906.297	7375.48
906.611	7235.6
906.924	7353.79
907.237	7259.78
907.551	7240.12
907.864	7250.74
908.177	7171.42
908.491	7168.26
908.804	7154.92
909.117	7122.84
909.43	7113.57
909.743	7038.09
910.056	7004.87
910.368	7003.52
910.681	6958.32
910.994	6963.52
911.307	6939.11
911.619	6827.02
911.932	6835.84
912.244	6813.92
912.557	6755.84
912.869	6731.66
913.181	6751.09
913.494	6710.19
913.806	6688.72
914.118	6621.61
914.43	6636.07
914.742	6650.53
915.054	6541.83
915.366	6525.34
915.678	6499.57
915.99	6494.83
916.302	6459.35
916.613	6466.36
916.925	6433.14
917.236	6362.86
917.548	6377.32
917.859	6364.66
918.171	6322.18
918.482	6256.19
918.794	6214.61
919.105	6279.92
919.416	6165.8
919.727	6156.31
920.038	6187.27
920.349	6123.54
920.66	6107.27
920.971	6102.07
921.282	6042.19
921.593	6018.46
921.903	6062.75
922.214	5957.22
922.525	5969.87
922.835	5924.22
923.146	5880.38
923.456	5921.28
923.767	5860.72
924.077	5855.3
924.387	5797.22
924.697	5774.4
925.008	5747.96
925.318	5697.34
925.628	5690.56
925.938	5695.75
926.248	5642.2
926.558	5603.33
926.867	5601.97
927.177	5613.04
927.487	5542.99
927.796	5527.17
928.106	5479.04
928.416	5502.31
928.725	5470.45
929.034	5449.21
929.344	5431.81
929.653	5409.66
929.962	5413.5
930.271	5326.95
930.581	5299.83
930.89	5290.79
931.199	5243.34
931.508	5226.39
931.817	5281.75
932.125	5263.9
932.434	5236.56
932.743	5171.93
933.051	5159.05
933.36	5105.26
933.669	5094.64
933.977	5077.92
934.286	5046.73
934.594	5068.88
934.902	5006.51
935.21	4990.91
935.519	5009.67
935.827	5009.9
936.135	4928.09
936.443	4875.89
936.751	4904.59
937.059	4896.45
937.367	4811.03
937.674	4850.58
937.982	4825.04
938.29	4783.24
938.597	4820.07
938.905	4729
939.213	4703.24
939.52	4697.59
939.827	4693.07
940.135	4641.32
940.442	4644.71
940.749	4638.61
941.056	4619.62
941.363	4593.18
941.67	4600.87
941.977	4572.62
942.284	4528.55
942.591	4521.1
942.898	4523.13
943.205	4454.43
943.511	4449.01
943.818	4466.18
944.125	4407.65
944.431	4408.56
944.738	4339.63
945.044	4409.01
945.35	4357.03
945.657	4320.88
945.963	4318.84
946.269	4313.42
946.575	4258.5
946.881	4235.23
947.187	4247.43
947.493	4226.87
947.799	4253.76
948.105	4170.6
948.41	4136.93
948.716	4148
949.022	4180.99
949.327	4136.47
949.633	4048.79
949.938	4105.51
950.244	4064.16
950.549	4038.17
950.854	4060.54
951.16	3998.62
951.465	3971.28
951.77	3983.93
952.075	3977.16
952.38	3925.86
952.685	3930.38
952.99	3949.36
953.294	3897.16
953.599	3901.23
953.904	3884.5
954.209	3883.15
954.513	3823.94
954.818	3796.82
955.122	3819.42
955.426	3771.96
955.731	3766.09
956.035	3715.47
956.339	3713.43
956.643	3706.88
956.948	3700.1
957.252	3688.58
957.556	3666.43
957.86	3654.45
958.163	3629.59
958.467	3639.31
958.771	3634.34
959.075	3605.87
959.378	3596.83
959.682	3586.88
959.985	3530.39
960.289	3554.34
960.592	3525.87
960.896	3475.93
961.199	3470.95
961.502	3459.2
961.805	3437.06
962.108	3433.89
962.411	3404.97
962.714	3362.48
963.017	3374.91
963.32	3373.33
963.623	3358.41
963.926	3351.18
964.228	3330.62
964.531	3299.21
964.833	3273.67
965.136	3272.54
965.438	3255.14
965.741	3232.99
966.043	3234.58
966.345	3262.15
966.648	3227.8
966.95	3216.05
967.252	3171.75
967.554	3146.67
967.856	3165.65
968.158	3170.17
968.46	3145.99
968.761	3141.92
969.063	3105.31
969.365	3090.85
969.666	3112.32
969.968	3045.65
970.269	3048.82
970.571	3036.84
970.872	3053.56
971.174	2970.63
971.475	3019.21
971.776	2983.06
972.077	2983.51
972.378	2956.62
972.679	2968.37
972.98	2919.33
973.281	2941.48
973.582	2954.81
973.883	2882.49
974.183	2875.04
974.484	2833.46
974.785	2859.22
975.085	2843.4
975.386	2880.91
975.686	2826.23
975.986	2821.93
976.287	2796.85
976.587	2764.08
976.887	2788.03
977.187	2764.08
977.487	2729.96
977.787	2720.69
978.087	2749.17
978.387	2686.34
978.687	2729.5
978.987	2715.95
979.286	2652.67
979.586	2653.8
979.885	2635.04
980.185	2610.41
980.484	2640.02
980.784	2620.81
981.083	2625.55
981.382	2601.6
981.682	2593.69
981.981	2595.04
982.28	2570.64
982.579	2537.87
982.878	2529.51
983.177	2519.79
983.475	2556.18
983.774	2536.97
984.073	2483.64
984.372	2512.79
984.67	2447.7
984.969	2483.64
985.267	2462.84
985.566	2465.1
985.864	2428.04
986.162	2416.29
986.461	2435.95
986.759	2417.65
987.057	2380.14
987.355	2364.32
987.653	2394.15
987.951	2388.04
988.249	2388.95
988.547	2336.75
988.844	2350.31
989.142	2320.02
989.44	2295.39
989.737	2320.02
990.035	2283.41
990.332	2268.95
990.63	2249.29
990.927	2240.25
991.224	2257.65
991.521	2268.73
991.819	2235.96
992.116	2243.19
992.413	2240.25
992.71	2232.57
993.006	2171.33
993.303	2172.91
993.6	2147.15
993.897	2178.56
994.193	2164.32
994.49	2132.01
994.787	2110.31
995.083	2141.27
995.379	2090.88
995.676	2097.66
995.972	2111.67
996.268	2076.64
996.565	2062.63
996.861	2079.13
997.157	2059.69
997.453	2048.84
997.749	2057.21
998.044	2011.56
998.34	2019.92
998.636	1992.57
998.932	1976.3
999.227	1986.47
999.523	1936.08
999.818	1971.33
1000.114	1945.57
1000.409	1952.35
1000.704	1923.42
1001	1903.76
1001.295	1905.35
1001.59	1886.36
1001.885	1928.4
1002.18	1895.85
1002.475	1885.23
1002.77	1864.44
1003.065	1852.69
1003.359	1827.16
1003.654	1842.3
1003.949	1825.12
1004.243	1816.53
1004.538	1807.95
1004.832	1800.04
1005.127	1793.71
1005.421	1784.22
1005.715	1774.28
1006.009	1738.12
1006.304	1754.84
1006.598	1710.77
1006.892	1722.3
1007.186	1735.41
1007.48	1707.61
1007.773	1667.16
1008.067	1695.63
1008.361	1686.37
1008.655	1646.82
1008.948	1648.4
1009.242	1646.14
1009.535	1645.69
1009.829	1635.3
1010.122	1615.64
1010.415	1586.71
1010.708	1602.75
1011.001	1610.66
1011.295	1576.09
1011.588	1569.76
1011.881	1554.85
1012.173	1537.9
1012.466	1545.13
1012.759	1516.66
1013.052	1529.99
1013.344	1509.88
1013.637	1512.14
1013.93	1517.11
1014.222	1486.37
1014.514	1497.67
1014.807	1483.21
1015.099	1459.71
1015.391	1471.23
1015.683	1485.02
1015.976	1437.79
1016.268	1415.41
1016.56	1438.24
1016.851	1419.26
1017.143	1439.82
1017.435	1415.87
1017.727	1417.9
1018.018	1367.51
1018.31	1381.29
1018.602	1347.39
1018.893	1348.75
1019.185	1351.91
1019.476	1336.55
1019.767	1309.65
1020.058	1346.72
1020.35	1319.37
1020.641	1316.89
1020.932	1315.08
1021.223	1291.58
1021.514	1313.27
1021.804	1246.61
1022.095	1278.47
1022.386	1269.2
1022.677	1246.61
1022.967	1246.61
1023.258	1224.23
1023.548	1194.86
1023.839	1202.76
1024.129	1207.96
1024.419	1201.18
1024.709	1204.57
1025	1183.56
1025.29	1190.11
1025.58	1186.27
1025.87	1160.05
1026.16	1184.69
1026.449	1143.11
1026.739	1151.92
1027.029	1142.88
1027.319	1143.78
1027.608	1144.01
1027.898	1100.39
1028.187	1118.7
1028.477	1116.67
1028.766	1106.95
1029.055	1101.75
1029.344	1087.06
1029.634	1090.23
1029.923	1067.18
1030.212	1088.19
1030.501	1083.22
1030.79	1059.72
1031.078	1040.28
1031.367	1058.36
1031.656	1049.1
1031.945	1031.92
1032.233	1028.08
1032.522	1005.48
1032.81	1024.24
1033.099	1028.53
1033.387	1004.8
1033.675	985.82
1033.963	1007.52
1034.251	981.53
1034.54	928.42
1034.828	972.26
1035.116	947.86
1035.403	929.78
1035.691	949.66
1035.979	921.42
1036.267	941.98
1036.554	949.66
1036.842	936.56
1037.129	905.37
1037.417	920.06
1037.704	895.65
1037.992	916.67
1038.279	910.8
1038.566	905.15
1038.853	905.15
1039.14	905.15
