Data from hue_120_FLMS001491_00040.txt Node
Date: Tue Feb 07 16:59:18 GMT 2017
User: dcchb
Spectrometer: FLMS00149
Trigger mode: 0
Integration Time (sec): 2.000000E-2
Scans to average: 10
Electric dark correction enabled: true
Nonlinearity correction enabled: false
Boxcar width: 0
XAxis mode: Wavelengths
Number of Pixels in Spectrum: 2048
>>>>>Begin Spectral Data<<<<<
341.393	-13.67
341.776	-13.67
342.16	-13.67
342.543	-68.36
342.927	-63.39
343.31	-61.13
343.693	-71.98
344.077	-74.69
344.46	-53.44
344.843	-57.96
345.226	-38.76
345.61	-20
345.993	3.05
346.376	2.82
346.759	3.95
347.142	32.2
347.525	46.89
347.908	41.24
348.291	69.26
348.674	69.72
349.057	108.81
349.44	130.28
349.823	158.3
350.206	180.22
350.588	195.36
350.971	194.01
351.354	220.45
351.737	245.08
352.119	219.32
352.502	246.89
352.884	288.47
353.267	269.48
353.65	303.61
354.032	324.17
354.414	309.26
354.797	323.72
355.179	332.76
355.562	309.03
355.944	332.99
356.326	328.92
356.709	321.46
357.091	339.77
357.473	344.74
357.855	330.05
358.238	332.31
358.62	325.98
359.002	332.76
359.384	340.44
359.766	340.44
360.148	330.5
360.53	339.54
360.912	335.25
361.294	336.83
361.676	328.24
362.057	316.71
362.439	312.42
362.821	346.77
363.203	325.3
363.584	331.4
363.966	326.66
364.348	314
364.729	305.87
365.111	313.55
365.493	328.69
365.874	312.42
366.256	318.3
366.637	311.29
367.019	328.47
367.4	315.58
367.781	319.2
368.163	322.82
368.544	302.03
368.925	323.72
369.306	296.38
369.688	319.2
370.069	314.23
370.45	317.39
370.831	308.81
371.212	321.46
371.593	307.9
371.974	301.57
372.355	312.65
372.736	307
373.117	333.89
373.498	319.2
373.879	326.66
374.26	325.3
374.641	310.84
375.021	315.81
375.402	310.39
375.783	307
376.163	330.73
376.544	338.41
376.925	339.99
377.305	339.54
377.686	314.46
378.066	316.94
378.447	342.7
378.827	333.89
379.208	329.6
379.588	331.86
379.968	353.55
380.349	340.44
380.729	329.82
381.109	330.5
381.489	343.38
381.87	328.01
382.25	332.53
382.63	342.7
383.01	370.5
383.39	345.87
383.77	344.51
384.15	345.64
384.53	356.71
384.91	326.43
385.29	356.26
385.67	351.06
386.049	357.62
386.429	340.89
386.809	371.18
387.189	383.83
387.568	363.04
387.948	362.14
388.328	349.71
388.707	380.67
389.087	363.72
389.466	359.88
389.846	371.85
390.225	375.24
390.605	377.28
390.984	386.32
391.363	385.19
391.743	379.09
392.122	385.19
392.501	382.93
392.881	381.57
393.26	377.96
393.639	392.65
394.018	378.63
394.397	374.79
394.776	382.48
395.155	387.22
395.534	401.01
395.913	407.79
396.292	403.27
396.671	391.29
397.05	401.01
397.429	412.98
397.808	401.68
398.186	391.74
398.565	399.42
398.944	393.1
399.323	421.34
399.701	400.55
400.08	416.37
400.458	419.31
400.837	439.42
401.215	435.13
401.594	435.36
401.972	408.92
402.351	413.89
402.729	418.18
403.107	415.24
403.486	426.32
403.864	435.81
404.242	434.45
404.62	413.44
404.999	435.13
405.377	445.75
405.755	428.8
406.133	437.62
406.511	469.48
406.889	445.75
407.267	467.45
407.645	437.84
408.023	461.34
408.401	454.11
408.779	455.47
409.156	464.28
409.534	470.38
409.912	483.04
410.29	475.35
410.667	482.81
411.045	497.28
411.422	493.21
411.8	478.07
412.178	486.88
412.555	508.8
412.933	493.43
413.31	526.43
413.687	491.85
414.065	510.83
414.442	525.97
414.819	513.32
415.197	521.46
415.574	543.83
415.951	539.76
416.328	523.72
416.705	542.25
417.082	523.94
417.46	558.97
417.837	561.45
418.214	552.41
418.591	543.15
418.967	541.34
419.344	568.46
419.721	569.36
420.098	547.22
420.475	564.62
420.852	604.16
421.228	584.05
421.605	564.39
421.982	563.49
422.358	560.32
422.735	583.15
423.111	585.18
423.488	590.61
423.864	579.31
424.241	602.81
424.617	606.2
424.994	606.42
425.37	608.46
425.746	610.27
426.123	629.47
426.499	610.27
426.875	623.37
427.251	633.99
427.627	665.18
428.003	652.3
428.379	654.56
428.756	657.95
429.132	668.57
429.507	681.9
429.883	666.08
430.259	697.04
430.635	696.82
431.011	708.57
431.387	701.56
431.763	705.63
432.138	709.02
432.514	707.44
432.89	726.65
433.265	718.29
433.641	746.99
434.016	749.47
434.392	759.87
434.767	760.32
435.143	785.18
435.518	758.06
435.894	775.46
436.269	771.17
436.644	777.27
437.02	792.86
437.395	796.93
437.77	804.39
438.145	823.14
438.52	813.65
438.895	824.95
439.271	831.73
439.646	843.03
440.021	851.39
440.395	858.4
440.77	861.11
441.145	881.22
441.52	843.71
441.895	874.89
442.27	874.44
442.645	915.8
443.019	923.25
443.394	876.93
443.769	913.08
444.143	912.41
444.518	923.48
444.892	932.29
445.267	937.72
445.641	941.11
446.016	943.82
446.39	946.98
446.764	955.12
447.139	948.56
447.513	962.8
447.887	963.7
448.262	990.6
448.636	991.27
449.01	980.43
449.384	996.24
449.758	1003.7
450.132	995.57
450.506	1021.56
450.88	1009.13
451.254	1044.61
451.628	1022.23
452.002	1073.53
452.376	1084.38
452.75	1075.34
453.123	1071.5
453.497	1083.93
453.871	1091.61
454.244	1131.61
454.618	1114.89
454.992	1163.02
455.365	1157.82
455.739	1174.32
456.112	1200.53
456.486	1195.56
456.859	1185.17
457.232	1227.65
457.606	1207.54
457.979	1253.19
458.352	1251.83
458.725	1253.41
459.099	1284.6
459.472	1315.11
459.845	1336.35
460.218	1311.49
460.591	1343.35
460.964	1358.95
461.337	1368.89
461.71	1399.85
462.083	1399.4
462.456	1418.83
462.829	1443.92
463.201	1452.28
463.574	1437.36
463.947	1498.15
464.32	1519.17
464.692	1535.67
465.065	1572.05
465.438	1568.43
465.81	1601.2
466.183	1609.79
466.555	1621.99
466.928	1673.52
467.3	1659.5
467.672	1701.76
468.045	1727.3
468.417	1741.31
468.789	1777.02
469.161	1795.77
469.534	1823.34
469.906	1878.93
470.278	1917.58
470.65	1903.57
471.022	1988.54
471.394	2027.63
471.766	2045.26
472.138	2076.44
472.51	2145.59
472.882	2181.52
473.253	2205.03
473.625	2256.78
473.997	2325.02
474.369	2344.68
474.74	2386.72
475.112	2443.44
475.484	2499.03
475.855	2579.71
476.227	2584.45
476.598	2677.56
476.97	2729.31
477.341	2782.64
477.713	2870.77
478.084	2911.45
478.455	3012.69
478.827	3091.33
479.198	3255.85
479.569	3231.44
479.94	3333.13
480.311	3438.44
480.682	3529.06
481.053	3635.95
481.424	3735.38
481.795	3811.09
482.166	3889.05
482.537	4031.19
482.908	4114.13
483.279	4186.22
483.65	4298.98
484.021	4436.15
484.391	4522.03
484.762	4647.22
485.133	4746.2
485.503	4861.68
485.874	5000.43
486.244	5092.41
486.615	5248.34
486.985	5389.8
487.356	5498.73
487.726	5610.36
488.097	5873.86
488.467	5880.64
488.837	6068.88
489.207	6187.52
489.578	6384.58
489.948	6481.75
490.318	6647.17
490.688	6725.13
491.058	6899.59
491.428	7060.04
491.798	7159.02
492.168	7419.8
492.538	7492.8
492.908	7600.59
493.278	7796.97
493.648	7900.7
494.017	8054.36
494.387	8185.21
494.757	8315.6
495.126	8511.3
495.496	8565.76
495.866	8667.91
496.235	8858.64
496.605	8963.04
496.974	9047.78
497.344	9231.06
497.713	9393.31
498.082	9445.06
498.452	9641.44
498.821	9763.25
499.19	9789.01
499.559	9918.27
499.928	10076.68
500.298	10131.82
500.667	10303.34
501.036	10327.53
501.405	10476
501.774	10553.73
502.143	10678.7
502.512	10700.85
502.88	10834.63
503.249	10888.41
503.618	10972.03
503.987	11095.64
504.356	11210.89
504.724	11289.31
505.093	11334.28
505.462	11456.99
505.83	11490.88
506.199	11616.08
506.567	11816.75
506.936	11812.01
507.304	11899.46
507.672	12057.88
508.041	12067.37
508.409	12184.43
508.777	12245.67
509.145	12411.99
509.514	12365.66
509.882	12460.8
510.25	12511.42
510.618	12538.77
510.986	12539.67
511.354	12750.51
511.722	12830.06
512.09	12921.13
512.458	12847.91
512.826	13002.26
513.193	13000
513.561	13099.66
513.929	13183.5
514.297	13236.6
514.664	13305.53
515.032	13329.71
515.4	13296.94
515.767	13516.82
516.135	13561.34
516.502	13463.04
516.869	13609.02
517.237	13603.15
517.604	13603.37
517.972	13682.47
518.339	13763.82
518.706	13745.29
519.073	13776.25
519.44	13870.03
519.808	13981.89
520.175	13940.99
520.542	13997.71
520.909	14173.75
521.276	14064.15
521.643	14116.35
522.009	14217.14
522.376	14230.02
522.743	14287.87
523.11	14368.32
523.477	14486.29
523.843	14532.84
524.21	14499.39
524.577	14603.34
524.943	14612.61
525.31	14598.37
525.676	14724.02
526.043	14728.99
526.409	14756.11
526.776	14932.15
527.142	14854.64
527.508	14908.2
527.874	14980.28
528.241	14957.23
528.607	14912.04
528.973	14996.1
529.339	14955.88
529.705	14986.61
530.071	15093.95
530.437	15167.17
530.803	15114.97
531.169	15146.16
531.535	15097.57
531.901	15055.54
532.267	15118.81
532.632	15150.9
532.998	15131.24
533.364	15095.31
533.73	15086.27
534.095	15198.58
534.461	15087.63
534.826	15077.91
535.192	15126.95
535.557	15167.4
535.923	15054.86
536.288	15006.72
536.653	15163.33
537.019	14943.9
537.384	15054.63
537.749	15032.03
538.114	14976.67
538.479	14918.36
538.845	14911.36
539.21	14865.94
539.575	14914.98
539.94	14832.94
540.305	14983
540.67	14766.73
541.034	14761.08
541.399	14797.01
541.764	14855.77
542.129	14754.53
542.494	14683.12
542.858	14647.64
543.223	14732.16
543.587	14720.4
543.952	14552.95
544.316	14629.33
544.681	14550.24
545.045	14618.71
545.41	14548.88
545.774	14476.34
546.138	14485.83
546.503	14473.18
546.867	14401.54
547.231	14527.19
547.595	14402.67
547.959	14388.21
548.324	14294.88
548.688	14307.53
549.052	14307.08
549.416	14291.49
549.779	14279.06
550.143	14216.91
550.507	14257.37
550.871	14246.29
551.235	14146.41
551.599	14210.13
551.962	14032.06
552.326	14041.55
552.689	14175.79
553.053	13962.46
553.417	14042.23
553.78	14148.67
554.143	14029.12
554.507	13986.41
554.87	14029.8
555.234	14026.64
555.597	14041.33
555.96	13884.72
556.323	14074.77
556.686	13910.03
557.05	13893.76
557.413	13925.4
557.776	13884.04
558.139	13995.9
558.502	13920.42
558.865	13896.92
559.228	13922.46
559.59	13936.24
559.953	13926.53
560.316	13946.41
560.679	13941.89
561.041	14005.17
561.404	13989.58
561.767	14016.92
562.129	13911.84
562.492	13996.36
562.854	14060.31
563.217	14008.11
563.579	14098.05
563.941	14045.85
564.304	14087.2
564.666	14100.76
565.028	14182.79
565.39	14107.09
565.753	14173.98
566.115	14128.56
566.477	14205.84
566.839	14250.81
567.201	14291.49
567.563	14208.55
567.925	14277.48
568.287	14191.83
568.648	14212.39
569.01	14288.55
569.372	14336.23
569.734	14293.97
570.095	14349.79
570.457	14342.33
570.819	14340.98
571.18	14319.28
571.542	14435.44
571.903	14429.11
572.265	14436.8
572.626	14505.95
572.987	14487.42
573.349	14450.81
573.71	14519.05
574.071	14564.7
574.432	14506.17
574.794	14640.18
575.155	14534.19
575.516	14527.19
575.877	14537.13
576.238	14574.42
576.599	14627.75
576.96	14620.07
577.32	14587.07
577.681	14651.71
578.042	14574.42
578.403	14642.67
578.763	14656
579.124	14620.52
579.485	14630.69
579.845	14700.29
580.206	14546.62
580.566	14543.46
580.927	14587.3
581.287	14703.91
581.648	14636.11
582.008	14744.13
582.368	14663.46
582.728	14616.23
583.089	14634.53
583.449	14653.06
583.809	14618.94
584.169	14747.3
584.529	14681.08
584.889	14651.71
585.249	14632.95
585.609	14598.15
585.969	14671.37
586.329	14646.51
586.688	14565.83
587.048	14579.16
587.408	14585.27
587.768	14524.02
588.127	14496.23
588.487	14473.4
588.846	14613.51
589.206	14435.89
589.565	14439.06
589.925	14586.85
590.284	14474.08
590.643	14427.76
591.003	14470.92
591.362	14498.26
591.721	14452.16
592.08	14458.26
592.44	14469.34
592.799	14453.74
593.158	14512.27
593.517	14467.3
593.876	14468.21
594.235	14358.61
594.593	14416.68
594.952	14405.16
595.311	14422.11
595.67	14425.72
596.029	14413.07
596.387	14437.93
596.746	14529.9
597.104	14354.31
597.463	14343.69
597.822	14351.83
598.18	14322.22
598.538	14332.84
598.897	14405.84
599.255	14249.91
599.613	14527.19
599.972	14350.02
600.33	14475.21
600.688	14392.73
601.046	14399.96
601.404	14500.3
601.762	14417.36
602.12	14476.57
602.478	14434.54
602.836	14486.29
603.194	14331.26
603.552	14339.17
603.91	14321.32
604.268	14358.61
604.625	14324.93
604.983	14363.13
605.341	14393.18
605.698	14405.61
606.056	14420.52
606.413	14278.16
606.771	14427.08
607.128	14423.69
607.485	14348.21
607.843	14347.08
608.2	14469.11
608.557	14485.38
608.914	14382.33
609.272	14422.56
609.629	14484.93
609.986	14541.88
610.343	14503.46
610.7	14527.41
611.057	14491.71
611.414	14525.38
611.771	14512.73
612.127	14631.37
612.484	14502.56
612.841	14696.9
613.198	14627.3
613.554	14618.71
613.911	14638.37
614.267	14735.77
614.624	14617.36
614.98	14728.31
615.337	14762.21
615.693	14773.06
616.05	14658.94
616.406	14838.82
616.762	14690.8
617.118	14748.2
617.475	14775.77
617.831	14750.91
618.187	14800.18
618.543	14792.49
618.899	14825.49
619.255	14809.44
619.611	14821.19
619.967	14872.04
620.323	14852.83
620.678	14855.99
621.034	14792.49
621.39	14847.18
621.746	14838.82
622.101	15010.34
622.457	14811.47
622.812	14891.92
623.168	14837.91
623.523	14896.67
623.879	14886.28
624.234	14812.6
624.589	14844.92
624.945	14863.23
625.3	14878.14
625.655	14826.39
626.01	14851.25
626.365	14775.32
626.72	14790.68
627.075	14738.48
627.43	14723.12
627.785	14806.96
628.14	14797.92
628.495	14896.44
628.85	14808.76
629.205	14768.76
629.559	14903.68
629.914	14646.06
630.269	14689.9
630.623	14747.97
630.978	14717.24
631.332	14809.89
631.687	14790.46
632.041	14708.88
632.396	14715.88
632.75	14635.66
633.104	14712.49
633.459	14613.51
633.813	14619.16
634.167	14617.36
634.521	14681.76
634.875	14602.44
635.229	14520.18
635.583	14512.27
635.937	14534.19
636.291	14463.69
636.645	14487.87
636.999	14453.29
637.352	14543.91
637.706	14425.5
638.06	14553.18
638.413	14455.55
638.767	14357.93
639.121	14381.43
639.474	14379.4
639.828	14455.55
640.181	14374.42
640.534	14310.92
640.888	14261.43
641.241	14243.13
641.594	14292.39
641.947	14314.09
642.301	14274.54
642.654	14265.5
643.007	14282.22
643.36	14249.68
643.713	14229.8
644.066	14210.81
644.419	14145.73
644.771	14046.3
645.124	13978.28
645.477	13931.5
645.83	13944.61
646.182	13816.02
646.535	13805.63
646.888	13806.3
647.24	13707.55
647.593	13866.87
647.945	13684.95
648.298	13652.86
648.65	13648.34
649.002	13642.01
649.355	13744.84
649.707	13668.23
650.059	13778.06
650.411	13912.74
650.763	13911.84
651.115	14079.29
651.467	13957.26
651.819	14004.26
652.171	13946.41
652.523	13940.54
652.875	14037.94
653.227	13957.71
653.578	14053.53
653.93	14122.23
654.282	13916.81
654.633	13870.03
654.985	13955.9
655.337	13990.93
655.688	14009.46
656.039	14093.3
656.391	13899.63
656.742	14034.55
657.094	13906.87
657.445	14037.71
657.796	13985.73
658.147	14001.33
658.498	13976.24
658.849	13970.14
659.2	14013.98
659.551	13890.14
659.902	14012.85
660.253	13939.63
660.604	13948.9
660.955	13875
661.306	14053.53
661.656	13952.97
662.007	13955.68
662.358	13948.22
662.708	14009.69
663.059	13970.37
663.409	13905.51
663.76	14044.04
664.11	13926.98
664.461	14061.89
664.811	14129.23
665.161	13994.55
665.511	13931.5
665.862	14002
666.212	14012.85
666.562	14113.41
666.912	14035.45
667.262	13970.14
667.612	14026.18
667.962	14097.6
668.312	14022.34
668.662	14086.97
669.011	14057.14
669.361	14004.26
669.711	13906.41
670.06	13973.08
670.41	13999.07
670.76	13917.71
671.109	13958.84
671.459	13963.14
671.808	13950.03
672.157	14031.38
672.507	13873.42
672.856	13901.89
673.205	13967.88
673.554	13965.62
673.904	13925.4
674.253	13957.94
674.602	13899.86
674.951	13716.14
675.3	13646.76
675.649	13829.58
675.998	13830.48
676.346	13819.18
676.695	13825.51
677.044	13749.36
677.393	13784.84
677.741	13788.68
678.09	13736.93
678.438	13658.96
678.787	13734.67
679.135	13698.96
679.484	13585.97
679.832	13612.18
680.181	13600.43
680.529	13616.25
680.877	13542.58
681.225	13559.08
681.573	13579.87
681.922	13573.99
682.27	13430.95
682.618	13444.73
682.966	13348.69
683.314	13383.04
683.661	13388.69
684.009	13361.8
684.357	13242.25
684.705	13322.93
685.053	13252.65
685.4	13288.58
685.748	13190.05
686.095	13229.82
686.443	13173.78
686.79	13055.59
687.138	13162.93
687.485	13183.04
687.832	13016.27
688.18	13049.71
688.527	12982.82
688.874	13021.92
689.221	12980.79
689.568	12907.12
689.915	12870.06
690.262	12924.52
690.609	12844.3
690.956	12794.8
691.303	12741.92
691.65	12648.37
691.997	12745.77
692.344	12591.65
692.69	12573.57
693.037	12486.34
693.383	12468.03
693.73	12486.79
694.077	12350.07
694.423	12287.93
694.769	12360.01
695.116	12275.72
695.462	12319.34
695.808	12157.76
696.155	12222.62
696.501	12130.19
696.847	12164.09
697.193	12053.81
697.539	12035.05
697.885	11969.74
698.231	11998.89
698.577	11942.17
698.923	11891.33
699.269	11746.47
699.614	11729.75
699.96	11765.91
700.306	11750.99
700.651	11662.18
700.997	11635.29
701.342	11541.5
701.688	11507.83
702.033	11519.13
702.379	11528.17
702.724	11391.23
703.069	11391.23
703.415	11307.16
703.76	11288.63
704.105	11380.83
704.45	11220.16
704.795	11280.95
705.14	11192.81
705.485	11131.57
705.83	11101.97
706.175	11156.2
706.52	11069.43
706.865	11019.26
707.209	10981.52
707.554	10893.61
707.899	11009.99
708.243	10877.79
708.588	10837.79
708.932	10803.67
709.277	10785.14
709.621	10875.31
709.966	10681.64
710.31	10750.11
710.654	10642.55
710.998	10653.39
711.342	10677.8
711.687	10616.33
712.031	10607.97
712.375	10541.76
712.719	10610.91
713.063	10524.58
713.407	10534.07
713.75	10499.27
714.094	10462.89
714.438	10418.37
714.782	10415.43
715.125	10374.98
715.469	10466.96
715.812	10327.3
716.156	10325.49
716.499	10232.39
716.843	10348.77
717.186	10277.81
717.53	10339.28
717.873	10253.63
718.216	10233.06
718.559	10203.91
718.902	10139.51
719.246	10183.35
719.589	10119.39
719.932	10087.08
720.275	10074.42
720.617	10048.89
720.96	10096.57
721.303	10155.78
721.646	10060.19
721.989	10017.93
722.331	10023.13
722.674	10001.88
723.016	10001.43
723.359	9953.3
723.701	9974.77
724.044	9943.35
724.386	9934.99
724.729	9947.65
725.071	9934.09
725.413	9941.32
725.755	9894.09
726.097	9901.55
726.439	9835.56
726.782	9847.99
727.124	9922.11
727.465	9847.99
727.807	9919.4
728.149	9791.49
728.491	9875.56
728.833	9889.12
729.175	9782
729.516	9788.33
729.858	9845.05
730.199	9884.6
730.541	9838.27
730.882	9767.77
731.224	9799.18
731.565	9727.09
731.906	9812.06
732.248	9783.36
732.589	9710.82
732.93	9737.71
733.271	9720.76
733.612	9705.17
733.953	9715.11
734.294	9725.06
734.635	9682.8
734.976	9757.82
735.317	9709.24
735.658	9702.46
735.999	9731.83
736.339	9703.36
736.68	9713.76
737.021	9711.5
737.361	9721.67
737.702	9745.85
738.042	9758.27
738.383	9743.59
738.723	9827.65
739.063	9730.48
739.404	9798.27
739.744	9744.49
740.084	9713.76
740.424	9871.27
740.764	9782.23
741.104	9861.32
741.444	9793.75
741.784	9822.45
742.124	9862.23
742.464	9849.57
742.804	9822.68
743.143	9892.06
743.483	9985.16
743.823	9963.69
744.162	9910.36
744.502	9982.68
744.841	9977.93
745.181	10047.76
745.52	10018.15
745.86	10050.24
746.199	10105.16
746.538	10128.89
746.877	10212.73
747.216	10281.42
747.556	10235.32
747.895	10346.28
748.234	10362.1
748.573	10400.97
748.911	10474.64
749.25	10530.46
749.589	10589.67
749.928	10651.36
750.267	10732.71
750.605	10767.29
750.944	10828.75
751.283	10882.09
751.621	11060.39
751.96	11054.06
752.298	11078.92
752.636	11261.29
752.975	11275.07
753.313	11376.99
753.651	11502.18
753.989	11582.18
754.327	11614.95
754.666	11739.47
755.004	11870.76
755.342	12104.43
755.679	12133.35
756.017	12261.26
756.355	12433.23
756.693	12518.88
757.031	12664.41
757.368	12826.44
757.706	12937.4
758.044	13018.08
758.381	13251.97
758.719	13336.94
759.056	13528.12
759.394	13623.94
759.731	13747.77
760.068	13934.89
760.405	14074.77
760.743	14179.4
761.08	14416.46
761.417	14505.72
761.754	14689.22
762.091	14868.42
762.428	15077.91
762.765	15113.39
763.102	15353.61
763.438	15429.76
763.775	15610.32
764.112	15859.13
764.449	16082.4
764.785	16061.61
765.122	16186.81
765.458	16379.12
765.795	16476.74
766.131	16652.33
766.467	16777.3
766.804	16987.69
767.14	16915.83
767.476	17143.17
767.812	17298.42
768.148	17324.4
768.485	17535.25
768.821	17545.19
769.157	17691.85
769.492	17760.1
769.828	17899.76
770.164	17936.59
770.5	18068.56
770.836	18165.29
771.171	18210.03
771.507	18316.24
771.842	18397.82
772.178	18466.29
772.513	18577.25
772.849	18633.07
773.184	18712.62
773.519	18808.66
773.855	18914.42
774.19	18821.09
774.525	19036
774.86	19122.1
775.195	19071.93
775.53	19121.42
775.865	19122.55
776.2	19082.55
776.535	19064.47
776.87	19188.99
777.205	19243.67
777.539	19309.21
777.874	19311.47
778.209	19174.98
778.543	19399.83
778.878	19399.83
779.212	19399.6
779.547	19371.81
779.881	19452.93
780.215	19285.71
780.55	19360.51
780.884	19322.99
781.218	19433.5
781.552	19433.27
781.886	19446.83
782.22	19366.61
782.554	19318.93
782.888	19344.24
783.222	19257.46
783.556	19209.78
783.889	19240.29
784.223	19151.25
784.557	19191.7
784.89	19189.44
785.224	19140.4
785.557	19125.94
785.891	19117.58
786.224	19104.47
786.558	19146.28
786.891	18936.56
787.224	19007.75
787.557	18915.32
787.891	18876
788.224	18937.24
788.557	19027.86
788.89	18974.98
789.223	18946.51
789.556	18765.27
789.888	18809.11
790.221	18738.15
790.554	18685.05
790.887	18711.71
791.219	18621.54
791.552	18644.14
791.884	18595.33
792.217	18440.98
792.549	18532.06
792.882	18391.27
793.214	18467.88
793.546	18478.05
793.879	18335.45
794.211	18271.5
794.543	18292.97
794.875	18272.63
795.207	18351.72
795.539	18231.5
795.871	18323.25
796.203	18080.09
796.535	18040.99
796.867	17903.37
797.198	17890.26
797.53	17932.3
797.862	17819.08
798.193	17913.99
798.525	17790.83
798.856	17856.59
799.188	17641.46
799.519	17546.54
799.85	17441.91
800.182	17616.6
800.513	17628.35
800.844	17416.83
801.175	17553.32
801.506	17530.27
801.837	17362.59
802.168	17367.79
802.499	17318.3
802.83	17270.17
803.161	17247.12
803.491	17144.07
803.822	17230.17
804.153	17135.03
804.483	16878.31
804.814	17014.58
805.145	16973
805.475	17053
805.805	16938.42
806.136	16908.14
806.466	16808.71
806.796	16826.11
807.126	16733.01
807.457	16688.49
807.787	16676.74
808.117	16683.29
808.447	16562.84
808.777	16688.49
809.107	16641.48
809.436	16513.35
809.766	16434.48
810.096	16428.83
810.426	16354.49
810.755	16436.52
811.085	16298.22
811.414	16312
811.744	16195.85
812.073	16196.75
812.403	16140.03
812.732	16118.33
813.061	16061.39
813.39	15972.35
813.719	15985
814.049	16029.3
814.378	15981.84
814.707	15804.9
815.036	15947.94
815.365	15770.55
815.693	15726.71
816.022	15806.25
816.351	15755.4
816.68	15635.63
817.008	15700.49
817.337	15530.33
817.665	15484.23
817.994	15547.5
818.322	15554.51
818.651	15414.85
818.979	15386.15
819.307	15457.11
819.636	15454.4
819.964	15334.17
820.292	15392.48
820.62	15409.43
820.948	15360.16
821.276	15382.76
821.604	15314.51
821.932	15381.18
822.259	15474.96
822.587	15341.4
822.915	15266.15
823.243	15362.19
823.57	15318.81
823.898	15396.09
824.225	15270.67
824.553	15258.92
824.88	15248.53
825.207	15308.41
825.535	15312.93
825.862	15401.97
826.189	15266.6
826.516	15380.27
826.843	15411.01
827.17	15384.57
827.497	15432.48
827.824	15380.73
828.151	15444
828.478	15266.38
828.805	15475.41
829.131	15381.18
829.458	15288.75
829.785	15303.44
830.111	15322.87
830.438	15410.1
830.764	15353.83
831.09	15416.43
831.417	15267.28
831.743	15390.67
832.069	15275.42
832.395	15280.84
832.722	15305.25
833.048	15237
833.374	15259.6
833.7	15228.64
834.026	15271.58
834.351	15268.41
834.677	15183.67
835.003	15217.79
835.329	15181.86
835.654	15095.08
835.98	15110.45
836.306	15181.63
836.631	15092.82
836.956	15123.11
837.282	15181.63
837.607	14992.49
837.932	15042.66
838.258	14956.1
838.583	15019.83
838.908	14968.53
839.233	14956.1
839.558	14930.34
839.883	14829.1
840.208	14837.69
840.533	14864.81
840.858	14834.3
841.182	14793.62
841.507	14750.69
841.832	14735.77
842.156	14632.04
842.481	14660.29
842.805	14635.21
843.13	14597.47
843.454	14563.57
843.778	14532.16
844.103	14462.56
844.427	14409.68
844.751	14486.51
845.075	14361.77
845.399	14396.12
845.723	14306.86
846.047	14307.08
846.371	14143.47
846.695	14215.33
847.019	13994.1
847.343	14028.67
847.666	13958.16
847.99	13879.75
848.313	13955.23
848.637	13786.64
848.96	13780.09
849.284	13744.61
849.607	13656.7
849.931	13629.36
850.254	13500.1
850.577	13539.64
850.9	13375.13
851.223	13327.9
851.546	13369.48
851.869	13197.05
852.192	13375.13
852.515	13105.76
852.838	13137.62
853.161	13094.46
853.483	13064.18
853.806	12968.13
854.129	13026.44
854.451	12945.76
854.774	12860.34
855.096	12808.82
855.419	12851.98
855.741	12810.4
856.063	12642.72
856.385	12671.42
856.708	12685.66
857.03	12617.86
857.352	12589.61
857.674	12483.4
857.996	12437.98
858.318	12417.87
858.64	12464.19
858.961	12380.35
859.283	12372.44
859.605	12228.27
859.926	12195.27
860.248	12218.1
860.57	12202.28
860.891	12278.66
861.212	12037.54
861.534	12098.33
861.855	11997.76
862.176	12110.76
862.498	12039.34
862.819	12084.99
863.14	12011.77
863.461	11920.93
863.782	12013.36
864.103	11892.23
864.424	11848.84
864.745	11891.55
865.065	11840.25
865.386	11824.43
865.707	11720.71
866.027	11829.18
866.348	11762.74
866.668	11729.97
866.989	11728.84
867.309	11638.9
867.63	11697.66
867.95	11640.26
868.27	11590.54
868.59	11650.43
868.91	11590.99
869.23	11579.92
869.55	11579.24
869.87	11537.44
870.19	11549.64
870.51	11509.41
870.83	11517.78
871.15	11461.73
871.469	11471.68
871.789	11546.25
872.109	11417.21
872.428	11358.91
872.748	11447.5
873.067	11406.59
873.386	11384.45
873.706	11298.12
874.025	11253.15
874.344	11232.81
874.663	11274.62
874.982	11178.58
875.301	11268.07
875.62	11090.67
875.939	11178.12
876.258	11159.82
876.577	11129.99
876.896	11139.93
877.214	11059.26
877.533	11032.37
877.852	11120.95
878.17	11035.98
878.489	11060.84
878.807	11054.74
879.125	11003.44
879.444	11008.41
879.762	10946.04
880.08	10885.02
880.398	10868.3
880.716	10931.13
881.034	10860.62
881.352	10873.27
881.67	10846.38
881.988	10852.26
882.306	10826.04
882.624	10694.97
882.941	10710.34
883.259	10716.44
883.577	10685.48
883.894	10736.33
884.212	10648.19
884.529	10681.87
884.846	10643
885.164	10611.13
885.481	10525.49
885.798	10604.81
886.115	10460.4
886.432	10518.25
886.75	10369.33
887.067	10510.12
887.383	10420.63
887.7	10384.47
888.017	10371.82
888.334	10353.74
888.651	10306.96
888.967	10288.88
889.284	10264.93
889.6	10252.5
889.917	10189.22
890.233	10143.8
890.55	10098.83
890.866	10090.47
891.182	10037.82
891.498	10064.93
891.815	10019.06
892.131	9961.43
892.447	9970.47
892.763	9916.91
893.079	9865.84
893.395	9948.33
893.71	9855.22
894.026	9825.84
894.342	9757.14
894.657	9694.55
894.973	9685.73
895.289	9645.51
895.604	9624.94
895.92	9575.68
896.235	9496.13
896.55	9465.85
896.865	9434.22
897.181	9434.44
897.496	9471.05
897.811	9404.84
898.126	9440.54
898.441	9302.02
898.756	9296.14
899.071	9221.11
899.386	9311.51
899.7	9131.62
900.015	9158.52
900.33	9090.04
900.644	9129.14
900.959	9062.25
901.273	9098.63
901.588	8988.58
901.902	8987.9
902.216	8969.37
902.531	8897.96
902.845	8905.42
903.159	8819.09
903.473	8841.91
903.787	8790.84
904.101	8712.43
904.415	8655.03
904.729	8756.94
905.042	8620.23
905.356	8571.19
905.67	8562.83
905.984	8616.16
906.297	8538.65
906.611	8548.59
906.924	8449.38
907.237	8417.97
907.551	8386.56
907.864	8413.9
908.177	8324.41
908.491	8304.08
908.804	8261.82
909.117	8208.26
909.43	8205.32
909.743	8107.7
910.056	8141.59
910.368	8057.75
910.681	8053.01
910.994	8060.92
911.307	8010.52
911.619	7950.64
911.932	7945.21
912.244	7850.98
912.557	7897.53
912.869	7774.82
913.181	7736.86
913.494	7733.92
913.806	7718.78
914.118	7727.82
914.43	7673.36
914.742	7646.24
915.054	7605.79
915.366	7621.38
915.678	7512.91
915.99	7490.99
916.302	7421.61
916.613	7468.39
916.925	7400.37
917.236	7403.53
917.548	7391.56
917.859	7329.86
918.171	7272.46
918.482	7312.24
918.794	7163.31
919.105	7196.31
919.416	7190.66
919.727	7127.61
920.038	7121.51
920.349	7091
920.66	7043.09
920.971	7019.14
921.282	6995.64
921.593	6977.33
921.903	6923.77
922.214	6905.24
922.525	6867.73
922.835	6848.29
923.146	6820.27
923.456	6776.66
923.767	6752.25
924.077	6756.09
924.387	6744.79
924.697	6615.53
925.008	6616.89
925.318	6635.64
925.628	6625.7
925.938	6552.03
926.248	6586.61
926.558	6540.05
926.867	6526.27
927.177	6504.12
927.487	6464.58
927.796	6335.54
928.106	6355.65
928.416	6381.19
928.725	6394.97
929.034	6372.83
929.344	6266.84
929.653	6261.64
929.962	6238.14
930.271	6189.55
930.581	6194.07
930.89	6136
931.199	6127.64
931.508	6093.29
931.817	6082.66
932.125	6076.11
932.434	6025.49
932.743	6007.86
933.051	5988.43
933.36	5973.06
933.669	5940.3
933.977	5918.38
934.286	5926.74
934.594	5897.81
934.902	5832.5
935.21	5790.92
935.519	5805.38
935.827	5719.74
936.135	5753.63
936.443	5740.08
936.751	5720.19
937.059	5665.05
937.367	5604.71
937.674	5590.47
937.982	5612.17
938.29	5628.44
938.597	5583.69
938.905	5446.3
939.213	5533.98
939.52	5487.65
939.827	5463.92
940.135	5421.44
940.442	5407.65
940.749	5403.36
941.056	5371.5
941.363	5326.53
941.67	5256.47
941.977	5282.46
942.284	5242.69
942.591	5240.88
942.898	5188.9
943.205	5162.69
943.511	5225.29
943.818	5165.17
944.125	5124.72
944.431	5070.26
944.738	5100.54
945.044	5071.39
945.35	5007.89
945.657	5003.37
945.963	5028.68
946.269	4966.08
946.575	4979.87
946.881	4997.95
947.187	4910.27
947.493	4879.53
947.799	4901
948.105	4869.82
948.41	4829.82
948.716	4774.22
949.022	4772.19
949.327	4812.87
949.633	4700.55
949.938	4726.77
950.244	4736.49
950.549	4693.55
950.854	4685.64
951.16	4616.94
951.465	4640.89
951.77	4615.13
952.075	4570.84
952.38	4547.79
952.685	4581.91
952.99	4497.85
953.294	4487.68
953.599	4467.34
953.904	4529.03
954.209	4470.05
954.513	4400.68
954.818	4383.5
955.122	4368.36
955.426	4362.71
955.731	4349.38
956.035	4296.72
956.339	4340.34
956.643	4344.63
956.948	4282.49
957.252	4256.95
957.556	4262.6
957.86	4226.67
958.163	4191.42
958.467	4200.23
958.771	4212.88
959.075	4155.48
959.378	4135.37
959.682	4183.73
959.985	4103.51
960.289	4095.15
960.592	4080.01
960.896	4033.91
961.199	4041.36
961.502	4006.34
961.805	4005.43
962.108	3997.75
962.411	3993.45
962.714	3912.55
963.017	3943.29
963.32	3960.01
963.623	3894.02
963.926	3893.12
964.228	3864.64
964.531	3830.29
964.833	3822.39
965.136	3811.54
965.438	3778.32
965.741	3777.41
966.043	3749.84
966.345	3742.61
966.648	3727.02
966.95	3727.92
967.252	3670.3
967.554	3663.29
967.856	3670.07
968.158	3637.98
968.46	3651.54
968.761	3604.76
969.063	3584.88
969.365	3604.31
969.666	3569.06
969.968	3513.24
970.269	3560.25
970.571	3510.08
970.872	3565.67
971.174	3486.12
971.475	3465.56
971.776	3475.5
972.077	3459.91
972.378	3432.11
972.679	3400.48
972.98	3374.04
973.281	3400.93
973.582	3341.27
973.883	3362.74
974.183	3372.68
974.484	3353.7
974.785	3311.44
975.085	3347.82
975.386	3278.9
975.686	3278.9
975.986	3266.24
976.287	3241.16
976.587	3221.05
976.887	3199.8
977.187	3205.23
977.487	3168.84
977.787	3170.65
978.087	3144.21
978.387	3178.56
978.687	3194.15
978.987	3102.4
979.286	3129.07
979.586	3099.69
979.885	3082.52
980.185	3068.96
980.484	3038.23
980.784	2998.23
981.083	3066.02
981.382	2990.99
981.682	2970.43
981.981	2970.2
982.28	2955.97
982.579	2971.56
982.878	2914.16
983.177	2946.02
983.475	2915.29
983.774	2923.65
984.073	2876.2
984.372	2855.86
984.67	2853.82
984.969	2879.81
985.267	2815.86
985.566	2828.74
985.864	2766.82
986.162	2841.62
986.461	2778.35
986.759	2762.07
987.057	2776.99
987.355	2743.77
987.653	2750.55
987.951	2721.62
988.249	2709.87
988.547	2724.56
988.844	2684.11
989.142	2624.45
989.44	2673.49
989.737	2645.02
990.035	2631.68
990.332	2611.12
990.63	2619.48
990.927	2613.6
991.224	2574.28
991.521	2585.81
991.819	2567.5
992.116	2576.09
992.413	2553.72
992.71	2509.88
993.006	2512.36
993.303	2481.63
993.6	2512.14
993.897	2475.75
994.193	2476.66
994.49	2484.34
994.787	2437.56
995.083	2410.22
995.379	2438.01
995.676	2431.24
995.972	2391.01
996.268	2386.72
996.565	2389.65
996.861	2351.24
997.157	2365.02
997.453	2335.42
997.749	2307.62
998.044	2294.52
998.34	2298.81
998.636	2302.88
998.932	2280.73
999.227	2298.58
999.523	2291.58
999.818	2256.55
1000.114	2232.82
1000.409	2198.47
1000.704	2209.32
1001	2200.96
1001.295	2190.11
1001.59	2184.46
1001.885	2169.32
1002.18	2145.14
1002.475	2127.29
1002.77	2138.14
1003.065	2081.87
1003.359	2104.01
1003.654	2095.43
1003.949	2075.54
1004.243	2056.78
1004.538	2054.75
1004.832	2042.55
1005.127	2073.05
1005.421	2006.16
1005.715	2017.91
1006.009	1969.33
1006.304	1970
1006.598	1974.07
1006.892	1963.45
1007.186	1937.92
1007.48	1979.04
1007.773	1906.28
1008.067	1889.33
1008.361	1918.71
1008.655	1903.57
1008.948	1890.91
1009.242	1882.1
1009.535	1853.62
1009.829	1867.41
1010.122	1857.47
1010.415	1847.3
1010.708	1828.99
1011.001	1831.93
1011.295	1812.04
1011.588	1793.96
1011.881	1760.29
1012.173	1754.87
1012.466	1745.83
1012.759	1760.52
1013.052	1714.87
1013.344	1731.59
1013.637	1707.64
1013.93	1686.4
1014.222	1708.32
1014.514	1676.23
1014.807	1692.5
1015.099	1668.32
1015.391	1660.41
1015.683	1666.06
1015.976	1653.18
1016.268	1651.59
1016.56	1602.56
1016.851	1596.46
1017.143	1599.17
1017.435	1588.55
1017.727	1584.25
1018.018	1580.86
1018.31	1560.07
1018.602	1542.45
1018.893	1508.55
1019.185	1515.33
1019.476	1525.72
1019.767	1490.02
1020.058	1462.22
1020.35	1499.73
1020.641	1487.76
1020.932	1491.37
1021.223	1457.93
1021.514	1452.5
1021.804	1454.09
1022.095	1436.23
1022.386	1398.27
1022.677	1428.55
1022.967	1383.81
1023.258	1403.24
1023.548	1397.14
1023.839	1377.25
1024.129	1353.75
1024.419	1353.52
1024.709	1341.55
1025	1365.27
1025.29	1334.77
1025.58	1326.63
1025.87	1309.46
1026.16	1303.58
1026.449	1297.48
1026.739	1259.97
1027.029	1290.02
1027.319	1287.99
1027.608	1278.05
1027.898	1252.51
1028.187	1227.88
1028.477	1237.59
1028.766	1240.76
1029.055	1222.91
1029.344	1230.82
1029.634	1201.44
1029.923	1191.72
1030.212	1179.52
1030.501	1185.84
1030.79	1184.04
1031.078	1162.12
1031.367	1173.64
1031.656	1138.39
1031.945	1155.34
1032.233	1161.89
1032.522	1134.55
1032.81	1123.93
1033.099	1122.12
1033.387	1122.34
1033.675	1118.73
1033.963	1100.65
1034.251	1116.47
1034.54	1097.94
1034.828	1080.99
1035.116	1068.56
1035.403	1075.79
1035.691	1040.54
1035.979	1080.76
1036.267	1023.81
1036.554	1039.86
1036.842	1015.45
1037.129	1030.14
1037.417	1011.39
1037.704	1012.97
1037.992	999.86
1038.279	979.97
1038.566	990.37
1038.853	990.37
1039.14	990.37
