Data from hue_250_FLMS001491_00011.txt Node
Date: Tue Feb 07 16:00:36 GMT 2017
User: dcchb
Spectrometer: FLMS00149
Trigger mode: 0
Integration Time (sec): 2.000000E-2
Scans to average: 10
Electric dark correction enabled: true
Nonlinearity correction enabled: false
Boxcar width: 0
XAxis mode: Wavelengths
Number of Pixels in Spectrum: 2048
>>>>>Begin Spectral Data<<<<<
341.393	-15.96
341.776	-15.96
342.16	-15.96
342.543	-59.57
342.927	-81.27
343.31	-53.25
343.693	-79.91
344.077	-66.35
344.46	-81.27
344.843	-52.8
345.226	-42.17
345.61	-2.63
345.993	-25.23
346.376	-5.79
346.759	18.16
347.142	17.26
347.525	45.51
347.908	66.3
348.291	64.94
348.674	99.29
349.057	97.94
349.44	117.14
349.823	143.36
350.206	155.33
350.588	174.32
350.971	203.47
351.354	204.37
351.737	213.41
352.119	226.75
352.502	244.37
352.884	256.12
353.267	231.27
353.65	284.82
354.032	292.28
354.414	290.92
354.797	296.12
355.179	287.31
355.562	306.74
355.944	308.78
356.326	322.34
356.709	321.43
357.091	311.71
357.473	300.87
357.855	311.49
358.238	333.18
358.62	318.95
359.002	324.14
359.384	335.67
359.766	331.38
360.148	330.92
360.53	331.83
360.912	319.62
361.294	316.91
361.676	316.23
362.057	330.92
362.439	290.92
362.821	315.33
363.203	306.29
363.584	312.17
363.966	299.06
364.348	308.55
364.729	322.34
365.111	295.67
365.493	306.52
365.874	279.85
366.256	304.03
366.637	299.29
367.019	298.16
367.4	312.17
367.781	311.49
368.163	289.79
368.544	315.33
368.925	304.26
369.306	300.87
369.688	294.09
370.069	298.38
370.45	304.48
370.831	300.64
371.212	286.86
371.593	301.09
371.974	299.96
372.355	312.17
372.736	291.83
373.117	290.7
373.498	319.17
373.879	319.17
374.26	303.58
374.641	297.93
375.021	296.8
375.402	291.6
375.783	293.18
376.163	312.62
376.544	327.76
376.925	323.47
377.305	310.36
377.686	307.87
378.066	318.49
378.447	309.46
378.827	304.94
379.208	315.56
379.588	337.7
379.968	302
380.349	316.46
380.729	319.4
381.109	336.8
381.489	336.35
381.87	329.57
382.25	316.91
382.63	316.91
383.01	336.57
383.39	319.62
383.77	335.9
384.15	323.69
384.53	337.48
384.91	329.79
385.29	322.56
385.67	318.49
386.049	330.25
386.429	340.64
386.809	336.12
387.189	340.41
387.568	345.39
387.948	365.27
388.328	343.58
388.707	343.35
389.087	359.85
389.466	353.75
389.846	334.31
390.225	325.95
390.605	337.03
390.984	349.23
391.363	346.29
391.743	359.62
392.122	340.64
392.501	363.01
392.881	361.66
393.26	348.1
393.639	358.04
394.018	351.49
394.397	376.35
394.776	376.35
395.155	383.13
395.534	382.9
395.913	369.79
396.292	382.45
396.671	375.44
397.05	377.48
397.429	403.92
397.808	380.19
398.186	371.37
398.565	384.93
398.944	385.84
399.323	378.15
399.701	387.65
400.08	374.54
400.458	403.01
400.837	393.07
401.215	394.65
401.594	391.94
401.972	408.89
402.351	391.94
402.729	409.11
403.107	414.99
403.486	417.93
403.864	412.73
404.242	414.99
404.62	423.58
404.999	429.45
405.377	413.86
405.755	436.68
406.133	459.28
406.511	439.4
406.889	443.69
407.267	448.89
407.645	439.17
408.023	441.88
408.401	451.82
408.779	457.7
409.156	459.06
409.534	487.76
409.912	477.36
410.29	474.42
410.667	459.06
411.045	511.48
411.422	508.09
411.8	506.74
412.178	511.94
412.555	507.87
412.933	528.88
413.31	523.23
413.687	539.73
414.065	542.67
414.442	546.29
414.819	551.93
415.197	555.1
415.574	562.1
415.951	582.67
416.328	578.83
416.705	577.7
417.082	600.52
417.46	594.19
417.837	600.29
418.214	607.53
418.591	616.79
418.967	632.38
419.344	629.22
419.721	633.29
420.098	621.99
420.475	666.96
420.852	658.6
421.228	658.37
421.605	679.61
421.982	705.15
422.358	700.18
422.735	703.57
423.111	679.61
423.488	741.31
423.864	723.91
424.241	730.24
424.617	741.31
424.994	732.27
425.37	767.07
425.746	777.69
426.123	808.88
426.499	790.57
426.875	789.89
427.251	800.29
427.627	807.97
428.003	818.59
428.379	869.89
428.756	840.74
429.132	867.18
429.507	907.63
429.883	861.31
430.259	889.78
430.635	880.51
431.011	916.44
431.387	915.77
431.763	933.17
432.138	939.5
432.514	949.44
432.89	968.87
433.265	989.89
433.641	1016.1
434.016	1023.33
434.392	1045.48
434.767	1045.71
435.143	1054.75
435.518	1085.03
435.894	1072.15
436.269	1118.7
436.644	1130.22
437.02	1110.56
437.395	1147.63
437.77	1167.51
438.145	1164.35
438.52	1196.21
438.895	1202.54
439.271	1221.07
439.646	1228.98
440.021	1241.63
440.395	1261.75
440.77	1282.76
441.145	1297.45
441.52	1305.36
441.895	1298.13
442.27	1328.41
442.645	1345.81
443.019	1343.78
443.394	1368.64
443.769	1379.94
444.143	1372.7
444.518	1409.31
444.892	1399.6
445.267	1413.15
445.641	1417.22
446.016	1421.52
446.39	1449.31
446.764	1444.57
447.139	1460.39
447.513	1450.89
447.887	1474.4
448.262	1455.41
448.636	1504.45
449.01	1532.93
449.384	1524.11
449.758	1544.45
450.132	1546.94
450.506	1574.73
450.88	1564.34
451.254	1570.89
451.628	1592.13
452.002	1620.38
452.376	1613.38
452.75	1641.4
453.123	1632.13
453.497	1662.87
453.871	1680.49
454.244	1693.15
454.618	1733.6
454.992	1726.59
455.365	1711
455.739	1770.89
456.112	1789.64
456.486	1805.91
456.859	1827.83
457.232	1814.27
457.606	1849.3
457.979	1854.05
458.352	1889.07
458.725	1924.78
459.099	1937.89
459.472	1952.35
459.845	1972.91
460.218	1982.63
460.591	1977.21
460.964	1987.15
461.337	2053.14
461.71	2083.19
462.083	2116.64
462.456	2105.57
462.829	2110.76
463.201	2190.54
463.574	2156.41
463.947	2207.94
464.32	2209.29
464.692	2240.7
465.065	2234.38
465.438	2280.7
465.81	2334.26
466.183	2346.01
466.555	2412.22
466.928	2410.19
467.3	2411.32
467.672	2409.74
468.045	2496.29
468.417	2507.36
468.789	2521.37
469.161	2539.23
469.534	2595.04
469.906	2633.24
470.278	2632.78
470.65	2670.07
471.022	2670.97
471.394	2740.8
471.766	2720.01
472.138	2768.6
472.51	2823.51
472.882	2876.39
473.253	2932.44
473.625	2898.77
473.997	2981.48
474.369	3020.8
474.74	3059.21
475.112	3098.53
475.484	3125.88
475.855	3148.48
476.227	3168.36
476.598	3303.95
476.97	3325.87
477.341	3354.35
477.713	3436.15
478.084	3415.59
478.455	3505.76
478.827	3514.34
479.198	3636.6
479.569	3607
479.94	3693.09
480.311	3776.48
480.682	3795.92
481.053	3819.87
481.424	3863.49
481.795	3952.52
482.166	4017.15
482.537	4097.6
482.908	4078.85
483.279	4159.75
483.65	4210.6
484.021	4289.24
484.391	4330.37
484.762	4312.51
485.133	4408.1
485.503	4427.54
485.874	4519.74
486.244	4568.55
486.615	4612.17
486.985	4680.41
487.356	4752.73
487.726	4763.58
488.097	4848.77
488.467	4860.07
488.837	4930.35
489.207	4979.39
489.578	5025.04
489.948	5095.54
490.318	5124.02
490.688	5123.79
491.058	5260.51
491.428	5280.85
491.798	5345.71
492.168	5423.67
492.538	5456.66
492.908	5453.95
493.278	5550.9
493.648	5535.08
494.017	5623.89
494.387	5615.08
494.757	5692.14
495.126	5725.13
495.496	5742.76
495.866	5747.96
496.235	5839.48
496.605	5839.93
496.974	5883.09
497.344	5910.21
497.713	5943.21
498.082	5969.19
498.452	6029.98
498.821	6036.99
499.19	6087.83
499.559	6142.97
499.928	6161.05
500.298	6158.34
500.667	6248.28
501.036	6132.8
501.405	6260.71
501.774	6260.71
502.143	6293.03
502.512	6294.83
502.88	6390.88
503.249	6357.21
503.618	6362.4
503.987	6456.41
504.356	6377.09
504.724	6470.65
505.093	6420.48
505.462	6465.9
505.83	6512.46
506.199	6604.66
506.567	6673.58
506.936	6601.04
507.304	6605.11
507.672	6714.26
508.041	6744.31
508.409	6744.09
508.777	6749.96
509.145	6788.15
509.514	6747.03
509.882	6794.93
510.25	6766.91
510.618	6847.36
510.986	6899.56
511.354	6917.19
511.722	6942.73
512.09	6937.08
512.458	6950.18
512.826	6982.95
513.193	7037.19
513.561	6987.47
513.929	7038.09
514.297	7099.11
514.664	7086.45
515.032	7093.46
515.4	7154.92
515.767	7192.89
516.135	7190.63
516.502	7098.66
516.869	7188.37
517.237	7185.21
517.604	7217.07
517.972	7192.21
518.339	7248.03
518.706	7215.49
519.073	7221.59
519.44	7343.62
519.808	7301.81
520.175	7337.07
520.542	7432.43
520.909	7370.96
521.276	7395.6
521.643	7370.74
522.009	7444.18
522.376	7440.57
522.743	7473.56
523.11	7565.08
523.477	7514.92
523.843	7584.97
524.21	7606.44
524.577	7589.49
524.943	7580.68
525.31	7698.64
525.676	7681.01
526.043	7689.37
526.409	7665.19
526.776	7707.45
527.142	7726.21
527.508	7766.66
527.874	7771.41
528.241	7787
528.607	7766.66
528.973	7863.61
529.339	7765.76
529.705	7872.42
530.071	7886.66
530.437	7851.63
530.803	7876.49
531.169	7869.26
531.535	7874.23
531.901	7899.99
532.267	7871.97
532.632	7838.75
532.998	7905.87
533.364	7852.31
533.73	7903.15
534.095	7934.34
534.461	7866.32
534.826	7907.22
535.192	7890.5
535.557	8020.66
535.923	7923.94
536.288	7967.78
536.653	7940.89
537.019	7909.26
537.384	7888.92
537.749	7932.76
538.114	7911.52
538.479	7837.39
538.845	7917.39
539.21	7891.4
539.575	7878.97
539.94	7882.59
540.305	7859.99
540.67	7844.4
541.034	7840.56
541.399	7844.4
541.764	7826.77
542.129	7856.83
542.494	7850.5
542.858	7838.75
543.223	7788.13
543.587	7886.43
543.952	7850.5
544.316	7818.41
544.681	7767.11
545.045	7777.06
545.41	7826.77
545.774	7816.6
546.138	7776.38
546.503	7787.68
546.867	7756.49
547.231	7837.62
547.595	7818.41
547.959	7736.15
548.324	7787.9
548.688	7711.97
549.052	7699.54
549.416	7723.72
549.779	7678.75
550.143	7667
550.507	7727.34
550.871	7753.55
551.235	7670.62
551.599	7756.26
551.962	7761.91
552.326	7723.95
552.689	7736.15
553.053	7645.99
553.417	7696.61
553.78	7701.13
554.143	7656.38
554.507	7699.77
554.87	7702.71
555.234	7770.73
555.597	7714.01
555.96	7645.76
556.323	7685.08
556.686	7681.69
557.05	7687.34
557.413	7700.45
557.776	7736.83
558.139	7703.16
558.502	7724.4
558.865	7745.42
559.228	7737.06
559.59	7755.59
559.953	7721.46
560.316	7802.59
560.679	7776.6
561.041	7739.09
561.404	7780.22
561.767	7794.68
562.129	7816.15
562.492	7830.61
562.854	7830.84
563.217	7859.09
563.579	7883.72
563.941	7910.61
564.304	7895.47
564.666	7922.59
565.028	7870.84
565.39	7920.1
565.753	7949.48
566.115	7974.79
566.477	8022.25
566.839	7999.65
567.201	8106.76
567.563	8083.26
567.925	8072.87
568.287	8107.67
568.648	8067.22
569.01	8141.11
569.372	8224.95
569.734	8151.06
570.095	8132.75
570.457	8205.52
570.819	8146.09
571.18	8143.37
571.542	8229.47
571.903	8236.7
572.265	8255.23
572.626	8306.53
572.987	8297.04
573.349	8299.08
573.71	8308.57
574.071	8383.37
574.432	8289.36
574.794	8448.9
575.155	8459.75
575.516	8407.77
575.877	8446.64
576.238	8462.01
576.599	8469.47
576.96	8480.99
577.32	8516.02
577.681	8544.04
578.042	8542.23
578.403	8502.23
578.763	8547.88
579.124	8603.7
579.485	8570.48
579.845	8624.04
580.206	8627.2
580.566	8592.85
580.927	8626.75
581.287	8741.32
581.648	8655.22
582.008	8681.21
582.368	8648.9
582.728	8780.87
583.089	8708.78
583.449	8766.18
583.809	8791.94
584.169	8811.83
584.529	8748.78
584.889	8891.83
585.249	8791.27
585.609	8810.47
585.969	8797.59
586.329	8843.69
586.688	8873.98
587.048	8919.85
587.408	8780.19
587.768	8850.47
588.127	8883.69
588.487	8836.46
588.846	8917.59
589.206	8829.23
589.565	8916.69
589.925	8956.69
590.284	8965.27
590.643	8966.4
591.003	8998.49
591.362	9033.97
591.721	8967.53
592.08	8921.21
592.44	8990.13
592.799	9054.08
593.158	9031.71
593.517	9068.32
593.876	9052.05
594.235	9042.33
594.593	9048.43
594.952	9067.42
595.311	9019.96
595.67	9058.6
596.029	9127.75
596.387	9120.3
596.746	9156
597.104	9095.89
597.463	9132.5
597.822	9157.81
598.18	9124.59
598.538	9036.01
598.897	9132.95
599.255	9120.07
599.613	9238.71
599.972	9141.77
600.33	9227.64
600.688	9150.13
601.046	9202.55
601.404	9168.43
601.762	9138.38
602.12	9195.78
602.478	9296.79
602.836	9261.99
603.194	9144.7
603.552	9303.79
603.91	9146.06
604.268	9268.77
604.625	9186.74
604.983	9242.78
605.341	9233.06
605.698	9210.46
606.056	9278.03
606.413	9265.38
606.771	9305.38
607.128	9331.14
607.485	9239.16
607.843	9281.2
608.2	9286.85
608.557	9350.57
608.914	9289.33
609.272	9240.75
609.629	9340.63
609.986	9371.36
610.343	9326.62
610.7	9401.87
611.057	9407.97
611.414	9371.14
611.771	9438.03
612.127	9456.56
612.484	9413.85
612.841	9391.7
613.198	9426.96
613.554	9391.93
613.911	9479.38
614.267	9470.12
614.624	9471.25
614.98	9439.84
615.337	9527.29
615.693	9487.29
616.05	9531.36
616.406	9586.73
616.762	9476.67
617.118	9504.24
617.475	9481.64
617.831	9509.44
618.187	9591.92
618.543	9567.29
618.899	9577.91
619.255	9585.82
619.611	9535.43
619.967	9560.51
620.323	9620.17
620.678	9541.98
621.034	9573.62
621.39	9534.75
621.746	9534.98
622.101	9696.55
622.457	9509.44
622.812	9555.54
623.168	9571.81
623.523	9609.32
623.879	9581.75
624.234	9575.43
624.589	9645.48
624.945	9582.43
625.3	9613.39
625.655	9667.63
626.01	9609.55
626.365	9625.59
626.72	9598.02
627.075	9555.09
627.43	9546.05
627.785	9536.11
628.14	9594.18
628.495	9541.98
628.85	9546.73
629.205	9485.26
629.559	9552.83
629.914	9521.42
630.269	9515.99
630.623	9514.41
630.978	9497.46
631.332	9446.84
631.687	9485.71
632.041	9517.35
632.396	9531.81
632.75	9478.71
633.104	9504.24
633.459	9430.57
633.813	9421.08
634.167	9403
634.521	9413.85
634.875	9405.94
635.229	9381.76
635.583	9360.06
635.937	9311.93
636.291	9328.43
636.645	9365.71
636.999	9325.72
637.352	9327.52
637.706	9271.93
638.06	9260.63
638.413	9299.05
638.767	9210.01
639.121	9219.5
639.474	9259.5
639.828	9247.07
640.181	9206.4
640.534	9261.31
640.888	9185.15
641.241	9163.91
641.594	9193.06
641.947	9249.33
642.301	9321.2
642.654	9166.4
643.007	9138.6
643.36	9189.22
643.713	9131.37
644.066	9148.09
644.419	9095.44
644.771	9069.22
645.124	8993.07
645.477	9034.42
645.83	8950.13
646.182	8911.26
646.535	8908.55
646.888	8835.78
647.24	8814.77
647.593	8875.11
647.945	8816.35
648.298	8809.12
648.65	8759.4
649.002	8727.31
649.355	8871.04
649.707	8862
650.059	8868.33
650.411	9001.2
650.763	9017.93
651.115	9093.86
651.467	9032.16
651.819	9026.97
652.171	9024.03
652.523	8964.82
652.875	8979.96
653.227	8927.99
653.578	8990.58
653.93	8990.36
654.282	8975.67
654.633	8970.47
654.985	9019.06
655.337	8974.99
655.688	8978.61
656.039	9018.6
656.391	8955.56
656.742	8994.88
657.094	8970.02
657.445	9025.61
657.796	8953.3
658.147	8998.94
658.498	8997.59
658.849	9011.15
659.2	8971.6
659.551	8958.72
659.902	8986.06
660.253	9020.19
660.604	9006.18
660.955	8941.77
661.306	8995.78
661.656	8978.61
662.007	8969.79
662.358	8982.9
662.708	9070.58
663.059	9015.89
663.409	8919.4
663.76	9014.31
664.11	8993.52
664.461	8972.73
664.811	8961.21
665.161	9073.07
665.511	9000.3
665.862	8988.1
666.212	9065.38
666.562	9064.48
666.912	8987.87
667.262	9018.83
667.612	9003.69
667.962	9024.93
668.312	8983.58
668.662	9021.09
669.011	9054.08
669.361	8961.88
669.711	8989.9
670.06	9068.77
670.41	8990.58
670.76	8991.26
671.109	8991.94
671.459	8944.03
671.808	8952.62
672.157	8960.53
672.507	8920.53
672.856	8947.87
673.205	8949.68
673.554	8981.09
673.904	8880.08
674.253	8889.57
674.602	8889.34
674.951	8819.51
675.3	8750.14
675.649	8836.24
675.998	8896.35
676.346	8858.61
676.695	8898.83
677.044	8777.48
677.393	8875.11
677.741	8852.73
678.09	8785.84
678.438	8745.39
678.787	8809.57
679.135	8839.85
679.484	8759.18
679.832	8815.67
680.181	8747.2
680.529	8709.46
680.877	8683.47
681.225	8656.35
681.573	8718.73
681.922	8614.77
682.27	8641.44
682.618	8645.96
682.966	8533.19
683.314	8592.4
683.661	8570.48
684.009	8598.5
684.357	8492.97
684.705	8516.7
685.053	8520.09
685.4	8457.94
685.748	8419.3
686.095	8413.65
686.443	8417.94
686.79	8331.17
687.138	8432.41
687.485	8392.63
687.832	8388.34
688.18	8392.86
688.527	8286.42
688.874	8244.61
689.221	8275.12
689.568	8206.65
689.915	8281.22
690.262	8244.16
690.609	8259.3
690.956	8198.29
691.303	8151.06
691.65	8170.27
691.997	8119.42
692.344	8051.17
692.69	8060.44
693.037	8062.7
693.383	8012.08
693.73	7995.81
694.077	7950.61
694.423	7855.92
694.769	7904.51
695.116	7869.93
695.462	7906.77
695.808	7849.82
696.155	7902.02
696.501	7794.91
696.847	7823.16
697.193	7756.72
697.539	7761.01
697.885	7664.97
698.231	7666.32
698.577	7680.79
698.923	7632.65
699.269	7597.4
699.614	7496.38
699.96	7543.62
700.306	7549.94
700.651	7505.88
700.997	7388.82
701.342	7430.17
701.688	7427.91
702.033	7420
702.379	7353.79
702.724	7300.23
703.069	7306.11
703.415	7258.88
703.76	7288.71
704.105	7241.93
704.45	7234.47
704.795	7167.35
705.14	7133.68
705.485	7189.73
705.83	7151.31
706.175	7104.53
706.52	7104.98
706.865	7033.12
707.209	7067.24
707.554	6998.09
707.899	7046.91
708.243	6943.86
708.588	6970.3
708.932	6896.85
709.277	6965.33
709.621	6988.15
709.966	6878.77
710.31	6907.47
710.654	6849.4
710.998	6795.61
711.342	6819.79
711.687	6835.39
712.031	6797.87
712.375	6750.19
712.719	6769.62
713.063	6767.14
713.407	6706.35
713.75	6726.24
714.094	6647.59
714.438	6721.72
714.782	6747.93
715.125	6717.2
715.469	6735.27
715.812	6709.74
716.156	6648.5
716.499	6579.12
716.843	6662.96
717.186	6625.9
717.53	6619.8
717.873	6626.13
718.216	6605.33
718.559	6583.19
718.902	6515.39
719.246	6569.18
719.589	6523.98
719.932	6530.76
720.275	6497.09
720.617	6438.56
720.96	6494.15
721.303	6504.55
721.646	6477.65
721.989	6486.02
722.331	6517.2
722.674	6474.26
723.016	6429.97
723.359	6434.27
723.701	6445.34
724.044	6358.34
724.386	6342.97
724.729	6424.55
725.071	6389.3
725.413	6383.19
725.755	6402.63
726.097	6353.14
726.439	6334.61
726.782	6334.61
727.124	6330.09
727.465	6333.7
727.807	6354.72
728.149	6308.85
728.491	6316.53
728.833	6324.44
729.175	6340.26
729.516	6274.04
729.858	6300.26
730.199	6253.48
730.541	6246.02
730.882	6249.86
731.224	6343.65
731.565	6297.77
731.906	6308.39
732.248	6326.92
732.589	6210.54
732.93	6291.67
733.271	6239.47
733.612	6269.07
733.953	6326.7
734.294	6276.53
734.635	6238.79
734.976	6246.02
735.317	6277.89
735.658	6258.68
735.999	6270.43
736.339	6281.73
736.68	6290.09
737.021	6278.56
737.361	6267.94
737.702	6314.27
738.042	6258.68
738.383	6295.06
738.723	6347.49
739.063	6272.91
739.404	6314.49
739.744	6260.94
740.084	6272.69
740.424	6286.7
740.764	6334.83
741.104	6338
741.444	6300.48
741.784	6313.37
742.124	6324.21
742.464	6324.89
742.804	6369.86
743.143	6361.27
743.483	6376.64
743.823	6392.23
744.162	6359.24
744.502	6464.32
744.841	6352.91
745.181	6509.29
745.52	6475.17
745.86	6511.78
746.199	6549.52
746.538	6515.17
746.877	6572.34
747.216	6592.45
747.556	6599.23
747.895	6695.95
748.234	6649.4
748.573	6716.74
748.911	6719.46
749.25	6742.96
749.589	6776.4
749.928	6857.53
750.267	6924.42
750.605	6949.28
750.944	6998.32
751.283	7036.28
751.621	7121.25
751.96	7141.82
752.298	7197.86
752.636	7298.2
752.975	7336.62
753.313	7361.25
753.651	7462.71
753.989	7575.03
754.327	7592.88
754.666	7678.3
755.004	7760.11
755.342	7857.96
755.679	7894.34
756.017	7953.1
756.355	8109.93
756.693	8133.88
757.031	8300.21
757.368	8359.19
757.706	8438.73
758.044	8518.28
758.381	8657.03
758.719	8766.86
759.056	8814.77
759.394	8944.48
759.731	8982
760.068	9200.75
760.405	9212.27
760.743	9261.31
761.08	9389.89
761.417	9508.54
761.754	9593.96
762.091	9726.61
762.428	9810
762.765	9897.68
763.102	10041.18
763.438	10116.65
763.775	10240.72
764.112	10364.33
764.449	10390.09
764.785	10489.75
765.122	10545.8
765.458	10633.93
765.795	10772.46
766.131	10887.26
766.467	10929.74
766.804	11018.78
767.14	11026.46
767.476	11153.46
767.812	11254.93
768.148	11336.96
768.485	11337.64
768.821	11406.34
769.157	11560.68
769.492	11529.05
769.828	11634.81
770.164	11685.43
770.5	11673.68
770.836	11781.47
771.171	11866.67
771.507	11957.06
771.842	11891.98
772.178	12040.22
772.513	12009.26
772.849	12054.01
773.184	12074.34
773.519	12195.02
773.855	12185.98
774.19	12187.11
774.525	12251.74
774.86	12365.64
775.195	12368.57
775.53	12421.23
775.865	12351.85
776.2	12304.62
776.535	12278.41
776.87	12371.74
777.205	12411.06
777.539	12371.96
777.874	12441.11
778.209	12361.34
778.543	12398.63
778.878	12354.79
779.212	12421.45
779.547	12376.48
779.881	12428.23
780.215	12402.47
780.55	12482.02
780.884	12420.32
781.218	12364.28
781.552	12381.68
781.886	12364.51
782.22	12391.62
782.554	12322.47
782.888	12277.5
783.222	12219.88
783.556	12243.83
783.889	12268.01
784.223	12127.45
784.557	12166.54
784.89	12191.63
785.224	12235.7
785.557	12186.66
785.891	12059.2
786.224	12148.24
786.558	12118.41
786.891	12061.46
787.224	12057.62
787.557	12082.25
787.891	12097.85
788.224	12045.42
788.557	12083.83
788.89	11990.5
789.223	12047.23
789.556	12036.83
789.888	12092.2
790.221	11902.6
790.554	11845.42
790.887	11942.14
791.219	11885.65
791.552	11889.04
791.884	11821.92
792.217	11825.99
792.549	11699.66
792.882	11702.38
793.214	11689.04
793.546	11686.56
793.879	11678.65
794.211	11589.61
794.543	11707.8
794.875	11600.01
795.207	11624.19
795.539	11564.3
795.871	11581.7
796.203	11459.67
796.535	11448.6
796.867	11462.16
797.198	11370.41
797.53	11386.68
797.862	11274.82
798.193	11334.25
798.525	11274.82
798.856	11310.97
799.188	11202.28
799.519	11164.76
799.85	11144.88
800.182	11117.08
800.513	11196.4
800.844	10998.89
801.175	11087.25
801.506	11079.79
801.837	10994.82
802.168	10949.18
802.499	10980.59
802.83	10871.66
803.161	10920.93
803.491	10926.58
803.822	10852
804.153	10869.4
804.483	10774.49
804.814	10696.53
805.145	10696.3
805.475	10748.05
805.805	10680.48
806.136	10722.74
806.466	10686.58
806.796	10623.53
807.126	10580.15
807.457	10525.46
807.787	10519.81
808.117	10483.2
808.447	10494.95
808.777	10515.74
809.107	10527.49
809.436	10463.54
809.766	10469.41
810.096	10487.04
810.426	10348.74
810.755	10407.04
811.085	10357.33
811.414	10327.72
811.744	10283.2
812.073	10253.15
812.403	10295.18
812.732	10223.54
813.061	10222.19
813.39	10261.96
813.719	10085.92
814.049	10270.78
814.378	10131.8
814.707	10143.09
815.036	10053.61
815.365	10053.15
815.693	9976.32
816.022	9917.79
816.351	9967.05
816.68	9894.51
817.008	9974.96
817.337	9830.33
817.665	9811.13
817.994	9830.11
818.322	9858.58
818.651	9785.14
818.979	9690.45
819.307	9816.32
819.636	9802.99
819.964	9709.89
820.292	9777.45
820.62	9715.99
820.948	9707.85
821.276	9774.74
821.604	9681.86
821.932	9708.76
822.259	9770.22
822.587	9680.51
822.915	9682.32
823.243	9719.6
823.57	9718.7
823.898	9708.98
824.225	9680.73
824.553	9699.26
824.88	9684.35
825.207	9759.83
825.535	9758.47
825.862	9692.49
826.189	9730.22
826.516	9685.25
826.843	9846.61
827.17	9802.09
827.497	9764.57
827.824	9699.72
828.151	9819.94
828.478	9777.23
828.805	9815.87
829.131	9725.25
829.458	9761.41
829.785	9677.34
830.111	9714.63
830.438	9843.22
830.764	9731.35
831.09	9719.83
831.417	9660.62
831.743	9707.63
832.069	9739.49
832.395	9650.23
832.722	9718.47
833.048	9705.82
833.374	9681.19
833.7	9628.08
834.026	9633.05
834.351	9698.59
834.677	9651.81
835.003	9708.53
835.329	9665.82
835.654	9617.23
835.98	9579.72
836.306	9617.46
836.631	9579.72
836.956	9629.21
837.282	9596.67
837.607	9515.54
837.932	9578.59
838.258	9584.92
838.583	9499.72
838.908	9464.69
839.233	9477.35
839.558	9439.16
839.883	9447.75
840.208	9471.02
840.533	9443
840.858	9503.34
841.182	9448.2
841.507	9414.53
841.832	9303.79
842.156	9300.41
842.481	9376.56
842.805	9331.36
843.13	9259.28
843.454	9238.94
843.778	9204.14
844.103	9224.7
844.427	9219.05
844.751	9130.01
845.075	9148.54
845.399	9109.22
845.723	9059.06
846.047	9048.66
846.371	9016.12
846.695	9066.74
847.019	8976.57
847.343	8902.22
847.666	8848.67
847.99	8793.3
848.313	8805.28
848.637	8783.36
848.96	8681.44
849.284	8717.37
849.607	8683.92
849.931	8621.55
850.254	8622.91
850.577	8558.5
850.9	8478.51
851.223	8525.51
851.546	8453.87
851.869	8400.99
852.192	8483.93
852.515	8415.91
852.838	8403.25
853.161	8365.74
853.483	8315.12
853.806	8301.56
854.129	8267.44
854.451	8207.55
854.774	8187.89
855.096	8176.14
855.419	8159.87
855.741	8127.78
856.063	8128.68
856.385	8069.48
856.708	8059.31
857.03	8044.62
857.352	8030.38
857.674	8064.05
857.996	7991.29
858.318	7906.32
858.64	7854.79
858.961	7919.42
859.283	7917.84
859.605	7804.85
859.926	7860.9
860.248	7814.57
860.57	7787.22
860.891	7743.38
861.212	7721.01
861.534	7792.65
861.855	7717.4
862.176	7766.89
862.498	7710.62
862.819	7778.19
863.14	7713.55
863.461	7663.84
863.782	7640.56
864.103	7665.19
864.424	7641.01
864.745	7676.27
865.065	7571.19
865.386	7521.69
865.707	7540.45
866.027	7508.36
866.348	7543.39
866.668	7554.69
866.989	7495.03
867.309	7420
867.63	7507.46
867.95	7480.79
868.27	7442.37
868.59	7495.25
868.91	7433.11
869.23	7413.22
869.55	7332.77
869.87	7467.01
870.19	7414.35
870.51	7378.87
870.83	7401.02
871.15	7325.77
871.469	7316.05
871.789	7362.38
872.109	7299.55
872.428	7263.85
872.748	7307.46
873.067	7345.65
873.386	7321.25
873.706	7301.14
874.025	7267.24
874.344	7201.03
874.663	7248.71
874.982	7176.85
875.301	7166.45
875.62	7205.09
875.939	7199.44
876.258	7222.04
876.577	7173.68
876.896	7153.57
877.214	7189.05
877.533	7090.29
877.852	7121.03
878.17	7123.74
878.489	7153.57
878.807	7034.48
879.125	7079.9
879.444	7040.35
879.762	7036.74
880.08	7043.74
880.398	6992.67
880.716	7075.83
881.034	6995.16
881.352	7007.58
881.67	6969.62
881.988	7003.06
882.306	6951.31
882.624	6884.88
882.941	6878.32
883.259	6891.88
883.577	6872.22
883.894	6858.21
884.212	6867.93
884.529	6850.07
884.846	6821.37
885.164	6778.21
885.481	6710.64
885.798	6737.99
886.115	6761.71
886.432	6746.57
886.75	6728.27
887.067	6687.59
887.383	6676.52
887.7	6703.19
888.017	6653.92
888.334	6672.23
888.651	6618.89
888.967	6609.63
889.284	6560.36
889.6	6596.07
889.917	6485.11
890.233	6497.99
890.55	6516.75
890.866	6439.69
891.182	6500.03
891.498	6433.14
891.815	6487.6
892.131	6414.83
892.447	6386.36
892.763	6340.71
893.079	6352.01
893.395	6347.94
893.71	6349.3
894.026	6395.17
894.342	6295.74
894.657	6238.11
894.973	6248.51
895.289	6211.45
895.604	6267.94
895.92	6191.79
896.235	6176.65
896.55	6164.89
896.865	6101.62
897.181	6145.23
897.496	6055.97
897.811	6101.62
898.126	6102.52
898.441	6011.9
898.756	5995.63
899.071	5997.22
899.386	5998.12
899.7	5926.48
900.015	5948.63
900.33	5858.24
900.644	5924.67
900.959	5850.78
901.273	5835.41
901.588	5807.16
901.902	5786.6
902.216	5769.88
902.531	5764.23
902.845	5707.96
903.159	5698.69
903.473	5690.56
903.787	5641.97
904.101	5631.58
904.415	5636.77
904.729	5624.57
905.042	5567.85
905.356	5607.62
905.67	5561.97
905.984	5544.57
906.297	5526.72
906.611	5484.46
906.924	5508.19
907.237	5470.68
907.551	5407.17
907.864	5398.81
908.177	5417.34
908.491	5403.56
908.804	5367.4
909.117	5352.49
909.43	5321.3
909.743	5260.29
910.056	5333.73
910.368	5296.89
910.681	5186.16
910.994	5251.47
911.307	5202.43
911.619	5178.71
911.932	5167.63
912.244	5112.27
912.557	5124.02
912.869	5116.33
913.181	5096.67
913.494	5053.51
913.806	5057.13
914.118	5002.21
914.43	4984.13
914.742	4995.43
915.054	4934.42
915.366	4910.01
915.678	4921.09
915.99	4885.38
916.302	4891.03
916.613	4822.78
916.925	4844.7
917.236	4806.96
917.548	4803.8
917.859	4789.79
918.171	4753.18
918.482	4752.05
918.794	4710.02
919.105	4724.93
919.416	4698.94
919.727	4676.57
920.038	4675.67
920.349	4626.18
920.66	4595.44
920.971	4628.89
921.282	4576.24
921.593	4536.01
921.903	4514.54
922.214	4528.1
922.525	4501.66
922.835	4484.49
923.146	4471.15
923.456	4437.48
923.767	4438.16
924.077	4473.87
924.387	4410.14
924.697	4381.89
925.008	4328.33
925.318	4347.09
925.628	4358.84
925.938	4302.8
926.248	4277.03
926.558	4316.13
926.867	4248.79
927.177	4241.1
927.487	4213.31
927.796	4180.77
928.106	4167.21
928.416	4160.88
928.725	4213.08
929.034	4123.37
929.344	4126.76
929.653	4118.85
929.962	4053.09
930.271	4051.73
930.581	4098.06
930.89	4056.25
931.199	3999.53
931.508	4007.66
931.817	4009.24
932.125	3992.3
932.434	4002.92
932.743	3952.52
933.051	3922.47
933.36	3915.01
933.669	3860.77
933.977	3916.82
934.286	3857.61
934.594	3843.6
934.902	3807.44
935.21	3828.46
935.519	3804.73
935.827	3811.28
936.135	3783.04
936.443	3732.42
936.751	3757.73
937.059	3756.14
937.367	3695.58
937.674	3733.55
937.982	3727.9
938.29	3677.05
938.597	3686.54
938.905	3626.88
939.213	3592.31
939.52	3593.66
939.827	3625.3
940.135	3621.23
940.442	3579.43
940.749	3577.39
941.056	3575.81
941.363	3509.82
941.67	3514.34
941.977	3463.04
942.284	3471.86
942.591	3456.27
942.898	3431.86
943.205	3477.73
943.511	3463.04
943.818	3410.16
944.125	3409.26
944.431	3354.57
944.738	3392.99
945.044	3335.36
945.35	3351.18
945.657	3316.61
945.963	3273.67
946.269	3292.65
946.575	3310.28
946.881	3277.96
947.187	3244.75
947.493	3262.15
947.799	3202.71
948.105	3256.72
948.41	3179.66
948.716	3178.76
949.022	3196.61
949.327	3138.99
949.633	3181.24
949.938	3164.52
950.244	3101.7
950.549	3104.86
950.854	3108.7
951.16	3087.24
951.465	3073.22
951.77	3091.98
952.075	3090.62
952.38	3028.03
952.685	3028.71
952.99	3031.87
953.294	3005.88
953.599	2987.58
953.904	3010.85
954.209	2960.91
954.513	2956.84
954.818	2942.38
955.122	2945.54
955.426	2891.08
955.731	2924.08
956.035	2887.01
956.339	2861.03
956.643	2868.03
956.948	2873.23
957.252	2862.61
957.556	2831.2
957.86	2798.43
958.163	2833.23
958.467	2818.32
958.771	2810.41
959.075	2762.72
959.378	2749.17
959.682	2800.69
959.985	2726.57
960.289	2708.04
960.592	2724.98
960.896	2735.83
961.199	2717.98
961.502	2710.07
961.805	2679.11
962.108	2640.02
962.411	2656.74
962.714	2655.83
963.017	2677.08
963.32	2670.07
963.623	2579.45
963.926	2613.35
964.228	2602.05
964.531	2590.3
964.833	2560.24
965.136	2532
965.438	2527.93
965.741	2524.09
966.043	2498.78
966.345	2512.56
966.648	2510.53
966.95	2479.34
967.252	2436.18
967.554	2453.35
967.856	2444.54
968.158	2434.6
968.46	2399.57
968.761	2430.76
969.063	2412.9
969.365	2386.46
969.666	2411.09
969.968	2371.1
970.269	2399.8
970.571	2351.44
970.872	2357.54
971.174	2333.36
971.475	2363.86
971.776	2307.59
972.077	2353.24
972.378	2289.52
972.679	2297.43
972.98	2294.04
973.281	2280.93
973.582	2261.49
973.883	2252.91
974.183	2260.82
974.484	2247.48
974.785	2240.93
975.085	2219.46
975.386	2253.13
975.686	2187.82
975.986	2192.34
976.287	2192.12
976.587	2167.71
976.887	2166.81
977.187	2162.97
977.487	2154.83
977.787	2152.12
978.087	2166.81
978.387	2122.06
978.687	2153.47
978.987	2112.57
979.286	2099.92
979.586	2110.54
979.885	2077.09
980.185	2060.6
980.484	2089.3
980.784	2066.47
981.083	2069.86
981.382	2018.11
981.682	2046.13
981.981	2047.04
982.28	1990.09
982.579	1962.29
982.878	1991.67
983.177	1996.87
983.475	1977.89
983.774	1965.23
984.073	1958.9
984.372	1947.15
984.67	1963.42
984.969	1988.73
985.267	1929.3
985.566	1897.66
985.864	1873.26
986.162	1927.94
986.461	1883.43
986.759	1885.01
987.057	1885.46
987.355	1878
987.653	1863.54
987.951	1850.88
988.249	1830.32
988.547	1845.46
988.844	1831.22
989.142	1836.42
989.44	1832.35
989.737	1810.43
990.035	1787.61
990.332	1785.8
990.63	1791.45
990.927	1790.55
991.224	1777.89
991.521	1767.5
991.819	1776.76
992.116	1759.59
992.413	1733.82
992.71	1691.57
993.006	1728.4
993.303	1720.94
993.6	1720.94
993.897	1701.51
994.193	1737.44
994.49	1722.07
994.787	1696.76
995.083	1687.5
995.379	1675.07
995.676	1659.25
995.972	1647.73
996.268	1666.26
996.565	1630.1
996.861	1631.91
997.157	1644.11
997.453	1605.92
997.749	1589.2
998.044	1612.02
998.34	1581.51
998.636	1581.96
998.932	1577.9
999.227	1535.41
999.523	1560.5
999.818	1546.71
1000.114	1542.87
1000.409	1543.55
1000.704	1507.84
1001	1527.73
1001.295	1507.39
1001.59	1530.89
1001.885	1524.79
1002.18	1479.59
1002.475	1474.62
1002.77	1476.66
1003.065	1475.3
1003.359	1469.65
1003.654	1446.6
1003.949	1472.59
1004.243	1451.35
1004.538	1430.78
1004.832	1433.04
1005.127	1427.17
1005.421	1430.56
1005.715	1437.56
1006.009	1416.54
1006.304	1407.73
1006.598	1368.18
1006.892	1400.27
1007.186	1372.48
1007.48	1343.33
1007.773	1367.05
1008.067	1367.05
1008.361	1329.77
1008.655	1312.59
1008.948	1333.83
1009.242	1329.32
1009.535	1330.67
1009.829	1318.69
1010.122	1323.44
1010.415	1262.2
1010.708	1275.53
1011.001	1304.23
1011.295	1263.78
1011.588	1254.29
1011.881	1252.03
1012.173	1238.7
1012.466	1246.61
1012.759	1242.09
1013.052	1256.55
1013.344	1238.7
1013.637	1213.39
1013.93	1211.13
1014.222	1206.38
1014.514	1215.65
1014.807	1195.31
1015.099	1191.01
1015.391	1200.05
1015.683	1144.24
1015.976	1176.33
1016.268	1164.8
1016.56	1141.52
1016.851	1146.72
1017.143	1158.47
1017.435	1140.39
1017.727	1123.67
1018.018	1144.69
1018.31	1117.8
1018.602	1110.11
1018.893	1077.34
1019.185	1084.12
1019.476	1082.54
1019.767	1083.45
1020.058	1088.87
1020.35	1068.08
1020.641	1064.46
1020.932	1057.91
1021.223	1060.17
1021.514	1048.87
1021.804	1012.04
1022.095	1047.06
1022.386	1040.06
1022.677	1015.43
1022.967	1004.13
1023.258	993.5
1023.548	1003.22
1023.839	993.5
1024.129	1008.19
1024.419	972.26
1024.709	963.45
1025	993.28
1025.29	952.6
1025.58	958.7
1025.87	940.85
1026.16	942.43
1026.449	957.35
1026.739	937.24
1027.029	912.83
1027.319	936.11
1027.608	910.34
1027.898	906.73
1028.187	904.92
1028.477	900.63
1028.766	894.98
1029.055	905.82
1029.344	886.62
1029.634	852.27
1029.923	868.54
1030.212	872.83
1030.501	841.19
1030.79	864.24
1031.078	858.37
1031.367	835.99
1031.656	858.37
1031.945	861.08
1032.233	854.98
1032.522	839.84
1032.81	832.38
1033.099	843.23
1033.387	834.87
1033.675	844.13
1033.963	827.63
1034.251	803.23
1034.54	803
1034.828	816.79
1035.116	800.29
1035.403	798.03
1035.691	784.47
1035.979	794.19
1036.267	771.59
1036.554	787.86
1036.842	776.11
1037.129	754.87
1037.417	754.64
1037.704	755.77
1037.992	738.82
1038.279	744.25
1038.566	740.63
1038.853	740.63
1039.14	740.63
