Data from hue_320_FLMS001491_67.txt Node
Date: Mon Feb 06 15:47:32 GMT 2017
User: dcchb
Spectrometer: FLMS00149
Trigger mode: 0
Integration Time (sec): 2.000000E-2
Scans to average: 10
Electric dark correction enabled: true
Nonlinearity correction enabled: false
Boxcar width: 0
XAxis mode: Wavelengths
Number of Pixels in Spectrum: 2048
>>>>>Begin Spectral Data<<<<<
341.393	-1
341.776	-1
342.16	-1
342.543	-70.38
342.927	-67.89
343.31	-62.47
343.693	-55.92
344.077	-63.83
344.46	-65.41
344.843	-76.26
345.226	-46.43
345.61	-22.7
345.993	-17.5
346.376	24.08
346.759	15.72
347.142	25.89
347.525	39
347.908	49.62
348.291	75.61
348.674	76.06
349.057	104.53
349.44	117.86
349.823	153.57
350.206	174.36
350.588	198.31
350.971	210.97
351.354	219.78
351.737	233.34
352.119	253.68
352.502	247.35
352.884	261.14
353.267	266.33
353.65	291.87
354.032	300.91
354.414	305.66
354.797	296.62
355.179	321.02
355.562	316.5
355.944	333.23
356.326	327.35
356.709	339.1
357.091	323.73
357.473	320.34
357.855	337.07
358.238	322.15
358.62	349.27
359.002	337.75
359.384	328.25
359.766	333.9
360.148	345.2
360.53	336.16
360.912	325.99
361.294	339.33
361.676	337.29
362.057	336.62
362.439	318.76
362.821	341.81
363.203	324.86
363.584	310.4
363.966	324.19
364.348	313.34
364.729	342.72
365.111	307.92
365.493	311.53
365.874	314.47
366.256	327.12
366.637	304.98
367.019	296.16
367.4	301.81
367.781	319.89
368.163	275.83
368.544	317.18
368.925	289.16
369.306	300.46
369.688	324.19
370.069	306.33
370.45	311.76
370.831	312.21
371.212	317.41
371.593	300.68
371.974	296.84
372.355	287.58
372.736	318.08
373.117	297.29
373.498	321.93
373.879	297.52
374.26	311.76
374.641	298.65
375.021	302.72
375.402	307.69
375.783	313.34
376.163	328.71
376.544	342.27
376.925	330.51
377.305	307.01
377.686	298.65
378.066	304.53
378.447	313.79
378.827	321.93
379.208	344.75
379.588	334.36
379.968	323.96
380.349	327.8
380.729	323.28
381.109	350.63
381.489	325.09
381.87	330.97
382.25	320.34
382.63	332.77
383.01	328.48
383.39	321.25
383.77	336.39
384.15	323.96
384.53	327.58
384.91	347.91
385.29	330.51
385.67	339.1
386.049	344.75
386.429	314.02
386.809	346.78
387.189	354.24
387.568	351.3
387.948	336.62
388.328	336.62
388.707	361.93
389.087	343.85
389.466	368.03
389.846	358.08
390.225	346.33
390.605	349.95
390.984	337.75
391.363	355.15
391.743	347.69
392.122	364.41
392.501	351.3
392.881	375.71
393.26	353.34
393.639	378.65
394.018	351.08
394.397	377.97
394.776	364.64
395.155	357.18
395.534	357.18
395.913	353.79
396.292	385.88
396.671	373
397.05	364.19
397.429	365.32
397.808	365.54
398.186	377.74
398.565	394.47
398.944	381.13
399.323	378.87
399.701	365.09
400.08	372.55
400.458	376.16
400.837	396.73
401.215	386.56
401.594	384.07
401.972	427.91
402.351	383.62
402.729	399.44
403.107	405.99
403.486	374.58
403.864	394.24
404.242	407.8
404.62	394.92
404.999	402.83
405.377	414.58
405.755	411.64
406.133	427.46
406.511	420.91
406.889	436.95
407.267	408.93
407.645	432.88
408.023	429.04
408.401	429.95
408.779	456.61
409.156	457.52
409.534	464.75
409.912	453.22
410.29	455.71
410.667	459.55
411.045	454.8
411.422	462.26
411.8	484.18
412.178	478.98
412.555	517.63
412.933	499.55
413.31	502.71
413.687	506.33
414.065	523.96
414.442	513.79
414.819	511.3
415.197	526.67
415.574	537.06
415.951	524.18
416.328	534.12
416.705	542.26
417.082	545.88
417.46	542.03
417.837	596.72
418.214	567.12
418.591	573.22
418.967	582.03
419.344	572.99
419.721	587.91
420.098	619.09
420.475	595.59
420.852	590.62
421.228	610.28
421.605	620
421.982	637.4
422.358	630.62
422.735	653.9
423.111	653.67
423.488	656.38
423.864	676.49
424.241	666.1
424.617	687.79
424.994	690.5
425.37	692.99
425.746	666.55
426.123	691.86
426.499	688.47
426.875	661.35
427.251	712.65
427.627	727.79
428.003	725.76
428.379	746.77
428.756	744.97
429.132	773.44
429.507	767.34
429.883	778.86
430.259	787.68
430.635	778.41
431.011	788.81
431.387	780.67
431.763	807.34
432.138	797.39
432.514	832.42
432.89	833.78
433.265	868.8
433.641	841.46
434.016	865.64
434.392	890.95
434.767	865.64
435.143	889.82
435.518	872.42
435.894	913.55
436.269	916.49
436.644	912.87
437.02	913.55
437.395	931.85
437.77	955.81
438.145	953.77
438.52	929.14
438.895	944.51
439.271	963.27
439.646	975.24
440.021	992.19
440.395	989.93
440.77	995.13
441.145	994.68
441.52	1013.43
441.895	998.52
442.27	994.23
442.645	1008.01
443.019	1027.67
443.394	1007.33
443.769	1029.25
444.143	1019.31
444.518	1048.69
444.892	1033.55
445.267	1050.95
445.641	1087.56
446.016	1049.59
446.39	1066.77
446.764	1087.56
447.139	1051.85
447.513	1055.47
447.887	1086.65
448.262	1073.32
448.636	1091.62
449.01	1088.46
449.384	1094.56
449.758	1114.22
450.132	1090.49
450.506	1119.19
450.88	1124.62
451.254	1119.87
451.628	1115.13
452.002	1129.14
452.376	1121.23
452.75	1135.69
453.123	1173.2
453.497	1180.21
453.871	1191.96
454.244	1180.44
454.618	1185.63
454.992	1187.89
455.365	1197.38
455.739	1222.24
456.112	1222.24
456.486	1225.18
456.859	1209.13
457.232	1243.48
457.606	1265.63
457.979	1246.65
458.352	1267.21
458.725	1255.46
459.099	1263.82
459.472	1291.84
459.845	1296.82
460.218	1306.76
460.591	1333.88
460.964	1323.71
461.337	1341.79
461.71	1369.81
462.083	1396.47
462.456	1365.06
462.829	1333.43
463.201	1398.96
463.574	1396.47
463.947	1379.98
464.32	1427.89
464.692	1415.91
465.065	1437.83
465.438	1437.83
465.81	1469.69
466.183	1496.13
466.555	1482.8
466.928	1498.17
467.3	1509.69
467.672	1489.58
468.045	1515.79
468.417	1526.87
468.789	1520.09
469.161	1564.15
469.534	1572.74
469.906	1571.39
470.278	1589.24
470.65	1607.99
471.022	1655.45
471.394	1674.89
471.766	1678.05
472.138	1671.95
472.51	1680.99
472.882	1736.58
473.253	1747.43
473.625	1757.82
473.997	1786.29
474.369	1751.49
474.74	1786.97
475.112	1832.4
475.484	1831.94
475.855	1862.68
476.227	1872.17
476.598	1897.48
476.97	1917.59
477.341	1971.15
477.713	1980.87
478.084	1969.57
478.455	2034.65
478.827	2010.92
479.198	2064.25
479.569	2042.33
479.94	2139.28
480.311	2145.83
480.682	2167.53
481.053	2195.1
481.424	2220.18
481.795	2226.06
482.166	2272.61
482.537	2276.68
482.908	2319.39
483.279	2321.87
483.65	2362.55
484.021	2414.75
484.391	2411.82
484.762	2410.01
485.133	2440.06
485.503	2471.02
485.874	2519.16
486.244	2513.96
486.615	2556.67
486.985	2582.88
487.356	2597.8
487.726	2629.66
488.097	2658.14
488.467	2657.46
488.837	2711.47
489.207	2745.14
489.578	2763.22
489.948	2778.59
490.318	2812.03
490.688	2824.91
491.058	2843.67
491.428	2872.82
491.798	2929.77
492.168	2908.53
492.538	2961.86
492.908	2959.6
493.278	2994.85
493.648	3034.17
494.017	3088.63
494.387	3092.7
494.757	3054.28
495.126	3104.23
495.496	3071.91
495.866	3103.55
496.235	3183.55
496.605	3186.48
496.974	3206.37
497.344	3181.29
497.713	3199.14
498.082	3202.08
498.452	3273.26
498.821	3268.06
499.19	3275.97
499.559	3311.45
499.928	3345.12
500.298	3315.52
500.667	3351
501.036	3353.71
501.405	3384.9
501.774	3369.08
502.143	3377.89
502.512	3397.78
502.88	3428.51
503.249	3442.07
503.618	3424.67
503.987	3446.82
504.356	3473.71
504.724	3467.83
505.093	3533.82
505.462	3490.2
505.83	3535.85
506.199	3563.65
506.567	3576.76
506.936	3572.69
507.304	3586.7
507.672	3637.32
508.041	3612.46
508.409	3613.37
508.777	3601.61
509.145	3656.53
509.514	3673.02
509.882	3667.38
510.25	3663.53
510.618	3712.8
510.986	3689.75
511.354	3742.4
511.722	3718.67
512.09	3709.63
512.458	3797.09
512.826	3789.18
513.193	3773.81
513.561	3781.5
513.929	3784.21
514.297	3811.1
514.664	3804.55
515.032	3850.65
515.4	3867.6
515.767	3892.45
516.135	3842.29
516.502	3797.99
516.869	3896.07
517.237	3890.87
517.604	3896.97
517.972	3912.57
518.339	3903.53
518.706	3969.74
519.073	3978.55
519.44	3927.03
519.808	3974.26
520.175	3929.97
520.542	4009.51
520.909	3981.04
521.276	3971.1
521.643	4060.81
522.009	4021.26
522.376	4034.6
522.743	4097.19
523.11	4100.81
523.477	4047.03
523.843	4081.15
524.21	4171.09
524.577	4172.22
524.943	4132.9
525.31	4177.42
525.676	4196.17
526.043	4245.21
526.409	4201.15
526.776	4251.31
527.142	4254.03
527.508	4279.79
527.874	4315.49
528.241	4330.18
528.607	4337.41
528.973	4388.71
529.339	4409.5
529.705	4393.01
530.071	4440.24
530.437	4465.77
530.803	4456.28
531.169	4492.66
531.535	4499.22
531.901	4487.01
532.267	4489.27
532.632	4557.75
532.998	4574.24
533.364	4582.61
533.73	4574.92
534.095	4647.91
534.461	4633
534.826	4675.71
535.192	4691.3
535.557	4682.04
535.923	4728.59
536.288	4754.58
536.653	4799.77
537.019	4760.68
537.384	4815.59
537.749	4811.3
538.114	4776.05
538.479	4769.95
538.845	4844.75
539.21	4880
539.575	4863.73
539.94	4875.03
540.305	4963.39
540.67	4941.24
541.034	4941.01
541.399	5008.13
541.764	5015.59
542.129	5015.14
542.494	5074.12
542.858	5038.64
543.223	5050.39
543.587	5100.78
543.952	5146.21
544.316	5117.73
544.681	5169.48
545.045	5145.3
545.41	5221.68
545.774	5174.91
546.138	5228.46
546.503	5256.94
546.867	5267.33
547.231	5332.87
547.595	5329.03
547.959	5311.17
548.324	5336.71
548.688	5356.6
549.052	5367.67
549.416	5344.17
549.779	5360.21
550.143	5430.94
550.507	5393.88
550.871	5463.94
551.235	5468.46
551.599	5562.92
551.962	5512.3
552.326	5533.54
552.689	5595.91
553.053	5518.17
553.417	5544.84
553.78	5623.03
554.143	5604.5
554.507	5623.03
554.87	5636.82
555.234	5683.59
555.597	5688.34
555.96	5678.17
556.323	5736.7
556.686	5718.39
557.05	5742.35
557.413	5751.61
557.776	5764.5
558.139	5798.84
558.502	5831.84
558.865	5796.81
559.228	5867.09
559.59	5887.88
559.953	5901.89
560.316	5934.89
560.679	5963.81
561.041	5957.94
561.404	5925.4
561.767	5977.82
562.129	5990.48
562.492	6065.05
562.854	5998.39
563.217	6055.11
563.579	6070.25
563.941	6113.19
564.304	6121.32
564.666	6151.15
565.028	6158.16
565.39	6152.73
565.753	6161.77
566.115	6155.45
566.477	6217.59
566.839	6227.99
567.201	6270.7
567.563	6299.17
567.925	6261.88
568.287	6310.02
568.648	6286.52
569.01	6399.51
569.372	6390.47
569.734	6389.11
570.095	6467.75
570.457	6457.81
570.819	6510.46
571.18	6520.63
571.542	6522.67
571.903	6578.49
572.265	6616.68
572.626	6638.6
572.987	6669.56
573.349	6678.6
573.71	6822.77
574.071	6770.57
574.432	6851.7
574.794	6916.78
575.155	6974.86
575.516	6983.22
575.877	7065.25
576.238	7066.61
576.599	7145.7
576.96	7144.12
577.32	7282.2
577.681	7344.11
578.042	7356.77
578.403	7573.26
578.763	7562.19
579.124	7696.2
579.485	7760.15
579.845	7902.52
580.206	7984.78
580.566	8070.65
580.927	8181.83
581.287	8262.51
581.648	8390.19
582.008	8495.04
582.368	8706.79
582.728	8744.76
583.089	8924.64
583.449	9051.19
583.809	9216.38
584.169	9447.11
584.529	9554.9
584.889	9742.02
585.249	9866.99
585.609	10054.1
585.969	10273.53
586.329	10469.46
586.688	10659.51
587.048	10830.58
587.408	11055.88
587.768	11280.73
588.127	11498.81
588.487	11652.25
588.846	11943.32
589.206	12132.46
589.565	12430.08
589.925	12740.13
590.284	12942.61
590.643	13219.89
591.003	13464.41
591.362	13732.2
591.721	13908.24
592.08	14253.31
592.44	14538.73
592.799	14710.7
593.158	15078.15
593.517	15272.27
593.876	15627.29
594.235	15813.95
594.593	16101.62
594.952	16399.02
595.311	16642.63
595.67	17047.14
596.029	17340.01
596.387	17626.1
596.746	17963.04
597.104	18126.66
597.463	18536.14
597.822	18768.45
598.18	18954.43
598.538	19255.89
598.897	19708.31
599.255	19784.92
599.613	20321.4
599.972	20455.86
600.33	20761.84
600.688	21057.88
601.046	21376.74
601.404	21708.48
601.762	21866.67
602.12	22227.34
602.478	22497.61
602.836	22721.56
603.194	22917.26
603.552	23214.88
603.91	23397.03
604.268	23755.43
604.625	23996.11
604.983	24162.43
605.341	24351.8
605.698	24651.68
606.056	25050.54
606.413	25201.95
606.771	25427.03
607.128	25798.54
607.485	25905.66
607.843	26097.52
608.2	26488.7
608.557	26751.74
608.914	26712.42
609.272	27175.68
609.629	27365.96
609.986	27678.5
610.343	27716.01
610.7	28017.7
611.057	28257.24
611.414	28374.07
611.771	28610.67
612.127	28720.05
612.484	28946.03
612.841	29157.55
613.198	29308.06
613.554	29381.28
613.911	29643.19
614.267	29762.06
614.624	29981.03
614.98	30191.42
615.337	30460.34
615.693	30499.44
616.05	30652.88
616.406	30937.17
616.762	30972.19
617.118	31172.19
617.475	31166.77
617.831	31473.88
618.187	31673.64
618.543	31773.3
618.899	32043.35
619.255	32112.28
619.611	32108.21
619.967	32492.83
620.323	32553.62
620.678	32516.33
621.034	32687.18
621.39	32740.51
621.746	32878.13
622.101	33177.33
622.457	33136.88
622.812	33359.25
623.168	33396.76
623.523	33438.34
623.879	33655.29
624.234	33440.6
624.589	33752.46
624.945	33841.5
625.3	33893.47
625.655	33827.49
626.01	33902.29
626.365	34007.82
626.72	34140.7
627.075	34230.87
627.43	34154.26
627.785	34128.72
628.14	34272.45
628.495	34552.89
628.85	34425.44
629.205	34500.69
629.559	34728.93
629.914	34650.74
630.269	34647.8
630.623	34605.09
630.978	34475.38
631.332	34749.95
631.687	34881.92
632.041	34853
632.396	34866.1
632.75	34765.77
633.104	34966.89
633.459	34691.19
633.813	34776.39
634.167	34858.42
634.521	34907.68
634.875	35028.36
635.229	34996.27
635.583	34749.72
635.937	34856.61
636.291	34885.99
636.645	34890.28
636.999	34989.04
637.352	35096.83
637.706	34768.25
638.06	35030.39
638.413	34955.14
638.767	34989.94
639.121	34989.04
639.474	34853.22
639.828	34901.58
640.181	34952.88
640.534	34935.25
640.888	34867.91
641.241	34806.44
641.594	34820.23
641.947	34944.75
642.301	34893.67
642.654	34803.51
643.007	34978.64
643.36	34907.01
643.713	34862.04
644.066	34936.61
644.419	34885.09
644.771	34607.13
645.124	34278.32
645.477	34251.88
645.83	33990.42
646.182	33905
646.535	33997.65
646.888	34014.37
647.24	33683.99
647.593	33990.42
647.945	33866.36
648.298	33730.09
648.65	33760.82
649.002	33727.15
649.355	33796.53
649.707	33695.51
650.059	33894.38
650.411	34217.53
650.763	34344.99
651.115	34705.88
651.467	34541.82
651.819	34543.4
652.171	34488.03
652.523	34490.97
652.875	34444.19
653.227	34321.48
653.578	34491.2
653.93	34505.43
654.282	34272.9
654.633	34249.62
654.985	34332.78
655.337	34311.99
655.688	34387.25
656.039	34414.59
656.391	34199.91
656.742	34281.71
657.094	34256.85
657.445	34416.17
657.796	34267.7
658.147	34165.33
658.498	34269.96
658.849	34499.33
659.2	34330.3
659.551	34300.69
659.902	34210.3
660.253	34291.88
660.604	34256.18
660.955	34078.1
661.306	34168.04
661.656	34180.25
662.007	34193.8
662.358	34048.72
662.708	34211.2
663.059	34100.25
663.409	33944.77
663.76	34129.85
664.11	34214.37
664.461	34192
664.811	34161.94
665.161	34172.56
665.511	33988.39
665.862	34132.34
666.212	34202.84
666.562	34204.2
666.912	34023.19
667.262	34084.65
667.612	34110.64
667.962	34122.62
668.312	34059.12
668.662	34105.67
669.011	34013.24
669.361	34053.47
669.711	34026.35
670.06	34038.1
670.41	33980.48
670.76	33931.44
671.109	34088.27
671.459	33945.9
671.808	33878.78
672.157	34032.68
672.507	33723.53
672.856	33782.97
673.205	33843.53
673.554	33921.72
673.904	33768.73
674.253	33973.7
674.602	33875.62
674.951	33381.17
675.3	33310.44
675.649	33759.69
675.998	33794.27
676.346	33688.73
676.695	33831.55
677.044	33472.47
677.393	33606.7
677.741	33722.63
678.09	33670.88
678.438	33543.65
678.787	33568.51
679.135	33465.69
679.484	33460.26
679.832	33632.69
680.181	33186.15
680.529	33468.17
680.877	33347.27
681.225	33396.99
681.573	33490.55
681.922	33166.26
682.27	33062.76
682.618	33134.4
682.966	32956.77
683.314	33029.99
683.661	33165.81
684.009	32911.35
684.357	32908.64
684.705	32835.87
685.053	32923.33
685.4	32742.77
685.748	32683.56
686.095	32660.74
686.443	32590.91
686.79	32419.61
687.138	32578.48
687.485	32562.89
687.832	32492.61
688.18	32464.13
688.527	32313.18
688.874	32166.74
689.221	32172.16
689.568	32100.3
689.915	32092.16
690.262	31950.93
690.609	31968.33
690.956	31840.42
691.303	31838.16
691.65	31693.98
691.997	31716.13
692.344	31542.35
692.69	31472.52
693.037	31493.08
693.383	31153.66
693.73	31270.27
694.077	31155.47
694.423	31222.36
694.769	31028.92
695.116	31062.36
695.462	30989.37
695.808	30813.33
696.155	30771.97
696.501	30695.82
696.847	30661.47
697.193	30411.53
697.539	30521.36
697.885	30329.5
698.231	30301.25
698.577	30231.2
698.923	30214.25
699.269	30077.53
699.614	29949.62
699.96	29838.66
700.306	29810.42
700.651	29812.9
700.997	29611.55
701.342	29595.96
701.688	29614.72
702.033	29518.45
702.379	29405.91
702.724	29399.58
703.069	29563.87
703.415	29156.42
703.76	29176.99
704.105	29188.74
704.45	29060.15
704.795	28807.28
705.14	28828.3
705.485	28838.46
705.83	28669.2
706.175	28798.47
706.52	28601.86
706.865	28617.68
707.209	28594.63
707.554	28466.72
707.899	28506.04
708.243	28367.52
708.588	28325.48
708.932	28059.73
709.277	28074.19
709.621	28207.3
709.966	27991.03
710.31	28092.5
710.654	27647.08
710.998	27843.91
711.342	27709
711.687	27730.47
712.031	27584.03
712.375	27533.87
712.719	27448.67
713.063	27524.6
713.407	27598.27
713.75	27418.16
714.094	27505.62
714.438	27306.53
714.782	27231.5
715.125	27179.98
715.469	27168.68
715.812	27080.77
716.156	26940.21
716.499	26867.9
716.843	26980.21
717.186	26792.87
717.53	26772.76
717.873	26855.24
718.216	26690.72
718.559	26735.02
718.902	26606.66
719.246	26486.89
719.589	26494.8
719.932	26444.4
720.275	26375.7
720.617	26289.83
720.96	26376.16
721.303	26415.93
721.646	26274.24
721.989	26174.58
722.331	26251.19
722.674	26131.64
723.016	26119.21
723.359	26049.84
723.701	26181.81
724.044	25912.89
724.386	25670.64
724.729	25990.4
725.071	25911.08
725.413	25807.58
725.755	25894.14
726.097	25780.47
726.439	25539.34
726.782	25624.31
727.124	25733.01
727.465	25612.56
727.807	25480.14
728.149	25367.82
728.491	25424.54
728.833	25432.68
729.175	25349.29
729.516	25295.28
729.858	25276.52
730.199	25282.4
730.541	25236.3
730.882	25208.73
731.224	25204.44
731.565	25079.02
731.906	25133.03
732.248	25009.86
732.589	24935.52
732.93	24879.02
733.271	24825.69
733.612	24883.09
733.953	24851.23
734.294	24802.64
734.635	24752.92
734.976	24835.63
735.317	24723.54
735.658	24648.07
735.999	24611.46
736.339	24614.17
736.68	24629.08
737.021	24563.55
737.361	24444.91
737.702	24563.1
738.042	24443.55
738.383	24434.74
738.723	24432.71
739.063	24311.8
739.404	24409.2
739.744	24274.07
740.084	24323.78
740.424	24253.95
740.764	24138.02
741.104	24251.69
741.444	24033.17
741.784	24004.47
742.124	24099.83
742.464	24004.69
742.804	23874.3
743.143	23933.06
743.483	23977.8
743.823	23830.91
744.162	23734.64
744.502	23847.64
744.841	23593.41
745.181	23796.56
745.52	23713.63
745.86	23737.58
746.199	23590.69
746.538	23639.05
746.877	23666.62
747.216	23502.33
747.556	23519.28
747.895	23534.65
748.234	23467.08
748.573	23388.66
748.911	23360.19
749.25	23330.81
749.589	23231.61
749.928	23270.48
750.267	23264.6
750.605	23147.99
750.944	23091.27
751.283	23025.06
751.621	23050.82
751.96	22921.11
752.298	22998.17
752.636	22955
752.975	22889.69
753.313	22781.9
753.651	22918.17
753.989	22705.52
754.327	22792.75
754.666	22629.36
755.004	22568.12
755.342	22535.58
755.679	22530.16
756.017	22323.61
756.355	22511.63
756.693	22289.94
757.031	22347.79
757.368	22256.04
757.706	22153.89
758.044	22050.17
758.381	22102.37
758.719	22050.17
759.056	22092.65
759.394	21936.05
759.731	21758.88
760.068	21842.26
760.405	21694.7
760.743	21641.37
761.08	21663.96
761.417	21466
761.754	21501.03
762.091	21541.26
762.428	21391.66
762.765	21239.34
763.102	21284.31
763.438	21178.33
763.775	21154.37
764.112	21151.89
764.449	21070.99
764.785	21019.46
765.122	20882.74
765.458	20837.77
765.795	20762.07
766.131	20735.63
766.467	20618.34
766.804	20563.65
767.14	20544.45
767.476	20480.04
767.812	20315.98
768.148	20469.65
768.485	20152.59
768.821	20100.39
769.157	20084.8
769.492	20033.27
769.828	20108.3
770.164	19916.44
770.5	19895.88
770.836	19859.49
771.171	19751.47
771.507	19578.37
771.842	19524.36
772.178	19526.17
772.513	19447.53
772.849	19436.45
773.184	19352.61
773.519	19255.89
773.855	19226.97
774.19	19107.42
774.525	19008.44
774.86	19105.16
775.195	18969.12
775.53	18943.13
775.865	18779.52
776.2	18632.86
776.535	18586.53
776.87	18626.08
777.205	18600.09
777.539	18478.96
777.874	18429.02
778.209	18278.74
778.543	18244.62
778.878	18064.96
779.212	18133.21
779.547	18009.37
779.881	18031.97
780.215	17885.98
780.55	17925.08
780.884	17718.53
781.218	17843.05
781.552	17688.48
781.886	17605.31
782.22	17541.13
782.554	17491.64
782.888	17383.4
783.222	17258.2
783.556	17208.26
783.889	17200.13
784.223	17032.67
784.557	17020.02
784.89	17077.64
785.224	17005.78
785.557	16894.15
785.891	16820.7
786.224	16786.8
786.558	16799.69
786.891	16612.35
787.224	16626.13
787.557	16493.7
787.891	16496.19
788.224	16472.24
788.557	16396.98
788.89	16372.8
789.223	16342.52
789.556	16178.23
789.888	16154.96
790.221	16044.45
790.554	15909.31
790.887	15985.7
791.219	15913.61
791.552	15850.11
791.884	15856.21
792.217	15745.7
792.549	15738.7
792.882	15622.09
793.214	15519.95
793.546	15543.9
793.879	15468.65
794.211	15460.51
794.543	15455.31
794.875	15364.69
795.207	15461.87
795.539	15314.3
795.871	15263
796.203	15220.97
796.535	15032.05
796.867	15063.23
797.198	14990.92
797.53	15013.29
797.862	14925.84
798.193	14954.99
798.525	14759.74
798.856	14882
799.188	14676.13
799.519	14571.72
799.85	14563.59
800.182	14589.57
800.513	14559.97
800.844	14433.65
801.175	14463.25
801.506	14425.28
801.837	14342.35
802.168	14336.93
802.499	14310.71
802.83	14251.05
803.161	14197.27
803.491	14127.67
803.822	14127.89
804.153	14063.03
804.483	14008.8
804.814	13920.44
805.145	13866.43
805.475	13960.21
805.805	13861.46
806.136	13803.15
806.466	13783.27
806.796	13764.74
807.126	13698.52
807.457	13594.57
807.787	13609.26
808.117	13520.9
808.447	13378.98
808.777	13544.63
809.107	13439.77
809.436	13412.43
809.766	13472.54
810.096	13385.09
810.426	13291.98
810.755	13298.31
811.085	13280.91
811.414	13298.76
811.744	13177.63
812.073	13113
812.403	13091.31
812.732	13090.63
813.061	13083.85
813.39	12958.88
813.719	12899
814.049	12981.48
814.378	12881.82
814.707	12894.48
815.036	12887.47
815.365	12797.98
815.693	12676.86
816.022	12662.85
816.351	12698.32
816.68	12544.88
817.008	12636.86
817.337	12487.48
817.665	12439.8
817.994	12508.05
818.322	12568.16
818.651	12393.93
818.979	12388.05
819.307	12451.55
819.636	12358.22
819.964	12346.24
820.292	12386.02
820.62	12296.75
820.948	12247.04
821.276	12295.17
821.604	12278.45
821.932	12289.07
822.259	12280.48
822.587	12248.17
822.915	12256.3
823.243	12291.33
823.57	12257.66
823.898	12314.38
824.225	12181.73
824.553	12233.7
824.88	12202.07
825.207	12224.89
825.535	12267.15
825.862	12263.99
826.189	12236.42
826.516	12273.7
826.843	12312.12
827.17	12235.96
827.497	12231.67
827.824	12207.72
828.151	12249.52
828.478	12252.46
828.805	12293.82
829.131	12278.67
829.458	12155.06
829.785	12179.69
830.111	12174.95
830.438	12253.82
830.764	12172.91
831.09	12200.71
831.417	12064.67
831.743	12185.57
832.069	12065.12
832.395	12054.73
832.722	12127.72
833.048	12127.72
833.374	12138.34
833.7	12015.86
834.026	12047.95
834.351	12116.42
834.677	12052.24
835.003	12044.1
835.329	12068.96
835.654	11974.95
835.98	11947.16
836.306	11970.66
836.631	11974.73
836.956	11914.62
837.282	11832.36
837.607	11919.14
837.932	11789.65
838.258	11865.58
838.583	11797.56
838.908	11776.09
839.233	11848.86
839.558	11717.79
839.883	11769.76
840.208	11694.06
840.533	11619.26
840.858	11699.03
841.182	11679.59
841.507	11659.26
841.832	11598.24
842.156	11565.25
842.481	11558.24
842.805	11454.29
843.13	11581.07
843.454	11457.68
843.778	11421.97
844.103	11432.59
844.427	11405.48
844.751	11376.55
845.075	11383.1
845.399	11308.98
845.723	11243.22
846.047	11264.01
846.371	11235.54
846.695	11105.15
847.019	11043.9
847.343	11045.94
847.666	10993.74
847.99	10920.74
848.313	10963.45
848.637	10941.99
848.96	10769.56
849.284	10836.9
849.607	10720.07
849.931	10662.67
850.254	10658.83
850.577	10630.13
850.9	10535.67
851.223	10508.1
851.546	10413.19
851.869	10400.08
852.192	10447.08
852.515	10354.43
852.838	10365.5
853.161	10301.55
853.483	10263.59
853.806	10179.52
854.129	10176.58
854.451	10198.5
854.774	10052.07
855.096	10043.93
855.419	9992.86
855.741	9989.24
856.063	9976.59
856.385	9981.79
856.708	9952.41
857.03	9847.33
857.352	9908.57
857.674	9802.36
857.996	9821.34
858.318	9811.17
858.64	9886.87
858.961	9739.98
859.283	9728.23
859.605	9659.53
859.926	9748.35
860.248	9594.9
860.57	9587.67
860.891	9582.47
861.212	9492.98
861.534	9547.9
861.855	9472.42
862.176	9525.98
862.498	9545.19
862.819	9521.68
863.14	9436.26
863.461	9383.61
863.782	9313.55
864.103	9385.19
864.424	9368.02
864.745	9423.16
865.065	9321.69
865.386	9259.77
865.707	9317.85
866.027	9307.45
866.348	9273.33
866.668	9230.17
866.989	9216.83
867.309	9184.97
867.63	9142.49
867.95	9205.31
868.27	9146.33
868.59	9203.95
868.91	9121.92
869.23	9127.12
869.55	9030.4
869.87	9074.24
870.19	9119.66
870.51	9016.61
870.83	9021.58
871.15	8992.43
871.469	8968.25
871.789	9079.44
872.109	9014.81
872.428	8910.85
872.748	8986.56
873.067	8919.44
873.386	8906.11
873.706	8939.1
874.025	8861.14
874.344	8964.64
874.663	8911.98
874.982	8841.25
875.301	8850.74
875.62	8739.33
875.939	8754.93
876.258	8830.86
876.577	8758.31
876.896	8758.99
877.214	8746.34
877.533	8707.02
877.852	8746.34
878.17	8705.66
878.489	8669.73
878.807	8653.91
879.125	8608.94
879.444	8615.49
879.762	8649.62
880.08	8678.32
880.398	8596.74
880.716	8632.67
881.034	8559.9
881.352	8590.86
881.67	8525.55
881.988	8550.41
882.306	8463.18
882.624	8470.41
882.941	8447.36
883.259	8452.79
883.577	8365.1
883.894	8403.52
884.212	8424.76
884.529	8405.1
884.846	8341.15
885.164	8353.81
885.481	8310.19
885.798	8348.16
886.115	8268.84
886.432	8213.24
886.75	8203.53
887.067	8286.69
887.383	8270.87
887.7	8273.58
888.017	8205.11
888.334	8187.48
888.651	8111.1
888.967	8107.94
889.284	8045.79
889.6	8080.82
889.917	8000.82
890.233	7971.89
890.55	7942.97
890.866	7957.88
891.182	7971.89
891.498	7913.82
891.815	7954.27
892.131	7817.77
892.447	7864.78
892.763	7844.67
893.079	7792.46
893.395	7809.41
893.71	7773.03
894.026	7761.05
894.342	7704.56
894.657	7633.82
894.973	7656.65
895.289	7597.89
895.604	7632.69
895.92	7580.49
896.235	7521.96
896.55	7570.55
896.865	7490.1
897.181	7438.8
897.496	7463.89
897.811	7378.01
898.126	7403.32
898.441	7326.26
898.756	7333.72
899.071	7300.27
899.386	7281.97
899.7	7224.57
900.015	7203.55
900.33	7172.14
900.644	7149.54
900.959	7114.74
901.273	7163.33
901.588	7112.71
901.902	7117.68
902.216	7085.59
902.531	7019.38
902.845	6999.94
903.159	6997.91
903.473	6968.31
903.787	6990.68
904.101	6870.45
904.415	6861.87
904.729	6861.87
905.042	6806.95
905.356	6756.79
905.67	6796.33
905.984	6776.9
906.297	6775.09
906.611	6695.32
906.924	6661.65
907.237	6705.49
907.551	6632.27
907.864	6600.86
908.177	6610.8
908.491	6594.08
908.804	6521.76
909.117	6543.23
909.43	6449.45
909.743	6449.45
910.056	6430.69
910.368	6449.68
910.681	6323.35
910.994	6377.36
911.307	6311.6
911.619	6328.1
911.932	6338.27
912.244	6238.83
912.557	6251.71
912.869	6264.14
913.181	6185.5
913.494	6246.06
913.806	6128.78
914.118	6107.99
914.43	6054.88
914.742	6047.2
915.054	6029.12
915.366	6015.11
915.678	5954.77
915.99	5938.28
916.302	5953.42
916.613	5910.48
916.925	5895.11
917.236	5917.49
917.548	5851.72
917.859	5821.44
918.171	5783.7
918.482	5766.08
918.794	5767.89
919.105	5741.9
919.416	5677.27
919.727	5682.69
920.038	5676.81
920.349	5654.89
920.66	5591.17
920.971	5577.16
921.282	5558.4
921.593	5470.04
921.903	5515.24
922.214	5543.94
922.525	5479.98
922.835	5475.24
923.146	5430.72
923.456	5409.25
923.767	5371.96
924.077	5352.08
924.387	5392.08
924.697	5338.29
925.008	5340.55
925.318	5275.24
925.628	5257.16
925.938	5249.48
926.248	5192.98
926.558	5206.54
926.867	5181.46
927.177	5140.1
927.487	5130.16
927.796	5075.47
928.106	5041.12
928.416	5051.75
928.725	5079.32
929.034	4995.25
929.344	5025.98
929.653	4973.33
929.962	4983.72
930.271	4926.78
930.581	4920
930.89	4866.44
931.199	4887.23
931.508	4838.64
931.817	4872.99
932.125	4830.96
932.434	4780.79
932.743	4747.35
933.051	4736.27
933.36	4693.79
933.669	4687.24
933.977	4661.25
934.286	4652.66
934.594	4689.04
934.902	4604.75
935.21	4574.24
935.519	4602.72
935.827	4563.4
936.135	4533.79
936.443	4540.35
936.751	4482.04
937.059	4441.82
937.367	4466
937.674	4459.9
937.982	4421.03
938.29	4379.22
938.597	4397.53
938.905	4367.24
939.213	4326.34
939.52	4364.31
939.827	4360.46
940.135	4275.95
940.442	4295.61
940.749	4271.65
941.056	4251.31
941.363	4226.91
941.67	4275.72
941.977	4249.73
942.284	4179
942.591	4165.67
942.898	4175.61
943.205	4113.92
943.511	4131.09
943.818	4118.21
944.125	4087.03
944.431	4066.01
944.738	4024.43
945.044	4039.34
945.35	4058.78
945.657	3986.01
945.963	3945.33
946.269	3948.27
946.575	3949.85
946.881	3897.2
947.187	3881.16
947.493	3884.09
947.799	3908.95
948.105	3860.82
948.41	3783.53
948.716	3837.54
949.022	3770.88
949.327	3779.69
949.633	3756.41
949.938	3732.91
950.244	3748.96
950.549	3730.2
950.854	3707.37
951.16	3619.92
951.465	3685.23
951.77	3674.83
952.075	3623.08
952.38	3623.53
952.685	3629.86
952.99	3563.2
953.294	3620.82
953.599	3565.91
953.904	3522.07
954.209	3518.45
954.513	3527.27
954.818	3492.92
955.122	3491.33
955.426	3496.08
955.731	3453.14
956.035	3443.43
956.339	3433.03
956.643	3425.12
956.948	3400.72
957.252	3394.84
957.556	3383.77
957.86	3330.44
958.163	3378.34
958.467	3304.45
958.771	3322.07
959.075	3300.15
959.378	3265.8
959.682	3302.87
959.985	3285.01
960.289	3224.22
960.592	3252.47
960.896	3249.53
961.199	3208.86
961.502	3206.6
961.805	3160.27
962.108	3167.95
962.411	3181.06
962.714	3116.43
963.017	3146.49
963.32	3146.26
963.623	3136.09
963.926	3130.67
964.228	3064.68
964.531	3048.86
964.833	3078.69
965.136	2974.29
965.438	3024.91
965.741	2984
966.043	2992.36
966.345	2948.98
966.648	2958.02
966.95	2968.64
967.252	2914.63
967.554	2917.34
967.856	2870.56
968.158	2894.29
968.46	2909.2
968.761	2887.51
969.063	2892.03
969.365	2852.03
969.666	2885.25
969.968	2846.15
970.269	2813.84
970.571	2803.67
970.872	2792.14
971.174	2751.24
971.475	2767.51
971.776	2792.37
972.077	2783.78
972.378	2747.85
972.679	2712.82
972.98	2753.5
973.281	2714.86
973.582	2693.62
973.883	2689.77
974.183	2680.73
974.484	2645.03
974.785	2652.26
975.085	2655.42
975.386	2653.39
975.686	2610.68
975.986	2575.2
976.287	2603.45
976.587	2553.51
976.887	2578.36
977.187	2586.5
977.487	2540.4
977.787	2524.58
978.087	2521.64
978.387	2483.9
978.687	2514.86
978.987	2503.79
979.286	2467.41
979.586	2456.56
979.885	2439.84
980.185	2485.26
980.484	2415.43
980.784	2404.81
981.083	2421.98
981.382	2383.79
981.682	2396.9
981.981	2386.73
982.28	2391.02
982.579	2347.41
982.878	2371.82
983.177	2317.58
983.475	2343.12
983.774	2309.9
984.073	2336.79
984.372	2292.95
984.67	2308.54
984.969	2280.29
985.267	2277.36
985.566	2280.52
985.864	2239.84
986.162	2263.57
986.461	2246.17
986.759	2219.5
987.057	2209.79
987.355	2203.68
987.653	2189
987.951	2217.02
988.249	2175.21
988.547	2187.64
988.844	2175.89
989.142	2193.74
989.44	2144.25
989.737	2136.34
990.035	2104.7
990.332	2146.51
990.63	2078.94
990.927	2100.86
991.224	2115.33
991.521	2096.8
991.819	2067.19
992.116	2082.78
992.413	2042.33
992.71	1977.7
993.006	2026.29
993.303	2021.32
993.6	2017.25
993.897	2007.76
994.193	2002.56
994.49	1990.13
994.787	1991.94
995.083	1924.14
995.379	1955.33
995.676	1949
995.972	1966.63
996.268	1921.66
996.565	1919.17
996.861	1937.7
997.157	1897.93
997.453	1923.92
997.749	1900.64
998.044	1883.24
998.34	1865.61
998.636	1872.62
998.932	1861.1
999.227	1838.72
999.523	1823.81
999.818	1821.32
1000.114	1818.61
1000.409	1805.73
1000.704	1803.24
1001	1788.1
1001.295	1792.17
1001.59	1750.36
1001.885	1787.2
1002.18	1744.26
1002.475	1723.92
1002.77	1706.52
1003.065	1742.91
1003.359	1690.93
1003.654	1684.38
1003.949	1704.26
1004.243	1700.87
1004.538	1656.81
1004.832	1682.34
1005.127	1678.73
1005.421	1695.45
1005.715	1667.2
1006.009	1638.05
1006.304	1623.14
1006.598	1621.55
1006.892	1627.2
1007.186	1595.11
1007.48	1614.77
1007.773	1577.94
1008.067	1566.64
1008.361	1576.13
1008.655	1543.14
1008.948	1570.93
1009.242	1543.36
1009.535	1535.45
1009.829	1511.5
1010.122	1507.43
1010.415	1482.35
1010.708	1516.47
1011.001	1484.83
1011.295	1482.8
1011.588	1477.6
1011.881	1463.82
1012.173	1470.6
1012.466	1479.41
1012.759	1454.55
1013.052	1434.21
1013.344	1436.47
1013.637	1430.15
1013.93	1406.19
1014.222	1395.34
1014.514	1410.71
1014.807	1380.2
1015.099	1373.65
1015.391	1374.33
1015.683	1385.18
1015.976	1359.64
1016.268	1364.39
1016.56	1341.33
1016.851	1343.14
1017.143	1351.5
1017.435	1328.91
1017.727	1298.62
1018.018	1320.77
1018.31	1312.41
1018.602	1299.98
1018.893	1293.2
1019.185	1291.17
1019.476	1287.1
1019.767	1254.33
1020.058	1252.52
1020.35	1232.19
1020.641	1207.78
1020.932	1232.19
1021.223	1223.82
1021.514	1210.49
1021.804	1223.37
1022.095	1196.93
1022.386	1191.96
1022.677	1159.42
1022.967	1178.85
1023.258	1165.52
1023.548	1169.59
1023.839	1163.26
1024.129	1137.5
1024.419	1132.3
1024.709	1151.96
1025	1122.36
1025.29	1116.48
1025.58	1099.31
1025.87	1074.68
1026.16	1105.18
1026.449	1095.47
1026.739	1093.66
1027.029	1074.45
1027.319	1069.93
1027.608	1071.51
1027.898	1061.79
1028.187	1046.65
1028.477	1044.85
1028.766	1031.51
1029.055	1030.38
1029.344	1028.8
1029.634	1005.52
1029.923	1020.44
1030.212	982.02
1030.501	1020.67
1030.79	1004.17
1031.078	984.51
1031.367	977.05
1031.656	1001.68
1031.945	981.12
1032.233	955.81
1032.522	970.95
1032.81	960.78
1033.099	936.15
1033.387	946.99
1033.675	955.36
1033.963	913.55
1034.251	933.89
1034.54	915.58
1034.828	903.15
1035.116	903.15
1035.403	935.24
1035.691	898.41
1035.979	888.01
1036.267	876.04
1036.554	887.56
1036.842	854.12
1037.129	871.06
1037.417	879.43
1037.704	844.62
1037.992	867.67
1038.279	860.9
1038.566	848.47
1038.853	848.47
1039.14	848.47
