Data from hue_170_FLMS001491_00011.txt Node
Date: Tue Feb 07 16:48:18 GMT 2017
User: dcchb
Spectrometer: FLMS00149
Trigger mode: 0
Integration Time (sec): 2.000000E-2
Scans to average: 10
Electric dark correction enabled: true
Nonlinearity correction enabled: false
Boxcar width: 0
XAxis mode: Wavelengths
Number of Pixels in Spectrum: 2048
>>>>>Begin Spectral Data<<<<<
341.393	-20.35
341.776	-20.35
342.16	-20.35
342.543	-50.41
342.927	-86.79
343.31	-70.97
343.693	-73.91
344.077	-81.82
344.46	-64.65
344.843	-55.15
345.226	-42.27
345.61	-30.75
345.993	-2.95
346.376	0.89
346.759	6.09
347.142	13.77
347.525	61.23
347.908	60.32
348.291	93.54
348.674	80.89
349.057	105.75
349.44	114.56
349.823	123.37
350.206	150.72
350.588	184.16
350.971	211.51
351.354	219.42
351.737	219.42
352.119	250.6
352.502	250.6
352.884	267.32
353.267	273.43
353.65	292.86
354.032	290.37
354.414	286.08
354.797	307.77
355.179	315.91
355.562	316.14
355.944	335.8
356.326	335.12
356.709	327.66
357.091	333.08
357.473	325.4
357.855	337.6
358.238	339.19
358.62	329.02
359.002	326.53
359.384	333.76
359.766	334.67
360.148	328.79
360.53	332.18
360.912	339.19
361.294	330.6
361.676	314.1
362.057	332.63
362.439	307.1
362.821	331.95
363.203	320.66
363.584	332.63
363.966	324.5
364.348	322.01
364.729	319.07
365.111	311.39
365.493	324.27
365.874	303.71
366.256	312.52
366.637	300.09
367.019	310.26
367.4	313.65
367.781	313.42
368.163	304.16
368.544	311.16
368.925	325.85
369.306	308
369.688	313.88
370.069	287.21
370.45	295.12
370.831	308
371.212	331.28
371.593	299.19
371.974	311.39
372.355	305.06
372.736	307.1
373.117	298.06
373.498	308.45
373.879	303.03
374.26	289.47
374.641	303.71
375.021	291.96
375.402	329.47
375.783	301.9
376.163	319.53
376.544	322.24
376.925	285.18
377.305	338.06
377.686	317.27
378.066	319.3
378.447	309.13
378.827	331.73
379.208	333.76
379.588	332.63
379.968	319.75
380.349	340.32
380.729	330.15
381.109	352.52
381.489	331.28
381.87	345.29
382.25	350.49
382.63	349.58
383.01	349.81
383.39	343.93
383.77	323.14
384.15	348.23
384.53	323.37
384.91	348.68
385.29	353.65
385.67	342.8
386.049	342.8
386.429	331.73
386.809	334.67
387.189	339.19
387.568	347.77
387.948	355
388.328	333.99
388.707	347.55
389.087	362.91
389.466	350.71
389.846	364.04
390.225	352.52
390.605	360.2
390.984	373.76
391.363	363.14
391.743	355.68
392.122	362.46
392.501	383.7
392.881	376.47
393.26	374.67
393.639	377.6
394.018	393.87
394.397	387.09
394.776	393.65
395.155	388.9
395.534	378.06
395.913	395.91
396.292	366.3
396.671	385.51
397.05	385.96
397.429	389.13
397.808	387.09
398.186	377.83
398.565	398.39
398.944	399.75
399.323	391.84
399.701	401.78
400.08	392.97
400.458	399.75
400.837	398.62
401.215	407.43
401.594	402.46
401.972	416.7
402.351	421.22
402.729	382.35
403.107	408.11
403.486	426.87
403.864	437.71
404.242	430.93
404.62	429.13
404.999	408.11
405.377	438.17
405.755	450.6
406.133	429.81
406.511	434.55
406.889	413.08
407.267	453.99
407.645	443.59
408.023	445.62
408.401	452.18
408.779	455.12
409.156	477.94
409.534	487.88
409.912	476.58
410.29	484.72
410.667	508
411.045	500.76
411.422	507.77
411.8	512.06
412.178	499.86
412.555	521.55
412.933	510.03
413.31	541.89
413.687	515.45
414.065	526.98
414.442	520.42
414.819	523.59
415.197	537.15
415.574	531.95
415.951	542.12
416.328	564.26
416.705	576.02
417.082	564.94
417.46	575.34
417.837	592.74
418.214	594.32
418.591	598.16
418.967	570.37
419.344	594.32
419.721	589.12
420.098	610.82
420.475	615.34
420.852	623.7
421.228	625.05
421.605	647.88
421.982	627.31
422.358	652.62
422.735	647.2
423.111	651.49
423.488	685.62
423.864	644.49
424.241	665.96
424.617	692.17
424.994	699.63
425.37	708.67
425.746	701.89
426.123	740.08
426.499	724.26
426.875	723.58
427.251	744.83
427.627	751.83
428.003	774.88
428.379	753.86
428.756	760.19
429.132	777.82
429.507	802.22
429.883	792.06
430.259	834.54
430.635	821.89
431.011	828.44
431.387	842.45
431.763	849.46
432.138	859.4
432.514	838.16
432.89	856.91
433.265	868.89
433.641	895.78
434.016	902.56
434.392	931.94
434.767	926.97
435.143	933.52
435.518	959.06
435.894	955.21
436.269	990.69
436.644	994.54
437.02	1007.42
437.395	981.65
437.77	1014.87
438.145	1007.42
438.52	1035.44
438.895	1034.99
439.271	1047.64
439.646	1077.92
440.021	1082.22
440.395	1084.25
440.77	1088.77
441.145	1105.49
441.52	1159.96
441.895	1133.06
442.27	1152.72
442.645	1137.58
443.019	1178.03
443.394	1197.69
443.769	1176.68
444.143	1192.27
444.518	1183.23
444.892	1199.05
445.267	1221.2
445.641	1215.55
446.016	1219.61
446.39	1224.13
446.764	1256.22
447.139	1264.59
447.513	1259.84
447.887	1277.92
448.262	1308.88
448.636	1314.53
449.01	1324.92
449.384	1330.12
449.758	1324.7
450.132	1343
450.506	1354.07
450.88	1355.88
451.254	1362.66
451.628	1388.88
452.002	1418.25
452.376	1405.15
452.75	1417.12
453.123	1437.24
453.497	1444.69
453.871	1485.6
454.244	1513.17
454.618	1482.43
454.992	1559.94
455.365	1532.6
455.739	1562.66
456.112	1624.58
456.486	1604.24
456.859	1603.33
457.232	1656.67
457.606	1671.58
457.979	1668.19
458.352	1700.51
458.725	1726.72
459.099	1733.05
459.472	1771.69
459.845	1793.61
460.218	1818.02
460.591	1836.55
460.964	1829.54
461.337	1912.93
461.71	1916.32
462.083	1957.45
462.456	1953.61
462.829	1988.18
463.201	1997.67
463.574	2044
463.947	2027.96
464.32	2083.77
464.692	2084.45
465.065	2146.6
465.438	2194.96
465.81	2219.81
466.183	2250.77
466.555	2268.17
466.928	2310.21
467.3	2326.7
467.672	2380.04
468.045	2439.92
468.417	2464.33
468.789	2464.55
469.161	2528.73
469.534	2580.03
469.906	2634.49
470.278	2646.92
470.65	2688.05
471.022	2735.96
471.394	2834.49
471.766	2842.17
472.138	2893.7
472.51	2966.69
472.882	3002.84
473.253	3032.67
473.625	3125.55
473.997	3193.57
474.369	3254.14
474.74	3299.56
475.112	3356.51
475.484	3435.15
475.855	3565.99
476.227	3558.99
476.598	3681.25
476.97	3748.81
477.341	3813.22
477.713	3902.93
478.084	3949.03
478.455	4109.71
478.827	4135.24
479.198	4332.53
479.569	4306.09
479.94	4473.77
480.311	4554.67
480.682	4674.21
481.053	4786.3
481.424	4908.33
481.795	4991.95
482.166	5129.57
482.537	5226.29
482.908	5352.84
483.279	5440.29
483.65	5537.02
484.021	5720.97
484.391	5871.7
484.762	5914.41
485.133	6003.9
485.503	6164.34
485.874	6253.38
486.244	6396.43
486.615	6523.43
486.985	6682.07
487.356	6844.55
487.726	6945.34
488.097	7092.45
488.467	7200.25
488.837	7400.47
489.207	7562.27
489.578	7694.7
489.948	7776.28
490.318	7913.45
490.688	8034.12
491.058	8172.88
491.428	8299.43
491.798	8384.85
492.168	8546.65
492.538	8628.46
492.908	8832.52
493.278	8964.04
493.648	9026.19
494.017	9165.62
494.387	9298.27
494.757	9461.88
495.126	9537.81
495.496	9612.39
495.866	9712.72
496.235	9839.5
496.605	9975.54
496.974	9990.46
497.344	10096.44
497.713	10267.96
498.082	10314.74
498.452	10492.59
498.821	10472.7
499.19	10579.59
499.559	10723.55
499.928	10813.03
500.298	10868.17
500.667	10940.04
501.036	10939.36
501.405	11112.91
501.774	11208.96
502.143	11278.56
502.512	11344.77
502.88	11429.52
503.249	11472.68
503.618	11537.99
503.987	11549.74
504.356	11610.98
504.724	11723.52
505.093	11799
505.462	11790.86
505.83	11835.38
506.199	11999.67
506.567	12144.3
506.936	12088.48
507.304	12262.49
507.672	12277.86
508.041	12336.16
508.409	12385.2
508.777	12420.68
509.145	12495.93
509.514	12430.39
509.882	12611.86
510.25	12587.68
510.618	12671.97
510.986	12630.39
511.354	12807.33
511.722	12833.09
512.09	12919.65
512.458	12874.45
512.826	12971.85
513.193	13022.47
513.561	13055.24
513.929	13064.05
514.297	13240.09
514.664	13151.05
515.032	13218.85
515.4	13346.08
515.767	13276.47
516.135	13353.53
516.502	13166.19
516.869	13448.9
517.237	13431.95
517.604	13391.05
517.972	13464.26
518.339	13636.92
518.706	13470.37
519.073	13489.57
519.44	13577.26
519.808	13663.36
520.175	13589.91
520.542	13746.07
520.909	13725.05
521.276	13753.75
521.643	13732.73
522.009	13860.19
522.376	13890.69
522.743	13885.04
523.11	13987.41
523.477	13987.87
523.843	14076.45
524.21	14080.29
524.577	14096.56
524.943	14082.78
525.31	14243.68
525.676	14282.1
526.043	14265.6
526.409	14262.66
526.776	14345.37
527.142	14328.87
527.508	14290.01
527.874	14347.86
528.241	14379.49
528.607	14275.32
528.973	14401.42
529.339	14365.26
529.705	14365.26
530.071	14492.03
530.437	14424.69
530.803	14403.45
531.169	14465.14
531.535	14420.17
531.901	14376.11
532.267	14379.27
532.632	14502.66
532.998	14403
533.364	14441.64
533.73	14358.93
534.095	14396.44
534.461	14410.68
534.826	14342.43
535.192	14278.71
535.557	14341.3
535.923	14249.55
536.288	14243
536.653	14301.08
537.019	14214.3
537.384	14142.89
537.749	14105.15
538.114	14087.75
538.479	13958.04
538.845	14121.65
539.21	14022.22
539.575	13958.71
539.94	13949
540.305	14008.43
540.67	13875.78
541.034	13897.93
541.399	13867.42
541.764	13786.97
542.129	13823.8
542.494	13722.56
542.858	13702.22
543.223	13713.98
543.587	13671.04
543.952	13522.34
544.316	13527.99
544.681	13513.98
545.045	13565.05
545.41	13489.35
545.774	13464.49
546.138	13364.38
546.503	13350.37
546.867	13205.97
547.231	13367.09
547.595	13250.71
547.959	13300.2
548.324	13173.88
548.688	13188.79
549.052	13197.6
549.416	13044.39
549.779	13091.17
550.143	13072.86
550.507	13063.15
550.871	13020.21
551.235	12946.31
551.599	13010.49
551.962	12877.16
552.326	12907.22
552.689	12892.75
553.053	12739.54
553.417	12762.59
553.78	12888.69
554.143	12795.36
554.507	12717.39
554.87	12696.38
555.234	12742.48
555.597	12649.14
555.96	12638.3
556.323	12710.16
556.686	12688.24
557.05	12601.91
557.413	12620.22
557.776	12574.8
558.139	12629.48
558.502	12593.55
558.865	12502.03
559.228	12554.91
559.59	12593.55
559.953	12464.29
560.316	12622.03
560.679	12584.51
561.041	12568.69
561.404	12592.88
561.767	12600.11
562.129	12536.61
562.492	12578.41
562.854	12510.84
563.217	12458.64
563.579	12498.87
563.941	12543.38
564.304	12530.28
564.666	12549.71
565.028	12461.58
565.39	12538.64
565.753	12616.38
566.115	12567.57
566.477	12632.65
566.839	12666.09
567.201	12716.26
567.563	12602.82
567.925	12741.35
568.287	12714.68
568.648	12638.98
569.01	12694.12
569.372	12738.63
569.734	12662.25
570.095	12727.56
570.457	12790.84
570.819	12782.47
571.18	12721.46
571.542	12773.21
571.903	12731.63
572.265	12848.01
572.626	12785.64
572.987	12747.45
573.349	12784.73
573.71	12872.87
574.071	12741.8
574.432	12837.84
574.794	12910.61
575.155	12789.93
575.516	12731.18
575.877	12888.69
576.238	12884.17
576.599	12855.47
576.96	12840.33
577.32	12865.86
577.681	12922.13
578.042	12937.27
578.403	12896.37
578.763	12898.86
579.124	12919.87
579.485	13028.57
579.845	12997.16
580.206	12808.46
580.566	12873.77
580.927	12972.53
581.287	12947.22
581.648	12837.39
582.008	12976.82
582.368	12867.44
582.728	12899.99
583.089	12825.41
583.449	12792.19
583.809	12761.68
584.169	12862.92
584.529	12756.94
584.889	12965.75
585.249	12851.17
585.609	12728.24
585.969	12795.58
586.329	12751.29
586.688	12812.76
587.048	12669.94
587.408	12650.5
587.768	12707.45
588.127	12713.78
588.487	12583.61
588.846	12716.94
589.206	12629.94
589.565	12658.18
589.925	12699.76
590.284	12693.44
590.643	12659.99
591.003	12741.57
591.362	12688.01
591.721	12638.98
592.08	12646.21
592.44	12639.88
592.799	12637.39
593.158	12627.68
593.517	12629.71
593.876	12589.03
594.235	12634
594.593	12579.32
594.952	12563.5
595.311	12566.66
595.67	12530.96
596.029	12633.1
596.387	12655.25
596.746	12661.12
597.104	12531.18
597.463	12611.41
597.822	12570.73
598.18	12565.98
598.538	12482.14
598.897	12546.1
599.255	12563.5
599.613	12637.39
599.972	12511.97
600.33	12546.55
600.688	12486.89
601.046	12575.7
601.404	12596.72
601.762	12551.75
602.12	12530.96
602.478	12566.44
602.836	12511.3
603.194	12474.46
603.552	12625.87
603.91	12449.6
604.268	12536.38
604.625	12535.48
604.983	12504.52
605.341	12499.77
605.698	12502.48
606.056	12588.36
606.413	12470.84
606.771	12505.42
607.128	12567.79
607.485	12496.38
607.843	12542.93
608.2	12610.28
608.557	12627.22
608.914	12579.32
609.272	12659.31
609.629	12651.4
609.986	12630.39
610.343	12613.67
610.7	12659.09
611.057	12578.86
611.414	12628.81
611.771	12617.51
612.127	12655.25
612.484	12677.39
612.841	12751.74
613.198	12692.31
613.554	12719.88
613.911	12776.15
614.267	12700.44
614.624	12768.92
614.98	12763.04
615.337	12826.32
615.693	12779.08
616.05	12728.46
616.406	12812.3
616.762	12835.35
617.118	12779.31
617.475	12765.3
617.831	12839.2
618.187	12844.62
618.543	12767.79
618.899	12883.49
619.255	12782.93
619.611	12795.81
619.967	12886.65
620.323	12933.43
620.678	12798.97
621.034	12810.72
621.39	12802.14
621.746	12828.35
622.101	12963.94
622.457	12977.72
622.812	12894.34
623.168	12912.64
623.523	12866.99
623.879	12987.22
624.234	12873.09
624.589	12916.26
624.945	12930.27
625.3	12890.27
625.655	12860.21
626.01	12854.34
626.365	12859.31
626.72	12890.27
627.075	12861.57
627.43	12898.86
627.785	12802.59
628.14	12867.67
628.495	12889.36
628.85	12907.44
629.205	12833.09
629.559	12867.67
629.914	12840.1
630.269	12859.76
630.623	12790.84
630.978	12768.92
631.332	12768.69
631.687	12857.95
632.041	12799.2
632.396	12776.83
632.75	12685.08
633.104	12696.38
633.459	12609.6
633.813	12634.91
634.167	12642.82
634.521	12636.49
634.875	12745.19
635.229	12627.45
635.583	12489.83
635.937	12554.23
636.291	12486.66
636.645	12610.05
636.999	12494.12
637.352	12516.49
637.706	12461.81
638.06	12535.02
638.413	12509.26
638.767	12504.97
639.121	12500
639.474	12391.07
639.828	12427
640.181	12401.24
640.534	12400.11
640.888	12358.98
641.241	12369.15
641.594	12372.77
641.947	12412.77
642.301	12340.45
642.654	12318.08
643.007	12330.74
643.36	12327.8
643.713	12301.58
644.066	12409.6
644.419	12350.62
644.771	12189.72
645.124	12112.44
645.477	12072.66
645.83	12003.74
646.182	11900.01
646.535	11906.57
646.888	11930.07
647.24	11880.8
647.593	11919.22
647.945	11914.25
648.298	11770.3
648.65	11812.56
649.002	11764.42
649.355	11783.63
649.707	11890.97
650.059	11870.41
650.411	12106.11
650.763	12081.93
651.115	12119.67
651.467	12153.79
651.819	12217.07
652.171	12121.7
652.523	12152.43
652.875	12111.76
653.227	12050.06
653.578	12226.56
653.93	12076.28
654.282	12104.07
654.633	12097.07
654.985	12207.57
655.337	12143.62
655.688	12157.18
656.039	12215.71
656.391	12107.01
656.742	12158.76
657.094	12184.98
657.445	12175.94
657.796	12144.75
658.147	12088.26
658.498	12203.96
658.849	12226.56
659.2	12204.41
659.551	12197.41
659.902	12223.39
660.253	12110.18
660.604	12145.43
660.955	12111.31
661.306	12218.2
661.656	12213
662.007	12149.72
662.358	12241.47
662.708	12173.23
663.059	12218.87
663.409	12224.07
663.76	12278.31
664.11	12207.35
664.461	12270.85
664.811	12243.96
665.161	12198.54
665.511	12215.94
665.862	12210.96
666.212	12246.22
666.562	12276.95
666.912	12239.89
667.262	12191.3
667.612	12199.21
667.962	12212.55
668.312	12245.77
668.662	12311.3
669.011	12198.76
669.361	12268.14
669.711	12235.37
670.06	12208.03
670.41	12143.62
670.76	12196.95
671.109	12184.98
671.459	12128.48
671.808	12196.73
672.157	12184.07
672.507	12129.16
672.856	11979.33
673.205	12132.1
673.554	12151.76
673.904	12083.28
674.253	12230.4
674.602	12215.48
674.951	12013.68
675.3	11947.92
675.649	12109.5
675.998	12011.42
676.346	12005.32
676.695	12101.81
677.044	11997.86
677.393	12059.1
677.741	12010.52
678.09	12016.39
678.438	11951.99
678.787	12013.91
679.135	11909.73
679.484	11875.83
679.832	11944.3
680.181	11846.91
680.529	11902.27
680.877	11851.65
681.225	11765.33
681.573	11921.71
681.922	11814.36
682.27	11740.47
682.618	11738.66
682.966	11694.82
683.314	11690.53
683.661	11651.88
684.009	11601.26
684.357	11660.02
684.705	11552
685.053	11619.79
685.4	11550.64
685.748	11503.19
686.095	11518.1
686.443	11428.84
686.79	11497.76
687.138	11431.1
687.485	11433.13
687.832	11397.43
688.18	11427.48
688.527	11302.51
688.874	11351.55
689.221	11260.93
689.568	11180.71
689.915	11222.97
690.262	11175.06
690.609	11143.2
690.956	11099.36
691.303	11103.2
691.65	11080.15
691.997	11035.63
692.344	10912.02
692.69	10928.29
693.037	10943.2
693.383	10824.33
693.73	10833.83
694.077	10782.08
694.423	10780.04
694.769	10660.95
695.116	10700.72
695.462	10654.85
695.808	10636.32
696.155	10638.12
696.501	10574.62
696.847	10490.56
697.193	10436.77
697.539	10477
697.885	10394.97
698.231	10348.87
698.577	10354.52
698.923	10299.15
699.269	10290.34
699.614	10206.5
699.96	10182.09
700.306	10141.87
700.651	10146.16
700.997	10067.74
701.342	10075.43
701.688	10033.17
702.033	10004.47
702.379	9975.32
702.724	9916.34
703.069	9915.43
703.415	9791.37
703.76	9835.66
704.105	9808.99
704.45	9739.39
704.795	9738.03
705.14	9716.57
705.485	9601.54
705.83	9584.82
706.175	9594.08
706.52	9535.33
706.865	9495.33
707.209	9535.55
707.554	9433.64
707.899	9460.08
708.243	9495.78
708.588	9397.48
708.932	9353.19
709.277	9359.51
709.621	9293.53
709.966	9297.37
710.31	9258.95
710.654	9150.71
710.998	9226.64
711.342	9170.37
711.687	9173.98
712.031	9087.43
712.375	9082.91
712.719	9118.84
713.063	9144.38
713.407	9125.4
713.75	9025.96
714.094	9007.66
714.438	9006.08
714.782	9001.33
715.125	8960.43
715.469	8963.59
715.812	8920.66
716.156	8910.71
716.499	8893.76
716.843	8894.22
717.186	8772.86
717.53	8910.03
717.873	8943.48
718.216	8871.39
718.559	8797.49
718.902	8842.47
719.246	8823.71
719.589	8756.14
719.932	8728.8
720.275	8677.05
720.617	8729.02
720.96	8719.08
721.303	8645.18
721.646	8700.32
721.989	8647.22
722.331	8682.7
722.674	8710.27
723.016	8700.1
723.359	8669.14
723.701	8618.74
724.044	8591.85
724.386	8560.21
724.729	8630.49
725.071	8636.82
725.413	8540.1
725.755	8601.57
726.097	8560.44
726.439	8482.02
726.782	8561.57
727.124	8568.35
727.465	8544.39
727.807	8530.38
728.149	8470.05
728.491	8478.86
728.833	8477.96
729.175	8457.62
729.516	8512.53
729.858	8472.31
730.199	8508.91
730.541	8451.97
730.882	8442.48
731.224	8537.61
731.565	8456.71
731.906	8503.04
732.248	8490.84
732.589	8444.06
732.93	8457.16
733.271	8437.96
733.612	8461.91
733.953	8504.17
734.294	8476.6
734.635	8456.71
734.976	8511.63
735.317	8508.01
735.658	8416.94
735.999	8494.9
736.339	8550.95
736.68	8425.08
737.021	8482.93
737.361	8445.87
737.702	8581.46
738.042	8489.48
738.383	8477.73
738.723	8563.83
739.063	8505.07
739.404	8538.29
739.744	8619.87
740.084	8561.79
740.424	8614.9
740.764	8583.04
741.104	8574.22
741.444	8589.82
741.784	8574.22
742.124	8642.02
742.464	8672.3
742.804	8678.18
743.143	8658.97
743.483	8668.46
743.823	8610.61
744.162	8737.61
744.502	8769.02
744.841	8757.72
745.181	8805.4
745.52	8840.43
745.86	8910.94
746.199	8884.5
746.538	8980.99
746.877	9023.7
747.216	9015.57
747.556	9059.18
747.895	9142.34
748.234	9170.82
748.573	9218.27
748.911	9253.08
749.25	9373.3
749.589	9320.64
749.928	9487.65
750.267	9615.78
750.605	9592.05
750.944	9685.15
751.283	9805.38
751.621	9835.89
751.96	9873.17
752.298	9965.83
752.636	10075.88
752.975	10151.36
753.313	10283.33
753.651	10447.85
753.989	10506.15
754.327	10614.85
754.666	10712.7
755.004	10848.74
755.342	11019.81
755.679	11122.86
756.017	11223.87
756.355	11365.34
756.693	11491.44
757.031	11644.43
757.368	11706.12
757.706	11905.21
758.044	12062.49
758.381	12217.29
758.719	12427.68
759.056	12541.58
759.394	12734.34
759.731	12871.74
760.068	12983.37
760.405	13140.88
760.743	13291.39
761.08	13580.87
761.417	13690.7
761.754	13818.83
762.091	13974.99
762.428	14127.75
762.765	14200.52
763.102	14554.63
763.438	14643.89
763.775	14767.06
764.112	14962.76
764.449	15166.59
764.785	15237.33
765.122	15391.22
765.458	15533.81
765.795	15723.64
766.131	15800.02
766.467	16002.95
766.804	16213.12
767.14	16187.58
767.476	16369.27
767.812	16596.16
768.148	16714.12
768.485	16771.75
768.821	16969.94
769.157	17031.63
769.492	17217.84
769.828	17385.07
770.164	17290.83
770.5	17562.46
770.836	17685.62
771.171	17669.13
771.507	17824.38
771.842	17839.52
772.178	17969.68
772.513	18058.95
772.849	18051.49
773.184	18227.08
773.519	18324.48
773.855	18328.32
774.19	18423.68
774.525	18398.6
774.86	18667.52
775.195	18705.03
775.53	18629.33
775.865	18599.72
776.2	18724.24
776.535	18679.27
776.87	18747.74
777.205	18846.04
777.539	18784.58
777.874	18915.65
778.209	18806.5
778.543	19008.53
778.878	19027.28
779.212	19042.65
779.547	18941.63
779.881	19110.22
780.215	19020.73
780.55	19026.83
780.884	19003.33
781.218	19048.98
781.552	19149.54
781.886	19131.46
782.22	19051.24
782.554	19165.58
782.888	18967.17
783.222	18952.93
783.556	18887.62
783.889	18887.62
784.223	18882.2
784.557	18898.02
784.89	18975.98
785.224	18866.83
785.557	18820.73
785.891	18779.61
786.224	18899.6
786.558	18891.69
786.891	18717.91
787.224	18675.65
787.557	18682.88
787.891	18782.77
788.224	18724.47
788.557	18749.78
788.89	18764.24
789.223	18779.61
789.556	18738.7
789.888	18577.12
790.221	18640.4
790.554	18517.92
790.887	18569.22
791.219	18404.25
791.552	18527.41
791.884	18371.25
792.217	18393.17
792.549	18405.6
792.882	18319.28
793.214	18322.22
793.546	18291.03
793.879	18152.95
794.211	18075.89
794.543	18157.7
794.875	18140.3
795.207	18184.82
795.539	18064.37
795.871	18066.18
796.203	17973.07
796.535	17903.47
796.867	17904.6
797.198	17819.4
797.53	17898.95
797.862	17740.08
798.193	17751.38
798.525	17575.57
798.856	17723.14
799.188	17509.81
799.519	17503.71
799.85	17357.27
800.182	17363.37
800.513	17455.57
800.844	17246.09
801.175	17448.34
801.506	17442.92
801.837	17250.38
802.168	17232.3
802.499	17243.15
802.83	17193.66
803.161	17160.44
803.491	17111.4
803.822	17157.27
804.153	17056.71
804.483	16868.02
804.814	16839.09
805.145	16772.2
805.475	16909.37
805.805	16729.04
806.136	16793.67
806.466	16785.53
806.796	16765.42
807.126	16586.67
807.457	16634.35
807.787	16480.46
808.117	16464.41
808.447	16527.69
808.777	16514.13
809.107	16463.28
809.436	16319.33
809.766	16332.89
810.096	16343.06
810.426	16272.78
810.755	16342.16
811.085	16253.12
811.414	16232.78
811.744	16149.62
812.073	16081.14
812.403	16153.23
812.732	16074.59
813.061	16056.51
813.39	15928.15
813.719	15929.28
814.049	15972.45
814.378	15890.42
814.707	15869.4
815.036	15861.26
815.365	15853.13
815.693	15712.34
816.022	15576.53
816.351	15624.43
816.68	15605.23
817.008	15615.17
817.337	15619.24
817.665	15480.48
817.994	15544.89
818.322	15427.15
818.651	15473.48
818.979	15388.28
819.307	15410.65
819.636	15469.18
819.964	15323.65
820.292	15406.59
820.62	15320.49
820.948	15260.15
821.276	15362.07
821.604	15259.25
821.932	15304.44
822.259	15324.55
822.587	15281.84
822.915	15277.78
823.243	15287.04
823.57	15287.95
823.898	15237.33
824.225	15244.78
824.553	15203.2
824.88	15222.41
825.207	15307.15
825.535	15337.21
825.862	15345.12
826.189	15332.46
826.516	15306.7
826.843	15381.28
827.17	15312.35
827.497	15295.63
827.824	15262.18
828.151	15376.76
828.478	15305.35
828.805	15341.5
829.131	15339.47
829.458	15328.17
829.785	15211.56
830.111	15222.86
830.438	15459.24
830.764	15334.27
831.09	15466.7
831.417	15251.11
831.743	15313.48
832.069	15212.47
832.395	15216.99
832.722	15263.31
833.048	15297.21
833.374	15269.87
833.7	15132.7
834.026	15248.17
834.351	15272.8
834.677	15198.23
835.003	15212.24
835.329	15202.75
835.654	15129.98
835.98	15059.48
836.306	15166.14
836.631	15086.14
836.956	15131.34
837.282	15124.79
837.607	15071.91
837.932	14981.74
838.258	15014.28
838.583	14967.28
838.908	14878.01
839.233	14973.15
839.558	14901.29
839.883	14869.43
840.208	14814.51
840.533	14852.25
840.858	14795.3
841.182	14782.42
841.507	14734.97
841.832	14706.72
842.156	14603.9
842.481	14614.06
842.805	14606.83
843.13	14647.51
843.454	14604.57
843.778	14467.63
844.103	14410.68
844.427	14392.83
844.751	14454.3
845.075	14287.75
845.399	14364.81
845.723	14245.94
846.047	14318.25
846.371	14190.12
846.695	14202.32
847.019	14106.06
847.343	13993.97
847.666	13964.82
847.99	13882.33
848.313	13938.83
848.637	13788.1
848.96	13779.74
849.284	13650.47
849.607	13682.79
849.931	13632.85
850.254	13526.41
850.577	13500.87
850.9	13410.03
851.223	13367.54
851.546	13280.99
851.869	13170.26
852.192	13264.5
852.515	13154.67
852.838	13082.35
853.161	13069.47
853.483	12943.37
853.806	12982.24
854.129	12927.1
854.451	12938.63
854.774	12759.88
855.096	12845.52
855.419	12808.01
855.741	12779.08
856.063	12629.48
856.385	12609.15
856.708	12607.79
857.03	12539.54
857.352	12607.56
857.674	12502.26
857.996	12507.91
858.318	12376.16
858.64	12380.68
858.961	12392.43
859.283	12304.97
859.605	12282.6
859.926	12322.83
860.248	12264.97
860.57	12158.76
860.891	12165.99
861.212	12141.81
861.534	12030.86
861.855	12012.55
862.176	12043.51
862.498	12054.58
862.819	12048.03
863.14	11976.39
863.461	11975.04
863.782	11899.11
864.103	11878.32
864.424	11860.01
864.745	11877.64
865.065	11849.84
865.386	11758.55
865.707	11728.72
866.027	11720.81
866.348	11827.92
866.668	11792.44
866.989	11688.94
867.309	11613.24
867.63	11665.44
867.95	11672.22
868.27	11559.91
868.59	11631.09
868.91	11579.79
869.23	11565.33
869.55	11473.58
869.87	11572.11
870.19	11526.91
870.51	11563.75
870.83	11506.12
871.15	11467.93
871.469	11498.89
871.789	11468.16
872.109	11466.13
872.428	11402.17
872.748	11448.72
873.067	11352.46
873.386	11395.39
873.706	11359.01
874.025	11333.02
874.344	11240.59
874.663	11278.11
874.982	11227.04
875.301	11280.82
875.62	11152.91
875.939	11182.97
876.258	11210.76
876.577	11155.4
876.896	11131.22
877.214	11111.33
877.533	11076.76
877.852	11180.48
878.17	11066.81
878.489	11047.83
878.807	11008.74
879.125	10981.17
879.444	11066.59
879.762	10980.26
880.08	11058.23
880.398	10945.91
880.716	10947.49
881.034	10864.11
881.352	10911.34
881.67	10885.35
881.988	10858.46
882.306	10843.32
882.624	10754.73
882.941	10719.25
883.259	10722.19
883.577	10692.59
883.894	10717.9
884.212	10661.17
884.529	10667.95
884.846	10591.12
885.164	10648.29
885.481	10521.52
885.798	10612.36
886.115	10516.77
886.432	10458.92
886.75	10468.64
887.067	10449.88
887.383	10404.01
887.7	10437.68
888.017	10351.8
888.334	10369.43
888.651	10309.32
888.967	10279.94
889.284	10238.36
889.6	10254.86
889.917	10164.01
890.233	10161.3
890.55	10183.67
890.866	10161.75
891.182	10143.67
891.498	10009.67
891.815	9985.26
892.131	9987.97
892.447	9974.19
892.763	9934.87
893.079	9889.22
893.395	9825.72
893.71	9891.03
894.026	9773.97
894.342	9773.74
894.657	9696
894.973	9743.23
895.289	9747.07
895.604	9684.03
895.92	9594.08
896.235	9563.8
896.55	9547.76
896.865	9587.08
897.181	9502.56
897.496	9545.95
897.811	9396.57
898.126	9430.02
898.441	9396.12
898.756	9305.05
899.071	9274.32
899.386	9310.48
899.7	9170.37
900.015	9129.69
900.33	9017.15
900.644	9121.33
900.959	9116.36
901.273	9044.04
901.588	9029.35
901.902	8944.16
902.216	8959.52
902.531	8901.45
902.845	8843.37
903.159	8915.01
903.473	8851.73
903.787	8774.44
904.101	8698.97
904.415	8703.26
904.729	8645.63
905.042	8664.16
905.356	8642.02
905.67	8690.83
905.984	8552.08
906.297	8492.42
906.611	8489.93
906.924	8478.63
907.237	8443.38
907.551	8440.89
907.864	8362.7
908.177	8376.26
908.491	8313.89
908.804	8311.86
909.117	8221.46
909.43	8235.02
909.743	8160
910.056	8122.26
910.368	8127.91
910.681	8037.74
910.994	8023.5
911.307	8030.96
911.619	7910.51
911.932	7984.18
912.244	7909.83
912.557	7878.42
912.869	7775.83
913.181	7774.02
913.494	7691.99
913.806	7679.78
914.118	7694.7
914.43	7619.22
914.742	7641.82
915.054	7608.37
915.366	7548.94
915.678	7497.19
915.99	7480.47
916.302	7405.89
916.613	7426.46
916.925	7402.73
917.236	7360.02
917.548	7353.92
917.859	7339.45
918.171	7286.12
918.482	7275.73
918.794	7233.92
919.105	7219.01
919.416	7166.13
919.727	7162.06
920.038	7204.77
920.349	7028.95
920.66	7055.17
920.971	7038.44
921.282	6997.54
921.593	7012.91
921.903	6920.26
922.214	6931.78
922.525	6871.44
922.835	6880.93
923.146	6815.63
923.456	6813.37
923.767	6781.95
924.077	6739.7
924.387	6713.93
924.697	6646.36
925.008	6647.49
925.318	6609.76
925.628	6632.58
925.938	6607.72
926.248	6530.44
926.558	6479.14
926.867	6488.85
927.177	6454.51
927.487	6415.18
927.796	6356.65
928.106	6393.94
928.416	6382.64
928.725	6319.37
929.034	6350.55
929.344	6322.76
929.653	6288.41
929.962	6195.76
930.271	6187.85
930.581	6187.17
930.89	6118.47
931.199	6102.65
931.508	6101.29
931.817	6105.36
932.125	6068.98
932.434	6074.4
932.743	6028.53
933.051	5965.93
933.36	5937
933.669	5921.86
933.977	5925.48
934.286	5914.41
934.594	5873.28
934.902	5888.42
935.21	5841.41
935.519	5773.85
935.827	5743.34
936.135	5761.19
936.443	5670.35
936.751	5671.25
937.059	5678.48
937.367	5605.49
937.674	5650.23
937.982	5607.07
938.29	5568.43
938.597	5565.26
938.905	5509.9
939.213	5481.42
939.52	5452.27
939.827	5413.85
940.135	5425.15
940.442	5391.71
940.749	5384.7
941.056	5323.01
941.363	5339.51
941.67	5333.4
941.977	5297.93
942.284	5269.23
942.591	5261.09
942.898	5200.75
943.205	5210.02
943.511	5175.89
943.818	5200.08
944.125	5132.05
944.431	5115.33
944.738	5066.75
945.044	5040.98
945.35	5039.18
945.657	4959.18
945.963	5000.98
946.269	4938.39
946.575	5005.96
946.881	4902
947.187	4914.88
947.493	4888.9
947.799	4905.39
948.105	4820.2
948.41	4820.2
948.716	4893.42
949.022	4809.35
949.327	4786.98
949.633	4758.5
949.938	4742.23
950.244	4762.8
950.549	4732.52
950.854	4691.84
951.16	4617.49
951.465	4620.66
951.77	4605.97
952.075	4610.94
952.38	4593.54
952.685	4549.47
952.99	4540.66
953.294	4518.74
953.599	4498.17
953.904	4478.29
954.209	4415.46
954.513	4466.31
954.818	4426.99
955.122	4386.09
955.426	4380.44
955.731	4392.41
956.035	4349.25
956.339	4340.21
956.643	4325.75
956.948	4260.66
957.252	4296.82
957.556	4235.81
957.86	4221.34
958.163	4220.89
958.467	4222.93
958.771	4206.88
959.075	4152.87
959.378	4109.03
959.682	4149.03
959.985	4065.42
960.289	4089.37
960.592	4063.38
960.896	4052.31
961.199	4012.08
961.502	4046.43
961.805	3989.26
962.108	3997.85
962.411	3928.02
962.714	3953.78
963.017	3935.93
963.32	3917.17
963.623	3906.55
963.926	3883.5
964.228	3880.79
964.531	3820.68
964.833	3823.84
965.136	3806.44
965.438	3799.43
965.741	3769.83
966.043	3757.85
966.345	3742.94
966.648	3685.76
966.95	3685.31
967.252	3669.49
967.554	3672.88
967.856	3650.29
968.158	3603.51
968.46	3602.6
968.761	3589.95
969.063	3592.89
969.365	3578.65
969.666	3599.21
969.968	3521.93
970.269	3541.59
970.571	3516.05
970.872	3448.48
971.174	3479.89
971.475	3496.17
971.776	3497.75
972.077	3444.64
972.378	3436.73
972.679	3424.53
972.98	3423.85
973.281	3418.88
973.582	3361.71
973.883	3320.12
974.183	3286.23
974.484	3305.66
974.785	3320.8
975.085	3307.02
975.386	3313.35
975.686	3267.24
975.986	3233.57
976.287	3266.34
976.587	3237.19
976.887	3222.27
977.187	3231.77
977.487	3219.79
977.787	3162.39
978.087	3179.79
978.387	3151.77
978.687	3159.45
978.987	3133.91
979.286	3095.72
979.586	3059.11
979.885	3072.45
980.185	3049.62
980.484	3060.24
980.784	3056.63
981.083	3038.78
981.382	3006.46
981.682	2994.94
981.981	2981.83
982.28	2969.85
982.579	2963.98
982.878	2961.04
983.177	2898.44
983.475	2905.45
983.774	2905.22
984.073	2870.87
984.372	2877.2
984.67	2851.66
984.969	2877.2
985.267	2842.4
985.566	2828.84
985.864	2811.89
986.162	2793.36
986.461	2739.12
986.759	2754.04
987.057	2751.1
987.355	2714.72
987.653	2711.55
987.951	2707.94
988.249	2693.7
988.547	2689.86
988.844	2700.71
989.142	2693.7
989.44	2678.56
989.737	2641.95
990.035	2606.02
990.332	2626.81
990.63	2634.27
990.927	2600.14
991.224	2562.18
991.521	2578.68
991.819	2546.59
992.116	2568.05
992.413	2554.04
992.71	2529.18
993.006	2510.65
993.303	2493.71
993.6	2493.93
993.897	2497.77
994.193	2448.51
994.49	2464.55
994.787	2430.2
995.083	2423.65
995.379	2420.94
995.676	2403.31
995.972	2384.78
996.268	2389.3
996.565	2378
996.861	2351.11
997.157	2404.22
997.453	2376.65
997.749	2302.52
998.044	2310.66
998.34	2326.7
998.636	2287.61
998.932	2247.61
999.227	2212.81
999.523	2251.45
999.818	2227.72
1000.114	2197.67
1000.409	2229.98
1000.704	2193.15
1001	2197.22
1001.295	2177.56
1001.59	2175.97
1001.885	2173.94
1002.18	2176.2
1002.475	2130.78
1002.77	2109.08
1003.065	2105.47
1003.359	2103.43
1003.654	2060.27
1003.949	2046.26
1004.243	2058.24
1004.538	2045.36
1004.832	2039.71
1005.127	2033.6
1005.421	2019.37
1005.715	1964
1006.009	2006.03
1006.304	1965.36
1006.598	1959.71
1006.892	1957.9
1007.186	1946.15
1007.48	1964.91
1007.773	1923.78
1008.067	1969.88
1008.361	1932.59
1008.655	1905.25
1008.948	1879.48
1009.242	1869.32
1009.535	1888.3
1009.829	1855.76
1010.122	1832.48
1010.415	1832.48
1010.708	1842.42
1011.001	1808.53
1011.295	1789.77
1011.588	1801.07
1011.881	1757.68
1012.173	1774.85
1012.466	1743.89
1012.759	1731.01
1013.052	1738.25
1013.344	1698.92
1013.637	1731.47
1013.93	1712.94
1014.222	1702.99
1014.514	1706.16
1014.807	1676.78
1015.099	1654.86
1015.391	1650.34
1015.683	1632.26
1015.976	1660.51
1016.268	1651.92
1016.56	1613.05
1016.851	1610.79
1017.143	1614.41
1017.435	1583
1017.727	1579.61
1018.018	1575.99
1018.31	1563.33
1018.602	1538.7
1018.893	1528.08
1019.185	1525.14
1019.476	1534.63
1019.767	1503.68
1020.058	1468.2
1020.35	1487.63
1020.641	1488.08
1020.932	1449.67
1021.223	1464.13
1021.514	1473.85
1021.804	1423.68
1022.095	1439.04
1022.386	1434.07
1022.677	1413.28
1022.967	1432.26
1023.258	1389.55
1023.548	1403.56
1023.839	1381.19
1024.129	1368.31
1024.419	1375.09
1024.709	1351.81
1025	1326.96
1025.29	1325.83
1025.58	1347.3
1025.87	1320.4
1026.16	1293.29
1026.449	1281.99
1026.739	1304.13
1027.029	1249.67
1027.319	1273.85
1027.608	1269.78
1027.898	1256.45
1028.187	1250.57
1028.477	1252.38
1028.766	1256.22
1029.055	1204.25
1029.344	1228.2
1029.634	1216.68
1029.923	1190.01
1030.212	1185.72
1030.501	1175.32
1030.79	1163.12
1031.078	1160.86
1031.367	1152.05
1031.656	1158.6
1031.945	1156.34
1032.233	1131.26
1032.522	1141.42
1032.81	1114.98
1033.099	1129.22
1033.387	1111.82
1033.675	1081.77
1033.963	1090.8
1034.251	1089.9
1034.54	1061.2
1034.828	1078.83
1035.116	1063.91
1035.403	1053.52
1035.691	1062.56
1035.979	1039.96
1036.267	1039.05
1036.554	1010.81
1036.842	1020.07
1037.129	1034.08
1037.417	993.63
1037.704	1038.6
1037.992	990.02
1038.279	971.03
1038.566	977.81
1038.853	977.81
1039.14	977.81
