Data from hue_38_FLMS001491_00066.txt Node
Date: Tue Feb 07 17:31:49 GMT 2017
User: dcchb
Spectrometer: FLMS00149
Trigger mode: 0
Integration Time (sec): 2.000000E-2
Scans to average: 10
Electric dark correction enabled: true
Nonlinearity correction enabled: false
Boxcar width: 0
XAxis mode: Wavelengths
Number of Pixels in Spectrum: 2048
>>>>>Begin Spectral Data<<<<<
341.393	-1.51
341.776	-1.51
342.16	-1.51
342.543	-52.36
342.927	-59.59
343.31	-64.56
343.693	-49.65
344.077	-59.81
344.46	-72.24
344.843	-38.8
345.226	-54.84
345.61	-40.38
345.993	-11.91
346.376	-8.06
346.759	15.44
347.142	18.6
347.525	47.98
347.908	43.01
348.291	77.81
348.674	88.88
349.057	108.54
349.44	134.76
349.823	143.57
350.206	171.82
350.588	204.13
350.971	203.91
351.354	221.99
351.737	245.04
352.119	263.34
352.502	277.58
352.884	292.72
353.267	280.97
353.65	309.44
354.032	307.41
354.414	320.51
354.797	335.43
355.179	330.91
355.562	333.62
355.944	351.93
356.326	326.16
356.709	335.2
357.091	341.3
357.473	340.63
357.855	344.69
358.238	363.22
358.62	355.54
359.002	342.66
359.384	359.38
359.766	357.35
360.148	347.63
360.53	335.88
360.912	340.17
361.294	349.44
361.676	347.41
362.057	315.09
362.439	347.63
362.821	359.38
363.203	332.72
363.584	318.03
363.966	328.88
364.348	341.76
364.729	343.11
365.111	316.45
365.493	335.43
365.874	328.42
366.256	366.39
366.637	320.51
367.019	305.83
367.4	308.76
367.781	317.8
368.163	313.06
368.544	332.49
368.925	322.1
369.306	338.37
369.688	328.42
370.069	330.91
370.45	320.51
370.831	322.1
371.212	314.19
371.593	317.12
371.974	327.29
372.355	326.84
372.736	330.23
373.117	318.25
373.498	314.19
373.879	313.96
374.26	315.54
374.641	316.45
375.021	349.67
375.402	328.88
375.783	325.49
376.163	314.41
376.544	335.2
376.925	330.01
377.305	344.02
377.686	323.45
378.066	335.66
378.447	351.25
378.827	320.51
379.208	350.12
379.588	360.06
379.968	351.7
380.349	335.43
380.729	334.75
381.109	341.98
381.489	372.72
381.87	342.89
382.25	366.84
382.63	358.71
383.01	339.27
383.39	351.93
383.77	378.37
384.15	356.45
384.53	354.64
384.91	357.35
385.29	354.64
385.67	342.21
386.049	363.22
386.429	371.59
386.809	377.24
387.189	370.68
387.568	340.63
387.948	369.33
388.328	370
388.707	358.03
389.087	380.4
389.466	366.61
389.846	396.44
390.225	379.04
390.605	385.37
390.984	390.79
391.363	368.65
391.743	376.33
392.122	383.34
392.501	374.07
392.881	384.92
393.26	383.79
393.639	389.89
394.018	385.6
394.397	401.19
394.776	412.72
395.155	405.48
395.534	393.28
395.913	375.2
396.292	396.44
396.671	405.94
397.05	405.03
397.429	382.43
397.808	400.06
398.186	397.57
398.565	407.52
398.944	409.55
399.323	429.89
399.701	397.57
400.08	404.81
400.458	424.92
400.837	418.36
401.215	421.53
401.594	420.17
401.972	403
402.351	414.97
402.729	433.05
403.107	425.37
403.486	422.88
403.864	432.6
404.242	437.8
404.62	421.98
404.999	426.05
405.377	459.95
405.755	429.21
406.133	447.29
406.511	428.53
406.889	443.45
407.267	454.97
407.645	453.84
408.023	453.62
408.401	462.88
408.779	467.18
409.156	443.22
409.534	454.52
409.912	465.6
410.29	502.88
410.667	467.4
411.045	481.41
411.422	480.06
411.8	484.58
412.178	478.48
412.555	506.72
412.933	499.72
413.31	506.27
413.687	489.78
414.065	505.14
414.442	497.91
414.819	521.64
415.197	515.31
415.574	515.54
415.951	537.68
416.328	518.93
416.705	516.67
417.082	533.84
417.46	544.01
417.837	526.61
418.214	551.47
418.591	533.62
418.967	555.54
419.344	548.53
419.721	550.56
420.098	556.67
420.475	551.02
420.852	555.76
421.228	560.06
421.605	558.7
421.982	556.44
422.358	574.74
422.735	569.55
423.111	584.46
423.488	579.49
423.864	571.58
424.241	606.61
424.617	602.31
424.994	603.9
425.37	613.39
425.746	598.02
426.123	607.74
426.499	612.71
426.875	610.45
427.251	625.36
427.627	630.11
428.003	626.95
428.379	625.59
428.756	636.44
429.132	662.2
429.507	653.16
429.883	645.25
430.259	663.56
430.635	650.45
431.011	666.49
431.387	667.4
431.763	673.5
432.138	691.13
432.514	677.79
432.89	686.61
433.265	726.38
433.641	716.66
434.016	720.5
434.392	741.29
434.767	713.72
435.143	739.03
435.518	743.33
435.894	765.25
436.269	753.95
436.644	758.02
437.02	761.41
437.395	791.69
437.77	796.66
438.145	790.11
438.52	785.81
438.895	801.63
439.271	784.91
439.646	808.18
440.021	825.13
440.395	834.4
440.77	824.23
441.145	802.08
441.52	826.94
441.895	841.4
442.27	845.02
442.645	854.96
443.019	850.22
443.394	838.24
443.769	878.69
444.143	851.8
444.518	882.08
444.892	868.75
445.267	883.66
445.641	889.99
446.016	889.54
446.39	894.51
446.764	919.59
447.139	879.37
447.513	914.4
447.887	899.48
448.262	926.37
448.636	915.3
449.01	932.48
449.384	905.58
449.758	944.23
450.132	968.41
450.506	945.36
450.88	948.97
451.254	965.92
451.628	977.9
452.002	969.99
452.376	977.22
452.75	990.55
453.123	995.98
453.497	1010.67
453.871	1002.08
454.244	1033.49
454.618	1034.39
454.992	1038.69
455.365	1033.26
455.739	1071.45
456.112	1086.14
456.486	1094.96
456.859	1086.37
457.232	1138.35
457.606	1120.27
457.979	1136.54
458.352	1176.08
458.725	1136.09
459.099	1172.02
459.472	1193.71
459.845	1207.5
460.218	1216.31
460.591	1242.75
460.964	1222.86
461.337	1261.51
461.71	1287.04
462.083	1287.27
462.456	1298.34
462.829	1301.73
463.201	1323.65
463.574	1329.75
463.947	1349.87
464.32	1383.31
464.692	1374.95
465.065	1417.66
465.438	1404.78
465.81	1447.04
466.183	1454.27
466.555	1499.69
466.928	1492.23
467.3	1498.79
467.672	1513.03
468.045	1583.53
468.417	1578.56
468.789	1563.42
469.161	1634.6
469.534	1649.52
469.906	1671.21
470.278	1689.97
470.65	1742.85
471.022	1749.18
471.394	1740.59
471.766	1806.12
472.138	1861.26
472.51	1870.08
472.882	1928.83
473.253	1930.19
473.625	1965.22
473.997	1972.45
474.369	2017.42
474.74	2056.29
475.112	2144.87
475.484	2155.49
475.855	2210.18
476.227	2246.57
476.598	2318.65
476.97	2351.65
477.341	2421.93
477.713	2451.76
478.084	2491.3
478.455	2569.95
478.827	2599.32
479.198	2696.5
479.569	2725.65
479.94	2816.49
480.311	2871.63
480.682	2957.73
481.053	3063.49
481.424	3126.77
481.795	3185.52
482.166	3251.51
482.537	3331.28
482.908	3360.43
483.279	3454.44
483.65	3553.88
484.021	3663.7
484.391	3742.57
484.762	3754.32
485.133	3880.42
485.503	3975.33
485.874	4051.94
486.244	4142.56
486.615	4244.93
486.985	4330.35
487.356	4439.05
487.726	4553.62
488.097	4657.58
488.467	4711.36
488.837	4808.53
489.207	4981.63
489.578	5085.59
489.948	5171.69
490.318	5277.9
490.688	5356.77
491.058	5425.69
491.428	5597.89
491.798	5647.38
492.168	5804.89
492.538	5864.78
492.908	6056.86
493.278	6129.63
493.648	6143.86
494.017	6308.15
494.387	6354.48
494.757	6509.73
495.126	6584.53
495.496	6685.32
495.866	6796.95
496.235	6899.1
496.605	6987.46
496.974	7063.16
497.344	7168.02
497.713	7229.49
498.082	7338.18
498.452	7490.04
498.821	7540.89
499.19	7626.31
499.559	7721.22
499.928	7795.35
500.298	7855.46
500.667	8020.2
501.036	8035.34
501.405	8185.62
501.774	8233.07
502.143	8313.75
502.512	8351.49
502.88	8443.69
503.249	8497.02
503.618	8594.87
503.987	8685.94
504.356	8762.1
504.724	8877.13
505.093	8895.88
505.462	8910.34
505.83	9065.14
506.199	9225.59
506.567	9306.04
506.936	9283.67
507.304	9415.87
507.672	9509.43
508.041	9570.67
508.409	9589.2
508.777	9714.62
509.145	9832.81
509.514	9804.56
509.882	9871.68
510.25	9949.41
510.618	10138.79
510.986	10087.71
511.354	10185.11
511.722	10307.14
512.09	10464.2
512.458	10409.74
512.826	10520.47
513.193	10622.16
513.561	10611.54
513.929	10682.5
514.297	10756.85
514.664	10880.24
515.032	10952.55
515.4	11090.17
515.767	11117.74
516.135	11199.1
516.502	11098.54
516.869	11276.84
517.237	11376.27
517.604	11350.73
517.972	11478.19
518.339	11501.46
518.706	11503.5
519.073	11587.79
519.44	11721.34
519.808	11819.42
520.175	11820.55
520.542	11966.54
520.909	12043.82
521.276	12031.39
521.643	12216.25
522.009	12237.49
522.376	12331.72
522.743	12421.89
523.11	12509.12
523.477	12614.88
523.843	12706.18
524.21	12783.46
524.577	12835.44
524.943	13020.07
525.31	13031.82
525.676	13191.81
526.043	13220.97
526.409	13196.33
526.776	13402.88
527.142	13463.22
527.508	13481.75
527.874	13567.85
528.241	13691.24
528.607	13730.78
528.973	13770.56
529.339	13866.37
529.705	13966.26
530.071	14110.89
530.437	14106.37
530.803	14145.91
531.169	14318.56
531.535	14315.63
531.901	14355.63
532.267	14534.6
532.632	14473.59
532.998	14558.78
533.364	14667.71
533.73	14793.35
534.095	14761.26
534.461	14881.71
534.826	14938.66
535.192	15038.09
535.557	15161.71
535.923	15125.77
536.288	15177.52
536.653	15272.21
537.019	15289.61
537.384	15291.87
537.749	15390.17
538.114	15409.61
538.479	15474.24
538.845	15600.11
539.21	15544.07
539.575	15686.21
539.94	15783.38
540.305	15858.41
540.67	15775.02
541.034	15842.37
541.399	15920.1
541.764	15974.79
542.129	16002.59
542.494	16129.36
542.858	16233.77
543.223	16155.13
543.587	16308.34
543.952	16281.9
544.316	16483.25
544.681	16544.72
545.045	16597.15
545.41	16646.19
545.774	16775
546.138	16788.78
546.503	16789.23
546.867	16827.2
547.231	16984.93
547.595	17045.72
547.959	17139.51
548.324	17125.04
548.688	17141.77
549.052	17254.76
549.416	17353.74
549.779	17240.52
550.143	17333.85
550.507	17466.05
550.871	17591.25
551.235	17483.9
551.599	17617.91
551.962	17689.1
552.326	17709.66
552.689	17692.94
553.053	17798.92
553.417	17792.15
553.78	18023.1
554.143	17980.39
554.507	18109.88
554.87	18066.04
555.234	18379.47
555.597	18197.11
555.96	18303.09
556.323	18487.95
556.686	18424.44
557.05	18556.64
557.413	18583.31
557.776	18653.14
558.139	18740.59
558.502	18720.48
558.865	18864.43
559.228	18944.88
559.59	18991.89
559.953	19012.45
560.316	19245.67
560.679	19244.99
561.041	19355.72
561.404	19412.44
561.767	19549.39
562.129	19440.01
562.492	19686.56
562.854	19658.54
563.217	19565.88
563.579	19659.44
563.941	19846.78
564.304	19918.42
564.666	20016.04
565.028	20139.88
565.39	20117.28
565.753	20239.31
566.115	20355.47
566.477	20391.4
566.839	20412.64
567.201	20558.4
567.563	20564.5
567.925	20724.05
568.287	20759.75
568.648	20810.14
569.01	21026.41
569.372	21043.81
569.734	21023.7
570.095	21167.42
570.457	21263.69
570.819	21321.09
571.18	21270.92
571.542	21445.61
571.903	21574.64
572.265	21617.36
572.626	21731.25
572.987	21785.26
573.349	21895.31
573.71	22102.31
574.071	22129.43
574.432	22192.03
574.794	22404.45
575.155	22423.21
575.516	22463.89
575.877	22602.64
576.238	22627.72
576.599	22803.54
576.96	22833.14
577.32	22955.85
577.681	23242.85
578.042	23282.85
578.403	23363.98
578.763	23423.41
579.124	23598.77
579.485	23782.04
579.845	24108.14
580.206	24015.26
580.566	24227.46
580.927	24325.98
581.287	24694.34
581.648	24646.88
582.008	24927.78
582.368	25005.97
582.728	25168.67
583.089	25304.94
583.449	25542.9
583.809	25693.86
584.169	25887.75
584.529	25989.44
584.889	26438.92
585.249	26393.73
585.609	26466.95
585.969	26812.7
586.329	27004.78
586.688	27223.31
587.048	27363.64
587.408	27580.14
587.768	27816.97
588.127	27884.99
588.487	28060.8
588.846	28536.95
589.206	28512.77
589.565	28719.54
589.925	29090.83
590.284	29062.81
590.643	29309.13
591.003	29846.52
591.362	29939.85
591.721	29986.85
592.08	30255.09
592.44	30483.11
592.799	30691.24
593.158	30898.24
593.517	31220.94
593.876	31376.19
594.235	31434.05
594.593	31713.14
594.952	32008.04
595.311	31947.93
595.67	32330.52
596.029	32694.8
596.387	32849.83
596.746	33154.23
597.104	33148.35
597.463	33367.78
597.822	33686.87
598.18	33821.33
598.538	34018.61
598.897	34268.32
599.255	34214.76
599.613	34745.82
599.972	34718.48
600.33	34995.99
600.688	35027.85
601.046	35255.41
601.404	35685.46
601.762	35714.39
602.12	35990.08
602.478	36226.24
602.836	36308.49
603.194	36169.29
603.552	36405.22
603.91	36472.78
604.268	36778.76
604.625	36876.84
604.983	37184.63
605.341	37127.91
605.698	37482.02
606.056	37541
606.413	37599.76
606.771	37878.4
607.128	38035.68
607.485	37936.47
607.843	38166.07
608.2	38540.53
608.557	38726.51
608.914	38681.31
609.272	38912.49
609.629	39072.72
609.986	39204.46
610.343	39228.87
610.7	39585.92
611.057	39417.79
611.414	39771.91
611.771	39843.09
612.127	40051.45
612.484	40056.42
612.841	40283.53
613.198	40237.66
613.554	40457.09
613.911	40695.05
614.267	40701.6
614.624	40773.46
614.98	40929.16
615.337	41192.89
615.693	41115.83
616.05	41295.03
616.406	41485.31
616.762	41355.59
617.118	41471.75
617.475	41629.48
617.831	41743.15
618.187	41817.05
618.543	41967.33
618.899	42115.8
619.255	42187.44
619.611	42063.37
619.967	42435.79
620.323	42511.04
620.678	42354.21
621.034	42323.25
621.39	42432.4
621.746	42413.42
622.101	43050.69
622.457	42626.07
622.812	42856.12
623.168	43012.95
623.523	42906.97
623.879	43045.72
624.234	42947.87
624.589	43076.45
624.945	43095.21
625.3	43086.17
625.655	43101.31
626.01	43256.56
626.365	43189.9
626.72	43250.91
627.075	43248.65
627.43	43406.39
627.785	43307.18
628.14	43412.49
628.495	43485.48
628.85	43318.93
629.205	43387.18
629.559	43615.87
629.914	43423.56
630.269	43612.94
630.623	43481.87
630.978	43428.99
631.332	43611.58
631.687	43619.71
632.041	43462.2
632.396	43537.68
632.75	43465.14
633.104	43508.76
633.459	43342.43
633.813	43414.3
634.167	43363.45
634.521	43382.66
634.875	43441.64
635.229	43504.69
635.583	43414.52
635.937	43461.98
636.291	43398.48
636.645	43590.11
636.999	43308.99
637.352	43442.54
637.706	43285.26
638.06	43251.36
638.413	43270.8
638.767	43248.88
639.121	43330.68
639.474	43098.37
639.828	43122.1
640.181	43173.17
640.534	43134.98
640.888	43033.29
641.241	42979.05
641.594	42967.53
641.947	43199.84
642.301	42998.49
642.654	43146.96
643.007	43085.04
643.36	43066.51
643.713	43054.98
644.066	43247.97
644.419	42813.86
644.771	42555.34
645.124	42156.25
645.477	42135.46
645.83	41928.01
646.182	42017.27
646.535	41796.03
646.888	41886.88
647.24	41604.85
647.593	41837.61
647.945	41785.64
648.298	41742.02
648.65	41618.41
649.002	41504.97
649.355	41665.87
649.707	41654.57
650.059	41784.51
650.411	42347.21
650.763	42306.08
651.115	42732.51
651.467	42567.54
651.819	42563.47
652.171	42434.44
652.523	42307.66
652.875	42273.31
653.227	42177.72
653.578	42412.74
653.93	42357.37
654.282	42203.03
654.633	42037.16
654.985	42181.11
655.337	42274.44
655.688	42160.09
656.039	42385.4
656.391	42093.2
656.742	42172.3
657.094	42259.75
657.445	42350.82
657.796	42298.62
658.147	42175.68
658.498	42177.94
658.849	42189.7
659.2	42095.23
659.551	41979.98
659.902	42111.96
660.253	42001.45
660.604	42134.33
660.955	41990.15
661.306	42095.69
661.656	42106.76
662.007	42088.68
662.358	41925.52
662.708	42033.54
663.059	42102.69
663.409	41826.09
663.76	42156.02
664.11	41936.37
664.461	42098.62
664.811	42053.88
665.161	41986.09
665.511	41790.16
665.862	41923.71
666.212	41926.65
666.562	41997.38
666.912	41861.34
667.262	41702.7
667.612	41853.66
667.962	41828.12
668.312	41845.75
668.662	42047.33
669.011	41882.36
669.361	41790.38
669.711	41763.27
670.06	41810.95
670.41	41746.09
670.76	41606.89
671.109	41867.22
671.459	41743.83
671.808	41605.53
672.157	41771.4
672.507	41525.98
672.856	41569.83
673.205	41605.3
673.554	41668.35
673.904	41608.92
674.253	41806.43
674.602	41728.46
674.951	41128.93
675.3	40827.7
675.649	41525.31
675.998	41588.13
676.346	41575.93
676.695	41599.2
677.044	41282.15
677.393	41354.46
677.741	41560.79
678.09	41380.45
678.438	41296.84
678.787	41324.63
679.135	41288.25
679.484	41174.81
679.832	41305.88
680.181	41185.2
680.529	41185.2
680.877	40989.28
681.225	40855.72
681.573	41001.03
681.922	40750.86
682.27	40822.73
682.618	40890.97
682.966	40701.83
683.314	40749.28
683.661	40641.49
684.009	40446.01
684.357	40429.74
684.705	40342.29
685.053	40439.46
685.4	40330.54
685.748	40193.82
686.095	40284.66
686.443	39969.19
686.79	39987.95
687.138	40033.14
687.485	40025.68
687.832	40005.12
688.18	39812.13
688.527	39790.21
688.874	39851.45
689.221	39609.42
689.568	39454.85
689.915	39470.9
690.262	39582.31
690.609	39453.95
690.956	39203.56
691.303	39222.32
691.65	38999.5
691.997	39002.66
692.344	38808.77
692.69	38778.71
693.037	38923.79
693.383	38537.81
693.73	38587.08
694.077	38401.32
694.423	38353.86
694.769	38313.19
695.116	38314.32
695.462	38190.93
695.808	38139.86
696.155	38034.1
696.501	37891.28
696.847	37872.97
697.193	37646.76
697.539	37682.02
697.885	37404.96
698.231	37441.57
698.577	37327.9
698.923	37277.73
699.269	37106.44
699.614	37021.02
699.96	36878.42
700.306	36762.95
700.651	36693.34
700.997	36680.24
701.342	36508.72
701.688	36505.1
702.033	36383.07
702.379	36383.07
702.724	36257.65
703.069	36215.16
703.415	35957.09
703.76	35884.55
704.105	35932.46
704.45	35869.41
704.795	35717.78
705.14	35586.25
705.485	35609.53
705.83	35395.07
706.175	35519.59
706.52	35424.68
706.865	35207.28
707.209	35201.18
707.554	35274.62
707.899	35235.08
708.243	35005.48
708.588	34924.8
708.932	34698.82
709.277	34784.69
709.621	34694.75
709.966	34535.43
710.31	34552.83
710.654	34318.26
710.998	34363.91
711.342	34310.13
711.687	34252.73
712.031	34254.31
712.375	34083.47
712.719	34105.16
713.063	33911.72
713.407	34095.22
713.75	33843.7
714.094	33850.25
714.438	33582.92
714.782	33633.54
715.125	33533.43
715.469	33595.57
715.812	33458.4
716.156	33340.44
716.499	33334.34
716.843	33342.47
717.186	33073.33
717.53	33229.48
717.873	33203.04
718.216	33121.23
718.559	32958.3
718.902	32767.8
719.246	33007.34
719.589	32720.57
719.932	32560.57
720.275	32735.93
720.617	32579.78
720.96	32516.05
721.303	32518.09
721.646	32669.27
721.989	32283.97
722.331	32428.37
722.674	32286.45
723.016	32195.16
723.359	32260.01
723.701	32259.79
724.044	32045.56
724.386	31997.87
724.729	32078.1
725.071	31999.46
725.413	32048.49
725.755	32005.33
726.097	31717.88
726.439	31691.21
726.782	31681.72
727.124	31746.81
727.465	31552.24
727.807	31480.37
728.149	31518.79
728.491	31391.34
728.833	31377.1
729.175	31319.7
729.516	31329.87
729.858	31195.18
730.199	31272.69
730.541	31164
730.882	31102.08
731.224	31236.54
731.565	30872.71
731.906	31072.47
732.248	31011.46
732.589	30890.33
732.93	30862.31
733.271	30862.31
733.612	30830.67
733.953	30825.47
734.294	30664.8
734.635	30574.86
734.976	30683.11
735.317	30498.25
735.658	30510.45
735.999	30563.11
736.339	30337.8
736.68	30516.33
737.021	30446.05
737.361	30162.44
737.702	30400.85
738.042	30373.28
738.383	30227.75
738.723	30294.19
739.063	30039.51
739.404	30139.39
739.744	30159.05
740.084	30101.2
740.424	29991.82
740.764	29970.58
741.104	29988.66
741.444	29941.43
741.784	29751.38
742.124	29906.85
742.464	29772.62
742.804	29682.45
743.143	29660.31
743.483	29601.55
743.823	29479.3
744.162	29472.52
744.502	29358.62
744.841	29431.84
745.181	29580.31
745.52	29211.28
745.86	29386.87
746.199	29354.55
746.538	29313.2
746.877	29305.97
747.216	29216.25
747.556	29079.53
747.895	29278.85
748.234	29025.52
748.573	28948.69
748.911	28949.37
749.25	28999.31
749.589	28756.6
749.928	28782.14
750.267	28922.25
750.605	28755.47
750.944	28650.16
751.283	28607.23
751.621	28570.62
751.96	28519.09
752.298	28506.21
752.636	28519.09
752.975	28263.96
753.313	28351.42
753.651	28379.89
753.989	28190.52
754.327	28160.46
754.666	27990.97
755.004	28075.94
755.342	28056.96
755.679	28030.75
756.017	27833.01
756.355	27893.8
756.693	27785.33
757.031	27768.15
757.368	27554.83
757.706	27677.08
758.044	27515.28
758.381	27526.35
758.719	27426.02
759.056	27505.56
759.394	27339.69
759.731	27125.23
760.068	27096.53
760.405	27059.7
760.743	26859.03
761.08	27002.07
761.417	26873.94
761.754	26761.4
762.091	26739.71
762.428	26648.41
762.765	26521.63
763.102	26532.03
763.438	26420.62
763.775	26264.01
764.112	26381.52
764.449	26311.7
764.785	26224.24
765.122	26052.72
765.458	25960.52
765.795	25881.65
766.131	25771.6
766.467	25754.87
766.804	25672.84
767.14	25527.53
767.476	25600.08
767.812	25438.5
768.148	25538.61
768.485	25274.66
768.821	25031.95
769.157	25029.69
769.492	25006.87
769.828	24963.26
770.164	24867.67
770.5	24688.69
770.836	24714.68
771.171	24511.74
771.507	24490.95
771.842	24420.9
772.178	24279.43
772.513	24272.43
772.849	24025.88
773.184	24049.83
773.519	24153.33
773.855	23960.34
774.19	23784.53
774.525	23641.26
774.86	23738.66
775.195	23710.18
775.53	23589.05
775.865	23438.78
776.2	23242.85
776.535	23245.34
776.87	23185
777.205	22985.45
777.539	22982.97
777.874	23053.25
778.209	22834.05
778.543	22680.6
778.878	22653.94
779.212	22743.2
779.547	22463.89
779.881	22464.11
780.215	22414.62
780.55	22336.88
780.884	22303.21
781.218	22185.93
781.552	22319.71
781.886	22096.89
782.22	21920.4
782.554	21833.62
782.888	21684.47
783.222	21646.96
783.556	21539.17
783.889	21483.35
784.223	21270.92
784.557	21218.04
784.89	21359.96
785.224	21145.73
785.557	21008.11
785.891	21069.57
786.224	21003.36
786.558	20964.27
786.891	20784.16
787.224	20685.85
787.557	20538.51
787.891	20526.76
788.224	20440.44
788.557	20424.62
788.89	20509.59
789.223	20455.58
789.556	20237.73
789.888	20153.21
790.221	20061.46
790.554	19959.09
790.887	19966.1
791.219	19848.36
791.552	19867.34
791.884	19684.52
792.217	19757.97
792.549	19650.85
792.882	19482.95
793.214	19507.81
793.546	19439.33
793.879	19374.25
794.211	19213.58
794.543	19277.76
794.875	19222.39
795.207	19214.93
795.539	19101.26
795.871	19101.26
796.203	18867.15
796.535	18790.09
796.867	18771.1
797.198	18791.89
797.53	18673.7
797.862	18592.58
798.193	18535.4
798.525	18462.86
798.856	18534.95
799.188	18342.41
799.519	18208.63
799.85	18158.46
800.182	18150.33
800.513	18217.9
800.844	17965.93
801.175	18090.89
801.506	18060.84
801.837	17867.62
802.168	17927.96
802.499	17839.83
802.83	17738.36
803.161	17640.96
803.491	17725.71
803.822	17709.89
804.153	17654.75
804.483	17430.57
804.814	17405.71
805.145	17428.54
805.475	17333.4
805.805	17286.85
806.136	17390.8
806.466	17185.38
806.796	17131.82
807.126	17146.06
807.457	16958.04
807.787	16944.26
808.117	16885.73
808.447	16833.53
808.777	16906.29
809.107	16852.06
809.436	16704.72
809.766	16719.41
810.096	16665.17
810.426	16568.45
810.755	16560.09
811.085	16488.45
811.414	16508.11
811.744	16385.4
812.073	16377.72
812.403	16373.43
812.732	16299.08
813.061	16317.61
813.39	16243.71
813.719	16059.31
814.049	16229.02
814.378	16161.91
814.707	16045.07
815.036	16015.24
815.365	15984.06
815.693	15832.87
816.022	15827.68
816.351	15749.71
816.68	15744.97
817.008	15825.64
817.337	15604.18
817.665	15539.1
817.994	15588.36
818.322	15513.11
818.651	15464.97
818.979	15403.51
819.307	15476.5
819.636	15377.07
819.964	15394.24
820.292	15479.66
820.62	15340.46
820.948	15299.1
821.276	15409.61
821.604	15262.27
821.932	15321.7
822.259	15296.62
822.587	15344.3
822.915	15291.42
823.243	15325.54
823.57	15281.02
823.898	15231.76
824.225	15180.24
824.553	15147.02
824.88	15229.5
825.207	15277.18
825.535	15224.98
825.862	15372.1
826.189	15232.89
826.516	15330.06
826.843	15205.09
827.17	15297.75
827.497	15344.07
827.824	15241.48
828.151	15286.45
828.478	15189.95
828.805	15248.71
829.131	15298.88
829.458	15214.81
829.785	15157.64
830.111	15146.11
830.438	15293.91
830.764	15189.95
831.09	15291.19
831.417	15145.89
831.743	15206
832.069	15184.98
832.395	15055.49
832.722	15193.8
833.048	15063.18
833.374	15096.85
833.7	15016.62
834.026	15048.26
834.351	15152.21
834.677	15112.67
835.003	15094.81
835.329	15039.9
835.654	15045.78
835.98	14988.83
836.306	14916.29
836.631	14900.7
836.956	14973.24
837.282	14891.2
837.607	14822.51
837.932	14766.24
838.258	14812.56
838.583	14757.65
838.908	14795.16
839.233	14766.01
839.558	14727.59
839.883	14637.2
840.208	14575.51
840.533	14582.29
840.858	14622.74
841.182	14567.15
841.507	14533.47
841.832	14426.36
842.156	14479.01
842.481	14509.97
842.805	14405.34
843.13	14409.18
843.454	14359.92
843.778	14388.62
844.103	14246.93
844.427	14220.26
844.751	14216.87
845.075	14129.19
845.399	14163.09
845.723	14059.81
846.047	14028.85
846.371	13893.26
846.695	14020.94
847.019	13917.44
847.343	13841.06
847.666	13761.97
847.99	13635.64
848.313	13658.47
848.637	13570.11
848.96	13579.83
849.284	13500.51
849.607	13410.57
849.931	13390.9
850.254	13326.73
850.577	13222.55
850.9	13168.76
851.223	13240.17
851.546	13088.31
851.869	12992.95
852.192	13058.26
852.515	12921.76
852.838	12905.49
853.161	12865.5
853.483	12760.19
853.806	12708.21
854.129	12713.86
854.451	12664.14
854.774	12605.16
855.096	12553.41
855.419	12551.38
855.741	12451.72
856.063	12483.36
856.385	12478.84
856.708	12338.5
857.03	12366.07
857.352	12365.4
857.674	12309.13
857.996	12259.64
858.318	12105.06
858.64	12183.03
858.961	12148.23
859.283	12022.35
859.605	12053.54
859.926	12068.45
860.248	12121.79
860.57	11941.9
860.891	12048.57
861.212	11875.46
861.534	11843.38
861.855	11772.64
862.176	11843.15
862.498	11846.99
862.819	11781.46
863.14	11803.38
863.461	11784.62
863.782	11696.03
864.103	11712.76
864.424	11708.01
864.745	11690.84
865.065	11607.9
865.386	11510.5
865.707	11562.03
866.027	11660.33
866.348	11500.56
866.668	11532.42
866.989	11514.8
867.309	11405.65
867.63	11460.79
867.95	11491.52
868.27	11389.83
868.59	11486.1
868.91	11323.16
869.23	11385.99
869.55	11282.71
869.87	11360.22
870.19	11352.77
870.51	11307.12
870.83	11284.97
871.15	11198.42
871.469	11253.11
871.789	11315.93
872.109	11266.44
872.428	11162.49
872.748	11163.84
873.067	11124.07
873.386	11177.4
873.706	11099.89
874.025	11099.21
874.344	11048.59
874.663	11100.34
874.982	11096.28
875.301	11046.79
875.62	10994.81
875.939	10942.61
876.258	10948.94
876.577	10917.98
876.896	10900.35
877.214	10779.45
877.533	10880.46
877.852	10865.77
878.17	10849.05
878.489	10859.9
878.807	10762.27
879.125	10769.05
879.444	10779.9
879.762	10631.2
880.08	10779.67
880.398	10696.96
880.716	10684.08
881.034	10716.4
881.352	10739.45
881.67	10653.58
881.988	10569.74
882.306	10570.87
882.624	10596.85
882.941	10475.05
883.259	10448.16
883.577	10463.75
883.894	10430.53
884.212	10410.87
884.529	10419.01
884.846	10369.52
885.164	10389.63
885.481	10340.14
885.798	10367.93
886.115	10235.06
886.432	10256.75
886.75	10207.03
887.067	10304.88
887.383	10151.67
887.7	10181.72
888.017	10104.44
888.334	10106.25
888.651	10144.89
888.967	10056.76
889.284	10019.02
889.6	9936.53
889.917	9941.96
890.233	9939.24
890.55	9853.37
890.866	9894.5
891.182	9895.86
891.498	9797.55
891.815	9779.93
892.131	9762.75
892.447	9819.02
892.763	9715.97
893.079	9743.77
893.395	9660.83
893.71	9648.86
894.026	9638.69
894.342	9563.66
894.657	9570.67
894.973	9572.25
895.289	9554.62
895.604	9601.63
895.92	9345.36
896.235	9405.25
896.55	9374.97
896.865	9361.41
897.181	9340.84
897.496	9345.14
897.811	9243.9
898.126	9218.59
898.441	9222.88
898.756	9181.3
899.071	9122.99
899.386	9146.5
899.7	9084.58
900.015	9006.61
900.33	8967.29
900.644	8972.49
900.959	8959.84
901.273	8934.75
901.588	8852.04
901.902	8830.35
902.216	8788.77
902.531	8746.96
902.845	8694.76
903.159	8743.8
903.473	8627.19
903.787	8598.26
904.101	8549.45
904.415	8606.17
904.729	8506.74
905.042	8541.31
905.356	8516.46
905.67	8414.76
905.984	8459.96
906.297	8431.26
906.611	8272.17
906.924	8303.58
907.237	8282.34
907.551	8298.38
907.864	8254.77
908.177	8240.98
908.491	8184.71
908.804	8081.67
909.117	8027.2
909.43	8035.57
909.743	8011.84
910.056	7990.37
910.368	7917.38
910.681	7944.27
910.994	7883.93
911.307	7913.53
911.619	7773.88
911.932	7847.32
912.244	7776.14
912.557	7798.28
912.869	7704.5
913.181	7736.82
913.494	7655.46
913.806	7563.94
914.118	7559.19
914.43	7562.58
914.742	7513.77
915.054	7510.83
915.366	7471.06
915.678	7376.83
915.99	7412.08
916.302	7351.97
916.613	7338.18
916.925	7295.25
917.236	7317.39
917.548	7286.66
917.859	7276.26
918.171	7194.46
918.482	7200.56
918.794	7183.38
919.105	7165.76
919.416	7019.77
919.727	7037.4
920.038	7007.12
920.349	6967.35
920.66	6966.89
920.971	6982.71
921.282	6930.06
921.593	6852.09
921.903	6867.46
922.214	6789.04
922.525	6758.99
922.835	6709.5
923.146	6743.85
923.456	6680.12
923.767	6667.01
924.077	6616.85
924.387	6587.69
924.697	6572.78
925.008	6577.75
925.318	6544.08
925.628	6505.21
925.938	6477.19
926.248	6353.12
926.558	6359.45
926.867	6407.81
927.177	6404.2
927.487	6378.43
927.796	6301.6
928.106	6298.66
928.416	6221.15
928.725	6193.13
929.034	6210.3
929.344	6160.59
929.653	6153.13
929.962	6118.55
930.271	6035.17
930.581	6022.74
930.89	6045.79
931.199	6013.92
931.508	6036.97
931.817	6023.42
932.125	5912.23
932.434	5889.63
932.743	5908.62
933.051	5846.24
933.36	5790.65
933.669	5773.03
933.977	5770.09
934.286	5721.73
934.594	5703.2
934.902	5692.12
935.21	5698.23
935.519	5688.28
935.827	5652.35
936.135	5589.75
936.443	5602.18
936.751	5545.01
937.059	5511.79
937.367	5509.08
937.674	5526.93
937.982	5459.14
938.29	5412.81
938.597	5440.83
938.905	5371.45
939.213	5340.72
939.52	5330.33
939.827	5332.13
940.135	5295.07
940.442	5290.1
940.749	5287.62
941.056	5307.05
941.363	5188.18
941.67	5222.98
941.977	5187.5
942.284	5164
942.591	5112.93
942.898	5079.49
943.205	5077.9
943.511	5067.96
943.818	5033.16
944.125	5013.95
944.431	5011.24
944.738	5009.2
945.044	4964.69
945.35	4979.37
945.657	4921.75
945.963	4876.78
946.269	4879.49
946.575	4895.54
946.881	4848.98
947.187	4791.13
947.493	4813.96
947.799	4822.99
948.105	4764.69
948.41	4699.38
948.716	4744.35
949.022	4643.56
949.327	4646.73
949.633	4624.81
949.938	4651.7
950.244	4659.38
950.549	4576.67
950.854	4578.93
951.16	4526.05
951.465	4529.9
951.77	4506.84
952.075	4474.98
952.38	4445.6
952.685	4460.07
952.99	4439.95
953.294	4435.89
953.599	4358.83
953.904	4317.25
954.209	4362.89
954.513	4349.33
954.818	4316.79
955.122	4291.48
955.426	4291.26
955.731	4261.88
956.035	4245.38
956.339	4250.81
956.643	4206.74
956.948	4192.28
957.252	4181.66
957.556	4185.5
957.86	4108.66
958.163	4156.35
958.467	4091.71
958.771	4105.5
959.075	4085.84
959.378	4069.12
959.682	4073.64
959.985	3989.57
960.289	3970.36
960.592	3954.77
960.896	3969.68
961.199	3918.39
961.502	3938.27
961.805	3886.75
962.108	3905.05
962.411	3907.31
962.714	3802.68
963.017	3826.86
963.32	3856.47
963.623	3829.12
963.926	3811.27
964.228	3779.18
964.531	3705.96
964.833	3751.16
965.136	3710.26
965.438	3693.76
965.741	3709.58
966.043	3690.14
966.345	3658.73
966.648	3657.6
966.95	3604.04
967.252	3583.93
967.554	3563.59
967.856	3584.84
968.158	3541.22
968.46	3581.45
968.761	3516.81
969.063	3492.41
969.365	3492.63
969.666	3479.53
969.968	3469.36
970.269	3452.64
970.571	3444.5
970.872	3423.03
971.174	3414.22
971.475	3405.86
971.776	3440.43
972.077	3403.14
972.378	3392.3
972.679	3338.74
972.98	3338.74
973.281	3354.33
973.582	3285.86
973.883	3269.14
974.183	3257.16
974.484	3282.7
974.785	3240.66
975.085	3251.51
975.386	3236.14
975.686	3212.87
975.986	3199.53
976.287	3181.91
976.587	3168.57
976.887	3106.88
977.187	3126.77
977.487	3081.12
977.787	3104.85
978.087	3089.71
978.387	3086.54
978.687	3048.58
978.987	3009.48
979.286	3055.13
979.586	2998.41
979.885	2985.53
980.185	2952.08
980.484	2976.04
980.784	2950.28
981.083	2961.12
981.382	2930.39
981.682	2939.2
981.981	2934.91
982.28	2915.7
982.579	2866.66
982.878	2912.31
983.177	2859.43
983.475	2846.78
983.774	2817.4
984.073	2828.92
984.372	2798.19
984.67	2804.29
984.969	2789.83
985.267	2783.27
985.566	2794.12
985.864	2757.06
986.162	2699.43
986.461	2716.61
986.759	2722.48
987.057	2653.11
987.355	2676.38
987.653	2645.2
987.951	2651.98
988.249	2646.78
988.547	2642.94
988.844	2630.96
989.142	2604.75
989.44	2589.61
989.737	2583.96
990.035	2578.76
990.332	2527.69
990.63	2552.77
990.927	2533.79
991.224	2518.2
991.521	2513
991.819	2504.64
992.116	2510.29
992.413	2497.63
992.71	2459.21
993.006	2454.7
993.303	2428.03
993.6	2449.72
993.897	2408.37
994.193	2423.74
994.49	2380.57
994.787	2392.78
995.083	2407.01
995.379	2348.48
995.676	2365.88
995.972	2348.26
996.268	2339.67
996.565	2300.12
996.861	2294.93
997.157	2292.21
997.453	2276.62
997.749	2264.19
998.044	2306.68
998.34	2254.93
998.636	2259.45
998.932	2189.62
999.227	2200.69
999.523	2229.84
999.818	2202.27
1000.114	2187.81
1000.409	2175.38
1000.704	2160.47
1001	2156.17
1001.295	2138.77
1001.59	2156.62
1001.885	2154.36
1002.18	2101.71
1002.475	2101.94
1002.77	2066.46
1003.065	2081.37
1003.359	2088.38
1003.654	2048.6
1003.949	2053.12
1004.243	2039.57
1004.538	2042.28
1004.832	2022.84
1005.127	2002.73
1005.421	1943.3
1005.715	1984.43
1006.009	1969.28
1006.304	1949.62
1006.598	1950.3
1006.892	1936.74
1007.186	1925.9
1007.48	1907.59
1007.773	1893.58
1008.067	1880.7
1008.361	1880.47
1008.655	1874.15
1008.948	1847.03
1009.242	1846.35
1009.535	1856.97
1009.829	1832.11
1010.122	1774.94
1010.415	1808.84
1010.708	1792.79
1011.001	1766.58
1011.295	1773.36
1011.588	1771.32
1011.881	1746.24
1012.173	1750.31
1012.466	1748.95
1012.759	1733.58
1013.052	1716.18
1013.344	1701.49
1013.637	1699.91
1013.93	1684.09
1014.222	1701.27
1014.514	1658.11
1014.807	1675.28
1015.099	1619.69
1015.391	1624.43
1015.683	1610.42
1015.976	1595.28
1016.268	1588.96
1016.56	1622.4
1016.851	1590.54
1017.143	1584.44
1017.435	1542.18
1017.727	1572.46
1018.018	1545.79
1018.31	1535.62
1018.602	1533.36
1018.893	1523.19
1019.185	1509.86
1019.476	1518.67
1019.767	1487.72
1020.058	1473.93
1020.35	1469.64
1020.641	1456.76
1020.932	1447.26
1021.223	1449.52
1021.514	1468.96
1021.804	1395.74
1022.095	1404.33
1022.386	1403.65
1022.677	1421.05
1022.967	1390.77
1023.258	1358.23
1023.548	1380.15
1023.839	1365.91
1024.129	1360.26
1024.419	1341.05
1024.709	1328.85
1025	1323.43
1025.29	1304.22
1025.58	1326.36
1025.87	1297.66
1026.16	1304.44
1026.449	1274.16
1026.739	1271.45
1027.029	1258.79
1027.319	1260.83
1027.608	1280.94
1027.898	1246.82
1028.187	1251.79
1028.477	1227.38
1028.766	1242.98
1029.055	1235.07
1029.344	1197.55
1029.634	1187.84
1029.923	1195.07
1030.212	1172.24
1030.501	1170.66
1030.79	1154.84
1031.078	1149.64
1031.367	1153.03
1031.656	1140.38
1031.945	1112.36
1032.233	1128.4
1032.522	1118.69
1032.81	1104.22
1033.099	1078.69
1033.387	1114.84
1033.675	1073.04
1033.963	1100.83
1034.251	1056.31
1034.54	1073.26
1034.828	1061.74
1035.116	1038.69
1035.403	1065.58
1035.691	1069.2
1035.979	1040.27
1036.267	1024.22
1036.554	1018.12
1036.842	995.07
1037.129	1007.73
1037.417	996.43
1037.704	991.91
1037.992	993.26
1038.279	1018.35
1038.566	967.73
1038.853	967.73
1039.14	967.73
