Data from hue_350_FLMS001491_5.txt Node
Date: Mon Feb 06 15:37:28 GMT 2017
User: dcchb
Spectrometer: FLMS00149
Trigger mode: 0
Integration Time (sec): 2.000000E-2
Scans to average: 10
Electric dark correction enabled: true
Nonlinearity correction enabled: false
Boxcar width: 0
XAxis mode: Wavelengths
Number of Pixels in Spectrum: 2048
>>>>>Begin Spectral Data<<<<<
341.393	-6.02
341.776	-6.02
342.16	-6.02
342.543	-55.06
342.927	-61.83
343.31	-62.06
343.693	-76.98
344.077	-62.74
344.46	-47.6
344.843	-69.07
345.226	-47.37
345.61	-34.72
345.993	-13.7
346.376	14.55
346.759	-3.76
347.142	22.01
347.525	40.31
347.908	66.98
348.291	69.01
348.674	85.05
349.057	120.08
349.44	132.51
349.823	145.62
350.206	165.05
350.588	195.56
350.971	220.19
351.354	226.29
351.737	235.11
352.119	243.24
352.502	249.34
352.884	262.45
353.267	286.18
353.65	274.2
354.032	325.5
354.414	294.77
354.797	311.26
355.179	323.24
355.562	325.73
355.944	327.08
356.326	348.1
356.709	359.17
357.091	343.8
357.473	356.23
357.855	352.62
358.238	337.93
358.62	339.51
359.002	349.91
359.384	342.45
359.766	340.87
360.148	345.39
360.53	332.05
360.912	342
361.294	349.45
361.676	338.83
362.057	332.51
362.439	336.8
362.821	333.41
363.203	321.21
363.584	337.03
363.966	327.76
364.348	316.23
364.729	341.09
365.111	310.36
365.493	341.54
365.874	344.71
366.256	328.21
366.637	321.66
367.019	311.26
367.4	318.49
367.781	311.71
368.163	313.52
368.544	323.47
368.925	314.88
369.306	345.84
369.688	322.11
370.069	323.92
370.45	324.82
370.831	327.08
371.212	329.34
371.593	308.1
371.974	301.55
372.355	319.17
372.736	327.99
373.117	342.9
373.498	326.86
373.879	311.71
374.26	315.78
374.641	324.14
375.021	314.88
375.402	313.97
375.783	303.35
376.163	329.34
376.544	332.05
376.925	319.4
377.305	316.69
377.686	316.46
378.066	345.61
378.447	329.79
378.827	350.81
379.208	323.47
379.588	337.48
379.968	332.96
380.349	322.34
380.729	326.4
381.109	358.72
381.489	341.77
381.87	346.06
382.25	346.52
382.63	342.9
383.01	353.3
383.39	331.15
383.77	350.58
384.15	352.39
384.53	335.67
384.91	348.78
385.29	336.35
385.67	342.9
386.049	358.04
386.429	342.9
386.809	356.91
387.189	355.56
387.568	360.98
387.948	364.14
388.328	359.85
388.707	381.54
389.087	365.72
389.466	356.91
389.846	342
390.225	381.54
390.605	357.36
390.984	351.71
391.363	375.44
391.743	379.96
392.122	375.44
392.501	371.83
392.881	397.59
393.26	376.35
393.639	379.28
394.018	361.43
394.397	390.58
394.776	376.57
395.155	376.35
395.534	390.58
395.913	372.28
396.292	378.15
396.671	374.76
397.05	381.54
397.429	391.94
397.808	385.61
398.186	397.81
398.565	395.33
398.944	395.78
399.323	412.28
399.701	397.81
400.08	387.65
400.458	412.28
400.837	401.2
401.215	397.59
401.594	431.94
401.972	401.43
402.351	411.6
402.729	405.05
403.107	395.78
403.486	414.31
403.864	391.26
404.242	419.06
404.62	405.27
404.999	419.73
405.377	433.07
405.755	406.4
406.133	447.3
406.511	449.56
406.889	458.83
407.267	423.12
407.645	439.62
408.023	432.16
408.401	453.63
408.779	454.08
409.156	433.07
409.534	458.15
409.912	445.72
410.29	456.12
410.667	452.28
411.045	465.16
411.422	443.01
411.8	477.13
412.178	483.69
412.555	477.36
412.933	469.9
413.31	483.91
413.687	484.37
414.065	483.24
414.442	497.47
414.819	504.03
415.197	514.65
415.574	509.45
415.951	489.79
416.328	489.79
416.705	508.55
417.082	500.64
417.46	508.32
417.837	519.62
418.214	521.65
418.591	526.4
418.967	544.48
419.344	539.96
419.721	552.61
420.098	549
420.475	530.01
420.852	549.45
421.228	538.6
421.605	532.95
421.982	547.41
422.358	562.33
422.735	580.63
423.111	553.29
423.488	565.95
423.864	556.91
424.241	564.59
424.617	583.35
424.994	571.6
425.37	597.36
425.746	592.84
426.123	579.5
426.499	586.28
426.875	586.96
427.251	611.37
427.627	628.32
428.003	640.75
428.379	622.67
428.756	641.2
429.132	638.03
429.507	642.1
429.883	620.18
430.259	673.51
430.635	632.84
431.011	678.48
431.387	664.7
431.763	672.84
432.138	679.39
432.514	665.6
432.89	670.35
433.265	700.63
433.641	683.91
434.016	710.35
434.392	730.46
434.767	716
435.143	727.52
435.518	712.83
435.894	727.07
436.269	735.66
436.644	763.23
437.02	740.86
437.395	743.79
437.77	752.38
438.145	783.34
438.52	778.37
438.895	780.63
439.271	782.21
439.646	783.79
440.021	781.99
440.395	811.59
440.77	790.35
441.145	814.07
441.52	807.52
441.895	797.35
442.27	821.31
442.645	810.23
443.019	871.7
443.394	837.8
443.769	821.98
444.143	857.01
444.518	863.11
444.892	852.04
445.267	859.27
445.641	855.43
446.016	866.73
446.39	849.55
446.764	865.6
447.139	885.03
447.513	863.34
447.887	888.42
448.262	875.32
448.636	892.94
449.01	883.23
449.384	893.39
449.758	873.51
450.132	907.63
450.506	914.64
450.88	904.69
451.254	922.55
451.628	941.08
452.002	939.04
452.376	925.71
452.75	980.62
453.123	925.26
453.497	992.38
453.871	962.09
454.244	1002.54
454.618	988.53
454.992	1007.06
455.365	1024.69
455.739	979.95
456.112	1025.14
456.486	1032.37
456.859	1033.73
457.232	1085.25
457.606	1034.86
457.979	1068.76
458.352	1063.79
458.725	1077.34
459.099	1091.81
459.472	1093.16
459.845	1121.41
460.218	1122.09
460.591	1141.07
460.964	1131.81
461.337	1155.76
461.71	1164.8
462.083	1167.74
462.456	1206.15
462.829	1192.37
463.201	1185.59
463.574	1205.7
463.947	1227.4
464.32	1262.2
464.692	1240.5
465.065	1260.39
465.438	1264.01
465.81	1318.92
466.183	1315.76
466.555	1309.88
466.928	1347.17
467.3	1331.35
467.672	1363.44
468.045	1369.09
468.417	1391.01
468.789	1395.53
469.161	1432.59
469.534	1449.99
469.906	1466.26
470.278	1480.72
470.65	1482.08
471.022	1516.66
471.394	1523.66
471.766	1542.87
472.138	1571.57
472.51	1593.72
472.882	1599.82
473.253	1612.02
473.625	1657.67
473.997	1699.93
474.369	1713.49
474.74	1702.19
475.112	1783.54
475.484	1775.41
475.855	1772.69
476.227	1829.64
476.598	1838.91
476.97	1855.63
477.341	1905.57
477.713	1939.92
478.084	1944.89
478.455	2004.1
478.827	2022.4
479.198	2076.41
479.569	2059.47
479.94	2137.43
480.311	2199.35
480.682	2207.71
481.053	2267.82
481.424	2311.44
481.795	2331.77
482.166	2333.58
482.537	2386.91
482.908	2454.71
483.279	2457.2
483.65	2497.87
484.021	2544.88
484.391	2557.53
484.762	2616.51
485.133	2621.48
485.503	2643.86
485.874	2717.3
486.244	2700.58
486.615	2822.38
486.985	2823.06
487.356	2883.85
487.726	2905.77
488.097	2957.3
488.467	2990.97
488.837	3050.17
489.207	3086.56
489.578	3103.51
489.948	3178.76
490.318	3200
490.688	3200.68
491.058	3276.16
491.428	3290.85
491.798	3343.27
492.168	3395.25
492.538	3430.73
492.908	3500.11
493.278	3503.72
493.648	3526.09
494.017	3553.66
494.387	3625.07
494.757	3618.75
495.126	3683.38
495.496	3689.03
495.866	3759.99
496.235	3782.81
496.605	3824.39
496.974	3784.39
497.344	3893.54
497.713	3858.74
498.082	3870.72
498.452	3950.94
498.821	3967.21
499.19	3990.49
499.559	4003.37
499.928	4049.7
500.298	4069.13
500.667	4132.41
501.036	4141.22
501.405	4133.99
501.774	4171.05
502.143	4210.6
502.512	4203.82
502.88	4238.84
503.249	4257.37
503.618	4306.41
503.987	4265.74
504.356	4352.74
504.724	4352.06
505.093	4341.89
505.462	4372.17
505.83	4431.38
506.199	4405.62
506.567	4471.15
506.936	4453.08
507.304	4457.59
507.672	4493.3
508.041	4510.25
508.409	4612.62
508.777	4672.96
509.145	4690.13
509.514	4683.8
509.882	4708.66
510.25	4653.52
510.618	4757.93
510.986	4695.33
511.354	4789.11
511.722	4809.22
512.09	4827.08
512.458	4844.48
512.826	4866.62
513.193	4912.05
513.561	4862.56
513.929	4950.92
514.297	4909.11
514.664	4976.9
515.032	4960.63
515.4	5021.2
515.767	4997.69
516.135	5041.76
516.502	4960.18
516.869	5114.53
517.237	5129.67
517.604	5077.01
517.972	5165.82
518.339	5147.29
518.706	5169.89
519.073	5152.94
519.44	5165.82
519.808	5242.43
520.175	5229.78
520.542	5273.62
520.909	5302.32
521.276	5352.03
521.643	5352.49
522.009	5387.97
522.376	5407.85
522.743	5385.03
523.11	5444.01
523.477	5496.21
523.843	5519.71
524.21	5541.63
524.577	5608.75
524.943	5620.73
525.31	5606.72
525.676	5704.34
526.043	5724.23
526.409	5738.46
526.776	5759.48
527.142	5760.84
527.508	5773.27
527.874	5825.02
528.241	5874.96
528.607	5915.86
528.973	5924.9
529.339	5931.23
529.705	5987.72
530.071	6036.08
530.437	6099.36
530.803	6102.75
531.169	6097.78
531.535	6136.87
531.901	6142.97
532.267	6173.26
532.632	6247.83
532.998	6232.24
533.364	6289.86
533.73	6263.87
534.095	6336.87
534.461	6350.2
534.826	6334.16
535.192	6422.29
535.557	6450.76
535.923	6444.89
536.288	6522.85
536.653	6529.63
537.019	6558.78
537.384	6545.9
537.749	6594.49
538.114	6555.62
538.479	6640.14
538.845	6677.42
539.21	6646.24
539.575	6662.28
539.94	6668.16
540.305	6778.89
540.67	6777.76
541.034	6761.94
541.399	6841.26
541.764	6791.77
542.129	6897.53
542.494	6930.07
542.858	6893.01
543.223	6928.49
543.587	7015.95
543.952	6952.44
544.316	7003.29
544.681	7059.79
545.045	7099.79
545.41	7169.84
545.774	7166
546.138	7167.58
546.503	7181.82
546.867	7116.28
547.231	7228.37
547.595	7275.15
547.959	7387.01
548.324	7334.58
548.688	7342.72
549.052	7392.43
549.416	7414.35
549.779	7368.7
550.143	7388.14
550.507	7503.16
550.871	7507.91
551.235	7491.41
551.599	7555.37
551.962	7571.41
552.326	7556.5
552.689	7687.79
553.053	7642.14
553.417	7633.78
553.78	7766.43
554.143	7689.6
554.507	7777.51
554.87	7789.48
555.234	7784.29
555.597	7829.03
555.96	7846.43
556.323	7820.67
556.686	7830.84
557.05	7906.09
557.413	8006.2
557.776	7957.84
558.139	7960.55
558.502	8054.11
558.865	8076.48
559.228	8068.12
559.59	8119.65
559.953	8136.37
560.316	8190.83
560.679	8200.32
561.041	8189.7
561.404	8328.68
561.767	8391.95
562.129	8240.09
562.492	8373.42
562.854	8385.63
563.217	8381.33
563.579	8400.09
563.941	8460.65
564.304	8483.93
564.666	8567.32
565.028	8493.65
565.39	8534.55
565.753	8562.8
566.115	8587.88
566.477	8687.09
566.839	8621.33
567.201	8770.7
567.563	8729.12
567.925	8862.22
568.287	8833.75
568.648	8796.24
569.01	8927.08
569.372	8946.52
569.734	8909.46
570.095	8962.11
570.457	9024.25
570.819	9078.49
571.18	9107.19
571.542	9205.49
571.903	9195.1
572.265	9263.34
572.626	9280.07
572.987	9308.09
573.349	9334.3
573.71	9442.32
574.071	9449.78
574.432	9516.67
574.794	9634.63
575.155	9634.63
575.516	9584.24
575.877	9685.48
576.238	9871.46
576.599	9898.13
576.96	9926.15
577.32	9969.99
577.681	10020.16
578.042	10112.36
578.403	10185.81
578.763	10238.69
579.124	10345.35
579.485	10465.12
579.845	10608.85
580.206	10595.96
580.566	10746.69
580.927	10779.69
581.287	11019.68
581.648	11058.1
582.008	11316.85
582.368	11367.02
582.728	11526.56
583.089	11575.15
583.449	11768.36
583.809	11858.76
584.169	12087.22
584.529	12285.41
584.889	12505.97
585.249	12631.84
585.609	12728.56
585.969	13116.8
586.329	13232.73
586.688	13413.07
587.048	13560.86
587.408	13713.4
587.768	13942.54
588.127	14182.31
588.487	14311.8
588.846	14639.02
589.206	14786.59
589.565	15080.14
589.925	15370.53
590.284	15576.17
590.643	15791.31
591.003	16067.46
591.362	16438.3
591.721	16624.05
592.08	16888.91
592.44	17138.39
592.799	17405.95
593.158	17644.14
593.517	17972.49
593.876	18202.54
594.235	18408.19
594.593	18836.2
594.952	19115.51
595.311	19238
595.67	19553.47
596.029	19964.08
596.387	20185.09
596.746	20569.71
597.104	20738.75
597.463	21107.1
597.822	21299.86
598.18	21554.55
598.538	21819.17
598.897	22175.55
599.255	22318.14
599.613	22805.81
599.972	22934.17
600.33	23318.12
600.688	23424.78
601.046	23859.12
601.404	24154.03
601.762	24329.84
602.12	24689.61
602.478	25034.23
602.836	25167.56
603.194	25423.82
603.552	25670.6
603.91	25844.38
604.268	26147.19
604.625	26395.77
604.983	26611.59
605.341	26871.02
605.698	27267.62
606.056	27469.87
606.413	27583.09
606.771	28000.7
607.128	28145.33
607.485	28272.11
607.843	28478.43
608.2	28991.86
608.557	29124.74
608.914	29254.46
609.272	29572.64
609.629	29845.18
609.986	30017.83
610.343	30180.08
610.7	30549.34
611.057	30723.34
611.414	30839.27
611.771	31021.19
612.127	31371.92
612.484	31493.49
612.841	31787.27
613.198	31787.27
613.554	31894.61
613.911	32112.01
614.267	32253.7
614.624	32403.98
614.98	32577.76
615.337	32883.29
615.693	33036.73
616.05	33025.88
616.406	33408.47
616.762	33433.56
617.118	33427.23
617.475	33758.07
617.831	33904.5
618.187	33964.16
618.543	34227.21
618.899	34374.1
619.255	34461.55
619.611	34561.66
619.967	34834.65
620.323	34936.57
620.678	34846.85
621.034	35079.16
621.39	35145.83
621.746	35076.22
622.101	35734.51
622.457	35492.71
622.812	35507.85
623.168	35744
623.523	35850.22
623.879	35986.94
624.234	35920.27
624.589	36038.23
624.945	36154.84
625.3	36229.64
625.655	36333.82
626.01	36365.46
626.365	36556.64
626.72	36639.35
627.075	36638.67
627.43	36547.6
627.785	36686.8
628.14	36802.05
628.495	36720.25
628.85	36927.25
629.205	36877.08
629.559	37182.84
629.914	36986.91
630.269	36987.59
630.623	36969.73
630.978	36922.28
631.332	37075.49
631.687	37245.89
632.041	37140.13
632.396	37036.17
632.75	37011.54
633.104	37117.3
633.459	37061.48
633.813	37213.34
634.167	37206.34
634.521	37282.95
634.875	37298.54
635.229	37158.2
635.583	37127.47
635.937	37221.7
636.291	37230.97
636.645	37300.57
636.999	37175.83
637.352	37369.95
637.706	37081.82
638.06	37225.77
638.413	37279.1
638.767	37089.96
639.121	37198.65
639.474	36993.24
639.828	37060.58
640.181	37178.09
640.534	37202.72
640.888	37078.43
641.241	37042.95
641.594	37014.25
641.947	37182.61
642.301	37159.56
642.654	37192.78
643.007	37068.94
643.36	37056.51
643.713	36989.62
644.066	37116.17
644.419	36776.29
644.771	36693.81
645.124	36434.38
645.477	36387.15
645.83	36170.89
646.182	36133.15
646.535	35861.97
646.888	35991.23
647.24	35734.29
647.593	36087.05
647.945	36015.41
648.298	35890.21
648.65	35768.64
649.002	35686.6
649.355	35833.04
649.707	35789.88
650.059	35988.97
650.411	36363.65
650.763	36441.61
651.115	36757.31
651.467	36677.54
651.819	36655.39
652.171	36627.14
652.523	36545.11
652.875	36580.37
653.227	36506.02
653.578	36791.66
653.93	36713.7
654.282	36365.46
654.633	36430.77
654.985	36523.87
655.337	36557.09
655.688	36484.1
656.039	36682.74
656.391	36303.76
656.742	36329.52
657.094	36490.88
657.445	36618.56
657.796	36397.09
658.147	36368.17
658.498	36372.69
658.849	36442.29
659.2	36396.87
659.551	36306.25
659.902	36519.58
660.253	36426.47
660.604	36535.4
660.955	36266.48
661.306	36460.59
661.656	36376.3
662.007	36201.84
662.358	36317.77
662.708	36383.99
663.059	36156.65
663.409	36007.5
663.76	36308.28
664.11	36334.04
664.461	36250.66
664.811	36141.06
665.161	36306.47
665.511	36070.55
665.862	36266.7
666.212	36285.01
666.562	36357.77
666.912	36236.87
667.262	35968.18
667.612	36172.47
667.962	36121.17
668.312	36195.07
668.662	36264.22
669.011	36111.23
669.361	36064.9
669.711	36083.88
670.06	35982.19
670.41	36074.84
670.76	35898.58
671.109	36146.48
671.459	35958.46
671.808	35926.82
672.157	36186.03
672.507	35819.48
672.856	35849.31
673.205	35927.73
673.554	35967.73
673.904	35953.49
674.253	36104.9
674.602	35888.63
674.951	35476.44
675.3	35248.65
675.649	35860.16
675.998	35783.32
676.346	35859.71
676.695	35970.44
677.044	35611.13
677.393	35766.15
677.741	35903.77
678.09	35707.39
678.438	35615.19
678.787	35806.6
679.135	35751.46
679.484	35605.48
679.832	35625.81
680.181	35399.38
680.529	35492.94
680.877	35396.67
681.225	35267.18
681.573	35616.78
681.922	35218.37
682.27	35143.79
682.618	35126.39
682.966	35060.41
683.314	34992.39
683.661	35028.99
684.009	34845.04
684.357	34816.12
684.705	34697.7
685.053	34840.98
685.4	34850.69
685.748	34593.75
686.095	34609.12
686.443	34515.11
686.79	34462.46
687.138	34609.8
687.485	34503.36
687.832	34417.48
688.18	34507.43
688.527	34149.02
688.874	34244.61
689.221	34131.39
689.568	34138.85
689.915	33983.15
690.262	33998.96
690.609	33867.67
690.956	33681.23
691.303	33676.94
691.65	33581.12
691.997	33586.77
692.344	33341.81
692.69	33338.64
693.037	33283.28
693.383	33082.38
693.73	33262.71
694.077	32970.97
694.423	33049.61
694.769	33008.93
695.116	32839.22
695.462	32775.72
695.808	32782.5
696.155	32721.26
696.501	32546.57
696.847	32457.31
697.193	32263.64
697.539	32432.68
697.885	32226.81
698.231	32139.13
698.577	32094.38
698.923	32078.79
699.269	31828.17
699.614	31707.95
699.96	31603.77
700.306	31689.65
700.651	31657.56
700.997	31458.47
701.342	31451.69
701.688	31290.79
702.033	31271.13
702.379	31319.49
702.724	31149.55
703.069	31210.34
703.415	30920.18
703.76	30828.88
704.105	30893.51
704.45	30854.87
704.795	30692.61
705.14	30563.12
705.485	30456.91
705.83	30274.54
706.175	30377.59
706.52	30309.8
706.865	30202.91
707.209	30296.46
707.554	30172.62
707.899	30163.81
708.243	30089.69
708.588	29977.15
708.932	29704.16
709.277	29766.99
709.621	29753.88
709.966	29563.15
710.31	29633.2
710.654	29466.88
710.998	29503.04
711.342	29508.91
711.687	29462.13
712.031	29291.52
712.375	29189.83
712.719	29113.67
713.063	29094.01
713.407	29185.53
713.75	28937.63
714.094	28938.98
714.438	28901.92
714.782	28920.45
715.125	28754.13
715.469	28735.15
715.812	28694.02
716.156	28567.47
716.499	28682.49
716.843	28634.13
717.186	28463.74
717.53	28489.96
717.873	28488.6
718.216	28418.09
718.559	28353.46
718.902	28240.02
719.246	28268.27
719.589	28084.54
719.932	28009.52
720.275	28094.94
720.617	27939.46
720.96	27942.85
721.303	27871.89
721.646	27874.38
721.989	27647.72
722.331	27799.35
722.674	27628.06
723.016	27706.7
723.359	27537.21
723.701	27515.07
724.044	27498.12
724.386	27230.56
724.729	27463.77
725.071	27308.07
725.413	27285.02
725.755	27364.11
726.097	27181.06
726.439	27077.56
726.782	27218.8
727.124	27285.02
727.465	27025.59
727.807	27141.97
728.149	26964.57
728.491	27010
728.833	27019.04
729.175	26884.12
729.516	26819.94
729.858	26750.12
730.199	26819.49
730.541	26792.6
730.882	26663.11
731.224	26801.87
731.565	26673.28
731.906	26559.39
732.248	26589.67
732.589	26380.86
732.93	26415.21
733.271	26380.41
733.612	26427.19
733.953	26449.33
734.294	26182.9
734.635	26246.4
734.976	26347.19
735.317	26117.14
735.658	26058.83
735.999	26241.65
736.339	26034.43
736.68	26130.25
737.021	25954.66
737.361	25920.53
737.702	26003.69
738.042	26039.63
738.383	25848.44
738.723	25925.5
739.063	25676.02
739.404	25792.4
739.744	25762.57
740.084	25714.89
740.424	25755.57
740.764	25598.73
741.104	25645.06
741.444	25435.8
741.784	25541.33
742.124	25512.41
742.464	25495.23
742.804	25324.16
743.143	25293.21
743.483	25463.82
743.823	25306.76
744.162	25193.32
744.502	25283.71
744.841	25216.82
745.181	25294.11
745.52	25057.73
745.86	25200.78
746.199	25066.77
746.538	25161.01
746.877	25105.19
747.216	25050.73
747.556	24917.17
747.895	25067
748.234	24783.61
748.573	24913.78
748.911	24778.19
749.25	24881.46
749.589	24703.16
749.928	24702.26
750.267	24752.43
750.605	24697.97
750.944	24685.09
751.283	24481.25
751.621	24563.28
751.96	24452.78
752.298	24373
752.636	24463.4
752.975	24325.09
753.313	24288.26
753.651	24367.58
753.989	24217.75
754.327	24183.4
754.666	24126.91
755.004	23980.47
755.342	24035.16
755.679	24018.21
756.017	23801.94
756.355	23971.21
756.693	23760.82
757.031	23833.81
757.368	23760.59
757.706	23802.85
758.044	23520.37
758.381	23677.43
758.719	23501.16
759.056	23485.34
759.394	23420.26
759.731	23299.81
760.068	23178.46
760.405	23062.53
760.743	23057.11
761.08	23079.48
761.417	22975.3
761.754	22915.87
762.091	22965.36
762.428	22782.08
762.765	22703.44
763.102	22891.23
763.438	22634.74
763.775	22554.97
764.112	22605.14
764.449	22439.27
764.785	22403.79
765.122	22295.32
765.458	22203.34
765.795	22185.49
766.131	22155.89
766.467	22017.13
766.804	21953.63
767.14	21898.72
767.476	21940.52
767.812	21784.37
768.148	21707.31
768.485	21645.84
768.821	21600.19
769.157	21560.65
769.492	21536.69
769.828	21486.53
770.164	21163.14
770.5	21261.67
770.836	21103.94
771.171	21034.11
771.507	20922.25
771.842	20889.03
772.178	20756.15
772.513	20806.77
772.849	20727.45
773.184	20661.46
773.519	20693.33
773.855	20522.26
774.19	20449.94
774.525	20439.1
774.86	20408.59
775.195	20227.35
775.53	20160.46
775.865	20049.95
776.2	19974.7
776.535	19866.68
776.87	19764.08
777.205	19760.92
777.539	19600.02
777.874	19754.59
778.209	19508.72
778.543	19563.86
778.878	19367.94
779.212	19447.26
779.547	19294.72
779.881	19292.23
780.215	19124.55
780.55	19217.66
780.884	18990.55
781.218	19002.3
781.552	19010.43
781.886	18896.76
782.22	18806.37
782.554	18657.67
782.888	18543.33
783.222	18513.04
783.556	18439.15
783.889	18467.17
784.223	18334.07
784.557	18257.01
784.89	18310.79
785.224	18147.63
785.557	18066.28
785.891	18009.78
786.224	17940.4
786.558	17927.07
786.891	17746.51
787.224	17709.9
787.557	17691.6
787.891	17623.12
788.224	17581.09
788.557	17613.63
788.89	17477.14
789.223	17446.41
789.556	17305.39
789.888	17258.39
790.221	17191.27
790.554	17125.28
790.887	17055.46
791.219	17010.26
791.552	17070.6
791.884	16977.04
792.217	16808.46
792.549	16839.87
792.882	16642.59
793.214	16679.19
793.546	16635.58
793.879	16596.03
794.211	16500.89
794.543	16472.65
794.875	16397.62
795.207	16462.7
795.539	16394
795.871	16327.79
796.203	16292.76
796.535	16073.11
796.867	16138.19
797.198	16015.26
797.53	15948.59
797.862	15939.55
798.193	16043.28
798.525	15865.88
798.856	15775.72
799.188	15628.6
799.519	15564.87
799.85	15624.98
800.182	15602.16
800.513	15540.69
800.844	15434.03
801.175	15542.05
801.506	15423.86
801.837	15391.77
802.168	15351.77
802.499	15176.18
802.83	15174.15
803.161	15200.14
803.491	15109.07
803.822	15109.97
804.153	14976.41
804.483	14907.49
804.814	14837.66
805.145	14875.63
805.475	14840.6
805.805	14832.46
806.136	14757.21
806.466	14713.82
806.796	14698.23
807.126	14594.05
807.457	14543.88
807.787	14601.28
808.117	14487.39
808.447	14407.62
808.777	14496.88
809.107	14339.14
809.436	14365.13
809.766	14302.31
810.096	14336.43
810.426	14230.67
810.755	14331.46
811.085	14242.2
811.414	14139.6
811.744	14089.43
812.073	14085.14
812.403	13989.55
812.732	13999.49
813.061	14008.3
813.39	13895.99
813.719	13853.28
814.049	13913.17
814.378	13806.95
814.707	13730.12
815.036	13801.76
815.365	13703.45
815.693	13614.64
816.022	13589.56
816.351	13594.53
816.68	13485.61
817.008	13543.23
817.337	13427.3
817.665	13417.59
817.994	13435.66
818.322	13357.93
818.651	13330.81
818.979	13291.94
819.307	13254.43
819.636	13203.13
819.964	13166.07
820.292	13244.71
820.62	13158.83
820.948	13151.83
821.276	13142.34
821.604	13128.55
821.932	13114.77
822.259	13166.74
822.587	13124.49
822.915	13097.14
823.243	13161.77
823.57	13091.94
823.898	13076.8
824.225	13000.42
824.553	13044.49
824.88	13037.48
825.207	13124.49
825.535	12994.55
825.862	13055.79
826.189	13029.57
826.516	13029.57
826.843	13107.54
827.17	13084.03
827.497	13086.75
827.824	13048.56
828.151	13129.23
828.478	13028.44
828.805	13172.39
829.131	12971.27
829.458	13071.61
829.785	13053.98
830.111	12994.77
830.438	13086.52
830.764	13001.55
831.09	13042.68
831.417	12984.38
831.743	13037.71
832.069	13023.7
832.395	12957.48
832.722	13005.84
833.048	12971.04
833.374	12960.87
833.7	12885.62
834.026	12908.67
834.351	12908.67
834.677	12858.96
835.003	12941.67
835.329	12917.94
835.654	12840.2
835.98	12785.06
836.306	12810.14
836.631	12762.69
836.956	12868.22
837.282	12855.57
837.607	12686.98
837.932	12761.56
838.258	12707.32
838.583	12731.73
838.908	12651.28
839.233	12621.45
839.558	12684.5
839.883	12570.15
840.208	12587.78
840.533	12539.42
840.858	12614.22
841.182	12513.43
841.507	12517.27
841.832	12448.8
842.156	12467.33
842.481	12429.14
842.805	12364.96
843.13	12305.3
843.454	12279.99
843.778	12299.42
844.103	12227.79
844.427	12199.54
844.751	12172.42
845.075	12177.17
845.399	12168.58
845.723	12090.84
846.047	12056.49
846.371	11968.81
846.695	11915.25
847.019	11814.92
847.343	11867.8
847.666	11820.56
847.99	11721.81
848.313	11693.79
848.637	11670.06
848.96	11627.58
849.284	11565.66
849.607	11517.75
849.931	11483.62
850.254	11400.01
850.577	11322.5
850.9	11297.19
851.223	11221.94
851.546	11202.73
851.869	11153.46
852.192	11214.93
852.515	11066.91
852.838	11056.97
853.161	11096.06
853.483	10996.18
853.806	10995.5
854.129	10978.33
854.451	10892.45
854.774	10803.42
855.096	10831.21
855.419	10810.87
855.741	10759.35
856.063	10687.71
856.385	10706.24
856.708	10632.35
857.03	10648.84
857.352	10614.95
857.674	10529.75
857.996	10559.81
858.318	10560.94
858.64	10418.57
858.961	10391.45
859.283	10476.65
859.605	10382.18
859.926	10395.74
860.248	10293.83
860.57	10239.36
860.891	10198.01
861.212	10132.7
861.534	10166.6
861.855	10158.24
862.176	10142.64
862.498	10137.67
862.819	10146.71
863.14	10126.37
863.461	10066.26
863.782	10048.86
864.103	10046.6
864.424	9963.89
864.745	10031.69
865.065	9982.42
865.386	9884.57
865.707	9929.54
866.027	9960.5
866.348	9918.02
866.668	9883.67
866.989	9789.21
867.309	9797.79
867.63	9832.82
867.95	9798.25
868.27	9815.42
868.59	9769.55
868.91	9782.2
869.23	9754.18
869.55	9729.32
869.87	9784.69
870.19	9725.7
870.51	9668.76
870.83	9701.98
871.15	9696.55
871.469	9633.28
871.789	9679.6
872.109	9686.84
872.428	9574.97
872.748	9635.31
873.067	9620.62
873.386	9585.14
873.706	9485.49
874.025	9490.23
874.344	9517.35
874.663	9486.39
874.982	9494.75
875.301	9445.49
875.62	9416.11
875.939	9392.83
876.258	9356.22
876.577	9346.96
876.896	9374.75
877.214	9361.87
877.533	9373.17
877.852	9333.4
878.17	9315.09
878.489	9321.42
878.807	9293.85
879.125	9208.43
879.444	9208.2
879.762	9235.32
880.08	9193.52
880.398	9186.74
880.716	9191.26
881.034	9150.58
881.352	9164.82
881.67	9053.63
881.988	9101.54
882.306	9014.31
882.624	9063.35
882.941	9020.41
883.259	8987.42
883.577	8974.99
883.894	8927.53
884.212	8980.64
884.529	8997.14
884.846	8846.41
885.164	8868.1
885.481	8850.93
885.798	8903.81
886.115	8818.16
886.432	8839.63
886.75	8767.31
887.067	8769.35
887.383	8795.33
887.7	8773.19
888.017	8699.74
888.334	8751.49
888.651	8650.7
888.967	8600.54
889.284	8683.02
889.6	8601.89
889.917	8536.36
890.233	8587.88
890.55	8483.93
890.866	8496.13
891.182	8493.19
891.498	8425.4
891.815	8440.54
892.131	8392.86
892.447	8417.94
892.763	8348.57
893.079	8301.79
893.395	8256.82
893.71	8306.08
894.026	8298.85
894.342	8218.85
894.657	8183.15
894.973	8193.99
895.289	8132.98
895.604	8118.52
895.92	8099.31
896.235	8034.22
896.55	7996.48
896.865	8037.61
897.181	7983.6
897.496	8039.42
897.811	7940.44
898.126	7944.28
898.441	7868.35
898.756	7836.49
899.071	7798.98
899.386	7847.56
899.7	7781.58
900.015	7795.13
900.33	7684.4
900.644	7670.17
900.959	7700.67
901.273	7629.04
901.588	7616.38
901.902	7624.07
902.216	7540.45
902.531	7493.9
902.845	7521.24
903.159	7441.7
903.473	7432.43
903.787	7404.18
904.101	7337.97
904.415	7370.96
904.729	7324.41
905.042	7277.41
905.356	7263.62
905.67	7264.75
905.984	7247.8
906.297	7230.4
906.611	7175.94
906.924	7184.53
907.237	7160.35
907.551	7107.24
907.864	7088.03
908.177	7034.02
908.491	7064.98
908.804	7060.24
909.117	6902.28
909.43	6903.63
909.743	6854.59
910.056	6890.3
910.368	6884.65
910.681	6823.18
910.994	6784.09
911.307	6757.65
911.619	6707.25
911.932	6721.49
912.244	6620.02
912.557	6655.05
912.869	6643.98
913.181	6628.16
913.494	6606.01
913.806	6543.42
914.118	6502.74
914.43	6442.18
914.742	6509.74
915.054	6440.14
915.366	6450.99
915.678	6363.31
915.99	6300.48
916.302	6312.01
916.613	6294.83
916.925	6267.94
917.236	6224.78
917.548	6253.03
917.859	6222.97
918.171	6185.46
918.482	6178.45
918.794	6064.11
919.105	6095.29
919.416	6106.59
919.727	6032.47
920.038	6030.89
920.349	6015.75
920.66	5940.27
920.971	5983.2
921.282	5956.99
921.593	5887.39
921.903	5849.42
922.214	5867.05
922.525	5892.59
922.835	5834.28
923.146	5805.13
923.456	5770.78
923.767	5740.27
924.077	5686.49
924.387	5712.48
924.697	5673.16
925.008	5630.9
925.318	5643.1
925.628	5644.68
925.938	5615.76
926.248	5527.85
926.558	5542.31
926.867	5490.56
927.177	5467.29
927.487	5456.89
927.796	5423.22
928.106	5437.46
928.416	5385.93
928.725	5337.12
929.034	5357.91
929.344	5360.4
929.653	5352.26
929.962	5324.92
930.271	5249.66
930.581	5221.42
930.89	5191.36
931.199	5187.97
931.508	5160.63
931.817	5161.3
932.125	5096.45
932.434	5117.46
932.743	5029.11
933.051	5041.99
933.36	5066.17
933.669	4998.15
933.977	4955.21
934.286	4973.74
934.594	4951.59
934.902	4937.13
935.21	4907.75
935.519	4870.47
935.827	4862.56
936.135	4813.97
936.443	4806.74
936.751	4785.27
937.059	4801.54
937.367	4705.5
937.674	4753.86
937.982	4704.14
938.29	4682
938.597	4728.55
938.905	4625.95
939.213	4634.09
939.52	4653.07
939.827	4613.3
940.135	4600.19
940.442	4573.52
940.749	4556.12
941.056	4541.89
941.363	4508.67
941.67	4470.25
941.977	4436.8
942.284	4448.78
942.591	4412.85
942.898	4435.22
943.205	4360.42
943.511	4370.37
943.818	4368.33
944.125	4322.91
944.431	4305.06
944.738	4259.86
945.044	4270.03
945.35	4264.15
945.657	4243.36
945.963	4229.8
946.269	4194.55
946.575	4242.46
946.881	4146.19
947.187	4138.96
947.493	4164.95
947.799	4135.8
948.105	4099.41
948.41	4100.99
948.716	4074.55
949.022	4062.8
949.327	4042.24
949.633	3982.8
949.938	3985.06
950.244	3953.65
950.549	3962.69
950.854	3942.35
951.16	3899.19
951.465	3875.46
951.77	3938.29
952.075	3868.01
952.38	3888.8
952.685	3842.47
952.99	3842.02
953.294	3843.37
953.599	3790.49
953.904	3804.96
954.209	3755.47
954.513	3761.12
954.818	3752.3
955.122	3732.87
955.426	3709.37
955.731	3717.28
956.035	3679.76
956.339	3686.09
956.643	3655.36
956.948	3634.57
957.252	3591.85
957.556	3593.66
957.86	3596.83
958.163	3578.52
958.467	3545.53
958.771	3540.1
959.075	3543.49
959.378	3474.12
959.682	3500.11
959.985	3476.6
960.289	3433.44
960.592	3429.37
960.896	3379.88
961.199	3429.83
961.502	3405.19
961.805	3412.2
962.108	3355.93
962.411	3363.61
962.714	3362.26
963.017	3331.52
963.32	3325.87
963.623	3272.99
963.926	3255.59
964.228	3275.03
964.531	3227.12
964.833	3247.91
965.136	3205.88
965.438	3196.84
965.741	3206.78
966.043	3179.44
966.345	3159.78
966.648	3138.31
966.95	3157.74
967.252	3124.97
967.554	3130.62
967.856	3070.06
968.158	3068.03
968.46	3053.56
968.761	3059.89
969.063	3053.79
969.365	3082.04
969.666	3000.46
969.968	3013.34
970.269	2983.06
970.571	2983.74
970.872	2964.07
971.174	2937.86
971.475	2910.97
971.776	2943.96
972.077	2944.41
972.378	2905.09
972.679	2865.09
972.98	2941.25
973.281	2880.91
973.582	2896.51
973.883	2842.72
974.183	2838.2
974.484	2809.73
974.785	2789.84
975.085	2787.81
975.386	2823.06
975.686	2781.93
975.986	2755.94
976.287	2744.87
976.587	2742.61
976.887	2694.03
977.187	2714.36
977.487	2701.71
977.787	2684.08
978.087	2677.3
978.387	2658.09
978.687	2706
978.987	2634.82
979.286	2636.85
979.586	2615.38
979.885	2612.45
980.185	2618.32
980.484	2598.66
980.784	2609.73
981.083	2570.19
981.382	2543.07
981.682	2543.29
981.981	2556.85
982.28	2531.54
982.579	2490.87
982.878	2491.09
983.177	2482.96
983.475	2499.68
983.774	2445.22
984.073	2455.61
984.372	2441.83
984.67	2452.68
984.969	2467.36
985.267	2400.02
985.566	2402.51
985.864	2395.28
986.162	2373.36
986.461	2347.14
986.759	2378.1
987.057	2360.93
987.355	2323.41
987.653	2328.61
987.951	2333.36
988.249	2310.76
988.547	2283.41
988.844	2285.67
989.142	2302.62
989.44	2259.46
989.737	2270.31
990.035	2236.86
990.332	2255.39
990.63	2214.72
990.927	2229.86
991.224	2192.57
991.521	2180.59
991.819	2184.89
992.116	2192.34
992.413	2211.1
992.71	2153.93
993.006	2141.95
993.303	2134.04
993.6	2119.8
993.897	2112.12
994.193	2082.74
994.49	2126.81
994.787	2095.17
995.083	2084.32
995.379	2075.06
995.676	2063.99
995.972	2079.35
996.268	2060.37
996.565	2051.1
996.861	2010.2
997.157	2039.58
997.453	1981.5
997.749	1998.45
998.044	1976.98
998.34	1983.31
998.636	1966.13
998.932	1969.3
999.227	1923.2
999.523	1932.24
999.818	1937.21
1000.114	1915.97
1000.409	1927.49
1000.704	1896.98
1001	1851.79
1001.295	1872.13
1001.59	1892.01
1001.885	1906.02
1002.18	1878.23
1002.475	1837.1
1002.77	1808.4
1003.065	1836.42
1003.359	1798.68
1003.654	1812.69
1003.949	1842.52
1004.243	1806.36
1004.538	1778.57
1004.832	1775.63
1005.127	1769.53
1005.421	1757.55
1005.715	1749.42
1006.009	1716.42
1006.304	1717.33
1006.598	1698.8
1006.892	1654.28
1007.186	1717.33
1007.48	1684.79
1007.773	1677.78
1008.067	1682.98
1008.361	1657.22
1008.655	1638.91
1008.948	1652.47
1009.242	1635.52
1009.535	1593.72
1009.829	1580.38
1010.122	1621.74
1010.415	1612.25
1010.708	1591.23
1011.001	1564.79
1011.295	1567.28
1011.588	1588.74
1011.881	1548.52
1012.173	1535.19
1012.466	1552.13
1012.759	1517.11
1013.052	1505.36
1013.344	1496.99
1013.637	1502.19
1013.93	1499.03
1014.222	1483.66
1014.514	1457.45
1014.807	1466.94
1015.099	1451.57
1015.391	1474.85
1015.683	1447.05
1015.976	1440.72
1016.268	1408.41
1016.56	1417.45
1016.851	1415.41
1017.143	1397.34
1017.435	1388.3
1017.727	1402.08
1018.018	1373.61
1018.31	1352.14
1018.602	1353.95
1018.893	1355.3
1019.185	1363.21
1019.476	1315.53
1019.767	1363.44
1020.058	1331.8
1020.35	1315.08
1020.641	1312.59
1020.932	1297.45
1021.223	1274.4
1021.514	1282.54
1021.804	1239.37
1022.095	1274.4
1022.386	1261.29
1022.677	1258.58
1022.967	1196.44
1023.258	1211.13
1023.548	1241.63
1023.839	1214.52
1024.129	1217.68
1024.419	1209.09
1024.709	1193.05
1025	1202.76
1025.29	1186.04
1025.58	1137.68
1025.87	1160.96
1026.16	1116.21
1026.449	1164.8
1026.739	1145.59
1027.029	1125.93
1027.319	1118.47
1027.608	1122.99
1027.898	1135.42
1028.187	1109.66
1028.477	1103.11
1028.766	1092.26
1029.055	1078.02
1029.344	1075.76
1029.634	1057.46
1029.923	1065.82
1030.212	1057.46
1030.501	1049.55
1030.79	1035.76
1031.078	1039.15
1031.367	1043.45
1031.656	1030.79
1031.945	1015.2
1032.233	1000.28
1032.522	1031.92
1032.81	989.66
1033.099	1009.1
1033.387	1007.06
1033.675	982.66
1033.963	989.21
1034.251	962.09
1034.54	951.47
1034.828	958.93
1035.116	960.96
1035.403	935.43
1035.691	970.45
1035.979	960.29
1036.267	936.33
1036.554	926.61
1036.842	929.78
1037.129	894.52
1037.417	904.47
1037.704	901.3
1037.992	891.59
1038.279	895.65
1038.566	901.3
1038.853	901.3
1039.14	901.3
