Data from hue_150_FLMS001491_00052.txt Node
Date: Tue Feb 07 16:54:13 GMT 2017
User: dcchb
Spectrometer: FLMS00149
Trigger mode: 0
Integration Time (sec): 2.000000E-2
Scans to average: 10
Electric dark correction enabled: true
Nonlinearity correction enabled: false
Boxcar width: 0
XAxis mode: Wavelengths
Number of Pixels in Spectrum: 2048
>>>>>Begin Spectral Data<<<<<
341.393	-11.69
341.776	-11.69
342.16	-11.69
342.543	-69.32
342.927	-69.32
343.31	-81.3
343.693	-72.26
344.077	-66.61
344.46	-69.09
344.843	-56.67
345.226	-39.94
345.61	-30.9
345.993	-11.69
346.376	15.65
346.759	1.41
347.142	23.78
347.525	48.87
347.908	57
348.291	81.18
348.674	83.44
349.057	117.12
349.44	130
349.823	138.36
350.206	153.95
350.588	185.81
350.971	197.57
351.354	221.07
351.737	225.81
352.119	234.17
352.502	258.35
352.884	280.5
353.267	261.74
353.65	296.32
354.032	295.19
354.414	303.33
354.797	315.3
355.179	311.01
355.562	320.05
355.944	341.29
356.326	332.93
356.709	331.57
357.091	337.22
357.473	320.27
357.855	327.05
358.238	339.03
358.62	322.31
359.002	343.55
359.384	337.9
359.766	341.74
360.148	317.34
360.53	335.19
360.912	321.4
361.294	329.31
361.676	323.89
362.057	322.08
362.439	321.4
362.821	316.21
363.203	307.62
363.584	316.66
363.966	316.21
364.348	300.16
364.729	321.86
365.111	327.28
365.493	295.42
365.874	300.39
366.256	328.86
366.637	286.38
367.019	308.3
367.4	320.5
367.781	300.16
368.163	317.56
368.544	331.57
368.925	311.23
369.306	297.22
369.688	294.74
370.069	328.86
370.45	301.97
370.831	311.91
371.212	320.73
371.593	292.25
371.974	325.92
372.355	315.3
372.736	300.16
373.117	314.17
373.498	320.05
373.879	332.25
374.26	309.65
374.641	297.45
375.021	313.95
375.402	328.18
375.783	322.31
376.163	315.98
376.544	323.66
376.925	330.9
377.305	311.46
377.686	317.11
378.066	318.69
378.447	319.82
378.827	325.02
379.208	337
379.588	325.25
379.968	318.24
380.349	330.67
380.729	316.66
381.109	329.54
381.489	322.99
381.87	308.3
382.25	318.47
382.63	326.15
383.01	330.67
383.39	323.66
383.77	322.08
384.15	332.93
384.53	353.95
384.91	329.77
385.29	341.52
385.67	344.68
386.049	332.25
386.429	337.9
386.809	345.81
387.189	357.56
387.568	365.7
387.948	349.65
388.328	340.61
388.707	342.42
389.087	337
389.466	350.56
389.846	342.87
390.225	358.01
390.605	348.07
390.984	364.57
391.363	352.14
391.743	377
392.122	359.6
392.501	351.01
392.881	383.1
393.26	358.24
393.639	378.13
394.018	379.71
394.397	375.19
394.776	364.11
395.155	370.67
395.534	379.48
395.913	359.82
396.292	375.19
396.671	381.97
397.05	373.38
397.429	363.66
397.808	369.99
398.186	387.16
398.565	368.86
398.944	381.97
399.323	370.89
399.701	386.26
400.08	389.42
400.458	389.42
400.837	379.71
401.215	386.94
401.594	384
401.972	396.66
402.351	395.98
402.729	399.59
403.107	383.1
403.486	400.72
403.864	402.76
404.242	399.59
404.62	418.8
404.999	409.09
405.377	416.54
405.755	425.81
406.133	441.17
406.511	409.09
406.889	409.54
407.267	421.74
407.645	430.55
408.023	418.58
408.401	432.14
408.779	421.06
409.156	415.41
409.534	442.98
409.912	442.3
410.29	462.87
410.667	432.36
411.045	452.47
411.422	445.47
411.8	445.69
412.178	453.6
412.555	457.45
412.933	446.82
413.31	468.07
413.687	475.07
414.065	459.25
414.442	469.87
414.819	457.45
415.197	498.8
415.574	488.86
415.951	499.93
416.328	489.31
416.705	497.44
417.082	501.51
417.46	503.77
417.837	497.9
418.214	500.16
418.591	496.99
418.967	511.23
419.344	511.68
419.721	527.05
420.098	494.05
420.475	515.3
420.852	519.82
421.228	513.94
421.605	528.63
421.982	553.49
422.358	515.3
422.735	555.3
423.111	517.78
423.488	550.55
423.864	543.09
424.241	575.18
424.617	556.65
424.994	563.43
425.37	554.62
425.746	561.17
426.123	558.91
426.499	576.09
426.875	551.23
427.251	591.68
427.627	587.16
428.003	600.27
428.379	572.92
428.756	591.91
429.132	595.07
429.507	596.88
429.883	620.15
430.259	625.12
430.635	605.46
431.011	608.63
431.387	633.94
431.763	643.43
432.138	660.15
432.514	633.03
432.89	640.49
433.265	660.15
433.641	694.73
434.016	675.07
434.392	679.59
434.767	687.5
435.143	690.43
435.518	701.96
435.894	700.15
436.269	720.94
436.644	692.92
437.02	703.31
437.395	717.78
437.77	724.33
438.145	706.93
438.52	736.76
438.895	728.85
439.271	746.7
439.646	758.91
440.021	762.3
440.395	745.12
440.77	765.91
441.145	770.21
441.52	789.87
441.895	779.7
442.27	805.91
442.645	810.66
443.019	801.62
443.394	801.17
443.769	788.28
444.143	803.88
444.518	796.87
444.892	814.27
445.267	812.92
445.641	843.65
446.016	832.13
446.39	838.23
446.764	863.99
447.139	861.73
447.513	830.09
447.887	867.15
448.262	844.1
448.636	880.94
449.01	894.95
449.384	876.42
449.758	887.04
450.132	890.88
450.506	893.82
450.88	903.76
451.254	913.03
451.628	914.38
452.002	920.71
452.376	918.22
452.75	954.16
453.123	970.43
453.497	949.41
453.871	986.7
454.244	979.47
454.618	990.99
454.992	1005.91
455.365	1008.84
455.739	1021.27
456.112	1035.28
456.486	1054.27
456.859	1077.99
457.232	1039.13
457.606	1061.72
457.979	1059.01
458.352	1098.56
458.725	1106.02
459.099	1118.45
459.472	1130.65
459.845	1143.53
460.218	1189.63
460.591	1188.73
460.964	1188.05
461.337	1212.45
461.71	1240.48
462.083	1237.31
462.456	1214.26
462.829	1260.36
463.201	1272.79
463.574	1299.68
463.947	1309.63
464.32	1334.03
464.692	1346.46
465.065	1354.15
465.438	1384.43
465.81	1405.67
466.183	1424.43
466.555	1429.17
466.928	1472.33
467.3	1492.45
467.672	1514.37
468.045	1543.74
468.417	1553.91
468.789	1580.13
469.161	1601.37
469.534	1623.06
469.906	1664.65
470.278	1647.7
470.65	1701.03
471.022	1734.02
471.394	1793.46
471.766	1769.73
472.138	1809.95
472.51	1888.82
472.882	1920.46
473.253	1941.25
473.625	1995.94
473.997	2042.71
474.369	2056.95
474.74	2074.8
475.112	2133.33
475.484	2220.11
475.855	2247.23
476.227	2288.13
476.598	2375.81
476.97	2424.4
477.341	2471.4
477.713	2519.54
478.084	2542.59
478.455	2647.22
478.827	2729.48
479.198	2837.5
479.569	2839.3
479.94	2981.45
480.311	2979.64
480.682	3136.47
481.053	3237.94
481.424	3298.05
481.795	3364.26
482.166	3447.65
482.537	3544.14
482.908	3629.34
483.279	3738.26
483.65	3827.07
484.021	3929.9
484.391	4041.08
484.762	4159.5
485.133	4196.33
485.503	4317.23
485.874	4432.26
486.244	4565.36
486.615	4705.24
486.985	4727.62
487.356	4963.09
487.726	5028.85
488.097	5204.89
488.467	5262.29
488.837	5393.36
489.207	5556.97
489.578	5725.1
489.948	5749.74
490.318	5879.9
490.688	5966.45
491.058	6134.13
491.428	6266.78
491.798	6460.68
492.168	6599.88
492.538	6687.56
492.908	6773.66
493.278	6990.61
493.648	7021.57
494.017	7225.18
494.387	7296.14
494.757	7404.61
495.126	7600.31
495.496	7660.19
495.866	7731.15
496.235	7901.54
496.605	7984.71
496.974	8134.98
497.344	8242.78
497.713	8326.84
498.082	8506.5
498.452	8557.57
498.821	8672.6
499.19	8776.77
499.559	8915.75
499.928	8948.52
500.298	9140.16
500.667	9170.21
501.036	9245.92
501.405	9325.91
501.774	9382.63
502.143	9509.64
502.512	9612.23
502.88	9752.57
503.249	9757.31
503.618	9790.08
503.987	9921.6
504.356	10003.41
504.724	9939.91
505.093	10116.4
505.462	10145.1
505.83	10268.49
506.199	10306.45
506.567	10453.57
506.936	10445.66
507.304	10605.2
507.672	10637.97
508.041	10721.58
508.409	10724.97
508.777	10863.27
509.145	10905.31
509.514	10953.67
509.882	11008.35
510.25	11044.74
510.618	11077.28
510.986	11147.33
511.354	11226.65
511.722	11346.2
512.09	11355.92
512.458	11386.42
512.826	11499.42
513.193	11548
513.561	11513.88
513.929	11599.98
514.297	11679.3
514.664	11770.14
515.032	11800.65
515.4	11819.18
515.767	11853.53
516.135	11919.29
516.502	11766.3
516.869	11998.39
517.237	11889.01
517.604	11968.78
517.972	11970.14
518.339	12076.12
518.706	12059.4
519.073	12062.56
519.44	12160.64
519.808	12280.64
520.175	12180.53
520.542	12324.25
520.909	12263.01
521.276	12310.47
521.643	12351.6
522.009	12352.27
522.376	12394.76
522.743	12413.52
523.11	12510.69
523.477	12676.79
523.843	12600.86
524.21	12719.72
524.577	12706.84
524.943	12790.23
525.31	12741.19
525.676	12787.74
526.043	12833.62
526.409	12879.94
526.776	12848.53
527.142	12906.38
527.508	12863.22
527.874	12868.87
528.241	12849.66
528.607	12891.69
528.973	13000.17
529.339	12997.23
529.705	13027.96
530.071	13060.05
530.437	13034.74
530.803	13017.79
531.169	13003.56
531.535	12989.32
531.901	12944.8
532.267	12970.11
532.632	12973.73
532.998	12996.55
533.364	13009.43
533.73	12952.71
534.095	12990.68
534.461	12997.91
534.826	12995.42
535.192	12990.68
535.557	12918.36
535.923	12964.46
536.288	13007.62
536.653	12943.67
537.019	12795.65
537.384	12766.73
537.749	12859.38
538.114	12805.14
538.479	12806.27
538.845	12761.75
539.21	12642.66
539.575	12629.78
539.94	12718.82
540.305	12698.71
540.67	12565.15
541.034	12603.57
541.399	12550.91
541.764	12534.42
542.129	12455.55
542.494	12428.66
542.858	12547.98
543.223	12496.23
543.587	12479.05
543.952	12444.02
544.316	12348.21
544.681	12358.83
545.045	12333.74
545.41	12392.27
545.774	12293.52
546.138	12197.48
546.503	12172.84
546.867	12164.48
547.231	12183.69
547.595	12143.01
547.959	12120.19
548.324	12033.86
548.688	12056.01
549.052	11987.76
549.416	11918.16
549.779	11908.67
550.143	11913.87
550.507	11884.94
550.871	11883.36
551.235	11845.39
551.599	11770.14
551.962	11854.43
552.326	11763.36
552.689	11768.11
553.053	11697.15
553.417	11728.11
553.78	11788.67
554.143	11656.25
554.507	11596.14
554.87	11682.46
555.234	11768.33
555.597	11609.02
555.96	11611.28
556.323	11646.3
556.686	11556.81
557.05	11606.3
557.413	11588.23
557.776	11505.97
558.139	11605.18
558.502	11498.96
558.865	11511.84
559.228	11519.75
559.59	11515.91
559.953	11531.28
560.316	11584.84
560.679	11512.97
561.041	11585.51
561.404	11590.03
561.767	11697.38
562.129	11456.03
562.492	11604.5
562.854	11535.8
563.217	11529.02
563.579	11577.61
563.941	11540.09
564.304	11585.51
564.666	11542.35
565.028	11604.5
565.39	11589.36
565.753	11653.08
566.115	11578.96
566.477	11615.12
566.839	11648.79
567.201	11726.08
567.563	11602.01
567.925	11788.9
568.287	11699.41
568.648	11771.95
569.01	11717.04
569.372	11765.17
569.734	11738.28
570.095	11719.52
570.457	11809.69
570.819	11815.34
571.18	11799.97
571.542	11872.29
571.903	11844.72
572.265	11821.44
572.626	11870.7
572.987	11854.21
573.349	11856.47
573.71	11849.01
574.071	11936.01
574.432	11909.57
574.794	12008.33
575.155	11878.61
575.516	11853.53
575.877	12026.18
576.238	11942.57
576.599	11948.44
576.96	11987.31
577.32	11940.99
577.681	11977.14
578.042	12009.23
578.403	11936.92
578.763	11961.78
579.124	11919.52
579.485	11980.76
579.845	12006.75
580.206	11940.99
580.566	11929.23
580.927	11941.66
581.287	11965.39
581.648	11963.81
582.008	11986.41
582.368	11903.02
582.728	11980.76
583.089	11979.18
583.449	11904.6
583.809	11992.96
584.169	11946.86
584.529	11929.91
584.889	12012.17
585.249	11896.69
585.609	11802.23
585.969	11959.52
586.329	11839.97
586.688	11977.82
587.048	11866.86
587.408	11766.3
587.768	11819.86
588.127	11854.66
588.487	11866.19
588.846	11899.63
589.206	11779.86
589.565	11785.96
589.925	11860.76
590.284	11801.55
590.643	11865.96
591.003	11825.06
591.362	11881.78
591.721	11811.5
592.08	11747.09
592.44	11784.38
592.799	11762.01
593.158	11747.32
593.517	11774.66
593.876	11832.97
594.235	11764.27
594.593	11702.35
594.952	11705.29
595.311	11623.03
595.67	11740.76
596.029	11797.94
596.387	11753.19
596.746	11818.95
597.104	11735.34
597.463	11707.77
597.822	11782.12
598.18	11665.06
598.538	11681.33
598.897	11735.57
599.255	11637.72
599.613	11794.55
599.972	11713.19
600.33	11717.71
600.688	11694.66
601.046	11714.1
601.404	11743.02
601.762	11703.48
602.12	11734.44
602.478	11686.75
602.836	11779.63
603.194	11803.59
603.552	11643.82
603.91	11670.48
604.268	11690.82
604.625	11673.2
604.983	11691.5
605.341	11655.8
605.698	11665.74
606.056	11797.26
606.413	11696.92
606.771	11715.23
607.128	11791.38
607.485	11696.47
607.843	11741.67
608.2	11739.63
608.557	11862.57
608.914	11757.71
609.272	11838.62
609.629	11760.65
609.986	11809.24
610.343	11814.89
610.7	11864.15
611.057	11801.55
611.414	11841.33
611.771	11819.86
612.127	11893.08
612.484	11743.25
612.841	11899.4
613.198	11790.03
613.554	11877.71
613.911	11919.52
614.267	11915.9
614.624	11920.65
614.98	11831.84
615.337	11995.9
615.693	11926.52
616.05	11919.29
616.406	12001.55
616.762	11913.87
617.118	11990.48
617.475	12023.7
617.831	12013.07
618.187	11961.78
618.543	12051.94
618.899	12065.5
619.255	11996.58
619.611	11975.56
619.967	12039.51
620.323	12099.4
620.678	11945.28
621.034	12039.74
621.39	11945.51
621.746	12007.88
622.101	12155.22
622.457	12063.24
622.812	12069.57
623.168	12133.75
623.523	12101.66
623.879	12148.44
624.234	11981.21
624.589	12026.63
624.945	12158.38
625.3	12065.95
625.655	12050.81
626.01	12068.89
626.365	12047.2
626.72	12005.39
627.075	12001.77
627.43	12075.9
627.785	11981.66
628.14	11996.13
628.495	12068.21
628.85	12037.71
629.205	12067.99
629.559	12014.66
629.914	11935.56
630.269	11998.84
630.623	11945.51
630.978	11939.18
631.332	11943.92
631.687	11982.57
632.041	11893.08
632.396	12008.1
632.75	11891.5
633.104	11895.79
633.459	11887.2
633.813	11783.48
634.167	11928.78
634.521	11876.81
634.875	11868.22
635.229	11884.49
635.583	11702.35
635.937	11757.04
636.291	11839.97
636.645	11722.46
636.999	11734.21
637.352	11738.5
637.706	11700.77
638.06	11661.9
638.413	11627.1
638.767	11625.74
639.121	11701.44
639.474	11554.33
639.828	11620.77
640.181	11562.92
640.534	11628.23
640.888	11559.3
641.241	11577.61
641.594	11581.45
641.947	11618.51
642.301	11579.64
642.654	11507.1
643.007	11562.92
643.36	11481.11
643.713	11509.13
644.066	11482.24
644.419	11517.95
644.771	11483.14
645.124	11332.64
645.477	11288.57
645.83	11242.92
646.182	11287.44
646.535	11203.15
646.888	11160.44
647.24	11014.23
647.593	11207.22
647.945	11137.84
648.298	11116.15
648.65	11118.63
649.002	11107.56
649.355	11154.57
649.707	11112.31
650.059	11183.94
650.411	11294.67
650.763	11278.18
651.115	11377.61
651.467	11411.73
651.819	11313.21
652.171	11377.84
652.523	11397.27
652.875	11333.32
653.227	11329.02
653.578	11390.94
653.93	11388.01
654.282	11351.85
654.633	11237.28
654.985	11384.62
655.337	11384.84
655.688	11376.25
656.039	11331.28
656.391	11307.1
656.742	11322.02
657.094	11332.87
657.445	11392.07
657.796	11340.1
658.147	11396.59
658.498	11406.54
658.849	11440.21
659.2	11391.62
659.551	11392.3
659.902	11413.09
660.253	11398.4
660.604	11360.66
660.955	11401.56
661.306	11476.14
661.656	11435.01
662.007	11494.9
662.358	11404.73
662.708	11409.93
663.059	11361.34
663.409	11296.03
663.76	11411.06
664.11	11410.6
664.461	11386.65
664.811	11348.91
665.161	11455.8
665.511	11350.94
665.862	11377.61
666.212	11460.77
666.562	11455.57
666.912	11366.31
667.262	11380.1
667.612	11408.34
667.962	11348.23
668.312	11335.58
668.662	11539.19
669.011	11342.81
669.361	11384.16
669.711	11311.4
670.06	11294
670.41	11353.43
670.76	11325.41
671.109	11413.54
671.459	11344.84
671.808	11275.01
672.157	11356.59
672.507	11292.87
672.856	11285.41
673.205	11353.66
673.554	11306.88
673.904	11263.26
674.253	11319.98
674.602	11291.74
674.951	11168.58
675.3	11049.26
675.649	11216.26
675.998	11204.73
676.346	11193.43
676.695	11197.28
677.044	11164.51
677.393	11113.66
677.741	11215.81
678.09	11123.61
678.438	11138.52
678.787	11175.36
679.135	11127.22
679.484	11060.1
679.832	11158.86
680.181	11044.51
680.529	11072.08
680.877	11039.77
681.225	11014.23
681.573	11065.3
681.922	11026.21
682.27	10921.35
682.618	10972.42
682.966	10897.62
683.314	10876.83
683.661	10899.43
684.009	10894.91
684.357	10847.45
684.705	10838.42
685.053	10838.64
685.4	10724.07
685.748	10728.36
686.095	10701.92
686.443	10689.94
686.79	10622.38
687.138	10738.31
687.485	10710.28
687.832	10624.18
688.18	10572.43
688.527	10584.64
688.874	10483.62
689.221	10557.29
689.568	10536.5
689.915	10462.15
690.262	10432.78
690.609	10446.79
690.956	10453.11
691.303	10368.15
691.65	10284.31
691.997	10333.12
692.344	10265.78
692.69	10235.72
693.037	10196.17
693.383	10142.16
693.73	10207.25
694.077	10119.11
694.423	10130.41
694.769	10062.62
695.116	10074.14
695.462	10062.39
695.808	10017.65
696.155	9926.8
696.501	9910.53
696.847	9907.14
697.193	9822.62
697.539	9957.76
697.885	9792.79
698.231	9702.4
698.577	9679.58
698.923	9751.44
699.269	9655.4
699.614	9542.86
699.96	9552.35
700.306	9518
700.651	9457.21
700.997	9499.92
701.342	9375.86
701.688	9364.33
702.033	9352.8
702.379	9389.41
702.724	9313.26
703.069	9317.78
703.415	9178.57
703.76	9217.67
704.105	9182.41
704.45	9163.21
704.795	9173.15
705.14	9077.33
705.485	9116.88
705.83	9043.66
706.175	9054.73
706.52	9046.6
706.865	8927.51
707.209	9017.22
707.554	8929.99
707.899	8964.11
708.243	8806.6
708.588	8873.72
708.932	8823.78
709.277	8732.48
709.621	8750.11
709.966	8765.25
710.31	8784.68
710.654	8668.76
710.998	8709.43
711.342	8666.95
711.687	8597.8
712.031	8564.58
712.375	8563.9
712.719	8557.12
713.063	8541.75
713.407	8600.51
713.75	8505.37
714.094	8480.74
714.438	8515.76
714.782	8450.23
715.125	8414.52
715.469	8488.19
715.812	8456.56
716.156	8372.27
716.499	8329.33
716.843	8384.69
717.186	8350.57
717.53	8411.59
717.873	8355.54
718.216	8331.81
718.559	8344.24
718.902	8202.33
719.246	8316.9
719.589	8266.51
719.932	8191.25
720.275	8216.56
720.617	8211.37
720.96	8245.49
721.303	8180.63
721.646	8217.02
721.989	8101.09
722.331	8269.9
722.674	8210.46
723.016	8247.75
723.359	8188.09
723.701	8187.41
724.044	8108.77
724.386	8088.21
724.729	8141.99
725.071	8082.78
725.413	8144.02
725.755	8130.01
726.097	8099.05
726.439	8160.97
726.782	8051.14
727.124	8118.94
727.465	8076.68
727.807	8088.21
728.149	8051.6
728.491	8016.34
728.833	8073.52
729.175	8073.97
729.516	8028.77
729.858	8021.54
730.199	8063.57
730.541	7975.44
730.882	8025.83
731.224	8021.31
731.565	7960.07
731.906	7989.22
732.248	7960.98
732.589	7938.83
732.93	8007.53
733.271	7924.82
733.612	7949.9
733.953	7979.06
734.294	7949.23
734.635	7959.4
734.976	7950.58
735.317	8000.52
735.658	7949.45
735.999	7951.03
736.339	7907.19
736.68	8031.03
737.021	8007.08
737.361	7971.15
737.702	8023.57
738.042	8034.87
738.383	8059.05
738.723	7995.78
739.063	7994.65
739.404	8065.16
739.744	7998.49
740.084	8045.72
740.424	8052.27
740.764	8046.62
741.104	8079.39
741.444	8092.73
741.784	8074.65
742.124	8105.38
742.464	8129.79
742.804	8098.83
743.143	8131.14
743.483	8184.02
743.823	8124.59
744.162	8162.55
744.502	8225.15
744.841	8205.04
745.181	8363.23
745.52	8355.09
745.86	8364.58
746.199	8401.19
746.538	8443
746.877	8518.7
747.216	8487.74
747.556	8506.73
747.895	8531.81
748.234	8637.57
748.573	8629.43
748.911	8663.78
749.25	8763.89
749.589	8755.98
749.928	8842.08
750.267	8981.97
750.605	8988.07
750.944	9019.71
751.283	9087.05
751.621	9159.59
751.96	9259.7
752.298	9347.83
752.636	9421.05
752.975	9460.15
753.313	9574.72
753.651	9679.12
753.989	9783.75
754.327	9850.87
754.666	9956.86
755.004	10077.31
755.342	10217.87
755.679	10314.36
756.017	10406.11
756.355	10530.63
756.693	10612.21
757.031	10840.22
757.368	10929.03
757.706	11061.01
758.044	11158.63
758.381	11334.22
758.719	11419.87
759.056	11711.39
759.394	11733.31
759.731	11814.66
760.068	12038.16
760.405	12234.76
760.743	12337.59
761.08	12488.99
761.417	12641.76
761.754	12880.4
762.091	12984.12
762.428	13128.3
762.765	13268.63
763.102	13363.55
763.438	13600.6
763.775	13615.29
764.112	13850.31
764.449	14042.63
764.785	14112.68
765.122	14278.33
765.458	14344.09
765.795	14469.73
766.131	14690.97
766.467	14816.62
766.804	14900.68
767.14	14981.36
767.476	15204.4
767.812	15228.58
768.148	15444.4
768.485	15477.62
768.821	15506.09
769.157	15706.54
769.492	15852.3
769.828	15957.6
770.164	15909.92
770.5	16147.43
770.836	16250.7
771.171	16273.75
771.507	16397.59
771.842	16363.69
772.178	16577.7
772.513	16643.01
772.849	16716.68
773.184	16783.57
773.519	16904.7
773.855	16952.38
774.19	17033.28
774.525	17009.33
774.86	17230.56
775.195	17313.95
775.53	17241.19
775.865	17291.35
776.2	17258.13
776.535	17282.99
776.87	17358.47
777.205	17378.36
777.539	17444.34
777.874	17475.53
778.209	17464
778.543	17543.78
778.878	17458.13
779.212	17574.96
779.547	17588.29
779.881	17605.7
780.215	17529.31
780.55	17578.35
780.884	17578.58
781.218	17554.85
781.552	17617.22
781.886	17704.9
782.22	17682.76
782.554	17656.32
782.888	17398.7
783.222	17576.54
783.556	17450.45
783.889	17413.84
784.223	17338.81
784.557	17377.9
784.89	17490.44
785.224	17441.18
785.557	17308.53
785.891	17387.85
786.224	17341.97
786.558	17430.56
786.891	17325.7
787.224	17200.06
787.557	17135.2
787.891	17273.05
788.224	17217
788.557	17316.66
788.89	17345.82
789.223	17253.84
789.556	17133.39
789.888	17169.32
790.221	17171.13
790.554	17026.73
790.887	17105.14
791.219	17014.3
791.552	17052.04
791.884	17007.97
792.217	16942.44
792.549	16955.09
792.882	16791.48
793.214	16769.56
793.546	16916.22
793.879	16697.24
794.211	16712.39
794.543	16626.29
794.875	16731.37
795.207	16751.71
795.539	16692.05
795.871	16696.57
796.203	16532.28
796.535	16414.09
796.867	16449.34
797.198	16386.07
797.53	16430.13
797.862	16317.14
798.193	16296.8
798.525	16298.16
798.856	16277.82
799.188	16144.04
799.519	16082.12
799.85	16013.19
800.182	16058.17
800.513	16065.17
800.844	15899.07
801.175	15991.5
801.506	15955.8
801.837	15917.38
802.168	15920.99
802.499	15806.87
802.83	15778.17
803.161	15701.56
803.491	15752.86
803.822	15759.87
804.153	15640.1
804.483	15548.12
804.814	15440.55
805.145	15549.48
805.475	15522.36
805.805	15422.25
806.136	15453.89
806.466	15456.15
806.796	15360.78
807.126	15230.84
807.457	15292.08
807.787	15262.93
808.117	15174.35
808.447	15061.81
808.777	15178.19
809.107	15114.69
809.436	15100
809.766	15042.82
810.096	15015.48
810.426	14964.63
810.755	15032.88
811.085	15035.14
811.414	14893.9
811.744	14786.33
812.073	14729.61
812.403	14835.82
812.732	14709.05
813.061	14713.79
813.39	14670.86
813.719	14622.04
814.049	14683.74
814.378	14615.27
814.707	14573.91
815.036	14584.08
815.365	14548.15
815.693	14433.12
816.022	14397.87
816.351	14380.47
816.68	14350.87
817.008	14359.45
817.337	14242.39
817.665	14267.7
817.994	14299.12
818.322	14282.17
818.651	14133.47
818.979	14133.02
819.307	14191.55
819.636	14211.66
819.964	14077.2
820.292	14125.11
820.62	14125.11
820.948	13992.91
821.276	14089.18
821.604	13950.65
821.932	14164.66
822.259	14122.17
822.587	13996.52
822.915	13976.19
823.243	14065.9
823.57	14036.07
823.898	14155.84
824.225	14010.76
824.553	13921.5
824.88	13999.46
825.207	14140.25
825.535	14054.15
825.862	14079.46
826.189	14044.88
826.516	14106.8
826.843	14111.55
827.17	14119.46
827.497	14056.86
827.824	14168.72
828.151	14076.07
828.478	14021.38
828.805	14182.06
829.131	14114.26
829.458	14026.58
829.785	13986.58
830.111	14065
830.438	14157.88
830.764	14019.12
831.09	14099.12
831.417	14089.86
831.743	14015.51
832.069	14107.03
832.395	14004.66
832.722	14012.8
833.048	13922.63
833.374	14096.63
833.7	13886.7
834.026	13902.74
834.351	13918.11
834.677	13888.05
835.003	13907.04
835.329	13954.72
835.654	13941.38
835.98	13840.14
836.306	13832.46
836.631	13805.34
836.956	13869.52
837.282	13942.97
837.607	13719.47
837.932	13806.93
838.258	13795.4
838.583	13780.49
838.908	13660.04
839.233	13632.69
839.558	13730.32
839.883	13666.82
840.208	13597.21
840.533	13582.07
840.858	13613.03
841.182	13583.2
841.507	13557.89
841.832	13460.72
842.156	13443.77
842.481	13478.8
842.805	13400.61
843.13	13432.25
843.454	13374.17
843.778	13275.87
844.103	13368.97
844.427	13196.55
844.751	13249.65
845.075	13186.15
845.399	13231.35
845.723	13128.98
846.047	13113.61
846.371	13011.92
846.695	13076.1
847.019	12907.97
847.343	12920.85
847.666	12807.18
847.99	12749.33
848.313	12709.1
848.637	12646.5
848.96	12567.18
849.284	12566.05
849.607	12549.56
849.931	12529.22
850.254	12455.77
850.577	12366.29
850.9	12289.22
851.223	12300.52
851.546	12176.69
851.869	12186.63
852.192	12268.66
852.515	11998.61
852.838	12061.89
853.161	12061.21
853.483	11952.74
853.806	11905.51
854.129	11831.84
854.451	11818.95
854.774	11733.76
855.096	11724.72
855.419	11732.18
855.741	11597.94
856.063	11626.19
856.385	11656.7
856.708	11509.81
857.03	11499.64
857.352	11529.02
857.674	11470.94
857.996	11449.92
858.318	11376.93
858.64	11412.19
858.961	11313.43
859.283	11290.61
859.605	11176.03
859.926	11256.48
860.248	11251.96
860.57	11195.69
860.891	11186.43
861.212	11135.58
861.534	11071.63
861.855	11038.18
862.176	11034.57
862.498	11011.07
862.819	11035.7
863.14	10928.36
863.461	10942.82
863.782	10961.35
864.103	10976.72
864.424	10987.79
864.745	10946.89
865.065	10911.18
865.386	10860.79
865.707	10836.61
866.027	10817.17
866.348	10822.14
866.668	10821.47
866.989	10776.04
867.309	10693.56
867.63	10687.69
867.95	10762.94
868.27	10664.18
868.59	10731.98
868.91	10600.68
869.23	10627.12
869.55	10622.83
869.87	10658.76
870.19	10600.23
870.51	10620.57
870.83	10555.71
871.15	10508.48
871.469	10552.1
871.789	10480.91
872.109	10479.1
872.428	10468.71
872.748	10441.59
873.067	10426.67
873.386	10474.81
873.706	10434.13
874.025	10325.89
874.344	10346.45
874.663	10379.22
874.982	10381.03
875.301	10335.83
875.62	10315.04
875.939	10306.9
876.258	10271.65
876.577	10231.2
876.896	10185.1
877.214	10185.1
877.533	10163.18
877.852	10160.47
878.17	10167.7
878.489	10162.5
878.807	10157.08
879.125	10139.68
879.444	10106.01
879.762	10047.48
880.08	10166.34
880.398	9999.79
880.716	10007.93
881.034	10018.1
881.352	9961.15
881.67	9927.48
881.988	9958.44
882.306	9898.1
882.624	9909.63
882.941	9827.82
883.259	9747.82
883.577	9807.26
883.894	9836.18
884.212	9889.51
884.529	9867.37
884.846	9686.13
885.164	9770.2
885.481	9740.82
885.798	9674.83
886.115	9626.7
886.432	9648.84
886.75	9597.54
887.067	9635.28
887.383	9578.34
887.7	9598
888.017	9577.43
888.334	9533.82
888.651	9495.17
888.967	9428.74
889.284	9452.46
889.6	9458.34
889.917	9355.06
890.233	9327.72
890.55	9275.74
890.866	9322.3
891.182	9312.81
891.498	9159.82
891.815	9234.39
892.131	9175.18
892.447	9099.7
892.763	9096.99
893.079	9086.37
893.395	8960.72
893.71	8952.36
894.026	8945.13
894.342	9002.98
894.657	8945.58
894.973	8886.83
895.289	8888.41
895.604	8898.81
895.92	8814.97
896.235	8778.81
896.55	8777.23
896.865	8819.49
897.181	8730
897.496	8630.56
897.811	8639.38
898.126	8630.56
898.441	8641.64
898.756	8588.76
899.071	8503.79
899.386	8494.52
899.7	8382.43
900.015	8444.58
900.33	8396.22
900.644	8353.96
900.959	8340.18
901.273	8346.96
901.588	8241.42
901.902	8203.46
902.216	8240.74
902.531	8244.36
902.845	8178.15
903.159	8126.4
903.473	8081.88
903.787	8061.09
904.101	8042.1
904.415	8035.55
904.729	7987.19
905.042	7934.99
905.356	7874.2
905.67	7855.44
905.984	7928.89
906.297	7855.22
906.611	7824.03
906.924	7796.24
907.237	7754.88
907.551	7741.55
907.864	7673.3
908.177	7640.76
908.491	7580.65
908.804	7542.46
909.117	7534.55
909.43	7512.18
909.743	7455.45
910.056	7469.46
910.368	7492.29
910.681	7408.45
910.994	7394.66
911.307	7377.04
911.619	7266.31
911.932	7325.74
912.244	7266.53
912.557	7234.67
912.869	7198.51
913.181	7148.57
913.494	7164.61
913.806	7071.06
914.118	7111.06
914.43	7007.78
914.742	7034.22
915.054	7009.14
915.366	6948.35
915.678	6938.63
915.99	6878.29
916.302	6883.94
916.613	6864.51
916.925	6790.16
917.236	6770.27
917.548	6775.7
917.859	6772.31
918.171	6667.23
918.482	6662.48
918.794	6642.14
919.105	6602.82
919.416	6591.3
919.727	6576.15
920.038	6600.79
920.349	6498.64
920.66	6471.98
920.971	6425.88
921.282	6483.73
921.593	6420.23
921.903	6411.64
922.214	6327.57
922.525	6356.95
922.835	6353.34
923.146	6231.31
923.456	6254.13
923.767	6203.51
924.077	6183.85
924.387	6124.19
924.697	6141.36
925.008	6158.31
925.318	6115.15
925.628	6100.91
925.938	6108.37
926.248	5975.04
926.558	6038.09
926.867	5970.97
927.177	5987.02
927.487	5962.84
927.796	5881.26
928.106	5844.65
928.416	5808.27
928.725	5817.3
929.034	5819.56
929.344	5780.47
929.653	5759.23
929.962	5716.29
930.271	5762.16
930.581	5689.85
930.89	5646.24
931.199	5613.47
931.508	5575.96
931.817	5609.85
932.125	5534.6
932.434	5566.01
932.743	5508.61
933.051	5466.81
933.36	5505.67
933.669	5422.06
933.977	5420.48
934.286	5425.45
934.594	5414.6
934.902	5388.16
935.21	5349.29
935.519	5349.07
935.827	5307.49
936.135	5273.14
936.443	5241.95
936.751	5246.47
937.059	5216.64
937.367	5239.69
937.674	5242.18
937.982	5212.35
938.29	5129.64
938.597	5133.03
938.905	5083.31
939.213	5053.71
939.52	5070.88
939.827	5040.15
940.135	4992.92
940.442	5013.71
940.749	4974.39
941.056	5011.45
941.363	4886.71
941.67	4899.81
941.977	4876.31
942.284	4824.11
942.591	4845.58
942.898	4799.93
943.205	4796.54
943.511	4766.71
943.818	4764
944.125	4729.2
944.431	4699.59
944.738	4722.64
945.044	4699.14
945.35	4664.34
945.657	4632.25
945.963	4625.7
946.269	4587.96
946.575	4552.25
946.881	4564.91
947.187	4534.17
947.493	4565.81
947.799	4474.29
948.105	4443.56
948.41	4449.43
948.716	4420.96
949.022	4456.44
949.327	4454.85
949.633	4349.55
949.938	4371.24
950.244	4356.55
950.549	4308.64
950.854	4296.67
951.16	4338.47
951.465	4225.03
951.77	4286.95
952.075	4271.36
952.38	4206.27
952.685	4235.88
952.99	4176.44
953.294	4175.09
953.599	4103.9
953.904	4122.21
954.209	4066.62
954.513	4066.84
954.818	4079.95
955.122	4056.9
955.426	4029.56
955.731	3997.69
956.035	4037.24
956.339	3998.82
956.643	4012.15
956.948	3952.04
957.252	3953.4
957.556	3942.33
957.86	3884.47
958.163	3889.9
958.467	3888.77
958.771	3871.14
959.075	3848.09
959.378	3810.35
959.682	3798.6
959.985	3769.22
960.289	3750.24
960.592	3764.7
960.896	3686.06
961.199	3753.86
961.502	3689.9
961.805	3733.29
962.108	3671.37
962.411	3670.24
962.714	3616.23
963.017	3640.41
963.32	3578.95
963.623	3618.49
963.926	3601.32
964.228	3568.32
964.531	3555.22
964.833	3544.37
965.136	3496.91
965.438	3539.85
965.741	3496.01
966.043	3493.75
966.345	3486.07
966.648	3443.13
966.95	3443.36
967.252	3426.63
967.554	3405.39
967.856	3393.64
968.158	3354.54
968.46	3367.65
968.761	3304.83
969.063	3316.13
969.365	3310.48
969.666	3337.37
969.968	3316.35
970.269	3276.13
970.571	3240.2
970.872	3241.1
971.174	3190.71
971.475	3208.79
971.776	3227.77
972.077	3202.91
972.378	3183.02
972.679	3176.7
972.98	3159.07
973.281	3155.91
973.582	3133.53
973.883	3100.09
974.183	3081.56
974.484	3091.27
974.785	3064.38
975.085	3066.64
975.386	3048.56
975.686	3017.15
975.986	3032.75
976.287	3001.79
976.587	2951.84
976.887	2946.65
977.187	2950.26
977.487	2975.35
977.787	2908.23
978.087	2941.45
978.387	2917.49
978.687	2906.42
978.987	2846.76
979.286	2844.95
979.586	2870.26
979.885	2822.81
980.185	2818.97
980.484	2774.22
980.784	2804.5
981.083	2777.38
981.382	2783.94
981.682	2769.02
981.981	2762.47
982.28	2745.3
982.579	2709.36
982.878	2737.61
983.177	2684.73
983.475	2717.73
983.774	2673.66
984.073	2659.65
984.372	2665.98
984.67	2655.81
984.969	2656.94
985.267	2642.02
985.566	2578.52
985.864	2646.77
986.162	2588.69
986.461	2572.87
986.759	2570.38
987.057	2545.98
987.355	2543.72
987.653	2553.89
987.951	2518.41
988.249	2542.36
988.547	2512.31
988.844	2500.33
989.142	2450.39
989.44	2459.88
989.737	2441.35
990.035	2437.05
990.332	2412.2
990.63	2415.36
990.927	2417.17
991.224	2379.2
991.521	2388.92
991.819	2372.65
992.116	2378.98
992.413	2355.7
992.71	2343.27
993.006	2337.62
993.303	2317.96
993.6	2317.74
993.897	2276.15
994.193	2315.93
994.49	2316.61
994.787	2288.13
995.083	2256.95
995.379	2254.69
995.676	2219.66
995.972	2250.62
996.268	2202.03
996.565	2208.36
996.861	2186.67
997.157	2163.62
997.453	2110.06
997.749	2170.17
998.044	2111.64
998.34	2115.26
998.636	2116.61
998.932	2132.88
999.227	2081.58
999.523	2125.65
999.818	2099.89
1000.114	2069.61
1000.409	2072.54
1000.704	2051.53
1001	2033.45
1001.295	2037.97
1001.59	2004.98
1001.885	2004.75
1002.18	1977.41
1002.475	1997.52
1002.77	1979.67
1003.065	2004.75
1003.359	1962.94
1003.654	1954.58
1003.949	1908.71
1004.243	1935.37
1004.538	1894.02
1004.832	1940.8
1005.127	1894.24
1005.421	1897.18
1005.715	1868.93
1006.009	1883.17
1006.304	1842.95
1006.598	1835.94
1006.892	1815.15
1007.186	1804.08
1007.48	1807.24
1007.773	1781.25
1008.067	1773.8
1008.361	1759.11
1008.655	1766.11
1008.948	1739.22
1009.242	1774.02
1009.535	1743.29
1009.829	1748.71
1010.122	1725.21
1010.415	1742.38
1010.708	1692.44
1011.001	1700.12
1011.295	1662.16
1011.588	1667.58
1011.881	1686.57
1012.173	1641.37
1012.466	1652.89
1012.759	1645.89
1013.052	1620.58
1013.344	1636.17
1013.637	1623.74
1013.93	1593.69
1014.222	1590.3
1014.514	1581.71
1014.807	1579.68
1015.099	1526.8
1015.391	1569.28
1015.683	1537.42
1015.976	1540.35
1016.268	1542.84
1016.56	1516.63
1016.851	1491.77
1017.143	1510.07
1017.435	1488.83
1017.727	1501.49
1018.018	1471.43
1018.31	1459.23
1018.602	1437.98
1018.893	1417.42
1019.185	1421.26
1019.476	1426.23
1019.767	1407.7
1020.058	1383.3
1020.35	1399.79
1020.641	1376.29
1020.932	1373.35
1021.223	1339.46
1021.514	1384.43
1021.804	1367.7
1022.095	1317.08
1022.386	1348.5
1022.677	1315.28
1022.967	1340.36
1023.258	1325.67
1023.548	1319.8
1023.839	1304.43
1024.129	1261.04
1024.419	1281.83
1024.709	1275.05
1025	1243.87
1025.29	1262.85
1025.58	1253.58
1025.87	1267.59
1026.16	1225.34
1026.449	1233.7
1026.739	1223.08
1027.029	1209.06
1027.319	1207.93
1027.608	1189.18
1027.898	1175.84
1028.187	1164.32
1028.477	1157.99
1028.766	1165.68
1029.055	1152.34
1029.344	1131.78
1029.634	1129.52
1029.923	1131.1
1030.212	1108.28
1030.501	1140.59
1030.79	1127.48
1031.078	1091.78
1031.367	1084.1
1031.656	1079.12
1031.945	1093.36
1032.233	1080.25
1032.522	1068.28
1032.81	1055.17
1033.099	1048.16
1033.387	1061.95
1033.675	1052.91
1033.963	1025.34
1034.251	997.54
1034.54	1027.83
1034.828	1009.52
1035.116	1001.16
1035.403	1024.66
1035.691	1012.69
1035.979	976.08
1036.267	981.05
1036.554	963.87
1036.842	964.1
1037.129	962.97
1037.417	961.84
1037.704	939.92
1037.992	932.69
1038.279	945.57
1038.566	938.79
1038.853	938.79
1039.14	938.79
