Data from hue_230_FLMS001491_00050.txt Node
Date: Tue Feb 07 16:37:18 GMT 2017
User: dcchb
Spectrometer: FLMS00149
Trigger mode: 0
Integration Time (sec): 2.000000E-2
Scans to average: 10
Electric dark correction enabled: true
Nonlinearity correction enabled: false
Boxcar width: 0
XAxis mode: Wavelengths
Number of Pixels in Spectrum: 2048
>>>>>Begin Spectral Data<<<<<
341.393	-7.32
341.776	-7.32
342.16	-7.32
342.543	-81.89
342.927	-73.98
343.31	-64.72
343.693	-69.46
344.077	-57.26
344.46	-65.17
344.843	-77.6
345.226	-49.12
345.61	-45.96
345.993	-16.81
346.376	3.3
346.759	22.74
347.142	12.8
347.525	39.46
347.908	59.8
348.291	80.37
348.674	100.7
349.057	126.92
349.44	133.47
349.823	152.91
350.206	158.1
350.588	190.64
350.971	193.81
351.354	217.54
351.737	229.06
352.119	237.88
352.502	243.98
352.884	267.93
353.267	271.09
353.65	266.12
354.032	306.12
354.414	311.09
354.797	297.31
355.179	333.92
355.562	333.24
355.944	310.87
356.326	328.49
356.709	362.62
357.091	336.4
357.473	337.76
357.855	316.97
358.238	335.95
358.62	312.68
359.002	343.18
359.384	322.84
359.766	313.35
360.148	329.4
360.53	326.01
360.912	312.45
361.294	338.89
361.676	335.05
362.057	324.43
362.439	314.71
362.821	314.71
363.203	340.25
363.584	295.73
363.966	301.83
364.348	309.51
364.729	307.7
365.111	309.51
365.493	313.81
365.874	313.81
366.256	326.23
366.637	295.5
367.019	287.59
367.4	318.55
367.781	319
368.163	300.7
368.544	305.67
368.925	318.55
369.306	305.9
369.688	306.35
370.069	310.42
370.45	311.09
370.831	301.15
371.212	286.91
371.593	309.96
371.974	292.79
372.355	300.25
372.736	313.13
373.117	302.51
373.498	315.39
373.879	307.48
374.26	314.26
374.641	305.44
375.021	302.96
375.402	318.1
375.783	305.9
376.163	308.61
376.544	318.1
376.925	313.81
377.305	287.37
377.686	310.19
378.066	316.07
378.447	313.58
378.827	326.01
379.208	315.61
379.588	317.2
379.968	311.55
380.349	318.78
380.729	313.81
381.109	335.27
381.489	330.08
381.87	329.17
382.25	339.57
382.63	329.85
383.01	333.01
383.39	363.3
383.77	326.01
384.15	341.6
384.53	335.95
384.91	352.45
385.29	332.79
385.67	337.08
386.049	340.92
386.429	329.85
386.809	341.15
387.189	323.52
387.568	348.38
387.948	341.15
388.328	338.44
388.707	330.75
389.087	330.98
389.466	349.06
389.846	345.67
390.225	347.02
390.605	344.09
390.984	365.78
391.363	365.33
391.743	360.81
392.122	346.35
392.501	350.19
392.881	360.36
393.26	349.06
393.639	387.48
394.018	363.07
394.397	354.48
394.776	355.39
395.155	380.92
395.534	365.78
395.913	366.91
396.292	378.21
396.671	378.66
397.05	375.5
397.429	378.44
397.808	363.07
398.186	367.82
398.565	396.06
398.944	370.53
399.323	400.13
399.701	382.05
400.08	396.74
400.458	391.32
400.837	392.9
401.215	392.67
401.594	424.31
401.972	408.72
402.351	403.07
402.729	404.42
403.107	397.64
403.486	385.67
403.864	407.59
404.242	398.32
404.62	420.7
404.999	421.37
405.377	438.32
405.755	416.4
406.133	425.44
406.511	446.46
406.889	454.14
407.267	447.59
407.645	440.81
408.023	454.59
408.401	446.46
408.779	455.72
409.156	455.04
409.534	468.15
409.912	466.34
410.29	464.08
410.667	492.11
411.045	490.3
411.422	510.86
411.8	516.74
412.178	501.6
412.555	519.9
412.933	532.56
413.31	526.23
413.687	552.44
414.065	539.34
414.442	534.59
414.819	554.48
415.197	561.93
415.574	570.75
415.951	576.4
416.328	547.7
416.705	557.41
417.082	559.45
417.46	595.61
417.837	604.19
418.214	600.35
418.591	614.14
418.967	634.02
419.344	610.52
419.721	610.75
420.098	622.5
420.475	611.88
420.852	648.49
421.228	660.24
421.605	677.19
421.982	680.12
422.358	694.13
422.735	706.11
423.111	697.07
423.488	690.07
423.864	715.83
424.241	728.71
424.617	732.33
424.994	760.8
425.37	754.47
425.746	770.52
426.123	773.45
426.499	793.34
426.875	794.47
427.251	782.27
427.627	831.31
428.003	820.46
428.379	850.74
428.756	848.25
429.132	852.55
429.507	881.93
429.883	867.46
430.259	891.19
430.635	874.92
431.011	902.49
431.387	926.67
431.763	939.1
432.138	928.93
432.514	963.51
432.89	977.29
433.265	972.77
433.641	991.98
434.016	983.62
434.392	992.43
434.767	1015.48
435.143	1055.25
435.518	1071.3
435.894	1100
436.269	1090.28
436.644	1087.12
437.02	1126.89
437.395	1119.89
437.77	1161.01
438.145	1201.47
438.52	1194.23
438.895	1214.12
439.271	1191.07
439.646	1273.78
440.021	1245.98
440.395	1248.92
440.77	1261.58
441.145	1271.07
441.52	1279.43
441.895	1324.17
442.27	1344.06
442.645	1334.8
443.019	1377.96
443.394	1339.32
443.769	1348.35
444.143	1362.59
444.518	1384.96
444.892	1413.21
445.267	1389.03
445.641	1423.38
446.016	1429.71
446.39	1431.74
446.764	1463.61
447.139	1458.63
447.513	1482.36
447.887	1455.7
448.262	1502.47
448.636	1483.72
449.01	1502.7
449.384	1514.68
449.758	1527.33
450.132	1545.86
450.506	1548.58
450.88	1547.22
451.254	1573.66
451.628	1582.92
452.002	1604.39
452.376	1650.49
452.75	1642.81
453.123	1627.22
453.497	1690.49
453.871	1670.83
454.244	1719.87
454.618	1699.53
454.992	1729.59
455.365	1724.16
455.739	1795.12
456.112	1817.49
456.486	1791.51
456.859	1802.81
457.232	1874.67
457.606	1830.38
457.979	1884.39
458.352	1888.91
458.725	1924.84
459.099	1922.58
459.472	1981.11
459.845	1977.72
460.218	2019.07
460.591	2007.55
460.964	2023.14
461.337	2054.32
461.71	2092.29
462.083	2107.88
462.456	2112.85
462.829	2115.57
463.201	2146.3
463.574	2164.15
463.947	2158.73
464.32	2255.9
464.692	2241.66
465.065	2266.97
465.438	2282.12
465.81	2323.92
466.183	2335.45
466.555	2370.7
466.928	2384.49
467.3	2372.96
467.672	2438.27
468.045	2468.55
468.417	2473.3
468.789	2533.86
469.161	2538.38
469.534	2576.57
469.906	2623.8
470.278	2653.63
470.65	2657.25
471.022	2679.84
471.394	2750.13
471.766	2764.81
472.138	2791.48
472.51	2853.4
472.882	2895.43
473.253	2875.55
473.625	2921.42
473.997	2969.78
474.369	3000.74
474.74	3005.03
475.112	3056.56
475.484	3074.64
475.855	3170.68
476.227	3170
476.598	3239.6
476.97	3281.86
477.341	3373.16
477.713	3402.54
478.084	3371.58
478.455	3453.38
478.827	3499.71
479.198	3580.84
479.569	3605.02
479.94	3663.55
480.311	3722.3
480.682	3796.2
481.053	3863.32
481.424	3878.23
481.795	3948.06
482.166	3953.94
482.537	3967.27
482.908	4051.33
483.279	4126.36
483.65	4176.75
484.021	4249.97
484.391	4292.68
484.762	4292.68
485.133	4318.45
485.503	4452.91
485.874	4482.28
486.244	4528.38
486.615	4571.77
486.985	4568.83
487.356	4669.17
487.726	4742.62
488.097	4788.72
488.467	4825.55
488.837	4902.39
489.207	4944.42
489.578	5015.83
489.948	5047.92
490.318	5061.7
490.688	5104.87
491.058	5202.72
491.428	5190.06
491.798	5290.4
492.168	5308.48
492.538	5309.15
492.908	5393.45
493.278	5487.45
493.648	5520.45
494.017	5477.96
494.387	5541.24
494.757	5589.82
495.126	5716.6
495.496	5672.76
495.866	5720.44
496.235	5729.71
496.605	5778.29
496.974	5838.63
497.344	5880.21
497.713	5880.44
498.082	5916.14
498.452	5996.82
498.821	5951.85
499.19	5950.72
499.559	5996.14
499.928	6026.65
500.298	6080.21
500.667	6068.68
501.036	6135.8
501.405	6145.29
501.774	6153.2
502.143	6207.66
502.512	6225.74
502.88	6240.43
503.249	6216.7
503.618	6284.04
503.987	6263.25
504.356	6326.98
504.724	6331.73
505.093	6292.86
505.462	6379.41
505.83	6373.08
506.199	6394.55
506.567	6511.38
506.936	6459.86
507.304	6559.97
507.672	6506.64
508.041	6518.84
508.409	6566.75
508.777	6568.56
509.145	6675.22
509.514	6608.1
509.882	6640.19
510.25	6662.34
510.618	6635.67
510.986	6660.53
511.354	6684.03
511.722	6689
512.09	6735.33
512.458	6771.71
512.826	6868.21
513.193	6782.79
513.561	6775.78
513.929	6825.27
514.297	6819.62
514.664	6876.12
515.032	6822.33
515.4	6895.55
515.767	6878.15
516.135	6908.43
516.502	6868.44
516.869	6996.79
517.237	6934.87
517.604	6908.43
517.972	6972.61
518.339	6986.62
518.706	6989.56
519.073	6999.05
519.44	7018.49
519.808	7038.83
520.175	7001.09
520.542	7026.62
520.909	7120.41
521.276	7041.09
521.643	7095.77
522.009	7064.14
522.376	7115.89
522.743	7106.17
523.11	7148.88
523.477	7121.54
523.843	7115.43
524.21	7175.09
524.577	7261.19
524.943	7255.09
525.31	7252.38
525.676	7253.74
526.043	7335.99
526.409	7310.68
526.776	7334.19
527.142	7316.11
527.508	7239.72
527.874	7324.92
528.241	7361.3
528.607	7294.19
528.973	7326.95
529.339	7289.44
529.705	7382.32
530.071	7404.69
530.437	7401.53
530.803	7413.51
531.169	7387.97
531.535	7345.03
531.901	7349.1
532.267	7399.49
532.632	7338.93
532.998	7371.47
533.364	7334.41
533.73	7397.46
534.095	7390.91
534.461	7381.87
534.826	7403.11
535.192	7363.79
535.557	7402.21
535.923	7342.32
536.288	7343
536.653	7323.34
537.019	7301.64
537.384	7318.59
537.749	7301.87
538.114	7289.67
538.479	7279.27
538.845	7263.45
539.21	7232.72
539.575	7227.3
539.94	7208.54
540.305	7244.7
540.67	7237.47
541.034	7183.68
541.399	7158.6
541.764	7188.65
542.129	7224.13
542.494	7138.26
542.858	7181.42
543.223	7108.88
543.587	7179.84
543.952	7119.95
544.316	7087.19
544.681	7122.21
545.045	7084.02
545.41	7062.33
545.774	7102.33
546.138	7025.04
546.503	7082.67
546.867	6993.18
547.231	7046.06
547.595	7066.85
547.959	6996.12
548.324	7011.93
548.688	6948.66
549.052	6943.01
549.416	6948.66
549.779	6954.31
550.143	6898.49
550.507	6873.86
550.871	6952.05
551.235	6907.3
551.599	6881.09
551.962	6841.32
552.326	6917.25
552.689	6865.5
553.053	6842
553.417	6856.68
553.78	6871.6
554.143	6827.98
554.507	6831.83
554.87	6806.74
555.234	6877.7
555.597	6801.09
555.96	6842.45
556.323	6820.3
556.686	6751.15
557.05	6845.16
557.413	6807.42
557.776	6829.34
558.139	6884.93
558.502	6842.9
558.865	6834.09
559.228	6843.8
559.59	6830.92
559.953	6835.44
560.316	6875.67
560.679	6893.52
561.041	6853.29
561.404	6881.54
561.767	6897.14
562.129	6810.13
562.492	6886.51
562.854	6892.16
563.217	6846.74
563.579	6889.68
563.941	6928.55
564.304	6938.04
564.666	6975.33
565.028	6966.96
565.39	7000.64
565.753	6957.02
566.115	6963.8
566.477	6975.33
566.839	6987.53
567.201	7036.57
567.563	7005.61
567.925	7027.08
568.287	7061.2
568.648	7060.75
569.01	7080.18
569.372	7138.71
569.734	7106.62
570.095	7103.23
570.457	7133.74
570.819	7129.67
571.18	7123.8
571.542	7156.34
571.903	7180.97
572.265	7159.05
572.626	7208.99
572.987	7187.52
573.349	7224.36
573.71	7213.51
574.071	7250.35
574.432	7318.14
574.794	7321.53
575.155	7304.13
575.516	7300.06
575.877	7324.69
576.238	7349.1
576.599	7342.1
576.96	7392.49
577.32	7437.23
577.681	7433.17
578.042	7432.04
578.403	7414.41
578.763	7432.49
579.124	7442.21
579.485	7466.39
579.845	7482.88
580.206	7514.29
580.566	7575.99
580.927	7544.35
581.287	7555.2
581.648	7537.8
582.008	7611.92
582.368	7604.46
582.728	7596.55
583.089	7611.92
583.449	7634.52
583.809	7654.86
584.169	7652.37
584.529	7625.48
584.889	7684.68
585.249	7663.89
585.609	7626.61
585.969	7686.27
586.329	7722.88
586.688	7764.91
587.048	7744.12
587.408	7752.93
587.768	7724.23
588.127	7736.89
588.487	7764.91
588.846	7785.02
589.206	7697.11
589.565	7782.99
589.925	7874.28
590.284	7771.91
590.643	7837
591.003	7929.2
591.362	7886.49
591.721	7854.17
592.08	7903.21
592.44	7908.41
592.799	7864.57
593.158	7931.68
593.517	7938.46
593.876	7941.18
594.235	7898.24
594.593	7863.21
594.952	7833.83
595.311	7895.07
595.67	7921.06
596.029	7982.98
596.387	7942.08
596.746	8006.71
597.104	7903.44
597.463	7932.81
597.822	7986.37
598.18	7927.16
598.538	7971.46
598.897	8038.8
599.255	7945.24
599.613	8077.44
599.972	8011.23
600.33	8013.49
600.688	8011.91
601.046	8020.95
601.404	8112.47
601.762	8051.91
602.12	8122.64
602.478	8101.62
602.836	8060.95
603.194	8048.97
603.552	8089.65
603.91	8008.74
604.268	8084.22
604.625	8026.14
604.983	8109.08
605.341	8077.22
605.698	8080.15
606.056	8095.3
606.413	8147.72
606.771	8218.46
607.128	8144.79
607.485	8153.6
607.843	8150.21
608.2	8092.81
608.557	8155.18
608.914	8122.87
609.272	8215.74
609.629	8169.87
609.986	8206.25
610.343	8179.59
610.7	8236.99
611.057	8284.9
611.414	8208.74
611.771	8262.07
612.127	8334.61
612.484	8330.77
612.841	8344.55
613.198	8264.33
613.554	8268.85
613.911	8276.53
614.267	8269.08
614.624	8345.46
614.98	8298.68
615.337	8357.66
615.693	8374.38
616.05	8342.75
616.406	8357.89
616.762	8309.53
617.118	8376.64
617.475	8357.89
617.831	8390.43
618.187	8355.4
618.543	8400.37
618.899	8477.43
619.255	8404.89
619.611	8441.5
619.967	8439.92
620.323	8420.03
620.678	8468.62
621.034	8460.94
621.39	8450.77
621.746	8403.99
622.101	8449.18
622.457	8416.64
622.812	8423.65
623.168	8472.01
623.523	8484.66
623.879	8465.46
624.234	8418
624.589	8433.37
624.945	8381.62
625.3	8456.64
625.655	8428.62
626.01	8412.8
626.365	8464.78
626.72	8453.7
627.075	8453.25
627.43	8413.25
627.785	8393.82
628.14	8423.87
628.495	8429.98
628.85	8399.02
629.205	8363.99
629.559	8457.55
629.914	8396.98
630.269	8388.17
630.623	8354.27
630.978	8365.12
631.332	8395.85
631.687	8354.27
632.041	8334.39
632.396	8338
632.75	8344.33
633.104	8342.97
633.459	8319.02
633.813	8312.92
634.167	8325.12
634.521	8305.46
634.875	8297.32
635.229	8302.52
635.583	8262.97
635.937	8244.67
636.291	8303.88
636.645	8199.7
636.999	8145.46
637.352	8214.84
637.706	8157.21
638.06	8183.43
638.413	8205.58
638.767	8184.78
639.121	8246.48
639.474	8119.48
639.828	8100.04
640.181	8147.95
640.534	8140.72
640.888	8086.03
641.241	8097.33
641.594	8071.34
641.947	8164.9
642.301	8058.91
642.654	8113.37
643.007	8149.31
643.36	8073.38
643.713	8025.24
644.066	8062.98
644.419	8024.56
644.771	8025.69
645.124	7926.94
645.477	7903.44
645.83	7898.46
646.182	7895.07
646.535	7838.35
646.888	7825.02
647.24	7766.26
647.593	7756.32
647.945	7782.76
648.298	7776.43
648.65	7760.16
649.002	7719.49
649.355	7829.54
649.707	7756.32
650.059	7859.14
650.411	7905.24
650.763	7856.21
651.115	7967.16
651.467	7982.53
651.819	8016.88
652.171	7975.3
652.523	7903.89
652.875	7929.2
653.227	7880.84
653.578	8020.72
653.93	7909.99
654.282	7943.66
654.633	7883.78
654.985	7976.2
655.337	7925.36
655.688	7934.85
656.039	8007.16
656.391	7897.33
656.742	7904.34
657.094	7915.87
657.445	7941.18
657.796	7946.82
658.147	7891.01
658.498	7915.64
658.849	7930.55
659.2	7930.55
659.551	7891.46
659.902	7874.51
660.253	7885.81
660.604	7953.15
660.955	7906.15
661.306	7919.93
661.656	7931.68
662.007	7949.54
662.358	7907.05
662.708	7902.31
663.059	7939.37
663.409	7859.14
663.76	7913.15
664.11	8018.24
664.461	7947.05
664.811	7911.57
665.161	7952.25
665.511	7932.81
665.862	7961.29
666.212	7979.59
666.562	7956.32
666.912	7983.66
667.262	7959.25
667.612	7900.72
667.962	7953.6
668.312	7968.29
668.662	7972.59
669.011	7900.05
669.361	7934.85
669.711	7861.86
670.06	7937.56
670.41	7840.61
670.76	7895.53
671.109	7921.51
671.459	7918.35
671.808	7900.5
672.157	7854.4
672.507	7841.74
672.856	7865.47
673.205	7858.01
673.554	7871.8
673.904	7846.26
674.253	7895.3
674.602	7883.32
674.951	7761.52
675.3	7655.31
675.649	7878.35
675.998	7779.15
676.346	7775.98
676.695	7828.18
677.044	7804.91
677.393	7804.46
677.741	7853.72
678.09	7763.55
678.438	7813.27
678.787	7733.27
679.135	7771.46
679.484	7707.74
679.832	7682.65
680.181	7749.09
680.529	7787.06
680.877	7737.11
681.225	7646.95
681.573	7760.39
681.922	7678.13
682.27	7613.05
682.618	7596.33
682.966	7570.34
683.314	7614.18
683.661	7526.5
684.009	7589.32
684.357	7506.16
684.705	7549.55
685.053	7517.91
685.4	7548.87
685.748	7453.96
686.095	7442.66
686.443	7394.3
686.79	7420.51
687.138	7415.54
687.485	7411.7
687.832	7429.55
688.18	7412.38
688.527	7303
688.874	7337.58
689.221	7298.71
689.568	7278.14
689.915	7242.21
690.262	7218.26
690.609	7247.41
690.956	7217.13
691.303	7192.72
691.65	7164.47
691.997	7221.42
692.344	7118.82
692.69	7053.74
693.037	7110.01
693.383	7020.07
693.73	7119.95
694.077	7021.65
694.423	6979.62
694.769	6942.11
695.116	6977.13
695.462	6928.55
695.808	6954.76
696.155	6900.75
696.501	6846.97
696.847	6875.44
697.193	6830.47
697.539	6839.06
697.885	6839.51
698.231	6708.44
698.577	6753.86
698.923	6695.11
699.269	6686.07
699.614	6661.21
699.96	6634.09
700.306	6674.54
700.651	6588.89
700.997	6544.15
701.342	6571.27
701.688	6517.03
702.033	6522.46
702.379	6508.9
702.724	6539.18
703.069	6533.98
703.415	6402.46
703.76	6444.94
704.105	6384.61
704.45	6374.66
704.795	6357.49
705.14	6350.26
705.485	6351.61
705.83	6330.14
706.175	6340.77
706.52	6281.11
706.865	6244.5
707.209	6185.97
707.554	6236.14
707.899	6224.16
708.243	6169.7
708.588	6181
708.932	6142.8
709.277	6132.18
709.621	6119.08
709.966	6070.72
710.31	6063.94
710.654	6053.32
710.998	6073.65
711.342	6056.03
711.687	6042.02
712.031	6022.58
712.375	6023.03
712.719	6016.93
713.063	5980.77
713.407	6014.9
713.75	5939.19
714.094	5956.82
714.438	5878.86
714.782	5883.38
715.125	5885.18
715.469	5930.15
715.812	5880.44
716.156	5844.73
716.499	5890.83
716.843	5832.98
717.186	5812.19
717.53	5854
717.873	5850.16
718.216	5882.02
718.559	5736.94
718.902	5763.15
719.246	5803.6
719.589	5781.46
719.932	5757.5
720.275	5723.38
720.617	5746.88
720.96	5765.64
721.303	5734.45
721.646	5748.46
721.989	5681.57
722.331	5737.84
722.674	5666.43
723.016	5711.18
723.359	5688.58
723.701	5724.28
724.044	5664.4
724.386	5668.47
724.729	5700.56
725.071	5659.2
725.413	5701.46
725.755	5702.59
726.097	5632.31
726.439	5606.77
726.782	5626.21
727.124	5651.97
727.465	5599.99
727.807	5639.31
728.149	5626.66
728.491	5605.64
728.833	5649.71
729.175	5637.51
729.516	5642.7
729.858	5568.36
730.199	5673.66
730.541	5587.79
730.882	5635.47
731.224	5632.31
731.565	5575.14
731.906	5627.56
732.248	5645.19
732.589	5561.12
732.93	5555.93
733.271	5563.38
733.612	5599.99
733.953	5559.32
734.294	5578.53
734.635	5554.8
734.976	5617.85
735.317	5602.48
735.658	5567.23
735.999	5634.8
736.339	5570.84
736.68	5594.8
737.021	5591.63
737.361	5579.43
737.702	5630.5
738.042	5625.3
738.383	5585.98
738.723	5631.63
739.063	5643.16
739.404	5646.55
739.744	5655.59
740.084	5629.15
740.424	5647
740.764	5621.91
741.104	5689.71
741.444	5646.55
741.784	5641.12
742.124	5681.57
742.464	5695.81
742.804	5700.56
743.143	5771.29
743.483	5757.73
743.823	5725.41
744.162	5759.31
744.502	5843.15
744.841	5786.43
745.181	5842.47
745.52	5858.52
745.86	5909.14
746.199	5892.87
746.538	5907.33
746.877	5984.84
747.216	5933.32
747.556	5992.98
747.895	6043.6
748.234	6058.74
748.573	6106.87
748.911	6113.2
749.25	6225.51
749.589	6238.85
749.928	6286.76
750.267	6262.58
750.605	6380.09
750.944	6468.45
751.283	6454.43
751.621	6504.38
751.96	6596.35
752.298	6604.04
752.636	6721.09
752.975	6742.34
753.313	6795.89
753.651	6864.59
753.989	6957.92
754.327	7011.48
754.666	7076.11
755.004	7213.06
755.342	7333.51
755.679	7392.49
756.017	7427.97
756.355	7550.45
756.693	7682.88
757.031	7785.02
757.368	7804.91
757.706	7962.64
758.044	8018.46
758.381	8237.89
758.719	8312.24
759.056	8361.28
759.394	8536.64
759.731	8555.17
760.068	8680.14
760.405	8792.9
760.743	8908.38
761.08	9161.48
761.417	9140.01
761.754	9281.03
762.091	9447.35
762.428	9572.32
762.765	9560.57
763.102	9827.91
763.438	9823.16
763.775	9968.47
764.112	10022.48
764.449	10230.61
764.785	10297.95
765.122	10408.23
765.458	10452.75
765.795	10632.4
766.131	10709.01
766.467	10761.44
766.804	10785.17
767.14	10932.28
767.476	11069.68
767.812	11167.98
768.148	11311.48
768.485	11244.82
768.821	11387.19
769.157	11509.44
769.492	11596.22
769.828	11617.91
770.164	11593.06
770.5	11689.1
770.836	11854.97
771.171	11846.16
771.507	11957.79
771.842	11985.81
772.178	11984.68
772.513	12177.9
772.849	12242.53
773.184	12214.74
773.519	12230.33
773.855	12321.4
774.19	12395.97
774.525	12424.45
774.86	12473.71
775.195	12501.28
775.53	12593.48
775.865	12519.59
776.2	12522.07
776.535	12551
776.87	12592.35
777.205	12620.83
777.539	12607.04
777.874	12767.72
778.209	12696.76
778.543	12630.09
778.878	12713.93
779.212	12760.48
779.547	12685.46
779.881	12835.28
780.215	12734.5
780.55	12819.01
780.884	12695.17
781.218	12779.01
781.552	12811.33
781.886	12693.59
782.22	12750.31
782.554	12788.28
782.888	12714.61
783.222	12699.92
783.556	12679.81
783.889	12695.17
784.223	12611.56
784.557	12671.45
784.89	12657.66
785.224	12648.62
785.557	12573.6
785.891	12632.35
786.224	12551.9
786.558	12577.66
786.891	12434.16
787.224	12524.11
787.557	12439.14
787.891	12504.67
788.224	12479.59
788.557	12521.85
788.89	12422.64
789.223	12516.42
789.556	12383.54
789.888	12419.93
790.221	12368.63
790.554	12285.02
790.887	12349.42
791.219	12264
791.552	12330.66
791.884	12236.2
792.217	12182.19
792.549	12218.8
792.882	12142.65
793.214	12088.18
793.546	12181.29
793.879	12106.26
794.211	12050.9
794.543	12126.83
794.875	12082.08
795.207	12168.63
795.539	12030.11
795.871	12058.36
796.203	12005.7
796.535	11872.37
796.867	11824.24
797.198	11865.82
797.53	11851.36
797.862	11789.44
798.193	11814.29
798.525	11661.76
798.856	11768.65
799.188	11666.28
799.519	11556.67
799.85	11534.75
800.182	11587.41
800.513	11628.54
800.844	11505.6
801.175	11582.66
801.506	11551.02
801.837	11493.17
802.168	11465.6
802.499	11430.8
802.83	11431.03
803.161	11341.31
803.491	11373.85
803.822	11335.66
804.153	11325.27
804.483	11263.12
804.814	11226.06
805.145	11211.82
805.475	11178.38
805.805	11152.84
806.136	11193.29
806.466	11165.05
806.796	11174.54
807.126	11044.37
807.457	11019.96
807.787	11020.19
808.117	11002.34
808.447	10911.04
808.777	11012.73
809.107	10892.51
809.436	10860.65
809.766	10848.9
810.096	10817.48
810.426	10781.55
810.755	10813.64
811.085	10808.22
811.414	10757.37
811.744	10630.6
812.073	10799.41
812.403	10669.47
812.732	10605.96
813.061	10650.93
813.39	10566.87
813.719	10533.65
814.049	10693.87
814.378	10567.55
814.707	10539.75
815.036	10502.92
815.365	10466.98
815.693	10424.5
816.022	10432.41
816.351	10372.52
816.68	10354.67
817.008	10389.02
817.337	10308.8
817.665	10363.48
817.994	10305.18
818.322	10238.06
818.651	10312.64
818.979	10166.88
819.307	10233.09
819.636	10248.46
819.964	10226.31
820.292	10173.43
820.62	10234.22
820.948	10185.41
821.276	10162.81
821.604	10200.1
821.932	10262.02
822.259	10166.2
822.587	10137.73
822.915	10125.3
823.243	10253.2
823.57	10085.98
823.898	10138.18
824.225	10093.21
824.553	10081.46
824.88	10140.89
825.207	10154
825.535	10120.55
825.862	10139.99
826.189	10136.6
826.516	10230.15
826.843	10298.4
827.17	10111.51
827.497	10205.75
827.824	10230.38
828.151	10128.24
828.478	10138.18
828.805	10202.36
829.131	10156.26
829.458	10121.46
829.785	10119.88
830.111	10118.75
830.438	10172.53
830.764	10129.14
831.09	10108.35
831.417	10093.66
831.743	10185.41
832.069	10142.93
832.395	10138.18
832.722	10219.08
833.048	10031.29
833.374	10106.99
833.7	10110.61
834.026	10106.99
834.351	10093.89
834.677	10059.31
835.003	10062.25
835.329	10090.05
835.654	10046.43
835.98	9977.05
836.306	10023.15
836.631	10011.86
836.956	10012.53
837.282	10043.49
837.607	10001.91
837.932	9895.02
838.258	9951.74
838.583	9978.18
838.908	9915.36
839.233	9928.47
839.558	9951.52
839.883	9883.27
840.208	9825.65
840.533	9839.2
840.858	9869.03
841.182	9801.01
841.507	9912.42
841.832	9776.61
842.156	9760.11
842.481	9795.59
842.805	9715.14
843.13	9703.39
843.454	9695.93
843.778	9697.06
844.103	9655.03
844.427	9620.45
844.751	9610.96
845.075	9536.39
845.399	9591.98
845.723	9512.66
846.047	9490.29
846.371	9439.44
846.695	9434.24
847.019	9336.17
847.343	9297.07
847.666	9263.63
847.99	9294.81
848.313	9269.95
848.637	9209.16
848.96	9197.19
849.284	9164.65
849.607	9131.2
849.931	9084.87
850.254	9028.6
850.577	8979.79
850.9	8859.8
851.223	8929.4
851.546	8926.23
851.869	8771.44
852.192	8857.31
852.515	8756.3
852.838	8798.1
853.161	8766.24
853.483	8681.49
853.806	8658.9
854.129	8644.21
854.451	8644.66
854.774	8620.48
855.096	8618.22
855.419	8529.41
855.741	8504.32
856.063	8428.62
856.385	8478.79
856.708	8419.81
857.03	8387.27
857.352	8503.19
857.674	8363.09
857.996	8279.92
858.318	8260.26
858.64	8346.59
858.961	8270.66
859.283	8212.35
859.605	8194.05
859.926	8251.9
860.248	8201.06
860.57	8219.59
860.891	8167.38
861.212	8158.34
861.534	8092.13
861.855	8105.01
862.176	8122.41
862.498	8072.92
862.819	8073.38
863.14	7997.22
863.461	8014.17
863.782	7989.76
864.103	8022.08
864.424	8056.2
864.745	8005.35
865.065	7914.96
865.386	7882.42
865.707	7946.15
866.027	7894.62
866.348	7940.5
866.668	7885.13
866.989	7841.29
867.309	7812.59
867.63	7847.17
867.95	7912.02
868.27	7792.48
868.59	7759.71
868.91	7790.9
869.23	7779.82
869.55	7739.6
869.87	7718.58
870.19	7751.58
870.51	7686.04
870.83	7724.46
871.15	7666.61
871.469	7611.01
871.789	7662.76
872.109	7653.05
872.428	7645.59
872.748	7608.75
873.067	7601.52
873.386	7597.68
873.706	7659.37
874.025	7533.73
874.344	7558.59
874.663	7562.2
874.982	7593.16
875.301	7565.14
875.62	7482.88
875.939	7476.78
876.258	7455.09
876.577	7410.12
876.896	7499.83
877.214	7478.81
877.533	7439.95
877.852	7406.27
878.17	7403.56
878.489	7451.47
878.807	7412.38
879.125	7426.61
879.444	7364.02
879.762	7372.6
880.08	7365.6
880.398	7321.3
880.716	7298.25
881.034	7304.58
881.352	7226.62
881.67	7305.49
881.988	7287.63
882.306	7280.4
882.624	7233.4
882.941	7174.19
883.259	7233.85
883.577	7181.65
883.894	7159.95
884.212	7153.4
884.529	7139.16
884.846	7116.56
885.164	7092.84
885.481	7076.11
885.798	7108.2
886.115	7027.08
886.432	7059.84
886.75	6992.73
887.067	7027.53
887.383	7011.93
887.7	7024.59
888.017	6936.68
888.334	6931.94
888.651	6892.84
888.967	6909.79
889.284	6895.55
889.6	6894.42
889.917	6849.45
890.233	6880.64
890.55	6796.35
890.866	6826.63
891.182	6773.07
891.498	6774.43
891.815	6705.28
892.131	6730.13
892.447	6671.6
892.763	6691.94
893.079	6626.86
893.395	6585.96
893.71	6622.34
894.026	6621.21
894.342	6583.7
894.657	6569.01
894.973	6540.76
895.289	6532.17
895.604	6523.81
895.92	6485.85
896.235	6446.53
896.55	6430.25
896.865	6469.12
897.181	6347.77
897.496	6391.16
897.811	6350.26
898.126	6355
898.441	6318.62
898.756	6246.76
899.071	6214.44
899.386	6284.27
899.7	6164.05
900.015	6164.95
900.33	6161.79
900.644	6143.93
900.959	6128.79
901.273	6115.01
901.588	6089.25
901.902	6080.21
902.216	6013.77
902.531	6059.42
902.845	5983.71
903.159	6018.06
903.473	5935.13
903.787	5959.53
904.101	5871.63
904.415	5872.98
904.729	5875.47
905.042	5812.19
905.356	5871.63
905.67	5861.91
905.984	5851.96
906.297	5793.66
906.611	5757.05
906.924	5689.94
907.237	5701.46
907.551	5722.48
907.864	5680.67
908.177	5621.24
908.491	5617.39
908.804	5588.69
909.117	5611.07
909.43	5548.24
909.743	5541.69
910.056	5541.24
910.368	5463.27
910.681	5452.2
910.994	5469.6
911.307	5408.81
911.619	5437.06
911.932	5388.02
912.244	5329.04
912.557	5334.01
912.869	5297.86
913.181	5293.56
913.494	5289.27
913.806	5237.97
914.118	5244.98
914.43	5192.77
914.742	5199.55
915.054	5151.64
915.366	5204.98
915.678	5128.14
915.99	5084.3
916.302	5083.17
916.613	5083.62
916.925	5051.76
917.236	5043.4
917.548	5028.94
917.859	5015.15
918.171	5014.7
918.482	4942.84
918.794	4930.18
919.105	4943.74
919.416	4905.55
919.727	4894.48
920.038	4904.42
920.349	4830.97
920.66	4828.49
920.971	4826.23
921.282	4845.21
921.593	4774.93
921.903	4760.69
922.214	4810.18
922.525	4732.9
922.835	4708.49
923.146	4689.74
923.456	4663.97
923.767	4636.18
924.077	4600.92
924.387	4563.41
924.697	4607.25
925.008	4575.84
925.318	4555.05
925.628	4517.76
925.938	4518.67
926.248	4483.64
926.558	4463.07
926.867	4445.9
927.177	4490.64
927.487	4442.74
927.796	4340.14
928.106	4406.35
928.416	4371.55
928.725	4348.28
929.034	4340.37
929.344	4334.26
929.653	4310.99
929.962	4296.07
930.271	4270.76
930.581	4217.21
930.89	4236.41
931.199	4234.61
931.508	4197.32
931.817	4199.35
932.125	4132.46
932.434	4132.24
932.743	4136.53
933.051	4093.37
933.36	4079.36
933.669	4096.53
933.977	4119.81
934.286	4086.59
934.594	4061.73
934.902	4028.06
935.21	3993.26
935.519	4004.33
935.827	3993.93
936.135	3898.34
936.443	3940.38
936.751	3912.13
937.059	3922.75
937.367	3887.5
937.674	3880.49
937.982	3852.92
938.29	3833.49
938.597	3830.32
938.905	3810.89
939.213	3782.87
939.52	3742.19
939.827	3736.99
940.135	3739.03
940.442	3710.33
940.749	3750.55
941.056	3703.77
941.363	3660.38
941.67	3659.03
941.977	3627.62
942.284	3619.71
942.591	3578.8
942.898	3545.13
943.205	3577
943.511	3617
943.818	3544.23
944.125	3547.39
944.431	3532.93
944.738	3548.97
945.044	3516.43
945.35	3505.81
945.657	3470.11
945.963	3422.65
946.269	3448.41
946.575	3477.11
946.881	3398.24
947.187	3402.99
947.493	3377.91
947.799	3354.86
948.105	3336.55
948.41	3327.06
948.716	3331.13
949.022	3314.63
949.327	3322.09
949.633	3269.66
949.938	3282.77
950.244	3309.43
950.549	3241.86
950.854	3253.84
951.16	3234.18
951.465	3197.8
951.77	3192.83
952.075	3208.42
952.38	3187.85
952.685	3144.01
952.99	3138.36
953.294	3147.18
953.599	3130.68
953.904	3143.56
954.209	3122.32
954.513	3099.49
954.818	3052.49
955.122	3037.35
955.426	3054.52
955.731	2995.32
956.035	3019.5
956.339	2989.67
956.643	3026.05
956.948	3018.59
957.252	2940.18
957.556	2969.33
957.86	2921.65
958.163	2926.62
958.467	2907.41
958.771	2892.49
959.075	2911.93
959.378	2896.11
959.682	2926.39
959.985	2903.34
960.289	2845.26
960.592	2809.11
960.896	2801.2
961.199	2798.49
961.502	2802.33
961.805	2799.84
962.108	2779.73
962.411	2809.11
962.714	2773.4
963.017	2756.23
963.32	2754.65
963.623	2742.89
963.926	2738.6
964.228	2695.66
964.531	2719.17
964.833	2690.47
965.136	2672.39
965.438	2680.3
965.741	2677.58
966.043	2607.3
966.345	2656.57
966.648	2614.08
966.95	2624.7
967.252	2607.53
967.554	2602.78
967.856	2574.08
968.158	2587.42
968.46	2550.81
968.761	2565.95
969.063	2541.32
969.365	2501.77
969.666	2531.37
969.968	2471.94
970.269	2464.71
970.571	2460.42
970.872	2466.52
971.174	2465.16
971.475	2437.59
971.776	2411.83
972.077	2451.83
972.378	2409.12
972.679	2400.3
972.98	2382
973.281	2400.53
973.582	2419.51
973.883	2341.32
974.183	2368.21
974.484	2346.52
974.785	2337.25
975.085	2340.19
975.386	2288.22
975.686	2287.76
975.986	2330.02
976.287	2286.18
976.587	2283.02
976.887	2274.66
977.187	2275.56
977.487	2254.77
977.787	2225.85
978.087	2189.01
978.387	2250.25
978.687	2195.34
978.987	2162.12
979.286	2191.72
979.586	2182.68
979.885	2156.69
980.185	2173.19
980.484	2158.5
980.784	2159.63
981.083	2144.27
981.382	2109.69
981.682	2101.55
981.981	2116.47
982.28	2087.32
982.579	2061.56
982.878	2109.92
983.177	2084.15
983.475	2053.42
983.774	2056.58
984.073	2083.7
984.372	2072.18
984.67	2042.12
984.969	2000.31
985.267	2030.82
985.566	2065.62
985.864	1983.82
986.162	2019.3
986.461	2003.93
986.759	1998.51
987.057	1946.76
987.355	1948.56
987.653	1955.12
987.951	1935.23
988.249	1940.43
988.547	1944.95
988.844	1916.48
989.142	1928.23
989.44	1913.31
989.737	1904.05
990.035	1907.21
990.332	1874.67
990.63	1839.41
990.927	1847.32
991.224	1829.92
991.521	1869.92
991.819	1835.57
992.116	1843.48
992.413	1799.87
992.71	1813.43
993.006	1800.77
993.303	1803.48
993.6	1793.99
993.897	1785.41
994.193	1787.44
994.49	1759.19
994.787	1777.04
995.083	1759.64
995.379	1732.53
995.676	1725.52
995.972	1686.65
996.268	1686.42
996.565	1719.87
996.861	1684.62
997.157	1715.58
997.453	1702.24
997.749	1675.35
998.044	1661.11
998.34	1650.49
998.636	1672.19
998.932	1629.25
999.227	1649.14
999.523	1636.71
999.818	1620.21
1000.114	1615.69
1000.409	1602.13
1000.704	1611.85
1001	1599.87
1001.295	1606.43
1001.59	1581.12
1001.885	1589.48
1002.18	1562.81
1002.475	1569.37
1002.77	1555.58
1003.065	1518.29
1003.359	1545.41
1003.654	1526.88
1003.949	1485.07
1004.243	1486.66
1004.538	1485.3
1004.832	1486.66
1005.127	1476.03
1005.421	1450.5
1005.715	1489.59
1006.009	1466.77
1006.304	1463.83
1006.598	1445.3
1006.892	1432.87
1007.186	1412.08
1007.48	1406.88
1007.773	1415.7
1008.067	1404.62
1008.361	1386.55
1008.655	1415.7
1008.948	1378.86
1009.242	1361.69
1009.535	1340.22
1009.829	1371.18
1010.122	1362.82
1010.415	1355.59
1010.708	1360.78
1011.001	1337.73
1011.295	1338.86
1011.588	1316.26
1011.881	1323.27
1012.173	1311.29
1012.466	1279.66
1012.759	1292.31
1013.052	1288.92
1013.344	1273.55
1013.637	1279.2
1013.93	1254.57
1014.222	1270.39
1014.514	1242.59
1014.807	1250.5
1015.099	1221.13
1015.391	1227.91
1015.683	1233.33
1015.976	1201.69
1016.268	1228.81
1016.56	1208.7
1016.851	1179.55
1017.143	1194.01
1017.435	1182.93
1017.727	1148.36
1018.018	1168.02
1018.31	1162.37
1018.602	1135.7
1018.893	1136.61
1019.185	1121.92
1019.476	1131.86
1019.767	1117.85
1020.058	1126.67
1020.35	1109.04
1020.641	1071.07
1020.932	1071.98
1021.223	1115.82
1021.514	1062.49
1021.804	1101.58
1022.095	1090.51
1022.386	1066.55
1022.677	1081.02
1022.967	1036.05
1023.258	1039.44
1023.548	1062.49
1023.839	1039.44
1024.129	1039.89
1024.419	1020.68
1024.709	1008.48
1025	1009.15
1025.29	991.75
1025.58	1004.86
1025.87	999.89
1026.16	998.53
1026.449	1003.05
1026.739	975.93
1027.029	986.33
1027.319	951.75
1027.608	976.61
1027.898	944.07
1028.187	945.2
1028.477	946.33
1028.766	943.17
1029.055	924.86
1029.344	958.76
1029.634	907.91
1029.923	924.18
1030.212	901.36
1030.501	896.61
1030.79	919.44
1031.078	890.51
1031.367	897.97
1031.656	898.42
1031.945	852.32
1032.233	873.34
1032.522	872.21
1032.81	850.51
1033.099	867.69
1033.387	863.17
1033.675	834.47
1033.963	849.38
1034.251	834.92
1034.54	843.51
1034.828	846.45
1035.116	826.11
1035.403	828.37
1035.691	829.95
1035.979	827.01
1036.267	820.91
1036.554	813.45
1036.842	795.37
1037.129	786.11
1037.417	785.43
1037.704	792.66
1037.992	769.84
1038.279	777.07
1038.566	754.92
1038.853	754.92
1039.14	754.92
