Data from hue_40_FLMS001491_26.txt Node
Date: Mon Feb 06 15:07:40 GMT 2017
User: dcchb
Spectrometer: FLMS00149
Trigger mode: 0
Integration Time (sec): 2.000000E-2
Scans to average: 10
Electric dark correction enabled: true
Nonlinearity correction enabled: false
Boxcar width: 0
XAxis mode: Wavelengths
Number of Pixels in Spectrum: 2048
>>>>>Begin Spectral Data<<<<<
341.393	2.02
341.776	2.02
342.16	2.02
342.543	-62.61
342.927	-68.49
343.31	-64.19
343.693	-63.29
344.077	-60.58
344.46	-58.77
344.843	-33.69
345.226	-40.01
345.61	-40.24
345.993	-22.39
346.376	0.21
346.759	20.55
347.142	30.95
347.525	37.95
347.908	63.04
348.291	62.81
348.674	70.94
349.057	96.71
349.44	122.47
349.823	128.12
350.206	171.28
350.588	199.98
350.971	206.99
351.354	207.66
351.737	243.6
352.119	232.07
352.502	248.34
352.884	268
353.267	254.67
353.65	280.88
354.032	288.79
354.414	310.49
354.797	283.37
355.179	295.8
355.562	317.72
355.944	332.86
356.326	320.88
356.709	345.06
357.091	318.62
357.473	344.61
357.855	318.17
358.238	353.2
358.62	346.19
359.002	335.57
359.384	338.73
359.766	341.45
360.148	336.02
360.53	334.21
360.912	348
361.294	345.29
361.676	308.23
362.057	327.21
362.439	333.54
362.821	307.1
363.203	328.34
363.584	287.66
363.966	328.56
364.348	311.16
364.729	345.51
365.111	309.36
365.493	328.79
365.874	325.18
366.256	301.67
366.637	322.46
367.019	330.6
367.4	307.55
367.781	318.62
368.163	317.94
368.544	290.15
368.925	296.93
369.306	331.05
369.688	301.67
370.069	304.84
370.45	321.79
370.831	313.65
371.212	310.71
371.593	308.45
371.974	303.03
372.355	319.75
372.736	312.29
373.117	321.33
373.498	306.64
373.879	306.42
374.26	304.61
374.641	310.49
375.021	324.95
375.402	313.2
375.783	335.34
376.163	349.13
376.544	322.69
376.925	312.97
377.305	335.34
377.686	345.74
378.066	322.46
378.447	326.08
378.827	319.3
379.208	328.34
379.588	311.84
379.968	311.62
380.349	324.72
380.729	324.5
381.109	321.56
381.489	318.4
381.87	343.03
382.25	344.84
382.63	339.86
383.01	353.2
383.39	328.11
383.77	362.91
384.15	348
384.53	326.08
384.91	341.22
385.29	331.95
385.67	325.18
386.049	357.94
386.429	335.8
386.809	340.54
387.189	358.17
387.568	366.98
387.948	369.92
388.328	341.67
388.707	371.05
389.087	343.93
389.466	344.84
389.846	353.87
390.225	373.31
390.605	364.04
390.984	368.11
391.363	355.91
391.743	370.6
392.122	366.08
392.501	370.37
392.881	360.43
393.26	364.72
393.639	366.76
394.018	381.44
394.397	386.87
394.776	369.47
395.155	369.24
395.534	368.11
395.913	380.54
396.292	394.1
396.671	405.17
397.05	386.42
397.429	384.38
397.808	392.74
398.186	381.9
398.565	387.77
398.944	389.35
399.323	380.77
399.701	398.39
400.08	371.73
400.458	397.94
400.837	396.36
401.215	406.53
401.594	398.62
401.972	401.33
402.351	406.08
402.729	409.01
403.107	409.92
403.486	420.31
403.864	416.92
404.242	423.7
404.62	421.67
404.999	428.9
405.377	419.86
405.755	435
406.133	413.31
406.511	422.57
406.889	432.74
407.267	434.55
407.645	452.63
408.023	442.23
408.401	419.86
408.779	450.6
409.156	425.96
409.534	444.27
409.912	451.73
410.29	470.48
410.667	459.18
411.045	474.1
411.422	468.22
411.8	463.93
412.178	472.97
412.555	472.97
412.933	471.39
413.31	489.69
413.687	480.2
414.065	455.34
414.442	492.85
414.819	500.76
415.197	504.83
415.574	489.01
415.951	509.13
416.328	507.54
416.705	505.06
417.082	508.22
417.46	518.39
417.837	525.17
418.214	526.3
418.591	498.73
418.967	532.4
419.344	520.42
419.721	535.57
420.098	533.53
420.475	549.8
420.852	522.23
421.228	548.45
421.605	550.93
421.982	537.82
422.358	541.21
422.735	545.06
423.111	553.42
423.488	562.91
423.864	564.72
424.241	553.42
424.617	567.65
424.994	575.56
425.37	572.63
425.746	559.52
426.123	596.81
426.499	569.46
426.875	584.6
427.251	607.88
427.627	583.02
428.003	610.82
428.379	606.75
428.756	634.55
429.132	594.55
429.507	639.07
429.883	636.13
430.259	630.7
430.635	660.31
431.011	663.02
431.387	667.31
431.763	644.04
432.138	677.71
432.514	649.91
432.89	689.01
433.265	659.4
433.641	671.38
434.016	686.97
434.392	708.67
434.767	702.34
435.143	714.32
435.518	720.19
435.894	688.33
436.269	708.67
436.644	720.64
437.02	736.24
437.395	740.76
437.77	746.41
438.145	755.45
438.52	757.93
438.895	764.71
439.271	778.5
439.646	783.24
440.021	777.82
440.395	783.47
440.77	781.21
441.145	777.14
441.52	812.39
441.895	812.85
442.27	824.6
442.645	795.45
443.019	827.76
443.394	828.21
443.769	832.28
444.143	810.36
444.518	825.05
444.892	826.18
445.267	860.98
445.641	834.77
446.016	859.62
446.39	845.84
446.764	847.42
447.139	875.67
447.513	857.82
447.887	876.8
448.262	870.92
448.636	896.23
449.01	875.67
449.384	927.19
449.758	920.19
450.132	878.15
450.506	899.85
450.88	925.39
451.254	945.05
451.628	936.91
452.002	937.14
452.376	958.83
452.75	928.78
453.123	951.15
453.497	981.65
453.871	977.81
454.244	969.45
454.618	980.53
454.992	1008.77
455.365	1032.95
455.739	1040.18
456.112	1023.24
456.486	1030.69
456.859	1025.5
457.232	1055.55
457.606	1059.62
457.979	1077.02
458.352	1108.88
458.725	1128.32
459.099	1124.25
459.472	1138.49
459.845	1129.9
460.218	1157.92
460.591	1186.17
460.964	1188.2
461.337	1172.84
461.71	1217.81
462.083	1264.36
462.456	1247.18
462.829	1269.33
463.201	1269.33
463.574	1258.03
463.947	1278.14
464.32	1331.48
464.692	1292.16
465.065	1343.45
465.438	1349.33
465.81	1378.48
466.183	1386.62
466.555	1420.51
466.928	1420.06
467.3	1460.06
467.672	1462.77
468.045	1479.49
468.417	1540.96
468.789	1507.52
469.161	1548.87
469.534	1587.29
469.906	1590.45
470.278	1627.74
470.65	1648.98
471.022	1665.03
471.394	1739.6
471.766	1735.08
472.138	1768.75
472.51	1780.96
472.882	1840.62
473.253	1853.72
473.625	1869.54
473.997	1919.03
474.369	1954.96
474.74	1969.88
475.112	2034.28
475.484	2088.29
475.855	2142.98
476.227	2160.61
476.598	2232.7
476.97	2254.84
477.341	2324.22
477.713	2368.96
478.084	2416.42
478.455	2505.46
478.827	2554.72
479.198	2622.29
479.569	2612.57
479.94	2713.81
480.311	2814.6
480.682	2865.67
481.053	2969.63
481.424	3050.3
481.795	3142.5
482.166	3159
482.537	3217.08
482.908	3340.91
483.279	3387.47
483.65	3538.88
484.021	3639.21
484.391	3653.45
484.762	3768.7
485.133	3804.41
485.503	3909.49
485.874	4057.96
486.244	4090.5
486.615	4225.41
486.985	4306.77
487.356	4455.24
487.726	4544.5
488.097	4657.94
488.467	4767.54
488.837	4901.55
489.207	4979.74
489.578	5097.03
489.948	5148.55
490.318	5272.62
490.688	5353.07
491.058	5476
491.428	5631.7
491.798	5754.86
492.168	5893.62
492.538	5964.8
492.908	6060.62
493.278	6135.19
493.648	6241.86
494.017	6409.31
494.387	6481.17
494.757	6532.7
495.126	6693.82
495.496	6774.95
495.866	6939.01
496.235	7056.98
496.605	7075.05
496.974	7208.84
497.344	7357.53
497.713	7417.64
498.082	7535.83
498.452	7650.41
498.821	7710.29
499.19	7809.27
499.559	7941.25
499.928	8025.09
500.298	8151.64
500.667	8248.81
501.036	8219.2
501.405	8329.48
501.774	8445.41
502.143	8574.9
502.512	8677.05
502.88	8726.76
503.249	8764.73
503.618	8916.36
503.987	8899.19
504.356	9077.49
504.724	9127.43
505.093	9200.65
505.462	9283.36
505.83	9356.58
506.199	9494.65
506.567	9668.43
506.936	9672.73
507.304	9783.23
507.672	9774.87
508.041	9896
508.409	10033.39
508.777	10116.56
509.145	10153.62
509.514	10182.09
509.882	10292.6
510.25	10300.73
510.618	10446.26
510.986	10495.76
511.354	10616.66
511.722	10700.04
512.09	10850.1
512.458	10815.07
512.826	10979.58
513.193	11045.12
513.561	10996.98
513.929	11179.8
514.297	11284.43
514.664	11300.93
515.032	11356.3
515.4	11468.38
515.767	11566.91
516.135	11621.38
516.502	11564.65
516.869	11777.76
517.237	11840.13
517.604	11833.35
517.972	11980.01
518.339	12086.22
518.706	12127.8
519.073	12181.59
519.44	12227.91
519.808	12335.71
520.175	12373.45
520.542	12539.77
520.909	12579.77
521.276	12565.31
521.643	12777.28
522.009	12761.23
522.376	12824.28
522.743	12857.73
523.11	13043.48
523.477	13225.4
523.843	13260.88
524.21	13343.14
524.577	13408.9
524.943	13543.81
525.31	13596.46
525.676	13706.97
526.043	13832.16
526.409	13813.63
526.776	13998.49
527.142	14086.85
527.508	14193.74
527.874	14293.85
528.241	14325.71
528.607	14244.13
528.973	14462.43
529.339	14555.76
529.705	14647.06
530.071	14721.18
530.437	14836.66
530.803	14957.33
531.169	14993.26
531.535	15001.85
531.901	15091.11
532.267	15237.55
532.632	15261.05
532.998	15258.34
533.364	15273.93
533.73	15381.05
534.095	15603.19
534.461	15617.88
534.826	15576.98
535.192	15664.43
535.557	15873.01
535.923	15821.26
536.288	15914.37
536.653	16017.42
537.019	16037.98
537.384	16047.02
537.749	16180.13
538.114	16298.09
538.479	16261.03
538.845	16301.25
539.21	16369.27
539.575	16357.3
539.94	16459.67
540.305	16542.6
540.67	16604.52
541.034	16668.47
541.399	16788.92
541.764	16821.46
542.129	16913.89
542.494	16872.31
542.858	16984.17
543.223	16998.63
543.587	17153.66
543.952	17193.88
544.316	17246.09
544.681	17261.23
545.045	17328.57
545.41	17430.26
545.774	17456.25
546.138	17438.85
546.503	17577.15
546.867	17628
547.231	17815.79
547.595	17751.38
547.959	17910.7
548.324	17877.26
548.688	17905.5
549.052	17998.61
549.416	18094.88
549.779	18053.3
550.143	18155.44
550.507	18284.48
550.871	18381.88
551.235	18306.62
551.599	18492.83
551.962	18487.64
552.326	18543
552.689	18700.06
553.053	18620.51
553.417	18727.86
553.78	18973.27
554.143	18834.74
554.507	18932.37
554.87	18995.19
555.234	19155.64
555.597	19107.05
555.96	19129.65
556.323	19166.94
556.686	19340.04
557.05	19481.73
557.413	19502.52
557.776	19583.65
558.139	19628.85
558.502	19682.41
558.865	19745.91
559.228	19855.06
559.59	19938.9
559.953	19956.98
560.316	20200.13
560.679	20067.48
561.041	20224.09
561.404	20313.12
561.767	20471.09
562.129	20293.24
562.492	20636.05
562.854	20602.61
563.217	20636.28
563.579	20611.2
563.941	20832.66
564.304	20883.96
564.666	21019.32
565.028	20947.68
565.39	21185.19
565.753	21215.7
566.115	21318.52
566.477	21385.19
566.839	21411.4
567.201	21518.29
567.563	21511.51
567.925	21741.34
568.287	21741.56
568.648	21827.89
569.01	21955.57
569.372	22132.29
569.734	21951.5
570.095	22220.87
570.457	22253.64
570.819	22392.62
571.18	22461.77
571.542	22610.46
571.903	22575.66
572.265	22780.4
572.626	22843.23
572.987	22837.58
573.349	23008.87
573.71	23073.5
574.071	23135.87
574.432	23244.35
574.794	23364.8
575.155	23455.64
575.516	23494.74
575.877	23572.25
576.238	23796.42
576.599	23902.63
576.96	24016.08
577.32	24080.03
577.681	24263.08
578.042	24373.58
578.403	24513.01
578.763	24525.44
579.124	24668.26
579.485	24820.8
579.845	25067.8
580.206	25096.73
580.566	25221.02
580.927	25373.56
581.287	25591.86
581.648	25622.59
582.008	25840.21
582.368	25981.22
582.728	26068.68
583.089	26140.54
583.449	26431.83
583.809	26548.44
584.169	26722.9
584.529	26903.91
584.889	27214.19
585.249	27179.61
585.609	27295.77
585.969	27722.19
586.329	27771.46
586.688	27868.41
587.048	28120.83
587.408	28121.28
587.768	28457.09
588.127	28712.9
588.487	28805.33
588.846	29160.58
589.206	29125.32
589.565	29295.26
589.925	29675.82
590.284	29689.83
590.643	29946.77
591.003	30172.53
591.362	30473.76
591.721	30569.35
592.08	30794.88
592.44	31005.05
592.799	31185.15
593.158	31228.77
593.517	31544.92
593.876	31747.4
594.235	31881.86
594.593	32008.18
594.952	32306.03
595.311	32325.46
595.67	32642.07
596.029	32960.02
596.387	33185.78
596.746	33286.57
597.104	33356.62
597.463	33493.34
597.822	33830.06
598.18	33773.11
598.538	33901.24
598.897	34316.82
599.255	34236.6
599.613	34801.1
599.972	34685.18
600.33	34886.07
600.688	34872.97
601.046	35189.12
601.404	35450.13
601.762	35509.56
602.12	35826.84
602.478	35854.86
602.836	36099.83
603.194	36043.56
603.552	36337.79
603.91	36246.72
604.268	36545.24
604.625	36631.79
604.983	36889.19
605.341	36895.06
605.698	37023.87
606.056	37170.76
606.413	37400.81
606.771	37440.36
607.128	37628.15
607.485	37486.01
607.843	37736.39
608.2	38030.17
608.557	38257.96
608.914	38153.56
609.272	38570.72
609.629	38496.83
609.986	38741.11
610.343	38634.22
610.7	38976.14
611.057	38916.7
611.414	39057.72
611.771	39245.96
612.127	39311.04
612.484	39413.86
612.841	39624.48
613.198	39504.94
613.554	39623.12
613.911	40163.45
614.267	40008.43
614.624	40074.64
614.98	40191.92
615.337	40379.72
615.693	40347.4
616.05	40395.99
616.406	40716.66
616.762	40523.21
617.118	40672.36
617.475	40740.84
617.831	40911
618.187	40979.47
618.543	41011.11
618.899	41385.34
619.255	41403.64
619.611	41408.16
619.967	41520.02
620.323	41597.54
620.678	41440.48
621.034	41391.44
621.39	41616.52
621.746	41567.48
622.101	41971.76
622.457	41633.69
622.812	41892.22
623.168	41929.5
623.523	41957.98
623.879	42213.79
624.234	41995.94
624.589	42081.14
624.945	42096.73
625.3	42115.26
625.655	42141.7
626.01	42282.49
626.365	42251.53
626.72	42332.21
627.075	42363.84
627.43	42369.72
627.785	42256.5
628.14	42446.78
628.495	42421.7
628.85	42396.39
629.205	42442.26
629.559	42582.82
629.914	42343.28
630.269	42415.59
630.623	42472.32
630.978	42245.43
631.332	42709.15
631.687	42563.16
632.041	42511.86
632.396	42495.82
632.75	42472.99
633.104	42569.26
633.459	42261.02
633.813	42391.19
634.167	42403.62
634.521	42390.51
634.875	42448.14
635.229	42410.4
635.583	42186.22
635.937	42347.12
636.291	42308.03
636.645	42225.54
636.999	42056.28
637.352	42310.51
637.706	42070.97
638.06	42204.07
638.413	42127.47
638.767	42053.8
639.121	42214.24
639.474	41950.07
639.828	41929.05
640.181	42033.68
640.534	41960.69
640.888	42024.64
641.241	41816.06
641.594	41908.94
641.947	42033.91
642.301	41707.14
642.654	41898.09
643.007	41904.42
643.36	41836.17
643.713	41784.88
644.066	41969.28
644.419	41684.31
644.771	41471.21
645.124	40960.04
645.477	40995.97
645.83	40798.46
646.182	40588.75
646.535	40573.83
646.888	40670.78
647.24	40348.98
647.593	40531.8
647.945	40514.85
648.298	40307.4
648.65	40248.65
649.002	40353.05
649.355	40431.69
649.707	40331.35
650.059	40510.56
650.411	40930.44
650.763	41084.33
651.115	41475.28
651.467	41214.95
651.819	41213.14
652.171	41173.14
652.523	41073.26
652.875	41229.18
653.227	41042.52
653.578	41236.19
653.93	41158.9
654.282	40957.1
654.633	41000.72
654.985	40869.65
655.337	40960.26
655.688	40910.1
656.039	41060.15
656.391	40776.99
656.742	40878.01
657.094	40831.45
657.445	40993.71
657.796	40832.13
658.147	40720.95
658.498	40779.93
658.849	40766.6
659.2	40733.15
659.551	40863.54
659.902	40804.11
660.253	40715.07
660.604	40628.75
660.955	40633.04
661.306	40762.98
661.656	40651.8
662.007	40687.73
662.358	40634.4
662.708	40672.36
663.059	40741.97
663.409	40350.79
663.76	40577.22
664.11	40565.02
664.461	40734.73
664.811	40674.62
665.161	40565.92
665.511	40499.03
665.862	40510.79
666.212	40802.08
666.562	40518.24
666.912	40626.71
667.262	40457.68
667.612	40590.11
667.962	40620.84
668.312	40466.49
668.662	40738.12
669.011	40558.92
669.361	40560.28
669.711	40488.86
670.06	40491.8
670.41	40310.11
670.76	40325.25
671.109	40428.08
671.459	40384.23
671.808	40255.88
672.157	40362.54
672.507	40183.56
672.856	40185.14
673.205	40264.92
673.554	40272.15
673.904	40140.63
674.253	40269.89
674.602	40212.04
674.951	39593.97
675.3	39469.68
675.649	40067.63
675.998	40045.26
676.346	39974.3
676.695	40178.82
677.044	39877.58
677.393	40122.09
677.741	40039.39
678.09	40024.47
678.438	39774.76
678.787	39973.17
679.135	39937.92
679.484	39609.11
679.832	39845.72
680.181	39600.75
680.529	39689.56
680.877	39744.03
681.225	39655.89
681.573	39767.75
681.922	39382.91
682.27	39322.79
682.618	39411.6
682.966	39177.03
683.314	39419.74
683.661	39238.95
684.009	39099.75
684.357	39037.15
684.705	39056.59
685.053	39019.52
685.4	39068.11
685.748	38808.91
686.095	38796.48
686.443	38716.93
686.79	38495.02
687.138	38704.28
687.485	38714.45
687.832	38434.68
688.18	38587.45
688.527	38365.08
688.874	38201.47
689.221	38154.91
689.568	38164.41
689.915	37937.07
690.262	37953.79
690.609	37940.91
690.956	37918.76
691.303	37742.27
691.65	37584.99
691.997	37624.08
692.344	37438.78
692.69	37330.3
693.037	37407.59
693.383	37067.03
693.73	37319.46
694.077	37043.08
694.423	37075.4
694.769	36783.65
695.116	36681.73
695.462	36748.17
695.808	36583.66
696.155	36728.06
696.501	36400.84
696.847	36338.47
697.193	36108.41
697.539	36296.43
697.885	36050.56
698.231	35905.71
698.577	36045.37
698.923	35896.9
699.269	35828.87
699.614	35644.25
699.96	35601.08
700.306	35493.06
700.651	35435.89
700.997	35324.48
701.342	35295.78
701.688	35215.11
702.033	35145.5
702.379	34980.08
702.724	35057.82
703.069	35024.15
703.415	34560.66
703.76	34737.38
704.105	34603.6
704.45	34563.37
704.795	34285.64
705.14	34315.47
705.485	34333.55
705.83	34105.98
706.175	34138.52
706.52	34025.76
706.865	33938.08
707.209	33904.86
707.554	33848.81
707.899	33765.88
708.243	33730.17
708.588	33571.53
708.932	33397.75
709.277	33309.62
709.621	33413.8
709.966	33114.37
710.31	33320.69
710.654	32956.18
710.998	33081.6
711.342	33127.25
711.687	33049.29
712.031	32823.08
712.375	32582.41
712.719	32697.66
713.063	32643.42
713.407	32786.69
713.75	32631.67
714.094	32551.45
714.438	32530.88
714.782	32493.59
715.125	32175.64
715.469	32350.77
715.812	32101.51
716.156	32076.66
716.499	32072.14
716.843	32012.93
717.186	31920.95
717.53	32120.27
717.873	31977.22
718.216	31842.09
718.559	31641.87
718.902	31531.36
719.246	31635.76
719.589	31530.91
719.932	31408.65
720.275	31360.07
720.617	31352.16
720.96	31219.05
721.303	31260.63
721.646	31339.05
721.989	31070.81
722.331	31217.92
722.674	31016.8
723.016	31034.88
723.359	31039.85
723.701	30998.49
724.044	30854.54
724.386	30724.15
724.729	30695
725.071	30759.18
725.413	30785.17
725.755	30647.09
726.097	30410.71
726.439	30389.02
726.782	30321.22
727.124	30411.16
727.465	30295.91
727.807	30301.56
728.149	30243.03
728.491	30237.16
728.833	30202.13
729.175	30020.44
729.516	29917.39
729.858	29965.53
730.199	30038.07
730.541	29944.74
730.882	29770.5
731.224	29896.83
731.565	29753.78
731.906	29754.91
732.248	29811.86
732.589	29659.32
732.93	29503.84
733.271	29587.91
733.612	29615.93
733.953	29515.82
734.294	29323.96
734.635	29223.62
734.976	29394.47
735.317	29193.12
735.658	29266.56
735.999	29257.07
736.339	29158.54
736.68	29213.46
737.021	29014.59
737.361	28979.79
737.702	29236.28
738.042	29073.8
738.383	28950.86
738.723	28992.44
739.063	28937.76
739.404	28838.32
739.744	28887.81
740.084	28683.98
740.424	28678.78
740.764	28592
741.104	28693.92
741.444	28494.83
741.784	28431.78
742.124	28497.77
742.464	28391.33
742.804	28447.83
743.143	28309.3
743.483	28281.28
743.823	28215.52
744.162	28112.02
744.502	28251.22
744.841	28203.76
745.181	28156.76
745.52	28113.6
745.86	28075.63
746.199	27943.88
746.538	27987.95
746.877	28019.14
747.216	27961.96
747.556	27781.63
747.895	27898.01
748.234	27935.75
748.573	27734.4
748.911	27602.88
749.25	27754.06
749.589	27645.81
749.928	27629.54
750.267	27665.02
750.605	27486.27
750.944	27433.61
751.283	27464.12
751.621	27431.35
751.96	27228.42
752.298	27219.16
752.636	27207.41
752.975	27107.3
753.313	26931.93
753.651	27087.18
753.989	26891.93
754.327	26966.96
754.666	26875.66
755.004	26862.78
755.342	26893.74
755.679	26705.72
756.017	26676.12
756.355	26721.09
756.693	26539.4
757.031	26563.36
757.368	26441.78
757.706	26358.61
758.044	26252.85
758.381	26270.71
758.719	26016.7
759.056	26090.37
759.394	26058.51
759.731	25954.11
760.068	25914.56
760.405	25809.02
760.743	25607.22
761.08	25815.8
761.417	25512.76
761.754	25402.93
762.091	25527.9
762.428	25400.22
762.765	25332.2
763.102	25311.41
763.438	25197.06
763.775	25090.85
764.112	25129.27
764.449	25052.66
764.785	24919.1
765.122	24795.27
765.458	24724.31
765.795	24661.26
766.131	24639.56
766.467	24525.22
766.804	24399.12
767.14	24327.26
767.476	24355.05
767.812	24207.71
768.148	24265.79
768.485	24063.76
768.821	23956.19
769.157	24004.33
769.492	23878.23
769.828	23838
770.164	23690.44
770.5	23554.17
770.836	23532.7
771.171	23354.4
771.507	23347.17
771.842	23238.47
772.178	23178.59
772.513	23205.7
772.849	22962.77
773.184	22861.53
773.519	23040.06
773.855	22736.79
774.19	22637.58
774.525	22580.18
774.86	22596.23
775.195	22570.92
775.53	22420.64
775.865	22375.67
776.2	22229.68
776.535	22042.57
776.87	22101.78
777.205	21964.83
777.539	21909.69
777.874	21909.47
778.209	21744.27
778.543	21744.72
778.878	21593.99
779.212	21681.22
779.547	21445.3
779.881	21464.28
780.215	21383.38
780.55	21383.6
780.884	21172.99
781.218	21195.81
781.552	21084.4
781.886	21003.95
782.22	20990.62
782.554	20782.94
782.888	20692.32
783.222	20522.38
783.556	20574.81
783.889	20476.51
784.223	20348.38
784.557	20262.96
784.89	20330.75
785.224	20123.52
785.557	20026.13
785.891	19916.3
786.224	20106.58
786.558	19913.81
786.891	19740.26
787.224	19624.33
787.557	19701.61
787.891	19605.57
788.224	19500.26
788.557	19482.86
788.89	19446.71
789.223	19342.75
789.556	19246.49
789.888	19235.64
790.221	19095.75
790.554	18987.51
790.887	18998.58
791.219	18984.12
791.552	18948.19
791.884	18852.82
792.217	18703
792.549	18702.09
792.882	18530.57
793.214	18514.3
793.546	18536.22
793.879	18372.16
794.211	18196.34
794.543	18342.1
794.875	18277.7
795.207	18395.89
795.539	18145.72
795.871	18196.57
796.203	17947.76
796.535	17908.89
796.867	17881.1
797.198	17874.32
797.53	17734.89
797.862	17732.85
798.193	17711.38
798.525	17659.63
798.856	17570.6
799.188	17415.8
799.519	17431.39
799.85	17237.72
800.182	17361.79
800.513	17364.73
800.844	17137.16
801.175	17212.87
801.506	17204.73
801.837	17030.27
802.168	16979.43
802.499	16950.73
802.83	16934.91
803.161	16833.67
803.491	16864.85
803.822	16855.14
804.153	16793.67
804.483	16569.27
804.814	16565.88
805.145	16563.17
805.475	16464.86
805.805	16447.69
806.136	16388.26
806.466	16431.19
806.796	16419.44
807.126	16230.75
807.457	16231.2
807.787	16374.02
808.117	16129.05
808.447	16082.05
808.777	16113.46
809.107	15920.25
809.436	15985.78
809.766	15981.03
810.096	15826.01
810.426	15831.21
810.755	15907.36
811.085	15753.02
811.414	15664.88
811.744	15637.09
812.073	15545.34
812.403	15651.1
812.732	15529.07
813.061	15440.26
813.39	15396.19
813.719	15342.18
814.049	15433.93
814.378	15381.05
814.707	15261.73
815.036	15207.04
815.365	15213.6
815.693	15031
816.022	15042.08
816.351	15080.72
816.68	14965.47
817.008	15042.75
817.337	14848.63
817.665	14816.77
817.994	14853.83
818.322	14801.18
818.651	14762.54
818.979	14699.26
819.307	14784.46
819.636	14681.41
819.964	14584.46
820.292	14694.06
820.62	14640.05
820.948	14583.33
821.276	14567.74
821.604	14551.24
821.932	14577.68
822.259	14580.39
822.587	14561.18
822.915	14490.23
823.243	14541.52
823.57	14410
823.898	14553.28
824.225	14429.66
824.553	14529.55
824.88	14506.72
825.207	14496.78
825.535	14444.8
825.862	14453.84
826.189	14385.14
826.516	14400.96
826.843	14452.71
827.17	14536.55
827.497	14537.91
827.824	14457.23
828.151	14515.08
828.478	14500.62
828.805	14543.11
829.131	14339.72
829.458	14379.27
829.785	14383.34
830.111	14372.26
830.438	14565.48
830.764	14417.01
831.09	14492.94
831.417	14349.67
831.743	14421.53
832.069	14497.68
832.395	14329.33
832.722	14364.13
833.048	14365.26
833.374	14326.84
833.7	14263.11
834.026	14331.13
834.351	14370.68
834.677	14353.05
835.003	14338.59
835.329	14228.54
835.654	14290.91
835.98	14297.01
836.306	14204.36
836.631	14240.29
836.956	14243
837.282	14226.96
837.607	14122.55
837.932	14046.85
838.258	14030.35
838.583	14061.76
838.908	13934.53
839.233	14033.29
839.558	13988.77
839.883	13911.48
840.208	13846.85
840.533	13824.03
840.858	13845.27
841.182	13859.73
841.507	13891.15
841.832	13797.59
842.156	13756.69
842.481	13733.18
842.805	13754.88
843.13	13650.25
843.454	13622.45
843.778	13547.2
844.103	13547.88
844.427	13447.77
844.751	13566.86
845.075	13476.69
845.399	13479.41
845.723	13429.46
846.047	13372.52
846.371	13268.11
846.695	13286.64
847.019	13117.83
847.343	13133.43
847.666	13014.11
847.99	13033.54
848.313	12966.65
848.637	12930.49
848.96	12845.52
849.284	12796.03
849.607	12817.95
849.931	12718.07
850.254	12671.07
850.577	12641.91
850.9	12481.69
851.223	12521.92
851.546	12438.75
851.869	12324.41
852.192	12449.15
852.515	12293.9
852.838	12225.2
853.161	12302.26
853.483	12140.46
853.806	12156.05
854.129	12105.2
854.451	12007.81
854.774	12017.3
855.096	11954.7
855.419	11890.75
855.741	11858.21
856.063	11876.74
856.385	11802.84
856.708	11701.37
857.03	11714.93
857.352	11662.73
857.674	11662.28
857.996	11653.01
858.318	11562.17
858.64	11563.3
858.961	11496.63
859.283	11545.45
859.605	11391.55
859.926	11443.98
860.248	11387.71
860.57	11358.56
860.891	11349.74
861.212	11291.89
861.534	11218
861.855	11239.46
862.176	11295.96
862.498	11232.23
862.819	11272.46
863.14	11192.23
863.461	11121.73
863.782	11171.67
864.103	11167.15
864.424	11048.28
864.745	11103.2
865.065	10979.58
865.386	10977.1
865.707	11000.37
866.027	10998.57
866.348	10987.72
866.668	10862.07
866.989	10933.26
867.309	10837.22
867.63	10844.9
867.95	10871.79
868.27	10790.66
868.59	10846.71
868.91	10827.27
869.23	10810.55
869.55	10767.84
869.87	10784.79
870.19	10727.61
870.51	10705.92
870.83	10625.24
871.15	10701.85
871.469	10674.73
871.789	10684.68
872.109	10676.32
872.428	10560.39
872.748	10615.53
873.067	10665.47
873.386	10580.27
873.706	10583.66
874.025	10512.03
874.344	10490.56
874.663	10528.07
874.982	10503.66
875.301	10414.18
875.62	10446.26
875.939	10395.87
876.258	10424.57
876.577	10358.81
876.896	10314.74
877.214	10287.85
877.533	10385.25
877.852	10332.82
878.17	10313.84
878.489	10286.27
878.807	10278.81
879.125	10250.34
879.444	10249.21
879.762	10251.92
880.08	10219.38
880.398	10147.06
880.716	10179.38
881.034	10110.23
881.352	10065.94
881.67	10114.52
881.988	10120.62
882.306	10070.68
882.624	9995.2
882.941	9969.67
883.259	9981.64
883.577	9937.58
883.894	9879.73
884.212	9944.36
884.529	9900.52
884.846	9844.25
885.164	9848.54
885.481	9876.34
885.798	9848.54
886.115	9772.16
886.432	9804.02
886.75	9765.38
887.067	9819.61
887.383	9644.03
887.7	9685.83
888.017	9649.68
888.334	9660.07
888.651	9601.77
888.967	9563.58
889.284	9552.96
889.6	9566.29
889.917	9458.72
890.233	9490.81
890.55	9401.09
890.866	9443.35
891.182	9435.44
891.498	9341.66
891.815	9361.77
892.131	9290.59
892.447	9270.48
892.763	9225.28
893.079	9208.33
893.395	9198.84
893.71	9150.03
894.026	9161.78
894.342	9140.99
894.657	9096.7
894.973	9037.04
895.289	9020.54
895.604	9048.79
895.92	8919.3
896.235	8915.91
896.55	8889.02
896.865	8902.8
897.181	8840.21
897.496	8868.23
897.811	8788.46
898.126	8725.86
898.441	8700.1
898.756	8746.2
899.071	8654.45
899.386	8729.93
899.7	8550.27
900.015	8578.74
900.33	8505.75
900.644	8545.98
900.959	8530.38
901.273	8457.62
901.588	8432.76
901.902	8329.71
902.216	8418.07
902.531	8260.56
902.845	8296.94
903.159	8246.77
903.473	8271.18
903.787	8212.88
904.101	8169.49
904.415	8185.08
904.729	8143.95
905.042	8092.43
905.356	8018.76
905.67	8014.92
905.984	7961.81
906.297	7949.61
906.611	7985.99
906.924	7930.4
907.237	7897.18
907.551	7899.21
907.864	7828.03
908.177	7804.75
908.491	7795.26
908.804	7701.93
909.117	7748.71
909.43	7607.02
909.743	7586.91
910.056	7578.54
910.368	7556.17
910.681	7578.09
910.994	7544.19
911.307	7459
911.619	7446.8
911.932	7480.24
912.244	7421.26
912.557	7338.78
912.869	7313.24
913.181	7288.83
913.494	7279.34
913.806	7247.48
914.118	7176.75
914.43	7193.47
914.742	7134.49
915.054	7151.66
915.366	7041.16
915.678	7041.16
915.99	7031.21
916.302	6970.88
916.613	6992.57
916.925	6896.3
917.236	6908.5
917.548	6875.96
917.859	6855.85
918.171	6816.08
918.482	6767.04
918.794	6780.6
919.105	6783.76
919.416	6692.69
919.727	6708.74
920.038	6647.95
920.349	6607.04
920.66	6558.23
920.971	6614.95
921.282	6564.79
921.593	6495.18
921.903	6436.65
922.214	6479.82
922.525	6433.49
922.835	6360.72
923.146	6414.51
923.456	6384.22
923.767	6298.35
924.077	6278.69
924.387	6286.83
924.697	6258.13
925.008	6208.86
925.318	6235.3
925.628	6184.91
925.938	6143.78
926.248	6050.67
926.558	6091.13
926.867	6090.9
927.177	6044.8
927.487	6062.2
927.796	5967.29
928.106	5973.39
928.416	5974.29
928.725	5908.31
929.034	5850.68
929.344	5879.38
929.653	5858.36
929.962	5854.97
930.271	5749.44
930.581	5730.46
930.89	5705.82
931.199	5664.24
931.508	5659.05
931.817	5644.36
932.125	5679.84
932.434	5576.79
932.743	5541.54
933.051	5531.37
933.36	5525.04
933.669	5492.72
933.977	5497.24
934.286	5468.32
934.594	5438.26
934.902	5397.36
935.21	5382.67
935.519	5378.15
935.827	5338.83
936.135	5331.37
936.443	5287.76
936.751	5236.68
937.059	5277.36
937.367	5213.86
937.674	5209.79
937.982	5198.72
938.29	5144.26
938.597	5161.43
938.905	5134.54
939.213	5088.21
939.52	5081.21
939.827	5094.32
940.135	4996.24
940.442	5033.98
940.749	4996.24
941.056	5036.92
941.363	4954.21
941.67	4892.06
941.977	4892.74
942.284	4822.91
942.591	4900.87
942.898	4836.69
943.205	4778.62
943.511	4798.96
943.818	4773.87
944.125	4755.79
944.431	4709.69
944.738	4715.79
945.044	4747.43
945.35	4643.48
945.657	4674.21
945.963	4714.89
946.269	4605.74
946.575	4579.3
946.881	4575.46
947.187	4554.22
947.493	4539.53
947.799	4491.17
948.105	4539.75
948.41	4459.3
948.716	4445.52
949.022	4459.3
949.327	4383.83
949.633	4363.71
949.938	4407.1
950.244	4399.64
950.549	4352.41
950.854	4347.22
951.16	4287.1
951.465	4320.55
951.77	4285.3
952.075	4225.19
952.38	4227.22
952.685	4217.28
952.99	4196.71
953.294	4208.69
953.599	4181.34
953.904	4151.74
954.209	4145.41
954.513	4137.5
954.818	4110.61
955.122	4068.81
955.426	4063.16
955.731	4046.89
956.035	4012.54
956.339	3998.98
956.643	4008.24
956.948	3959.2
957.252	3952.88
957.556	3965.31
957.86	3890.96
958.163	3911.52
958.467	3854.35
958.771	3890.96
959.075	3888.92
959.378	3866.78
959.682	3809.15
959.985	3837.17
960.289	3780.9
960.592	3758.31
960.896	3728.25
961.199	3732.77
961.502	3755.82
961.805	3685.09
962.108	3693.67
962.411	3679.89
962.714	3662.04
963.017	3639.21
963.32	3656.16
963.623	3591.76
963.926	3598.54
964.228	3573.68
964.531	3560.12
964.833	3568.93
965.136	3529.16
965.438	3488.26
965.741	3506.79
966.043	3450.97
966.345	3468.37
966.648	3460.46
966.95	3471.08
967.252	3414.36
967.554	3435.38
967.856	3398.09
968.158	3347.02
968.46	3356.96
968.761	3366.45
969.063	3354.02
969.365	3343.17
969.666	3308.15
969.968	3290.52
970.269	3284.65
970.571	3210.75
970.872	3289.62
971.174	3254.14
971.475	3227.25
971.776	3191.99
972.077	3216.62
972.378	3175.27
972.679	3170.52
972.98	3164.65
973.281	3120.13
973.582	3128.27
973.883	3127.36
974.183	3089.4
974.484	3090.3
974.785	3055.27
975.085	3079.45
975.386	3073.8
975.686	3007.14
975.986	3012.11
976.287	3018.21
976.587	3001.26
976.887	2951.09
977.187	2961.04
977.487	2939.12
977.787	2919.01
978.087	2979.12
978.387	2906.12
978.687	2934.15
978.987	2864.54
979.286	2855.73
979.586	2866.8
979.885	2854.15
980.185	2824.54
980.484	2839.91
980.784	2826.58
981.083	2792.23
981.382	2780.25
981.682	2784.55
981.981	2772.12
982.28	2763.08
982.579	2719.91
982.878	2757.88
983.177	2712.23
983.475	2723.08
983.774	2716.52
984.073	2693.93
984.372	2686.92
984.67	2643.08
984.969	2641.27
985.267	2633.36
985.566	2617.09
985.864	2575.51
986.162	2607.83
986.461	2594.27
986.759	2572.12
987.057	2570.54
987.355	2555.4
987.653	2528.51
987.951	2530.99
988.249	2542.29
988.547	2496.87
988.844	2478.11
989.142	2449.19
989.44	2455.74
989.737	2465.23
990.035	2432.01
990.332	2423.65
990.63	2413.71
990.927	2400.37
991.224	2390.66
991.521	2417.78
991.819	2379.36
992.116	2387.49
992.413	2350.88
992.71	2336.42
993.006	2316.08
993.303	2312.92
993.6	2335.97
993.897	2323.99
994.193	2281.73
994.49	2266.37
994.787	2288.29
995.083	2264.79
995.379	2268.85
995.676	2257.55
995.972	2218.68
996.268	2226.14
996.565	2229.08
996.861	2218.23
997.157	2220.49
997.453	2179.82
997.749	2161.28
998.044	2159.93
998.34	2119.48
998.636	2149.53
998.932	2085.35
999.227	2122.87
999.523	2101.17
999.818	2071.34
1000.114	2071.8
1000.409	2067.5
1000.704	2059.14
1001	2023.44
1001.295	2008.52
1001.59	2038.58
1001.885	2024.57
1002.18	1972.36
1002.475	1965.13
1002.77	1950.9
1003.065	1985.02
1003.359	1966.94
1003.654	1940.05
1003.949	1907.73
1004.243	1898.24
1004.538	1896.89
1004.832	1857.79
1005.127	1896.43
1005.421	1882.42
1005.715	1865.47
1006.009	1874.74
1006.304	1855.76
1006.598	1845.81
1006.892	1827.06
1007.186	1797.45
1007.48	1801.07
1007.773	1807.62
1008.067	1774.18
1008.361	1765.59
1008.655	1770.33
1008.948	1769.66
1009.242	1762.2
1009.535	1741.41
1009.829	1726.49
1010.122	1730.56
1010.415	1705.7
1010.708	1710.68
1011.001	1692.82
1011.295	1681.07
1011.588	1680.39
1011.881	1667.74
1012.173	1669.55
1012.466	1640.62
1012.759	1625.25
1013.052	1627.29
1013.344	1602.43
1013.637	1619.38
1013.93	1622.54
1014.222	1586.38
1014.514	1564.46
1014.807	1570.34
1015.099	1586.61
1015.391	1567.85
1015.683	1530.57
1015.976	1545.71
1016.268	1544.58
1016.56	1495.99
1016.851	1516.33
1017.143	1495.09
1017.435	1526.5
1017.727	1498.93
1018.018	1489.21
1018.31	1467.29
1018.602	1465.94
1018.893	1455.77
1019.185	1418.25
1019.476	1433.85
1019.767	1424.81
1020.058	1417.8
1020.35	1351.14
1020.641	1388.65
1020.932	1388.65
1021.223	1354.75
1021.514	1365.6
1021.804	1390.01
1022.095	1351.36
1022.386	1341.19
1022.677	1308.65
1022.967	1313.17
1023.258	1298.48
1023.548	1292.38
1023.839	1317.24
1024.129	1290.12
1024.419	1269.11
1024.709	1258.26
1025	1254.19
1025.29	1245.15
1025.58	1253.51
1025.87	1227.07
1026.16	1220.52
1026.449	1256.45
1026.739	1202.21
1027.029	1200.41
1027.319	1206.96
1027.608	1221.2
1027.898	1194.98
1028.187	1177.36
1028.477	1150.01
1028.766	1163.35
1029.055	1174.19
1029.344	1167.19
1029.634	1124.25
1029.923	1127.19
1030.212	1123.12
1030.501	1110.69
1030.79	1108.43
1031.078	1111.14
1031.367	1111.14
1031.656	1069.34
1031.945	1093.97
1032.233	1077.47
1032.522	1062.78
1032.81	1046.06
1033.099	1037.7
1033.387	1053.29
1033.675	1034.76
1033.963	1026.85
1034.251	1015.1
1034.54	1001.32
1034.828	987.3
1035.116	1006.51
1035.403	983.46
1035.691	1005.61
1035.979	994.54
1036.267	964.48
1036.554	970.13
1036.842	967.19
1037.129	973.75
1037.417	939.85
1037.704	977.14
1037.992	927.19
1038.279	941.43
1038.566	929
1038.853	929
1039.14	929
