Data from hue_150_FLMS001491_00071.txt Node
Date: Tue Feb 07 16:54:29 GMT 2017
User: dcchb
Spectrometer: FLMS00149
Trigger mode: 0
Integration Time (sec): 2.000000E-2
Scans to average: 10
Electric dark correction enabled: true
Nonlinearity correction enabled: false
Boxcar width: 0
XAxis mode: Wavelengths
Number of Pixels in Spectrum: 2048
>>>>>Begin Spectral Data<<<<<
341.393	-32.67
341.776	-32.67
342.16	-32.67
342.543	-39.45
342.927	-75.15
343.31	-67.92
343.693	-87.58
344.077	-49.84
344.46	-72.44
344.843	-63.4
345.226	-44.42
345.61	-26.34
345.993	-12.78
346.376	-2.84
346.759	12.3
347.142	28.35
347.525	38.52
347.908	63.37
348.291	76.26
348.674	106.08
349.057	102.7
349.44	132.3
349.823	154.45
350.206	164.16
350.588	197.38
350.971	218.17
351.354	212.75
351.737	231.05
352.119	261.79
352.502	268.79
352.884	286.87
353.267	266.76
353.65	291.84
354.032	301.33
354.414	301.33
354.797	326.64
355.179	325.51
355.562	337.04
355.944	343.59
356.326	348.34
356.709	346.98
357.091	338.62
357.473	346.53
357.855	337.49
358.238	345.17
358.62	337.94
359.002	346.53
359.384	351.05
359.766	338.17
360.148	339.98
360.53	330.49
360.912	341.11
361.294	339.07
361.676	316.7
362.057	338.85
362.439	336.59
362.821	336.81
363.203	342.91
363.584	322.35
363.966	308.57
364.348	333.2
364.729	325.51
365.111	297.27
365.493	312.18
365.874	323.93
366.256	308.57
366.637	313.31
367.019	312.18
367.4	321.67
367.781	306.76
368.163	337.72
368.544	321.45
368.925	313.76
369.306	320.09
369.688	319.41
370.069	320.54
370.45	295.01
370.831	320.99
371.212	312.41
371.593	322.12
371.974	309.7
372.355	311.05
372.736	309.24
373.117	333.88
373.498	336.59
373.879	314.21
374.26	309.7
374.641	328
375.021	324.16
375.402	316.7
375.783	336.14
376.163	347.66
376.544	311.96
376.925	334.1
377.305	325.51
377.686	332.07
378.066	321.9
378.447	325.29
378.827	345.85
379.208	331.84
379.588	345.17
379.968	335.68
380.349	327.1
380.729	342.01
381.109	352.63
381.489	331.84
381.87	319.64
382.25	332.52
382.63	316.02
383.01	338.85
383.39	332.97
383.77	344.04
384.15	340.2
384.53	350.15
384.91	340.88
385.29	361.22
385.67	350.15
386.049	358.51
386.429	345.17
386.809	339.98
387.189	344.04
387.568	363.25
387.948	374.55
388.328	367.09
388.707	341.78
389.087	352.86
389.466	351.28
389.846	368.9
390.225	352.18
390.605	361.67
390.984	372.29
391.363	361.22
391.743	375
392.122	370.48
392.501	387.21
392.881	402.57
393.26	379.07
393.639	373.42
394.018	382.69
394.397	390.82
394.776	394.66
395.155	377.04
395.534	379.07
395.913	371.84
396.292	393.31
396.671	391.28
397.05	386.98
397.429	400.77
397.808	398.51
398.186	396.25
398.565	385.17
398.944	392.18
399.323	392.4
399.701	402.12
400.08	418.17
400.458	402.57
400.837	400.99
401.215	401.67
401.594	401.67
401.972	428.56
402.351	407.09
402.729	429.69
403.107	418.39
403.486	408.68
403.864	412.97
404.242	417.72
404.62	417.94
404.999	420.2
405.377	423.14
405.755	432.18
406.133	443.25
406.511	425.85
406.889	434.44
407.267	438.28
407.645	451.61
408.023	424.49
408.401	455.23
408.779	452.06
409.156	447.09
409.534	458.84
409.912	448.22
410.29	478.05
410.667	451.39
411.045	463.14
411.422	471.05
411.8	474.66
412.178	456.81
412.555	478.28
412.933	463.36
413.31	483.48
413.687	491.61
414.065	471.5
414.442	483.93
414.819	496.13
415.197	511.05
415.574	505.17
415.951	480.31
416.328	517.37
416.705	518.5
417.082	500.65
417.46	530.48
417.837	539.97
418.214	528.9
418.591	513.53
418.967	521.22
419.344	547.2
419.721	527.54
420.098	539.29
420.475	555.79
420.852	541.33
421.228	547.2
421.605	553.98
421.982	553.76
422.358	549.46
422.735	551.72
423.111	566.64
423.488	570.03
423.864	572.06
424.241	581.55
424.617	574.77
424.994	592.17
425.37	602.79
425.746	599.18
426.123	599.41
426.499	591.72
426.875	593.53
427.251	608.9
427.627	622.91
428.003	597.82
428.379	612.74
428.756	620.87
429.132	631.49
429.507	646.41
429.883	645.73
430.259	656.8
430.635	640.31
431.011	650.25
431.387	647.31
431.763	687.54
432.138	666.52
432.514	678.27
432.89	673.98
433.265	674.88
433.641	693.64
434.016	685.96
434.392	702.23
434.767	735.9
435.143	723.7
435.518	731.61
435.894	708.55
436.269	738.16
436.644	728.22
437.02	760.76
437.395	754.88
437.77	786.07
438.145	787.65
438.52	785.84
438.895	770.7
439.271	793.98
439.646	799.4
440.021	825.39
440.395	825.16
440.77	819.51
441.145	846.86
441.52	851.15
441.895	849.57
442.27	848.44
442.645	832.17
443.019	842.11
443.394	843.01
443.769	894.76
444.143	876.46
444.518	872.62
444.892	881.43
445.267	847.53
445.641	911.49
446.016	889.34
446.39	880.53
446.764	899.06
447.139	901.09
447.513	902.45
447.887	918.27
448.262	913.3
448.636	927.76
449.01	929.79
449.384	933.41
449.758	964.14
450.132	958.72
450.506	965.05
450.88	981.09
451.254	951.49
451.628	989.23
452.002	1007.08
452.376	994.2
452.75	1016.57
453.123	1020.64
453.497	1046.63
453.871	1038.49
454.244	1044.14
454.618	1052.05
454.992	1090.24
455.365	1066.96
455.739	1083.01
456.112	1102.44
456.486	1126.62
456.859	1117.13
457.232	1168.43
457.606	1139.96
457.979	1182.44
458.352	1190.8
458.725	1197.13
459.099	1213.17
459.472	1232.83
459.845	1233.51
460.218	1257.47
460.591	1261.99
460.964	1289.1
461.337	1302.44
461.71	1314.64
462.083	1341.08
462.456	1332.72
462.829	1359.39
463.201	1350.12
463.574	1409.33
463.947	1405.71
464.32	1447.07
464.692	1460.17
465.065	1484.35
465.438	1507.18
465.81	1518.7
466.183	1551.24
466.555	1571.13
466.928	1568.42
467.3	1603.45
467.672	1590.34
468.045	1650.68
468.417	1682.09
468.789	1684.57
469.161	1687.96
469.534	1771.35
469.906	1793.95
470.278	1819.94
470.65	1833.95
471.022	1894.51
471.394	1940.61
471.766	1951.23
472.138	1959.37
472.51	2037.11
472.882	2088.18
473.253	2077.11
473.625	2129.53
473.997	2179.02
474.369	2251.57
474.74	2299.7
475.112	2296.31
475.484	2374.27
475.855	2456.98
476.227	2494.72
476.598	2570.65
476.97	2598.9
477.341	2689.75
477.713	2738.11
478.084	2780.36
478.455	2863.98
478.827	2957.76
479.198	3019.23
479.569	3089.06
479.94	3228.04
480.311	3256.51
480.682	3387.58
481.053	3480.01
481.424	3569.72
481.795	3611.76
482.166	3733.11
482.537	3833.9
482.908	3965.64
483.279	4015.81
483.65	4087.68
484.021	4286.31
484.391	4363.15
484.762	4431.62
485.133	4571.96
485.503	4636.81
485.874	4795.45
486.244	4887.2
486.615	5089.68
486.985	5141.88
487.356	5296.68
487.726	5347.53
488.097	5563.57
488.467	5639.05
488.837	5750
489.207	5956.1
489.578	6110.9
489.948	6174.63
490.318	6293.04
490.688	6418.01
491.058	6585.91
491.428	6671.56
491.798	6857.32
492.168	7048.05
492.538	7118.56
492.908	7234.48
493.278	7398.55
493.648	7467.47
494.017	7647.13
494.387	7841.25
494.757	7890.74
495.126	8013
495.496	8132.09
495.866	8271.07
496.235	8406.88
496.605	8521
496.974	8572.08
497.344	8740.66
497.713	8805.07
498.082	8960.32
498.452	9099.07
498.821	9168.67
499.19	9237.14
499.559	9359.85
499.928	9420.19
500.298	9629.68
500.667	9676
501.036	9714.65
501.405	9933.4
501.774	9949.89
502.143	10009.1
502.512	10135.88
502.88	10259.26
503.249	10257.91
503.618	10499.26
503.987	10460.84
504.356	10614.51
504.724	10624.45
505.093	10627.84
505.462	10717.56
505.83	10856.76
506.199	10932.01
506.567	11101.95
506.936	11052.01
507.304	11224.21
507.672	11243.42
508.041	11285.23
508.409	11355.28
508.777	11498.1
509.145	11598.44
509.514	11545.78
509.882	11701.26
510.25	11715.05
510.618	11755.04
510.986	11781.03
511.354	11881.37
511.722	11967.92
512.09	12058.76
512.458	12037.07
512.826	12080.01
513.193	12097.41
513.561	12169.95
513.929	12266.67
514.297	12310.51
514.664	12433.67
515.032	12457.85
515.4	12556.6
515.767	12487.68
516.135	12622.37
516.502	12506.66
516.869	12684.06
517.237	12704.62
517.604	12678.64
517.972	12657.39
518.339	12803.15
518.706	12812.19
519.073	12834.56
519.44	12850.16
519.808	12954.11
520.175	12952.98
520.542	13032.07
520.909	13105.97
521.276	13030.72
521.643	13126.31
522.009	13158.4
522.376	13211.5
522.743	13192.97
523.11	13319.3
523.477	13355.68
523.843	13364.27
524.21	13492.85
524.577	13493.98
524.943	13546.41
525.31	13638.84
525.676	13516.13
526.043	13635.67
526.409	13683.58
526.776	13694.65
527.142	13636.58
527.508	13731.49
527.874	13739.17
528.241	13768.1
528.607	13810.81
528.973	13798.83
529.339	13751.83
529.705	13839.73
530.071	13902.78
530.437	13856.23
530.803	13845.61
531.169	13880.19
531.535	13795.22
531.901	13844.03
532.267	13814.2
532.632	13897.36
532.998	13871.6
533.364	13845.84
533.73	13883.35
534.095	13884.03
534.461	13869.34
534.826	13821.88
535.192	13797.93
535.557	13959.28
535.923	13720.87
536.288	13811.04
536.653	13754.77
537.019	13703.47
537.384	13769.91
537.749	13621.21
538.114	13693.98
538.479	13616.69
538.845	13580.53
539.21	13499.18
539.575	13553.87
539.94	13563.58
540.305	13622.11
540.67	13468.45
541.034	13518.16
541.399	13459.41
541.764	13415.11
542.129	13388.67
542.494	13311.61
542.858	13323.36
543.223	13315
543.587	13249.24
543.952	13245.4
544.316	13265.96
544.681	13189.81
545.045	13219.64
545.41	13154.78
545.774	13105.74
546.138	13100.55
546.503	13030.49
546.867	12960.89
547.231	13035.01
547.595	12992.07
547.959	12977.84
548.324	12878.18
548.688	12967.67
549.052	12904.62
549.416	12876.82
549.779	12833.43
550.143	12841.8
550.507	12747.11
550.871	12776.49
551.235	12659.43
551.599	12649.03
551.962	12629.37
552.326	12603.61
552.689	12609.03
553.053	12601.12
553.417	12590.73
553.78	12642.7
554.143	12544.4
554.507	12531.52
554.87	12509.15
555.234	12620.56
555.597	12443.39
555.96	12434.57
556.323	12544.63
556.686	12482.71
557.05	12536.94
557.413	12481.8
557.776	12487.68
558.139	12414.01
558.502	12451.97
558.865	12484.06
559.228	12477.51
559.59	12410.85
559.953	12434.12
560.316	12483.39
560.679	12449.94
561.041	12460.34
561.404	12478.87
561.767	12490.17
562.129	12487.91
562.492	12512.54
562.854	12454.46
563.217	12468.02
563.579	12519.32
563.941	12479.09
564.304	12497.17
564.666	12486.32
565.028	12579.66
565.39	12510.28
565.753	12502.14
566.115	12571.29
566.477	12599.32
566.839	12588.02
567.201	12616.26
567.563	12607.45
567.925	12707.11
568.287	12600.67
568.648	12600.45
569.01	12686.09
569.372	12790.05
569.734	12686.54
570.095	12694.68
570.457	12745.53
570.819	12696.49
571.18	12703.27
571.542	12676.6
571.903	12727.45
572.265	12741.01
572.626	12760.67
572.987	12755.92
573.349	12741.68
573.71	12818.97
574.071	12783.49
574.432	12858.74
574.794	12836.6
575.155	12908.69
575.516	12734.91
575.877	12889.25
576.238	12872.53
576.599	12929.93
576.96	12872.98
577.32	12870.04
577.681	12938.52
578.042	12935.58
578.403	12844.51
578.763	12929.25
579.124	12865.98
579.485	12957.05
579.845	12957.05
580.206	12864.39
580.566	12954.56
580.927	12866.43
581.287	12912.3
581.648	12856.94
582.008	12950.49
582.368	12839.76
582.728	12883.6
583.089	12930.15
583.449	12825.75
583.809	12872.53
584.169	12908.46
584.529	12807.9
584.889	12952.75
585.249	12833.21
585.609	12784.62
585.969	12844.05
586.329	12696.71
586.688	12855.35
587.048	12794.11
587.408	12766.09
587.768	12795.69
588.127	12737.39
588.487	12646.55
588.846	12713.89
589.206	12686.09
589.565	12741.68
589.925	12770.61
590.284	12673.21
590.643	12793.21
591.003	12727.67
591.362	12796.82
591.721	12737.84
592.08	12691.52
592.44	12691.74
592.799	12717.5
593.158	12696.71
593.517	12755.02
593.876	12715.7
594.235	12630.5
594.593	12620.33
594.952	12698.52
595.311	12613.1
595.67	12745.75
596.029	12741.01
596.387	12746.88
596.746	12714.57
597.104	12641.57
597.463	12656.04
597.822	12667.79
598.18	12605.87
598.538	12612.42
598.897	12640.44
599.255	12554.35
599.613	12762.25
599.972	12616.94
600.33	12620.78
600.688	12607.45
601.046	12608.13
601.404	12634.12
601.762	12694.23
602.12	12712.08
602.478	12731.29
602.836	12673.44
603.194	12574.68
603.552	12576.04
603.91	12576.27
604.268	12648.13
604.625	12571.29
604.983	12633.21
605.341	12575.81
605.698	12554.35
606.056	12601.12
606.413	12677.28
606.771	12687.22
607.128	12668.92
607.485	12605.87
607.843	12595.7
608.2	12658.52
608.557	12682.25
608.914	12680.44
609.272	12697.62
609.629	12690.16
609.986	12707.79
610.343	12663.04
610.7	12786.43
611.057	12716.37
611.414	12697.62
611.771	12784.17
612.127	12783.94
612.484	12759.99
612.841	12821.23
613.198	12837.95
613.554	12792.98
613.911	12866.43
614.267	12916.82
614.624	12834.79
614.98	12829.37
615.337	12922.02
615.693	12876.6
616.05	12861.46
616.406	12955.01
616.762	12857.16
617.118	12924.96
617.475	12908.23
617.831	12978.29
618.187	12922.7
618.543	12903.94
618.899	13000.66
619.255	12966.54
619.611	13008.8
619.967	13065.07
620.323	13038.63
620.678	12960.89
621.034	12907.33
621.39	12912.53
621.746	12872.3
622.101	13127.89
622.457	12930.83
622.812	13007.44
623.168	13071.39
623.523	12990.49
623.879	12985.75
624.234	12973.54
624.589	13041.79
624.945	12987.78
625.3	13035.24
625.655	13049.47
626.01	12979.87
626.365	13001.34
626.72	13018.51
627.075	12996.14
627.43	12972.19
627.785	12949.36
628.14	12979.19
628.495	12969.48
628.85	12931.96
629.205	12932.87
629.559	13015.58
629.914	12898.97
630.269	12933.09
630.623	12859.2
630.978	12940.1
631.332	12955.92
631.687	12884.51
632.041	12908.69
632.396	12890.16
632.75	12872.53
633.104	12877.05
633.459	12786.43
633.813	12802.02
634.167	12861
634.521	12779.88
634.875	12822.59
635.229	12761.35
635.583	12760.67
635.937	12723.83
636.291	12643.61
636.645	12636.6
636.999	12652.87
637.352	12664.85
637.706	12588.92
638.06	12657.85
638.413	12666.66
638.767	12580.79
639.121	12665.53
639.474	12503.05
639.828	12528.13
640.181	12482.48
640.534	12544.85
640.888	12496.27
641.241	12491.07
641.594	12532.42
641.947	12508.7
642.301	12478.87
642.654	12409.72
643.007	12404.74
643.36	12428.7
643.713	12428.25
644.066	12406.55
644.419	12409.72
644.771	12369.27
645.124	12189.83
645.477	12209.04
645.83	12166.78
646.182	12055.6
646.535	12012.66
646.888	12066.45
647.24	11955.26
647.593	12081.14
647.945	11967.92
648.298	11915.27
648.65	11944.64
649.002	11926.34
649.355	12046.79
649.707	12008.37
650.059	12061.48
650.411	12234.35
650.763	12208.37
651.115	12318.19
651.467	12323.16
651.819	12323.16
652.171	12243.62
652.523	12301.24
652.875	12317.52
653.227	12216.5
653.578	12315.93
653.93	12223.28
654.282	12257.4
654.633	12253.56
654.985	12317.29
655.337	12194.13
655.688	12214.24
656.039	12304.41
656.391	12254.47
656.742	12141.02
657.094	12250.4
657.445	12289.27
657.796	12185.77
658.147	12141.02
658.498	12284.52
658.849	12290.17
659.2	12208.14
659.551	12163.62
659.902	12256.27
660.253	12252.88
660.604	12336.05
660.955	12181.7
661.306	12308.93
661.656	12237.52
662.007	12322.49
662.358	12301.02
662.708	12356.16
663.059	12364.75
663.409	12277.97
663.76	12357.29
664.11	12276.39
664.461	12334.01
664.811	12313.45
665.161	12335.82
665.511	12301.92
665.862	12260.34
666.212	12358.64
666.562	12281.58
666.912	12248.36
667.262	12311.19
667.612	12329.94
667.962	12297.85
668.312	12313.45
668.662	12343.05
669.011	12317.29
669.361	12263.05
669.711	12270.06
670.06	12227.12
670.41	12238.87
670.76	12245.65
671.109	12337.63
671.459	12259.21
671.808	12199.55
672.157	12278.42
672.507	12179.89
672.856	12195.03
673.205	12187.12
673.554	12171.53
673.904	12204.07
674.253	12244.52
674.602	12175.15
674.951	12021.25
675.3	11849.5
675.649	12129.95
675.998	12122.94
676.346	12128.82
676.695	12060.57
677.044	12068.93
677.393	12083.85
677.741	12101.02
678.09	11987.58
678.438	12088.59
678.787	12054.47
679.135	12000.01
679.484	11994.59
679.832	12056.05
680.181	11883.63
680.529	11933.12
680.877	11866.68
681.225	11922.95
681.573	11953
681.922	11782.16
682.27	11827.81
682.618	11729.51
682.966	11733.35
683.314	11740.58
683.661	11718.43
684.009	11649.74
684.357	11606.57
684.705	11580.36
685.053	11656.74
685.4	11636.86
685.748	11596.4
686.095	11542.85
686.443	11528.16
686.79	11448.84
687.138	11617.65
687.485	11558.67
687.832	11456.07
688.18	11491.55
688.527	11432.34
688.874	11397.99
689.221	11343.76
689.568	11256.53
689.915	11325.45
690.262	11311.44
690.609	11213.59
690.956	11178.79
691.303	11080.49
691.65	11138.56
691.997	11153.7
692.344	10993.26
692.69	11005.01
693.037	10978.12
693.383	10818.35
693.73	10881.39
694.077	10812.47
694.423	10848.18
694.769	10864.9
695.116	10778.12
695.462	10744
695.808	10725.92
696.155	10724.34
696.501	10628.07
696.847	10624.23
697.193	10522.08
697.539	10577.45
697.885	10483.89
698.231	10463.33
698.577	10479.82
698.923	10467.39
699.269	10365.7
699.614	10344.69
699.96	10245.93
700.306	10204.12
700.651	10185.14
700.997	10161.87
701.342	10123.22
701.688	10158.02
702.033	10088.2
702.379	10068.99
702.724	10026.73
703.069	10041.87
703.415	9913.06
703.76	9923.23
704.105	9871.93
704.45	9860.4
704.795	9741.76
705.14	9770.01
705.485	9717.81
705.83	9755.1
706.175	9700.41
706.52	9650.92
706.865	9622.22
707.209	9652.5
707.554	9601.43
707.899	9551.94
708.243	9518.72
708.588	9499.28
708.932	9436.91
709.277	9400.76
709.621	9469.45
709.966	9418.38
710.31	9406.86
710.654	9248.22
710.998	9323.92
711.342	9290.93
711.687	9231.27
712.031	9240.08
712.375	9222
712.719	9195.34
713.063	9188.11
713.407	9193.08
713.75	9130.48
714.094	9095.68
714.438	9089.8
714.782	9162.12
715.125	9041.67
715.469	9075.11
715.812	9003.93
716.156	8951.05
716.499	8992.86
716.843	9016.13
717.186	9003.03
717.53	8999.86
717.873	9036.25
718.216	8990.14
718.559	8876.48
718.902	8925.97
719.246	8869.02
719.589	8818.4
719.932	8807.55
720.275	8838.28
720.617	8801
720.96	8812.3
721.303	8836.48
721.646	8822.92
721.989	8810.71
722.331	8808.23
722.674	8767.33
723.016	8790.38
723.359	8750.83
723.701	8794.44
724.044	8725.07
724.386	8644.17
724.729	8734.11
725.071	8720.32
725.413	8658.85
725.755	8658.4
726.097	8675.35
726.439	8676.71
726.782	8662.24
727.124	8666.54
727.465	8596.71
727.807	8604.84
728.149	8601
728.491	8601.45
728.833	8590.38
729.175	8571.17
729.516	8603.71
729.858	8568.46
730.199	8630.15
730.541	8523.94
730.882	8563.26
731.224	8566.88
731.565	8526.43
731.906	8579.53
732.248	8569.82
732.589	8501.57
732.93	8509.25
733.271	8542.25
733.612	8549.93
733.953	8540.44
734.294	8546.31
734.635	8489.82
734.976	8569.59
735.317	8495.02
735.658	8537.5
735.999	8539.08
736.339	8551.06
736.68	8495.47
737.021	8515.81
737.361	8572.08
737.702	8531.4
738.042	8563.04
738.383	8587.9
738.723	8585.86
739.063	8534.56
739.404	8643.71
739.744	8604.17
740.084	8575.47
740.424	8565.3
740.764	8514.45
741.104	8626.54
741.444	8609.82
741.784	8626.99
742.124	8658.63
742.464	8646.2
742.804	8630.83
743.143	8689.59
743.483	8755.57
743.823	8668.12
744.162	8639.19
744.502	8742.47
744.841	8790.38
745.181	8779.98
745.52	8785.4
745.86	8855.23
746.199	8880.32
746.538	8935.23
746.877	9023.14
747.216	9025.4
747.556	9084.15
747.895	9135.68
748.234	9120.76
748.573	9153.98
748.911	9278.05
749.25	9283.7
749.589	9405.28
749.928	9429.91
750.267	9499.51
750.605	9540.19
750.944	9598.26
751.283	9628.77
751.621	9806.39
751.96	9805.26
752.298	9973.17
752.636	10038.25
752.975	10081.87
753.313	10108.76
753.651	10284.8
753.989	10365.93
754.327	10405.25
754.666	10493.61
755.004	10702.64
755.342	10848.4
755.679	10911.22
756.017	10961.17
756.355	11158
756.693	11307.37
757.031	11362.74
757.368	11501.49
757.706	11625.1
758.044	11766.57
758.381	11893.12
758.719	12064.64
759.056	12247.23
759.394	12336.72
759.731	12496.72
760.068	12679.31
760.405	12726.32
760.743	12896.26
761.08	13165.85
761.417	13257.15
761.754	13352.29
762.091	13563.36
762.428	13709.79
762.765	13760.64
763.102	14113.85
763.438	14220.52
763.775	14245.83
764.112	14403.34
764.449	14672.71
764.785	14746.6
765.122	14832.03
765.458	15092.58
765.795	15154.05
766.131	15352.46
766.467	15356.98
766.804	15464.55
767.14	15585.45
767.476	15857.99
767.812	15906.35
768.148	16074.48
768.485	16226.11
768.821	16234.7
769.157	16404.41
769.492	16490.51
769.828	16636.05
770.164	16635.59
770.5	16751.07
770.836	16897.51
771.171	16917.17
771.507	17001.23
771.842	17074
772.178	17184.05
772.513	17328.91
772.849	17394.67
773.184	17377.72
773.519	17543.14
773.855	17564.61
774.19	17648.67
774.525	17687.32
774.86	17870.82
775.195	17836.92
775.53	17867.88
775.865	17888.89
776.2	17865.84
776.535	17918.5
776.87	17951.94
777.205	17927.54
777.539	18039.85
777.874	18193.07
778.209	18037.59
778.543	18053.18
778.878	18086.4
779.212	18145.61
779.547	18057.03
779.881	18184.25
780.215	18112.62
780.55	18180.41
780.884	18182.45
781.218	18167.08
781.552	18248.21
781.886	18225.83
782.22	18095.44
782.554	18131.6
782.888	18039.4
783.222	18026.52
783.556	18085.73
783.889	18026.07
784.223	17909.68
784.557	18041.66
784.89	18118.04
785.224	18048.89
785.557	17965.73
785.891	17950.36
786.224	17993.98
786.558	17965.5
786.891	17836.92
787.224	17858.61
787.557	17933.41
787.891	17815.9
788.224	17853.87
788.557	17829.23
788.89	17879.63
789.223	17860.65
789.556	17668.79
789.888	17741.33
790.221	17635.79
790.554	17607.77
790.887	17629.47
791.219	17478.06
791.552	17466.31
791.884	17456.82
792.217	17478.96
792.549	17484.16
792.882	17277.61
793.214	17322.36
793.546	17406.19
793.879	17233.09
794.211	17269.02
794.543	17300.43
794.875	17288.91
795.207	17302.69
795.539	17154
795.871	17177.95
796.203	17081.01
796.535	17036.26
796.867	16928.24
797.198	16884.85
797.53	16920.33
797.862	16831.52
798.193	16785.19
798.525	16796.72
798.856	16784.06
799.188	16639.89
799.519	16591.53
799.85	16535.71
800.182	16578.19
800.513	16642.37
800.844	16460.68
801.175	16586.78
801.506	16418.88
801.837	16466.78
802.168	16370.29
802.499	16317.86
802.83	16295.94
803.161	16269.95
803.491	16231.99
803.822	16205.32
804.153	16191.76
804.483	16074.48
804.814	15935.05
805.145	16068.6
805.475	15971.66
805.805	15863.18
806.136	15914.48
806.466	15948.61
806.796	15852.11
807.126	15769.63
807.457	15747.48
807.787	15735.28
808.117	15683.53
808.447	15658.67
808.777	15705.9
809.107	15556.75
809.436	15538
809.766	15474.49
810.096	15395.63
810.426	15424.1
810.755	15406.47
811.085	15316.31
811.414	15413.7
811.744	15194.73
812.073	15268.17
812.403	15240.83
812.732	15077.67
813.061	15165.58
813.39	15089.19
813.719	15077.89
814.049	15206.93
814.378	15083.09
814.707	14963.55
815.036	15054.17
815.365	14974.17
815.693	14829.54
816.022	14799.03
816.351	14831.35
816.68	14756.1
817.008	14791.35
817.337	14649.21
817.665	14597
817.994	14726.94
818.322	14697.57
818.651	14560.85
818.979	14475.2
819.307	14628.87
819.636	14477.46
819.964	14467.74
820.292	14528.3
820.62	14594.07
820.948	14459.38
821.276	14561.52
821.604	14486.95
821.932	14493.5
822.259	14509.77
822.587	14496.67
822.915	14433.17
823.243	14508.19
823.57	14423
823.898	14463.45
824.225	14404.47
824.553	14469.55
824.88	14458.25
825.207	14528.08
825.535	14525.59
825.862	14531.47
826.189	14456.44
826.516	14531.47
826.843	14518.59
827.17	14548.87
827.497	14465.71
827.824	14517.01
828.151	14496.44
828.478	14448.08
828.805	14495.76
829.131	14476.1
829.458	14499.6
829.785	14428.19
830.111	14475.2
830.438	14505.93
830.764	14490.34
831.09	14557.23
831.417	14503.67
831.743	14496.67
832.069	14444.92
832.395	14334.19
832.722	14439.27
833.048	14397.69
833.374	14341.42
833.7	14371.02
834.026	14387.97
834.351	14414.18
834.677	14261.42
835.003	14418.25
835.329	14285.6
835.654	14414.41
835.98	14249.89
836.306	14291.02
836.631	14229.1
836.956	14414.64
837.282	14237.24
837.607	14187.97
837.932	14225.71
838.258	14160.63
838.583	14126.06
838.908	14089.9
839.233	14088.32
839.558	14084.47
839.883	14073.63
840.208	14006.51
840.533	14079.05
840.858	13981.88
841.182	14006.51
841.507	14048.32
841.832	13855.55
842.156	13944.36
842.481	13872.73
842.805	13794.54
843.13	13942.78
843.454	13830.02
843.778	13739.62
844.103	13715.44
844.427	13730.59
844.751	13629.8
845.075	13602.68
845.399	13562.23
845.723	13445.4
846.047	13473.19
846.371	13478.84
846.695	13408.79
847.019	13282.24
847.343	13232.52
847.666	13213.99
847.99	13172.41
848.313	13181.45
848.637	13095.57
848.96	13085.4
849.284	13002.24
849.607	12942.58
849.931	12858.29
850.254	12797.5
850.577	12802.47
850.9	12641.57
851.223	12620.56
851.546	12541.92
851.869	12495.82
852.192	12550.28
852.515	12483.39
852.838	12358.42
853.161	12449.49
853.483	12323.84
853.806	12199.33
854.129	12246.1
854.451	12194.35
854.774	12073.68
855.096	12179.89
855.419	12096.73
855.741	11999.56
856.063	11953.23
856.385	11969.95
856.708	11894.02
857.03	11913.46
857.352	11915.04
857.674	11810.64
857.996	11832.1
858.318	11701.94
858.64	11725.44
858.961	11582.17
859.283	11668.94
859.605	11507.59
859.926	11600.47
860.248	11539.91
860.57	11468.05
860.891	11482.96
861.212	11370.87
861.534	11377.43
861.855	11393.92
862.176	11405.45
862.498	11383.08
862.819	11379.01
863.14	11326.81
863.461	11349.4
863.782	11312.34
864.103	11285.9
864.424	11226.47
864.745	11269.86
865.065	11212.23
865.386	11150.09
865.707	11100.37
866.027	11117.77
866.348	11094.72
866.668	11105.57
866.989	11145.12
867.309	10975.63
867.63	11022.18
867.95	11077.1
868.27	10922.98
868.59	10982.86
868.91	10910.77
869.23	11015.85
869.55	10911.45
869.87	10878.23
870.19	10868.74
870.51	10920.04
870.83	10918.23
871.15	10823.32
871.469	10764.79
871.789	10809.98
872.109	10782.41
872.428	10768.4
872.748	10764.79
873.067	10757.56
873.386	10815.63
873.706	10766.82
874.025	10612.7
874.344	10622.64
874.663	10674.62
874.982	10587.39
875.301	10645.24
875.62	10621.06
875.939	10649.54
876.258	10608.18
876.577	10498.58
876.896	10542.87
877.214	10447.28
877.533	10548.75
877.852	10464.91
878.17	10421.07
878.489	10465.81
878.807	10386.72
879.125	10436.43
879.444	10455.19
879.762	10301.07
880.08	10350.34
880.398	10304.01
880.716	10364.12
881.034	10285.48
881.352	10312.37
881.67	10225.59
881.988	10279.83
882.306	10222.88
882.624	10111.02
882.941	10127.29
883.259	10084.58
883.577	10131.13
883.894	10122.09
884.212	10084.58
884.529	10038.03
884.846	10109.66
885.164	10033.96
885.481	9964.13
885.798	10066.05
886.115	9879.39
886.432	9828.99
886.75	9914.41
887.067	9892.72
887.383	9797.36
887.7	9838.48
888.017	9802.78
888.334	9805.04
888.651	9777.92
888.967	9753.51
889.284	9646.62
889.6	9665.38
889.917	9596.23
890.233	9642.11
890.55	9587.64
890.866	9589
891.182	9561.2
891.498	9571.15
891.815	9474.65
892.131	9433.75
892.447	9469.68
892.763	9395.11
893.079	9324.83
893.395	9336.58
893.71	9337.25
894.026	9301.1
894.342	9231.27
894.657	9158.5
894.973	9189.69
895.289	9190.59
895.604	9185.17
895.92	9023.36
896.235	9108.11
896.55	9040.54
896.865	8996.25
897.181	8989.02
897.496	8973.65
897.811	8916.7
898.126	8871.96
898.441	8891.16
898.756	8866.98
899.071	8805.52
899.386	8750.15
899.7	8659.08
900.015	8657.72
900.33	8645.3
900.644	8635.58
900.959	8576.6
901.273	8586.31
901.588	8556.26
901.902	8502.02
902.216	8489.59
902.531	8492.76
902.845	8410.05
903.159	8356.94
903.473	8355.36
903.787	8258.19
904.101	8186.55
904.415	8272.2
904.729	8205.31
905.042	8224.74
905.356	8116.04
905.67	8095.03
905.984	8096.84
906.297	8036.72
906.611	8027.23
906.924	8011.87
907.237	7945.88
907.551	7956.27
907.864	7920.34
908.177	7929.83
908.491	7844.86
908.804	7809.84
909.117	7737.97
909.43	7737.3
909.743	7688.48
910.056	7669.95
910.368	7642.16
910.681	7613.68
910.994	7596.96
911.307	7558.09
911.619	7530.97
911.932	7505.89
912.244	7459.34
912.557	7436.97
912.869	7405.78
913.181	7337.76
913.494	7357.87
913.806	7274.26
914.118	7247.59
914.43	7184.32
914.742	7224.32
915.054	7113.13
915.366	7123.08
915.678	7103.64
915.99	7070.65
916.302	7037.43
916.613	7030.42
916.925	7006.92
917.236	7010.08
917.548	6943.19
917.859	6995.17
918.171	6912.69
918.482	6849.41
918.794	6855.51
919.105	6846.02
919.416	6758.57
919.727	6791.33
920.038	6769.86
920.349	6730.09
920.66	6653.71
920.971	6645.35
921.282	6675.4
921.593	6633.14
921.903	6615.97
922.214	6515.18
922.525	6587.72
922.835	6538.46
923.146	6465.92
923.456	6430.44
923.767	6373.04
924.077	6362.87
924.387	6316.54
924.697	6371.23
925.008	6305.02
925.318	6261.18
925.628	6221.18
925.938	6203.33
926.248	6169.65
926.558	6199.03
926.867	6163.1
927.177	6143.44
927.487	6084.46
927.796	6068.64
928.106	6058.02
928.416	6036.55
928.725	5991.58
929.034	6008.98
929.344	5988.19
929.653	5953.39
929.962	5853.28
930.271	5870.45
930.581	5849.21
930.89	5832.94
931.199	5787.29
931.508	5787.29
931.817	5761.53
932.125	5768.99
932.434	5702.77
932.743	5705.03
933.051	5667.29
933.36	5617.8
933.669	5636.79
933.977	5578.03
934.286	5576
934.594	5552.27
934.902	5514.76
935.21	5481.31
935.519	5510.46
935.827	5434.53
936.135	5430.24
936.443	5410.13
936.751	5400.63
937.059	5353.63
937.367	5376.23
937.674	5313.63
937.982	5326.29
938.29	5289.68
938.597	5263.92
938.905	5212.17
939.213	5183.01
939.52	5212.84
939.827	5182.56
940.135	5149.12
940.442	5152.28
940.749	5144.82
941.056	5122.22
941.363	5042.9
941.67	5024.37
941.977	4974.88
942.284	4972.62
942.591	4980.31
942.898	4962.45
943.205	4964.71
943.511	4937.14
943.818	4925.17
944.125	4877.48
944.431	4838.84
944.738	4862.8
945.044	4844.27
945.35	4791.61
945.657	4776.47
945.963	4783.02
946.269	4697.6
946.575	4702.35
946.881	4677.72
947.187	4708.45
947.493	4616.47
947.799	4587.55
948.105	4623.03
948.41	4557.72
948.716	4585.52
949.022	4543.71
949.327	4558.62
949.633	4506.65
949.938	4525.18
950.244	4515.69
950.549	4440.66
950.854	4372.64
951.16	4413.99
951.465	4390.72
951.77	4351.62
952.075	4348.46
952.38	4334.22
952.685	4344.39
952.99	4311.17
953.294	4259.65
953.599	4278.18
953.904	4242.02
954.209	4239.31
954.513	4205.19
954.818	4204.51
955.122	4188.69
955.426	4155.47
955.731	4129.71
956.035	4083.38
956.339	4094.45
956.643	4116.83
956.948	4072.08
957.252	4008.36
957.556	4026.21
957.86	3993.89
958.163	4007.68
958.467	3967
958.771	3988.47
959.075	3941.01
959.378	3909.83
959.682	3958.41
959.985	3938.75
960.289	3937.17
960.592	3866.44
960.896	3851.52
961.199	3834.57
961.502	3815.82
961.805	3785.08
962.108	3801.35
962.411	3783.5
962.714	3760.23
963.017	3718.19
963.32	3748.25
963.623	3683.39
963.926	3727.91
964.228	3653.34
964.531	3659.89
964.833	3656.05
965.136	3606.56
965.438	3612.43
965.741	3585.09
966.043	3585.09
966.345	3567.01
966.648	3560.01
966.95	3533.11
967.252	3521.81
967.554	3508.93
967.856	3521.14
968.158	3437.07
968.46	3475.04
968.761	3443.62
969.063	3434.13
969.365	3439.78
969.666	3422.16
969.968	3376.96
970.269	3390.52
970.571	3351.88
970.872	3379.22
971.174	3287.47
971.475	3257.64
971.776	3309.39
972.077	3257.19
972.378	3281.14
972.679	3254.7
972.98	3266.91
973.281	3242.05
973.582	3209.73
973.883	3209.73
974.183	3171.77
974.484	3182.39
974.785	3118.66
975.085	3165.44
975.386	3170.64
975.686	3117.76
975.986	3075.05
976.287	3091.54
976.587	3074.37
976.887	3040.24
977.187	3068.49
977.487	3056.52
977.787	3014.03
978.087	2991.21
978.387	2990.75
978.687	2981.49
978.987	2988.27
979.286	2968.38
979.586	2970.42
979.885	2939.23
980.185	2936.97
980.484	2882.28
980.784	2900.36
981.083	2898.1
981.382	2880.48
981.682	2849.97
981.981	2840.93
982.28	2814.71
982.579	2793.02
982.878	2818.78
983.177	2794.38
983.475	2802.51
983.774	2765.45
984.073	2748.95
984.372	2724.32
984.67	2724.32
984.969	2704.66
985.267	2696.3
985.566	2696.07
985.864	2677.54
986.162	2706.47
986.461	2630.09
986.759	2623.76
987.057	2608.62
987.355	2620.37
987.653	2606.81
987.951	2577.88
988.249	2616.53
988.547	2577.21
988.844	2584.89
989.142	2522.29
989.44	2541.73
989.737	2508.73
990.035	2507.38
990.332	2505.12
990.63	2446.59
990.927	2449.07
991.224	2465.34
991.521	2449.07
991.819	2448.17
992.116	2420.83
992.413	2454.5
992.71	2381.05
993.006	2387.15
993.303	2387.61
993.6	2377.44
993.897	2369.3
994.193	2356.2
994.49	2329.3
994.787	2329.08
995.083	2322.75
995.379	2310.09
995.676	2301.96
995.972	2308.74
996.268	2269.42
996.565	2241.62
996.861	2219.48
997.157	2225.58
997.453	2233.03
997.749	2232.58
998.044	2202.53
998.34	2201.4
998.636	2201.62
998.932	2158.01
999.227	2190.32
999.523	2156.88
999.818	2157.1
1000.114	2108.74
1000.409	2106.71
1000.704	2072.36
1001	2132.47
1001.295	2059.03
1001.59	2086.6
1001.885	2048.41
1002.18	2067.62
1002.475	2042.31
1002.77	2031.46
1003.065	1985.58
1003.359	2014.96
1003.654	1973.15
1003.949	1968.18
1004.243	1964.57
1004.538	1963.66
1004.832	1955.98
1005.127	1955.3
1005.421	1962.99
1005.715	1901.07
1006.009	1930.22
1006.304	1899.03
1006.598	1881.63
1006.892	1863.33
1007.186	1890.67
1007.48	1827.4
1007.773	1842.31
1008.067	1832.82
1008.361	1847.51
1008.655	1816.32
1008.948	1789.2
1009.242	1774.52
1009.535	1794.85
1009.829	1760.5
1010.122	1744.91
1010.415	1739.71
1010.708	1747.85
1011.001	1720.05
1011.295	1736.78
1011.588	1684.12
1011.881	1687.29
1012.173	1666.04
1012.466	1668.76
1012.759	1680.05
1013.052	1680.28
1013.344	1677.57
1013.637	1647.51
1013.93	1640.06
1014.222	1631.24
1014.514	1607.97
1014.807	1620.85
1015.099	1605.93
1015.391	1588.76
1015.683	1580.62
1015.976	1601.86
1016.268	1586.95
1016.56	1551.24
1016.851	1523.45
1017.143	1533.84
1017.435	1519.38
1017.727	1497.46
1018.018	1477.8
1018.31	1501.53
1018.602	1477.57
1018.893	1479.16
1019.185	1476.44
1019.476	1471.7
1019.767	1442.77
1020.058	1427.63
1020.35	1431.7
1020.641	1411.14
1020.932	1410.23
1021.223	1406.16
1021.514	1390.57
1021.804	1395.77
1022.095	1374.3
1022.386	1332.27
1022.677	1363
1022.967	1377.46
1023.258	1354.64
1023.548	1335.66
1023.839	1324.36
1024.129	1326.17
1024.419	1305.15
1024.709	1302.21
1025	1283
1025.29	1293.4
1025.58	1275.55
1025.87	1272.61
1026.16	1272.83
1026.449	1274.87
1026.739	1228.09
1027.029	1232.83
1027.319	1245.26
1027.608	1215.43
1027.898	1211.82
1028.187	1243.23
1028.477	1210.01
1028.766	1204.81
1029.055	1166.62
1029.344	1157.36
1029.634	1160.75
1029.923	1169.79
1030.212	1161.2
1030.501	1160.07
1030.79	1130.92
1031.078	1139.28
1031.367	1129.56
1031.656	1108.54
1031.945	1094.53
1032.233	1104.48
1032.522	1061.31
1032.81	1093.86
1033.099	1069.45
1033.387	1067.19
1033.675	1061.31
1033.963	1052.05
1034.251	1061.77
1034.54	1037.36
1034.828	1029.45
1035.116	1015.21
1035.403	1036.91
1035.691	1030.58
1035.979	1014.31
1036.267	990.58
1036.554	974.08
1036.842	970.47
1037.129	990.58
1037.417	959.62
1037.704	975.89
1037.992	930.24
1038.279	980.64
1038.566	948.77
1038.853	948.77
1039.14	948.77
