Data from hue_120_FLMS001491_00004.txt Node
Date: Tue Feb 07 16:58:51 GMT 2017
User: dcchb
Spectrometer: FLMS00149
Trigger mode: 0
Integration Time (sec): 2.000000E-2
Scans to average: 10
Electric dark correction enabled: true
Nonlinearity correction enabled: false
Boxcar width: 0
XAxis mode: Wavelengths
Number of Pixels in Spectrum: 2048
>>>>>Begin Spectral Data<<<<<
341.393	-6.29
341.776	-6.29
342.16	-6.29
342.543	-64.81
342.927	-62.78
343.31	-77.02
343.693	-84.7
344.077	-58.04
344.46	-55.1
344.843	-56.23
345.226	-44.02
345.61	-38.6
345.993	-13.97
346.376	10.44
346.759	2.53
347.142	23.32
347.525	48.18
347.908	49.76
348.291	80.49
348.674	75.97
349.057	136.99
349.44	110.1
349.823	120.72
350.206	192.81
350.588	206.36
350.971	207.04
351.354	202.3
351.737	268.51
352.119	249.3
352.502	261.73
352.884	262.63
353.267	306.7
353.65	301.73
354.032	327.72
354.414	310.54
354.797	324.55
355.179	319.36
355.562	310.54
355.944	327.72
356.326	329.53
356.709	340.82
357.091	350.32
357.473	338.79
357.855	344.89
358.238	329.3
358.62	338.11
359.002	325.23
359.384	336.08
359.766	345.57
360.148	339.92
360.53	343.08
360.912	338.11
361.294	337.43
361.676	325.68
362.057	338.11
362.439	332.91
362.821	330.88
363.203	339.47
363.584	334.95
363.966	331.56
364.348	332.01
364.729	321.84
365.111	308.51
365.493	308.96
365.874	321.39
366.256	327.04
366.637	310.99
367.019	300.6
367.4	301.05
367.781	320.26
368.163	338.11
368.544	325.01
368.925	343.54
369.306	333.14
369.688	332.69
370.069	297.44
370.45	321.62
370.831	320.26
371.212	320.94
371.593	329.75
371.974	345.8
372.355	317.32
372.736	338.56
373.117	340.15
373.498	336.53
373.879	320.26
374.26	320.71
374.641	295.4
375.021	335.4
375.402	316.64
375.783	334.04
376.163	350.32
376.544	335.63
376.925	335.63
377.305	351.22
377.686	333.82
378.066	365
378.447	330.2
378.827	349.86
379.208	335.4
379.588	309.86
379.968	337.43
380.349	333.14
380.729	322.52
381.109	346.7
381.489	324.55
381.87	364.33
382.25	347.6
382.63	356.87
383.01	362.74
383.39	352.12
383.77	331.56
384.15	357.55
384.53	360.03
384.91	353.25
385.29	358.45
385.67	355.06
386.049	335.17
386.429	366.36
386.809	352.12
387.189	358
387.568	362.52
387.948	375.4
388.328	365.68
388.707	377.21
389.087	369.98
389.466	379.69
389.846	369.98
390.225	374.72
390.605	381.73
390.984	387.38
391.363	376.53
391.743	390.77
392.122	380.82
392.501	378.34
392.881	373.37
393.26	378.56
393.639	376.3
394.018	380.82
394.397	411.56
394.776	392.35
395.155	393.7
395.534	399.13
395.913	411.78
396.292	391.44
396.671	388.51
397.05	426.7
397.429	401.16
397.808	394.38
398.186	390.77
398.565	395.96
398.944	393.7
399.323	426.25
399.701	407.94
400.08	390.31
400.458	406.81
400.837	439.58
401.215	418.56
401.594	421.05
401.972	419.01
402.351	399.58
402.729	411.11
403.107	410.43
403.486	416.3
403.864	423.08
404.242	433.7
404.62	442.74
404.999	446.13
405.377	440.48
405.755	439.35
406.133	449.52
406.511	436.19
406.889	465.11
407.267	442.52
407.645	447.04
408.023	452.01
408.401	448.39
408.779	433.25
409.156	466.24
409.534	464.66
409.912	485.91
410.29	477.32
410.667	464.89
411.045	472.12
411.422	487.94
411.8	486.58
412.178	486.81
412.555	483.19
412.933	506.7
413.31	496.07
413.687	514.61
414.065	497.2
414.442	517.99
414.819	507.6
415.197	518.67
415.574	514.38
415.951	517.77
416.328	521.38
416.705	526.36
417.082	527.03
417.46	530.65
417.837	533.59
418.214	531.55
418.591	541.05
418.967	565.9
419.344	542.85
419.721	555.06
420.098	549.86
420.475	562.74
420.852	571.78
421.228	560.93
421.605	574.04
421.982	574.04
422.358	596.41
422.735	565.9
423.111	596.18
423.488	582.17
423.864	584.66
424.241	598.9
424.617	590.08
424.994	602.51
425.37	591.21
425.746	609.74
426.123	625.79
426.499	609.97
426.875	624.88
427.251	618.78
427.627	609.52
428.003	645.22
428.379	641.83
428.756	635.28
429.132	651.1
429.507	669.4
429.883	649.74
430.259	683.64
430.635	690.65
431.011	673.7
431.387	682.28
431.763	692
432.138	694.26
432.514	692.23
432.89	701.94
433.265	726.8
433.641	725.22
434.016	732.23
434.392	747.14
434.767	749.4
435.143	723.19
435.518	762.51
435.894	751.44
436.269	756.41
436.644	766.35
437.02	810.19
437.395	788.04
437.77	799.34
438.145	805.67
438.52	802.06
438.895	801.6
439.271	793.02
439.646	810.64
440.021	847.25
440.395	825.33
440.77	820.59
441.145	823.75
441.52	872.56
441.895	844.99
442.27	848.16
442.645	872.56
443.019	856.97
443.394	882.05
443.769	901.04
444.143	879.57
444.518	886.35
444.892	934.26
445.267	908.27
445.641	922.73
446.016	905.56
446.39	929.96
446.764	908.72
447.139	905.1
447.513	940.36
447.887	946.68
448.262	930.41
448.636	961.37
449.01	972.45
449.384	977.87
449.758	964.99
450.132	993.69
450.506	976.06
450.88	1007.25
451.254	1025.55
451.628	989.17
452.002	1026.23
452.376	1049.73
452.75	1039.56
453.123	1053.57
453.497	1051.77
453.871	1054.48
454.244	1091.99
454.618	1077.75
454.992	1118.43
455.365	1116.62
455.739	1123.4
456.112	1138.77
456.486	1140.58
456.859	1156.62
457.232	1175.38
457.606	1180.35
457.979	1190.29
458.352	1201.14
458.725	1233.68
459.099	1239.33
459.472	1221.71
459.845	1293.34
460.218	1283.4
460.591	1282.72
460.964	1307.13
461.337	1340.12
461.71	1337.86
462.083	1400.46
462.456	1377.86
462.829	1388.48
463.201	1414.69
463.574	1425.54
463.947	1428.93
464.32	1478.2
464.692	1505.77
465.065	1506.44
465.438	1496.27
465.81	1558.19
466.183	1557.06
466.555	1610.17
466.928	1627.34
467.3	1593.67
467.672	1655.59
468.045	1715.48
468.417	1716.61
468.789	1737.17
469.161	1766.78
469.534	1803.38
469.906	1844.29
470.278	1877.51
470.65	1892.42
471.022	1929.71
471.394	1988.69
471.766	1972.42
472.138	2028.46
472.51	2091.74
472.882	2148.23
473.253	2145.52
473.625	2223.49
473.997	2266.88
474.369	2286.76
474.74	2365.86
475.112	2382.13
475.484	2487.89
475.855	2530.15
476.227	2557.04
476.598	2673.19
476.97	2723.13
477.341	2780.99
477.713	2866.18
478.084	2914.09
478.455	2990.47
478.827	3056.01
479.198	3221.43
479.569	3220.97
479.94	3342.1
480.311	3413.74
480.682	3493.51
481.053	3652.6
481.424	3728.08
481.795	3786.61
482.166	3868.87
482.537	3968.75
482.908	4155.64
483.279	4236.54
483.65	4362.19
484.021	4467.72
484.391	4553.82
484.762	4627.94
485.133	4776.64
485.503	4934.6
485.874	5066.8
486.244	5153.81
486.615	5314.25
486.985	5442.84
487.356	5602.38
487.726	5780.91
488.097	5886.67
488.467	5951.98
488.837	6175.93
489.207	6288.01
489.578	6445.97
489.948	6653.43
490.318	6670.15
490.688	6894.78
491.058	7063.81
491.428	7237.37
491.798	7320.53
492.168	7589.9
492.538	7718.03
492.908	7851.81
493.278	7995.76
493.648	8108.3
494.017	8317.79
494.387	8405.25
494.757	8509.42
495.126	8715.07
495.496	8807.49
495.866	8999.13
496.235	9162.97
496.605	9314.15
496.974	9373.13
497.344	9553.01
497.713	9672.78
498.082	9768.83
498.452	9934.24
498.821	10067.8
499.19	10127.01
499.559	10385.53
499.928	10397.74
500.298	10538.75
500.667	10624.85
501.036	10709.37
501.405	10832.07
501.774	10946.2
502.143	11116.81
502.512	11180.99
502.88	11278.84
503.249	11381.66
503.618	11458.5
503.987	11606.52
504.356	11650.13
504.724	11839.05
505.093	11849.67
505.462	11934.42
505.83	12086.5
506.199	12142.55
506.567	12347.74
506.936	12363.79
507.304	12449.88
507.672	12580.05
508.041	12627.73
508.409	12709.54
508.777	12765.36
509.145	12843.09
509.514	12926.93
509.882	12979.36
510.25	13112.01
510.618	13200.37
510.986	13285.34
511.354	13359.01
511.722	13498.22
512.09	13523.08
512.458	13479.24
512.826	13607.59
513.193	13585
513.561	13641.04
513.929	13775.5
514.297	13878.32
514.664	13836.06
515.032	13883.07
515.4	13972.78
515.767	14036.06
516.135	14173.91
516.502	14017.75
516.869	14292.77
517.237	14243.74
517.604	14209.61
517.972	14371.19
518.339	14465.42
518.706	14384.07
519.073	14375.94
519.44	14465.2
519.808	14582.03
520.175	14484.86
520.542	14678.3
520.909	14694.57
521.276	14591.98
521.643	14731.63
522.009	14813.66
522.376	14802.14
522.743	14866.54
523.11	14979.31
523.477	15063.38
523.843	15115.58
524.21	15099.76
524.577	15163.03
524.943	15115.8
525.31	15148.12
525.676	15274.22
526.043	15228.57
526.409	15352.41
526.776	15389.24
527.142	15393.54
527.508	15343.82
527.874	15417.26
528.241	15409.13
528.607	15472.18
528.973	15533.42
529.339	15535.23
529.705	15513.08
530.071	15527.32
530.437	15580.42
530.803	15694.54
531.169	15598.73
531.535	15537.94
531.901	15508.56
532.267	15599.18
532.632	15590.14
532.998	15503.36
533.364	15631.95
533.73	15552.4
534.095	15516.92
534.461	15462.46
534.826	15516.92
535.192	15542.01
535.557	15495.45
535.923	15510.37
536.288	15559.41
536.653	15418.62
537.019	15299.3
537.384	15321.45
537.749	15337.49
538.114	15285.06
538.479	15198.51
538.845	15326.65
539.21	15210.26
539.575	15249.58
539.94	15163.94
540.305	15195.8
540.67	15103.37
541.034	15154.45
541.399	15088.91
541.764	15021.57
542.129	15017.27
542.494	15001.91
542.858	14905.87
543.223	14926.2
543.587	14915.13
543.952	14845.3
544.316	14813.21
544.681	14714.46
545.045	14695.02
545.41	14774.34
545.774	14668.13
546.138	14689.83
546.503	14641.69
546.867	14610.51
547.231	14608.47
547.595	14490.73
547.959	14466.33
548.324	14474.92
548.688	14340.91
549.052	14411.19
549.416	14383.39
549.779	14246.67
550.143	14257.75
550.507	14260.01
550.871	14226.33
551.235	14186.79
551.599	14114.25
551.962	14137.3
552.326	14108.82
552.689	14146.34
553.053	13963.07
553.417	13990.86
553.78	14102.27
554.143	13973.01
554.507	13982.95
554.87	14002.39
555.234	14062.27
555.597	13906.34
555.96	13965.55
556.323	13981.14
556.686	13836.97
557.05	13897.76
557.413	13930.07
557.776	13816.18
558.139	13859.56
558.502	13896.4
558.865	13853.92
559.228	13848.94
559.59	13879.9
559.953	13800.13
560.316	13840.58
560.679	13744.99
561.041	13826.57
561.404	13855.72
561.767	13839.68
562.129	13710.64
562.492	13858.66
562.854	13822.28
563.217	13859.11
563.579	13884.88
563.941	13864.54
564.304	13881.71
564.666	13948.6
565.028	13812.79
565.39	13943.86
565.753	13950.18
566.115	13992.89
566.477	13953.12
566.839	14005.55
567.201	14014.14
567.563	13960.35
567.925	14088.94
568.287	14034.93
568.648	13975.27
569.01	14006.91
569.372	14141.59
569.734	14021.82
570.095	14125.32
570.457	14147.02
570.819	14087.81
571.18	14065.66
571.542	14171.65
571.903	14100.91
572.265	14206.45
572.626	14153.12
572.987	14253.68
573.349	14210.29
573.71	14283.96
574.071	14177.3
574.432	14307.01
574.794	14356.28
575.155	14300.01
575.516	14190.63
575.877	14255.03
576.238	14274.7
576.599	14332.09
576.96	14368.93
577.32	14255.71
577.681	14229.05
578.042	14308.14
578.403	14293.68
578.763	14345.65
579.124	14298.65
579.485	14373
579.845	14365.99
580.206	14272.66
580.566	14306.33
580.927	14267.01
581.287	14408.25
581.648	14309.72
582.008	14329.38
582.368	14280.57
582.728	14315.37
583.089	14232.89
583.449	14255.03
583.809	14323.96
584.169	14289.16
584.529	14255.71
584.889	14362.83
585.249	14235.37
585.609	14210.52
585.969	14255.94
586.329	14232.66
586.688	14208.26
587.048	14229.5
587.408	14124.42
587.768	14156.73
588.127	14111.76
588.487	14137.07
588.846	14189.73
589.206	14081.25
589.565	14134.81
589.925	14195.15
590.284	14079.67
590.643	14120.35
591.003	14107.69
591.362	14092.33
591.721	14075.83
592.08	14111.76
592.44	14107.69
592.799	14079.9
593.158	14075.38
593.517	14066.79
593.876	14055.72
594.235	14050.97
594.593	14056.85
594.952	14078.32
595.311	13921.94
595.67	14065.89
596.029	14137.07
596.387	14077.19
596.746	14120.58
597.104	14047.58
597.463	14011.65
597.822	14048.26
598.18	14061.14
598.538	14028.37
598.897	14077.86
599.255	13920.81
599.613	14101.37
599.972	14066.34
600.33	14008.49
600.688	14012.1
601.046	13976.62
601.404	14048.03
601.762	13969.39
602.12	14075.83
602.478	14011.2
602.836	14044.19
603.194	13991.09
603.552	13970.07
603.91	13932.11
604.268	14088.26
604.625	13979.56
604.983	14041.93
605.341	13996.74
605.698	14080.8
606.056	14076.28
606.413	13969.62
606.771	14039
607.128	14192.66
607.485	13965.32
607.843	13991.54
608.2	14082.16
608.557	14109.95
608.914	14008.26
609.272	14091.88
609.629	14194.47
609.986	14158.31
610.343	14158.77
610.7	14195.83
611.057	14148.82
611.414	14171.2
611.771	14091.2
612.127	14208.71
612.484	14138.2
612.841	14152.21
613.198	14105.43
613.554	14126.9
613.911	14290.06
614.267	14258.88
614.624	14260.01
614.98	14218.43
615.337	14327.8
615.693	14319.44
616.05	14254.58
616.406	14385.43
616.762	14302.27
617.118	14284.41
617.475	14271.08
617.831	14298.65
618.187	14388.59
618.543	14391.75
618.899	14401.7
619.255	14451.19
619.611	14374.35
619.967	14502.26
620.323	14395.37
620.678	14439.21
621.034	14407.8
621.39	14407.12
621.746	14398.08
622.101	14527.12
622.457	14384.3
622.812	14441.7
623.168	14420
623.523	14458.42
623.879	14468.59
624.234	14413.22
624.589	14465.42
624.945	14444.63
625.3	14417.52
625.655	14379.55
626.01	14446.22
626.365	14508.81
626.72	14467.68
627.075	14422.71
627.43	14359.89
627.785	14420.91
628.14	14391.53
628.495	14397.4
628.85	14378.2
629.205	14344.75
629.559	14476.27
629.914	14368.25
630.269	14410.06
630.623	14282.15
630.978	14323.51
631.332	14279.21
631.687	14341.36
632.041	14287.8
632.396	14339.1
632.75	14298.65
633.104	14294.36
633.459	14220.91
633.813	14156.51
634.167	14213.68
634.521	14178.43
634.875	14218.2
635.229	14116.73
635.583	14088.71
635.937	14081.25
636.291	14012.56
636.645	14069.28
636.999	14066.11
637.352	14025.89
637.706	13987.7
638.06	14049.39
638.413	14028.15
638.767	13900.02
639.121	14008.26
639.474	13938.43
639.828	13936.17
640.181	13958.09
640.534	13959.45
640.888	13925.55
641.241	13855.95
641.594	13808.04
641.947	13921.48
642.301	13826.8
642.654	13901.15
643.007	13802.17
643.36	13855.05
643.713	13873.8
644.066	13808.04
644.419	13821.83
644.771	13644.43
645.124	13608.27
645.477	13510.2
645.83	13491.44
646.182	13404.21
646.535	13471.1
646.888	13448.95
647.24	13381.39
647.593	13445.34
647.945	13345.45
648.298	13329.41
648.65	13265.23
649.002	13326.02
649.355	13303.42
649.707	13321.95
650.059	13387.71
650.411	13632
650.763	13562.85
651.115	13735.73
651.467	13611.89
651.819	13718.78
652.171	13567.14
652.523	13606.46
652.875	13596.3
653.227	13556.3
653.578	13739.34
653.93	13697.76
654.282	13612.79
654.633	13556.97
654.985	13759.23
655.337	13647.37
655.688	13728.72
656.039	13653.24
656.391	13529.18
656.742	13580.93
657.094	13619.57
657.445	13710.42
657.796	13698.21
658.147	13657.31
658.498	13647.82
658.849	13677.2
659.2	13694.15
659.551	13589.06
659.902	13674.94
660.253	13683.52
660.604	13679.46
660.955	13696.63
661.306	13639.23
661.656	13637.2
662.007	13617.99
662.358	13659.34
662.708	13679
663.059	13629.06
663.409	13598.1
663.76	13715.84
664.11	13634.49
664.461	13712.45
664.811	13684.65
665.161	13796.06
665.511	13622.74
665.862	13714.03
666.212	13677.42
666.562	13719.91
666.912	13733.01
667.262	13764.43
667.612	13717.42
667.962	13779.57
668.312	13687.59
668.662	13744.54
669.011	13715.61
669.361	13715.39
669.711	13686.24
670.06	13749.29
670.41	13645.33
670.76	13624.09
671.109	13679.68
671.459	13623.64
671.808	13698.44
672.157	13689.4
672.507	13541.61
672.856	13575.73
673.205	13560.82
673.554	13634.71
673.904	13565.34
674.253	13622.06
674.602	13563.3
674.951	13327.6
675.3	13312.23
675.649	13560.14
675.998	13495.51
676.346	13539.35
676.695	13565.34
677.044	13418.9
677.393	13398.79
677.741	13471.78
678.09	13434.94
678.438	13407.6
678.787	13392.46
679.135	13401.95
679.484	13360.14
679.832	13369.63
680.181	13262.97
680.529	13352.46
680.877	13275.63
681.225	13260.48
681.573	13331.44
681.922	13188.85
682.27	13147.49
682.618	13167.83
682.966	13106.14
683.314	13124.9
683.661	13178
684.009	13022.07
684.357	13038.34
684.705	13013.94
685.053	12997.44
685.4	12997.89
685.748	12850.78
686.095	12851.23
686.443	12820.95
686.79	12852.36
687.138	12794.51
687.485	12798.8
687.832	12774.4
688.18	12702.31
688.527	12688.3
688.874	12669.99
689.221	12636.55
689.568	12671.12
689.915	12600.16
690.262	12537.79
690.609	12531.92
690.956	12530.11
691.303	12458.47
691.65	12389.55
691.997	12362.2
692.344	12264.8
692.69	12385.71
693.037	12281.75
693.383	12154.53
693.73	12208.53
694.077	12166.95
694.423	12074.75
694.769	12108.2
695.116	11985.04
695.462	11962.67
695.808	11943.46
696.155	11881.31
696.501	11857.13
696.847	11833.86
697.193	11725.16
697.539	11801.31
697.885	11701.43
698.231	11632.5
698.577	11619.4
698.923	11602.45
699.269	11536.69
699.614	11466.86
699.96	11427.54
700.306	11409.91
700.651	11363.59
700.997	11355.9
701.342	11263.25
701.688	11242.91
702.033	11259.41
702.379	11206.75
702.724	11121.56
703.069	11186.41
703.415	11034.33
703.76	11040.66
704.105	11041.11
704.45	11044.72
704.795	10930.83
705.14	10961.11
705.485	10850.6
705.83	10840.66
706.175	10799.31
706.52	10766.09
706.865	10721.79
707.209	10649.71
707.554	10646.32
707.899	10707.56
708.243	10636.15
708.588	10608.58
708.932	10517.73
709.277	10509.82
709.621	10479.31
709.966	10401.35
710.31	10421.92
710.654	10373.1
710.998	10399.32
711.342	10440.22
711.687	10297.62
712.031	10276.61
712.375	10287.46
712.719	10292.43
713.063	10255.14
713.407	10249.72
713.75	10188.93
714.094	10215.59
714.438	10201.13
714.782	10236.38
715.125	10075.94
715.469	10195.93
715.812	10146.44
716.156	10008.37
716.499	10122.94
716.843	10110.51
717.186	10089.49
717.53	10047.24
717.873	10022.83
718.216	10000.46
718.559	9926.56
718.902	9909.84
719.246	9937.63
719.589	9958.2
719.932	9887.01
720.275	9826.22
720.617	9792.78
720.96	9846.11
721.303	9837.75
721.646	9861.93
721.989	9779.67
722.331	9833.23
722.674	9806.11
723.016	9762.05
723.359	9739.22
723.701	9751.65
724.044	9719.56
724.386	9638.66
724.729	9782.38
725.071	9657.19
725.413	9727.92
725.755	9672.78
726.097	9614.48
726.439	9601.37
726.782	9583.29
727.124	9656.96
727.465	9597.53
727.807	9601.6
728.149	9626.23
728.491	9651.31
728.833	9648.6
729.175	9570.19
729.516	9594.59
729.858	9604.99
730.199	9580.81
730.541	9619
730.882	9603.63
731.224	9626.91
731.565	9556.18
731.906	9567.25
732.248	9574.25
732.589	9547.59
732.93	9472.79
733.271	9540.58
733.612	9571.32
733.953	9590.98
734.294	9538.55
734.635	9513.24
734.976	9579.45
735.317	9521.15
735.658	9460.81
735.999	9520.02
736.339	9593.24
736.68	9613.57
737.021	9588.94
737.361	9500.36
737.702	9555.05
738.042	9495.16
738.383	9543.97
738.723	9581.49
739.063	9564.76
739.404	9558.21
739.744	9603.86
740.084	9603.63
740.424	9660.13
740.764	9694.7
741.104	9720.46
741.444	9678.43
741.784	9650.41
742.124	9713.23
742.464	9713.23
742.804	9748.49
743.143	9725.21
743.483	9772.89
743.823	9771.54
744.162	9786.23
744.502	9851.08
744.841	9910.29
745.181	9939.67
745.52	9931.98
745.86	10000.68
746.199	9964.98
746.538	10012.66
746.877	10080.68
747.216	10182.37
747.556	10210.62
747.895	10252.43
748.234	10264.41
748.573	10275.48
748.911	10401.58
749.25	10432.99
749.589	10542.82
749.928	10543.72
750.267	10670.72
750.605	10772.64
750.944	10794.56
751.283	10860.1
751.621	10996.59
751.96	11027.78
752.298	11156.13
752.636	11242.68
752.975	11310.25
753.313	11399.74
753.651	11598.16
753.989	11641.32
754.327	11755.44
754.666	11865.72
755.004	12013.96
755.342	12165.82
755.679	12449.43
756.017	12446.72
756.355	12655.75
756.693	12742.53
757.031	12942.53
757.368	13104.78
757.706	13232.01
758.044	13369.63
758.381	13604.88
758.719	13629.74
759.056	13912.9
759.394	14059.11
759.731	14180.69
760.068	14386.1
760.405	14591.07
760.743	14817.05
761.08	14958.29
761.417	15090.72
761.754	15294.78
762.091	15556.92
762.428	15639.86
762.765	15712.4
763.102	16050.69
763.438	16130.24
763.775	16281.42
764.112	16523.45
764.449	16715.76
764.785	16770.22
765.122	17038.92
765.458	17111.23
765.795	17266.48
766.131	17578.11
766.467	17614.27
766.804	17829.86
767.14	17940.59
767.476	18143.97
767.812	18242.95
768.148	18307.58
768.485	18571.98
768.821	18489.95
769.157	18722.04
769.492	18860.56
769.828	18948.47
770.164	19054.68
770.5	19227.56
770.836	19362.47
771.171	19443.82
771.507	19487.21
771.842	19488.8
772.178	19708.45
772.513	19828.22
772.849	19802.23
773.184	19897.15
773.519	19978.5
773.855	20116.35
774.19	20179.4
774.525	20205.39
774.86	20318.38
775.195	20481.54
775.53	20362.67
775.865	20364.03
776.2	20401.77
776.535	20415.1
776.87	20626.39
777.205	20524.25
777.539	20534.87
777.874	20703
778.209	20594.98
778.543	20510.46
778.878	20725.83
779.212	20713.62
779.547	20706.84
779.881	20764.24
780.215	20782.32
780.55	20826.16
780.884	20790
781.218	20956.55
781.552	20820.74
781.886	20858.93
782.22	20763.56
782.554	20835.2
782.888	20738.25
783.222	20618.03
783.556	20734.86
783.889	20663.68
784.223	20489.9
784.557	20614.87
784.89	20638.37
785.224	20581.2
785.557	20507.53
785.891	20580.52
786.224	20449.22
786.558	20580.29
786.891	20397.25
787.224	20384.37
787.557	20412.84
787.891	20388.88
788.224	20322.45
788.557	20552.27
788.89	20462.1
789.223	20424.36
789.556	20318.83
789.888	20311.6
790.221	20217.14
790.554	20207.19
790.887	20105.5
791.219	20050.36
791.552	20064.15
791.884	20021.21
792.217	19972.17
792.549	20068.89
792.882	19862.57
793.214	19789.58
793.546	19868.67
793.879	19764.27
794.211	19719.75
794.543	19771.27
794.875	19662.8
795.207	19705.74
795.539	19650.83
795.871	19512.3
796.203	19493.99
796.535	19421.45
796.867	19539.87
797.198	19311.85
797.53	19376.26
797.862	19197.5
798.193	19348.01
798.525	19212.87
798.856	19223.94
799.188	18981.24
799.519	18959.32
799.85	18881.35
800.182	18950.73
800.513	19004.97
800.844	18792.54
801.175	18937.4
801.506	18848.81
801.837	18828.93
802.168	18699.21
802.499	18655.6
802.83	18629.16
803.161	18585.54
803.491	18607.01
803.822	18503.06
804.153	18399.33
804.483	18385.77
804.814	18305.32
805.145	18279.79
805.475	18221.26
805.805	18259.9
806.136	18142.84
806.466	18220.58
806.796	18124.54
807.126	18104.2
807.457	17938.55
807.787	18078.89
808.117	18046.57
808.447	17838.67
808.777	17884.32
809.107	17818.78
809.436	17772.46
809.766	17733.81
810.096	17613.82
810.426	17738.33
810.755	17654.27
811.085	17696.53
811.414	17543.31
811.744	17466.7
812.073	17416.99
812.403	17465.8
812.732	17321.39
813.061	17363.2
813.39	17229.65
813.719	17232.58
814.049	17405.23
814.378	17278.23
814.707	17293.82
815.036	17197.56
815.365	17067.62
815.693	16947.17
816.022	17035.53
816.351	17014.96
816.68	16891.35
817.008	16924.57
817.337	16772.93
817.665	16695.2
817.994	16716.66
818.322	16802.99
818.651	16718.7
818.979	16694.97
819.307	16728.19
819.636	16711.47
819.964	16549.66
820.292	16673.73
820.62	16631.47
820.948	16561.87
821.276	16693.16
821.604	16618.36
821.932	16555.09
822.259	16617.46
822.587	16601.87
822.915	16577.91
823.243	16624.69
823.57	16516.67
823.898	16513.96
824.225	16465.6
824.553	16536.56
824.88	16516.44
825.207	16541.75
825.535	16570.91
825.862	16615.42
826.189	16515.54
826.516	16537.91
826.843	16504.69
827.17	16587.63
827.497	16623.79
827.824	16586.5
828.151	16607.29
828.478	16522.77
828.805	16588.31
829.131	16542.21
829.458	16556.9
829.785	16463.79
830.111	16480.96
830.438	16652.94
830.764	16519.38
831.09	16598.93
831.417	16429.67
831.743	16585.14
832.069	16499.95
832.395	16429.89
832.722	16496.56
833.048	16464.92
833.374	16440.51
833.7	16407.07
834.026	16462.21
834.351	16493.62
834.677	16383.11
835.003	16426.96
835.329	16426.28
835.654	16386.05
835.98	16292.72
836.306	16345.15
836.631	16245.04
836.956	16364.36
837.282	16291.59
837.607	16337.69
837.932	16141.76
838.258	16223.57
838.583	16153.97
838.908	16059.28
839.233	16177.92
839.558	16050.24
839.883	16027.42
840.208	15989.68
840.533	16021.32
840.858	15956.01
841.182	15944.26
841.507	16016.8
841.832	15890.02
842.156	15881.88
842.481	15810.47
842.805	15793.07
843.13	15808.67
843.454	15749.68
843.778	15617.94
844.103	15690.93
844.427	15589.24
844.751	15628.78
845.075	15582.01
845.399	15504.27
845.723	15436.02
846.047	15445.51
846.371	15370.26
846.695	15405.29
847.019	15199.64
847.343	15227.21
847.666	15112.64
847.99	15004.17
848.313	15025.18
848.637	14904.74
848.96	14944.51
849.284	14855.47
849.607	14752.65
849.931	14743.61
850.254	14615.03
850.577	14636.49
850.9	14459.78
851.223	14423.62
851.546	14401.7
851.869	14213.68
852.192	14329.38
852.515	14103.4
852.838	14089.62
853.161	14156.28
853.483	14124.87
853.806	14017.98
854.129	13945.66
854.451	13863.18
854.774	13837.42
855.096	13756.52
855.419	13723.3
855.741	13754.93
856.063	13686.69
856.385	13688.72
856.708	13647.59
857.03	13565.34
857.352	13536.64
857.674	13525.34
857.996	13548.39
858.318	13359.24
858.64	13404.89
858.961	13378.22
859.283	13281.05
859.605	13222.07
859.926	13263.87
860.248	13196.76
860.57	13229.07
860.891	13185.23
861.212	13053.48
861.534	13028.63
861.855	13056.87
862.176	13052.81
862.498	12962.87
862.819	12963.77
863.14	12888.29
863.461	12980.94
863.782	12826.82
864.103	12937.56
864.424	12892.36
864.745	12870.21
865.065	12799.71
865.386	12716.54
865.707	12726.04
866.027	12755.41
866.348	12759.25
866.668	12737.79
866.989	12638.58
867.309	12566.49
867.63	12622.99
867.95	12609.65
868.27	12503.44
868.59	12566.49
868.91	12493.95
869.23	12494.18
869.55	12369.89
869.87	12464.12
870.19	12408.53
870.51	12436.55
870.83	12421.18
871.15	12439.72
871.469	12365.59
871.789	12473.16
872.109	12294.63
872.428	12300.06
872.748	12321.3
873.067	12324.46
873.386	12254.64
873.706	12231.36
874.025	12140.74
874.344	12198.14
874.663	12163.56
874.982	12187.52
875.301	12153.85
875.62	12118.37
875.939	12096.67
876.258	12122.21
876.577	12046.05
876.896	11937.58
877.214	12058.93
877.533	11972.61
877.852	11978.26
878.17	11894.64
878.489	11952.95
878.807	11912.27
879.125	11867.98
879.444	11877.92
879.762	11810.58
880.08	11836.79
880.398	11790.92
880.716	11851.71
881.034	11819.39
881.352	11752.73
881.67	11650.13
881.988	11665.72
882.306	11636.12
882.624	11598.61
882.941	11576.01
883.259	11544.82
883.577	11554.31
883.894	11478.38
884.212	11437.71
884.529	11427.99
884.846	11477.93
885.164	11395.45
885.481	11398.16
885.798	11440.42
886.115	11312.06
886.432	11308.45
886.75	11247.43
887.067	11239.75
887.383	11232.74
887.7	11220.31
888.017	11195.68
888.334	11224.15
888.651	11110.48
888.967	11157.94
889.284	11059.41
889.6	11082.46
889.917	10988.23
890.233	10990.26
890.55	10910.72
890.866	10949.58
891.182	10905.29
891.498	10793.88
891.815	10818.51
892.131	10764.96
892.447	10737.61
892.763	10722.7
893.079	10651.97
893.395	10577.84
893.71	10577.17
894.026	10607.45
894.342	10584.17
894.657	10522.48
894.973	10460.33
895.289	10459.2
895.604	10396.83
895.92	10353.22
896.235	10331.97
896.55	10282.03
896.865	10267.34
897.181	10288.36
897.496	10241.36
897.811	10163.39
898.126	10123.39
898.441	10118.65
898.756	10108.93
899.071	10018.76
899.386	9993
899.7	9891.99
900.015	9898.77
900.33	9805.89
900.644	9879.78
900.959	9840.24
901.273	9755.94
901.588	9767.24
901.902	9663.52
902.216	9629.62
902.531	9630.75
902.845	9520.92
903.159	9467.36
903.473	9515.05
903.787	9462.17
904.101	9372
904.415	9422.39
904.729	9359.57
905.042	9275.5
905.356	9364.77
905.67	9268.5
905.984	9269.4
906.297	9194.15
906.611	9201.38
906.924	9184.89
907.237	9124.55
907.551	9063.98
907.864	8991.44
908.177	9032.12
908.491	8964.55
908.804	8909.41
909.117	8859.47
909.43	8800.04
909.743	8744.67
910.056	8719.14
910.368	8724.11
910.681	8658.57
910.994	8659.93
911.307	8666.71
911.619	8584.9
911.932	8591
912.244	8534.96
912.557	8449.09
912.869	8396.21
913.181	8442.76
913.494	8391.23
913.806	8329.99
914.118	8355.3
914.43	8294.74
914.742	8246.38
915.054	8188.75
915.366	8170.45
915.678	8172.48
915.99	8126.16
916.302	8019.49
916.613	8026.95
916.925	7985.37
917.236	7971.13
917.548	7976.78
917.859	7931.36
918.171	7925.48
918.482	7849.55
918.794	7763.45
919.105	7824.47
919.416	7665.83
919.727	7698.15
920.038	7636.23
920.349	7628.09
920.66	7607.53
920.971	7598.49
921.282	7532.5
921.593	7493.4
921.903	7433.97
922.214	7424.25
922.525	7445.72
922.835	7444.37
923.146	7338.83
923.456	7380.87
923.767	7306.06
924.077	7336.12
924.387	7251.15
924.697	7165.5
925.008	7196.92
925.318	7180.42
925.628	7128.89
925.938	7076.01
926.248	7022.68
926.558	6983.81
926.867	7017.71
927.177	6955.79
927.487	6932.29
927.796	6876.25
928.106	6871.27
928.416	6812.07
928.725	6855.68
929.034	6754.67
929.344	6775.01
929.653	6738.62
929.962	6688.45
930.271	6649.36
930.581	6622.92
930.89	6589.47
931.199	6628.34
931.508	6581.79
931.817	6563.26
932.125	6549.47
932.434	6510.83
932.743	6450.49
933.051	6434.45
933.36	6405.98
933.669	6344.96
933.977	6345.86
934.286	6300.22
934.594	6325.07
934.902	6202.59
935.21	6255.02
935.519	6238.07
935.827	6207.11
936.135	6199.88
936.443	6071.97
936.751	6134.57
937.059	6026.78
937.367	6014.57
937.674	6041.69
937.982	6048.7
938.29	5997.85
938.597	5955.82
938.905	5914.92
939.213	5892.09
939.52	5871.98
939.827	5916.72
940.135	5861.36
940.442	5782.04
940.749	5782.26
941.056	5803.05
941.363	5747.01
941.67	5728.03
941.977	5739.33
942.284	5635.6
942.591	5638.99
942.898	5614.58
943.205	5571.42
943.511	5572.33
943.818	5541.82
944.125	5546.34
944.431	5507.24
944.738	5433.12
945.044	5456.4
945.35	5425.21
945.657	5400.35
945.963	5348.38
946.269	5316.06
946.575	5350.18
946.881	5303.18
947.187	5309.51
947.493	5283.97
947.799	5245.33
948.105	5212.56
948.41	5212.33
948.716	5164.88
949.022	5217.98
949.327	5116.52
949.633	5020.25
949.938	5079
950.244	5113.13
950.549	5063.19
950.854	4994.71
951.16	5005.33
951.465	4984.32
951.77	4940.25
952.075	4906.13
952.38	4946.8
952.685	4910.87
952.99	4855.96
953.294	4816.86
953.599	4829.97
953.904	4822.51
954.209	4744.78
954.513	4794.27
954.818	4690.09
955.122	4752.01
955.426	4682.18
955.731	4660.94
956.035	4630.2
956.339	4637.43
956.643	4636.3
956.948	4564.89
957.252	4562.41
957.556	4548.62
957.86	4502.97
958.163	4544.1
958.467	4478.57
958.771	4480.83
959.075	4457.55
959.378	4429.98
959.682	4418.23
959.985	4404.45
960.289	4406.48
960.592	4364
960.896	4360.15
961.199	4304.34
961.502	4280.83
961.805	4273.6
962.108	4227.05
962.411	4252.59
962.714	4193.38
963.017	4229.76
963.32	4269.76
963.623	4164.9
963.926	4171.91
964.228	4130.78
964.531	4074.74
964.833	4103.44
965.136	4086.94
965.438	4043.1
965.741	3965.59
966.043	3991.35
966.345	4014.4
966.648	3956.1
966.95	3993.84
967.252	3964.01
967.554	3944.57
967.856	3899.37
968.158	3910.67
968.46	3880.17
968.761	3854.18
969.063	3857.12
969.365	3880.17
969.666	3855.99
969.968	3809.43
970.269	3796.78
970.571	3785.03
970.872	3729.21
971.174	3690.79
971.475	3729.66
971.776	3738.02
972.077	3673.39
972.378	3660.29
972.679	3681.75
972.98	3643.34
973.281	3623.22
973.582	3591.81
973.883	3590.46
974.183	3567.86
974.484	3573.51
974.785	3524.24
975.085	3519.05
975.386	3505.71
975.686	3512.72
975.986	3499.84
976.287	3468.65
976.587	3440.86
976.887	3430.01
977.187	3435.66
977.487	3393.4
977.787	3393.85
978.087	3377.58
978.387	3354.53
978.687	3348.65
978.987	3330.58
979.286	3322.44
979.586	3317.47
979.885	3272.5
980.185	3277.02
980.484	3239.05
980.784	3231.14
981.083	3204.93
981.382	3220.75
981.682	3201.09
981.981	3183.46
982.28	3168.32
982.579	3133.52
982.878	3126.06
983.177	3077.7
983.475	3126.74
983.774	3059.17
984.073	3077.25
984.372	3098.49
984.67	3044.48
984.969	3059.17
985.267	3024.37
985.566	3007.19
985.864	2976.91
986.162	2971.94
986.461	2981.66
986.759	2933.3
987.057	2940.98
987.355	2905.28
987.653	2987.08
987.951	2889.91
988.249	2899.85
988.547	2870.48
988.844	2835.45
989.142	2828.44
989.44	2805.62
989.737	2835.67
990.035	2788.9
990.332	2792.06
990.63	2783.92
990.927	2767.43
991.224	2758.84
991.521	2745.51
991.819	2726.52
992.116	2735.34
992.413	2710.71
992.71	2703.02
993.006	2666.64
993.303	2662.12
993.6	2635
993.897	2635.23
994.193	2633.87
994.49	2626.19
994.787	2592.74
995.083	2603.14
995.379	2567.66
995.676	2545.74
995.972	2562.23
996.268	2541.44
996.565	2536.47
996.861	2527.21
997.157	2503.03
997.453	2485.85
997.749	2492.63
998.044	2454.44
998.34	2509.81
998.636	2459.41
998.932	2434.1
999.227	2400.21
999.523	2424.61
999.818	2400.43
1000.114	2414.44
1000.409	2381.45
1000.704	2353.43
1001	2362.47
1001.295	2345.52
1001.59	2290.38
1001.885	2294.67
1002.18	2298.06
1002.475	2295.58
1002.77	2270.94
1003.065	2225.07
1003.359	2227.78
1003.654	2218.97
1003.949	2177.39
1004.243	2212.41
1004.538	2164.51
1004.832	2171.96
1005.127	2164.51
1005.421	2144.84
1005.715	2128.35
1006.009	2108.69
1006.304	2113.43
1006.598	2132.42
1006.892	2093.55
1007.186	2088.8
1007.48	2044.96
1007.773	2055.13
1008.067	2061.46
1008.361	2040.89
1008.655	2020.55
1008.948	2026.66
1009.242	1974.23
1009.535	1985.53
1009.829	1969.48
1010.122	1958.63
1010.415	1993.66
1010.708	1944.62
1011.001	1898.75
1011.295	1914.79
1011.588	1917.96
1011.881	1890.16
1012.173	1882.48
1012.466	1844.06
1012.759	1856.72
1013.052	1847
1013.344	1813.33
1013.637	1844.97
1013.93	1807.45
1014.222	1840.22
1014.514	1779.88
1014.807	1791.41
1015.099	1794.8
1015.391	1748.92
1015.683	1722.93
1015.976	1727.45
1016.268	1727
1016.56	1717.06
1016.851	1731.3
1017.143	1688.36
1017.435	1675.03
1017.727	1659.21
1018.018	1689.72
1018.31	1626.89
1018.602	1647.46
1018.893	1635.25
1019.185	1604.29
1019.476	1590.51
1019.767	1613.33
1020.058	1590.74
1020.35	1578.31
1020.641	1562.49
1020.932	1563.62
1021.223	1559.32
1021.514	1533.56
1021.804	1529.04
1022.095	1545.76
1022.386	1537.86
1022.677	1499.66
1022.967	1500.79
1023.258	1473
1023.548	1481.13
1023.839	1495.37
1024.129	1477.97
1024.419	1424.41
1024.709	1452.66
1025	1414.47
1025.29	1399.78
1025.58	1419.44
1025.87	1392.32
1026.16	1381.25
1026.449	1403.62
1026.739	1357.52
1027.029	1349.61
1027.319	1347.58
1027.608	1332.66
1027.898	1327.24
1028.187	1314.81
1028.477	1311.42
1028.766	1288.6
1029.055	1289.27
1029.344	1291.76
1029.634	1295.83
1029.923	1299.22
1030.212	1228.71
1030.501	1270.74
1030.79	1252.44
1031.078	1229.39
1031.367	1220.35
1031.656	1223.51
1031.945	1206.34
1032.233	1198.88
1032.522	1227.35
1032.81	1178.99
1033.099	1196.62
1033.387	1167.24
1033.675	1182.16
1033.963	1150.97
1034.251	1146.23
1034.54	1138.54
1034.828	1130.18
1035.116	1112.33
1035.403	1119.56
1035.691	1108.71
1035.979	1111.2
1036.267	1097.64
1036.554	1107.81
1036.842	1072.1
1037.129	1068.04
1037.417	1070.75
1037.704	1072.56
1037.992	1080.01
1038.279	1062.39
1038.566	1039.56
1038.853	1039.56
1039.14	1039.56
