Data from hue_50_FLMS001491_67.txt Node
Date: Mon Feb 06 15:10:46 GMT 2017
User: dcchb
Spectrometer: FLMS00149
Trigger mode: 0
Integration Time (sec): 2.000000E-2
Scans to average: 10
Electric dark correction enabled: true
Nonlinearity correction enabled: false
Boxcar width: 0
XAxis mode: Wavelengths
Number of Pixels in Spectrum: 2048
>>>>>Begin Spectral Data<<<<<
341.393	7.01
341.776	7.01
342.16	7.01
342.543	-49.49
342.927	-56.5
343.31	-46.1
343.693	-70.28
344.077	-72.54
344.46	-65.76
344.843	-60.79
345.226	-41.35
345.61	-34.8
345.993	-25.99
346.376	-0.45
346.759	11.3
347.142	19.66
347.525	26.67
347.908	57.17
348.291	85.2
348.674	105.08
349.057	112.99
349.44	137.85
349.823	131.07
350.206	169.26
350.588	187.57
350.971	225.08
351.354	231.63
351.737	239.77
352.119	260.33
352.502	265.53
352.884	275.92
353.267	288.35
353.65	294.23
354.032	310.27
354.414	308.24
354.797	314.34
355.179	331.29
355.562	315.02
355.944	322.25
356.326	331.97
356.709	327.67
357.091	341.91
357.473	354.11
357.855	347.79
358.238	344.17
358.62	345.98
359.002	369.26
359.384	347.11
359.766	350.27
360.148	353.21
360.53	318.64
360.912	344.4
361.294	341.69
361.676	336.26
362.057	330.16
362.439	325.87
362.821	348.92
363.203	320.67
363.584	320.67
363.966	347.56
364.348	323.38
364.729	315.25
365.111	308.69
365.493	319.31
365.874	335.81
366.256	294.46
366.637	322.7
367.019	310.95
367.4	302.59
367.781	314.34
368.163	322.48
368.544	299.43
368.925	319.09
369.306	333.55
369.688	304.85
370.069	314.12
370.45	321.12
370.831	318.64
371.212	330.39
371.593	296.94
371.974	331.97
372.355	313.66
372.736	310.05
373.117	335.36
373.498	320.9
373.879	315.47
374.26	317.96
374.641	310.73
375.021	339.65
375.402	336.26
375.783	332.65
376.163	324.74
376.544	349.6
376.925	334.45
377.305	334.23
377.686	313.89
378.066	322.25
378.447	325.42
378.827	336.49
379.208	310.73
379.588	318.18
379.968	318.86
380.349	336.94
380.729	333.55
381.109	338.52
381.489	334.23
381.87	348.01
382.25	345.75
382.63	308.92
383.01	350.95
383.39	343.72
383.77	349.6
384.15	322.48
384.53	332.19
384.91	362.7
385.29	345.75
385.67	342.14
386.049	343.95
386.429	353.44
386.809	358.18
387.189	352.99
387.568	352.31
387.948	337.62
388.328	353.44
388.707	343.04
389.087	345.3
389.466	331.52
389.846	366.09
390.225	357.96
390.605	357.5
390.984	363.38
391.363	368.58
391.743	351.4
392.122	365.19
392.501	366.54
392.881	370.84
393.26	357.05
393.639	377.17
394.018	365.64
394.397	355.47
394.776	361.57
395.155	371.74
395.534	367
395.913	369.48
396.292	358.18
396.671	390.5
397.05	359.54
397.429	393.21
397.808	388.46
398.186	395.02
398.565	376.04
398.944	381.23
399.323	371.52
399.701	372.65
400.08	399.76
400.458	363.38
400.837	378.07
401.215	398.18
401.594	396.83
401.972	387.11
402.351	394.34
402.729	405.64
403.107	395.24
403.486	407.45
403.864	405.19
404.242	391.63
404.62	410.38
404.999	392.76
405.377	427.11
405.755	406.99
406.133	401.12
406.511	403.38
406.889	426.66
407.267	414
407.645	406.77
408.023	417.84
408.401	413.1
408.779	412.64
409.156	405.87
409.534	426.88
409.912	431.18
410.29	432.08
410.667	429.14
411.045	437.73
411.422	426.66
411.8	428.01
412.178	435.24
412.555	450.61
412.933	452.64
413.31	449.48
413.687	455.81
414.065	442.7
414.442	473.89
414.819	463.49
415.197	457.16
415.574	447.22
415.951	466.2
416.328	476.6
416.705	465.98
417.082	470.5
417.46	469.82
417.837	447.67
418.214	496.71
418.591	489.48
418.967	498.07
419.344	467.11
419.721	503.04
420.098	480.67
420.475	506.88
420.852	497.61
421.228	494.68
421.605	504.62
421.982	486.99
422.358	505.3
422.735	488.12
423.111	520.66
423.488	512.98
423.864	512.53
424.241	519.76
424.617	535.58
424.994	508.24
425.37	519.08
425.746	533.77
426.123	527.22
426.499	520.66
426.875	519.99
427.251	536.26
427.627	540.78
428.003	530.16
428.379	543.94
428.756	553.66
429.132	547.33
429.507	567.22
429.883	558.18
430.259	586.43
430.635	600.89
431.011	592.75
431.387	574.67
431.763	598.4
432.138	567.67
432.514	574.45
432.89	592.07
433.265	618.51
433.641	619.42
434.016	612.87
434.392	608.35
434.767	606.31
435.143	642.47
435.518	623.26
435.894	624.84
436.269	631.62
436.644	642.69
437.02	631.17
437.395	642.24
437.77	669.59
438.145	648.57
438.52	655.58
438.895	675.91
439.271	675.01
439.646	677.5
440.021	675.91
440.395	693.09
440.77	686.31
441.145	694.67
441.52	688.12
441.895	718.85
442.27	702.35
442.645	722.92
443.019	713.2
443.394	703.48
443.769	721.79
444.143	727.21
444.518	711.39
444.892	737.16
445.267	715.91
445.641	707.55
446.016	737.38
446.39	723.37
446.764	726.08
447.139	753.88
447.513	749.58
447.887	755.91
448.262	756.14
448.636	750.26
449.01	774.89
449.384	769.02
449.758	768.34
450.132	785.06
450.506	771.05
450.88	802.69
451.254	785.29
451.628	806.08
452.002	826.42
452.376	799.08
452.75	806.98
453.123	811.73
453.497	829.81
453.871	840.88
454.244	825.52
454.618	839.53
454.992	842.92
455.365	861.22
455.739	866.42
456.112	870.49
456.486	895.8
456.859	911.39
457.232	910.71
457.606	913.2
457.979	927.43
458.352	919.07
458.725	933.53
459.099	955.91
459.472	962.91
459.845	949.81
460.218	1003.14
460.591	993.65
460.964	988.9
461.337	1005.85
461.71	1006.53
462.083	1055.34
462.456	1016.24
462.829	1037.03
463.201	1060.99
463.574	1063.47
463.947	1067.32
464.32	1129.91
464.692	1142.79
465.065	1135.11
465.438	1138.95
465.81	1154.09
466.183	1188.44
466.555	1171.27
466.928	1190.93
467.3	1237.03
467.672	1232.96
468.045	1253.75
468.417	1304.15
468.789	1302.11
469.161	1312.28
469.534	1336.46
469.906	1361.55
470.278	1391.6
470.65	1432.73
471.022	1456.91
471.394	1451.49
471.766	1467.76
472.138	1542.56
472.51	1554.54
472.882	1566.74
473.253	1600.41
473.625	1639.28
473.997	1676.34
474.369	1736.45
474.74	1730.35
475.112	1782.33
475.484	1857.8
475.855	1891.7
476.227	1935.32
476.598	2009.21
476.97	2026.61
477.341	2085.59
477.713	2144.35
478.084	2171.47
478.455	2218.92
478.827	2286.95
479.198	2391.8
479.569	2448.98
479.94	2508.63
480.311	2542.08
480.682	2684.68
481.053	2778.68
481.424	2845.57
481.795	2900.94
482.166	2975.06
482.537	3122.63
482.908	3230.42
483.279	3300.48
483.65	3441.04
484.021	3500.02
484.391	3577.08
484.762	3686.23
485.133	3728.04
485.503	3903.85
485.874	3988.6
486.244	4130.74
486.615	4253.45
486.985	4350.39
487.356	4489.15
487.726	4623.16
488.097	4757.16
488.467	4876.03
488.837	4998.51
489.207	5143.59
489.578	5245.29
489.948	5393.08
490.318	5575.67
490.688	5654.99
491.058	5809.56
491.428	6005.27
491.798	6078.26
492.168	6255.43
492.538	6355.09
492.908	6529.32
493.278	6708.75
493.648	6773.16
494.017	7020.83
494.387	7137.89
494.757	7246.59
495.126	7380.37
495.496	7490.88
495.866	7633.25
496.235	7800.92
496.605	7958.66
496.974	8048.38
497.344	8245.21
497.713	8358.65
498.082	8518.65
498.452	8631.19
498.821	8844.29
499.19	8922.03
499.559	9027.33
499.928	9203.15
500.298	9309.81
500.667	9512.52
501.036	9622.35
501.405	9754.77
501.774	9845.16
502.143	9961.09
502.512	10136.46
502.88	10217.36
503.249	10299.16
503.618	10460.74
503.987	10528.31
504.356	10669.32
504.724	10828.19
505.093	10910.22
505.462	10988.19
505.83	11174.85
506.199	11293.94
506.567	11476.76
506.936	11490.55
507.304	11763.98
507.672	11782.06
508.041	11936.86
508.409	12041.72
508.777	12238.1
509.145	12400.8
509.514	12337.08
509.882	12574.58
510.25	12667.92
510.618	12736.61
510.986	12798.08
511.354	12934.8
511.722	13147.9
512.09	13271.52
512.458	13213.66
512.826	13429.7
513.193	13591.06
513.561	13668.57
513.929	13775.01
514.297	13924.61
514.664	14051.16
515.032	14145.39
515.4	14244.6
515.767	14289.12
516.135	14426.51
516.502	14343.35
516.869	14711.93
517.237	14796.22
517.604	14791.25
517.972	14957.12
518.339	15092.48
518.706	15087.06
519.073	15220.62
519.44	15356.66
519.808	15513.26
520.175	15525.24
520.542	15751
520.909	15803.2
521.276	15926.81
521.643	16045.91
522.009	16141.95
522.376	16303.75
522.743	16386.69
523.11	16553.46
523.477	16738.54
523.843	16803.4
524.21	16990.74
524.577	17097.63
524.943	17200.68
525.31	17234.8
525.676	17433.21
526.043	17559.99
526.409	17586.66
526.776	17864.16
527.142	17924.05
527.508	17888.12
527.874	18192.97
528.241	18298.73
528.607	18333.76
528.973	18473.41
529.339	18584.6
529.705	18759.51
530.071	18867.53
530.437	18963.57
530.803	19123.56
531.169	19140.97
531.535	19269.1
531.901	19300.74
532.267	19375.08
532.632	19558.58
532.998	19639.26
533.364	19774.4
533.73	19804.9
534.095	19938.91
534.461	19953.6
534.826	20035.86
535.192	20229.75
535.557	20355.17
535.923	20263.2
536.288	20438.33
536.653	20549.97
537.019	20496.41
537.384	20629.74
537.749	20761.49
538.114	20760.58
538.479	20849.4
538.845	20968.71
539.21	20959.45
539.575	21127.58
539.94	21083.29
540.305	21216.17
540.67	21241.7
541.034	21384.75
541.399	21492.99
541.764	21619.32
542.129	21624.29
542.494	21734.8
542.858	21787.9
543.223	21861.35
543.587	21877.16
543.952	22045.52
544.316	21975.69
544.681	22097.5
545.045	22177.04
545.41	22382.46
545.774	22350.6
546.138	22360.77
546.503	22440.09
546.867	22526.64
547.231	22696.35
547.595	22710.59
547.959	22733.64
548.324	22899.28
548.688	22972.28
549.052	22994.2
549.416	23045.04
549.779	23127.3
550.143	23084.14
550.507	23375.2
550.871	23452.94
551.235	23463.56
551.599	23719.6
551.962	23616.55
552.326	23726.38
552.689	23963.89
553.053	23786.04
553.417	23915.3
553.78	24179.7
554.143	23986.94
554.507	24238.68
554.87	24346.7
555.234	24522.52
555.597	24363.88
555.96	24519.13
556.323	24612.23
556.686	24681.84
557.05	24831.21
557.413	24745.34
557.776	25003.64
558.139	25104.88
558.502	25161.15
558.865	25224.87
559.228	25503.74
559.59	25507.13
559.953	25533.34
560.316	25849.04
560.679	25771.75
561.041	26005.19
561.404	26011.52
561.767	26277.05
562.129	26136.49
562.492	26370.61
562.854	26462.36
563.217	26391.17
563.579	26482.02
563.941	26675.23
564.304	26851.5
564.666	26998.84
565.028	27127.2
565.39	27163.81
565.753	27315.89
566.115	27362.22
566.477	27443.8
566.839	27538.48
567.201	27722.43
567.563	27790.68
567.925	27931.69
568.287	28000.62
568.648	28131.46
569.01	28151.12
569.372	28428.41
569.734	28346.83
570.095	28401.74
570.457	28610.55
570.819	28784.78
571.18	28695.97
571.542	28940.48
571.903	28998.56
572.265	29117.2
572.626	29180.48
572.987	29317.65
573.349	29420.7
573.71	29582.72
574.071	29709.5
574.432	29718.31
574.794	29926.67
575.155	29900.68
575.516	29943.39
575.877	30123.05
576.238	30228.13
576.599	30356.26
576.96	30300.45
577.32	30462.7
577.681	30706.31
578.042	30735.24
578.403	30710.6
578.763	30949.24
579.124	30927.1
579.485	31234.88
579.845	31256.13
580.206	31386.75
580.566	31264.71
580.927	31536.8
581.287	31775.66
581.648	31719.84
582.008	31972.04
582.368	31878.71
582.728	32115.77
583.089	32151.02
583.449	32339.49
583.809	32433.27
584.169	32574.28
584.529	32529.54
584.889	32934.5
585.249	32889.08
585.609	32963.88
585.969	33306.24
586.329	33124.33
586.688	33354.83
587.048	33537.88
587.408	33491.55
587.768	33636.63
588.127	33662.39
588.487	33720.24
588.846	34127.01
589.206	33955.94
589.565	34083.62
589.925	34466.44
590.284	34561.35
590.643	34603.38
591.003	34722.25
591.362	35101.22
591.721	35026.2
592.08	35130.15
592.44	35291.95
592.799	35350.48
593.158	35442.01
593.517	35484.72
593.876	35691.04
594.235	35697.82
594.593	35893.29
594.952	35954.99
595.311	36006.96
595.67	36120.86
596.029	36412.38
596.387	36570.79
596.746	36662.54
597.104	36599.49
597.463	36600.62
597.822	37001.96
598.18	36894.17
598.538	36885.81
598.897	37263.2
599.255	36989.99
599.613	37775.96
599.972	37420.26
600.33	37670.87
600.688	37433.82
601.046	37799.23
601.404	37993.8
601.762	37913.81
602.12	38320.8
602.478	38188.37
602.836	38277.41
603.194	38282.38
603.552	38394.7
603.91	38337.98
604.268	38730.51
604.625	38577.29
604.983	38806.66
605.341	38726.21
605.698	38882.14
606.056	39005.98
606.413	39114
606.771	39289.81
607.128	39306.99
607.485	39221.34
607.843	39446.87
608.2	39621.78
608.557	39740.42
608.914	39554.44
609.272	39838.73
609.629	39987.2
609.986	40121.43
610.343	40067.42
610.7	40258.15
611.057	40210.92
611.414	40322.33
611.771	40334.31
612.127	40547.41
612.484	40618.14
612.841	40704.47
613.198	40580.4
613.554	40723.22
613.911	40896.55
614.267	41018.58
614.624	40961.63
614.98	41158.24
615.337	41309.87
615.693	41339.25
616.05	41415.63
616.406	41571.56
616.762	41337.67
617.118	41414.05
617.475	41551.9
617.831	41736.53
618.187	41806.36
618.543	41870.76
618.899	41982.62
619.255	41880.48
619.611	41917.77
619.967	42037.54
620.323	42183.07
620.678	42146.24
621.034	42022.4
621.39	42099.01
621.746	42158.89
622.101	42610.18
622.457	42320.47
622.812	42374.93
623.168	42562.27
623.523	42496.74
623.879	42515.27
624.234	42329.28
624.589	42521.59
624.945	42629.16
625.3	42645.43
625.655	42777.86
626.01	42751.87
626.365	42711.87
626.72	42698.31
627.075	42780.8
627.43	42814.69
627.785	42660.8
628.14	42831.64
628.495	42773.79
628.85	42805.88
629.205	42627.58
629.559	43041.13
629.914	42751.19
630.269	42743.73
630.623	42654.7
630.978	42555.72
631.332	42956.61
631.687	42888.14
632.041	42761.59
632.396	42894.69
632.75	42788.48
633.104	42838.87
633.459	42823.73
633.813	42646.34
634.167	42785.32
634.521	42583.29
634.875	42696.28
635.229	42680.23
635.583	42388.94
635.937	42546
636.291	42394.14
636.645	42551.2
636.999	42361.15
637.352	42566.79
637.706	42370.41
638.06	42533.12
638.413	42478.43
638.767	42461.93
639.121	42367.7
639.474	42115.73
639.828	42190.3
640.181	42205.9
640.534	42258.55
640.888	42071.66
641.241	41915.28
641.594	42129.74
641.947	42165.9
642.301	42083.41
642.654	42052
643.007	42108.5
643.36	41963.19
643.713	41927.26
644.066	42062.17
644.419	41814.49
644.771	41598
645.124	41168.64
645.477	41103.55
645.83	40855.65
646.182	40712.38
646.535	40630.12
646.888	40673.73
647.24	40551.02
647.593	40878.02
647.945	40679.16
648.298	40581.53
648.65	40366.62
649.002	40391.71
649.355	40567.52
649.707	40431.71
650.059	40645.26
650.411	41079.6
650.763	41124.34
651.115	41507.16
651.467	41438.91
651.819	41385.8
652.171	41350.33
652.523	41252.02
652.875	41183.1
653.227	41131.57
653.578	41385.35
653.93	41141.74
654.282	41017.45
654.633	41021.52
654.985	41242.31
655.337	40946.49
655.688	40994.63
656.039	41213.15
656.391	40815.88
656.742	40934.06
657.094	40854.97
657.445	41014.97
657.796	40950.34
658.147	40798.02
658.498	40829.43
658.849	40985.14
659.2	40811.13
659.551	40774.75
659.902	40926.83
660.253	40824.46
660.604	40970.9
660.955	40628.99
661.306	40792.6
661.656	40637.8
662.007	40934.74
662.358	40704.92
662.708	40716.9
663.059	40575.2
663.409	40465.15
663.76	40828.53
664.11	40770.45
664.461	40807.06
664.811	40694.75
665.161	40610.68
665.511	40604.13
665.862	40729.78
666.212	40711.47
666.562	40782.2
666.912	40679.61
667.262	40623.11
667.612	40740.17
667.962	40625.6
668.312	40585.15
668.662	40804.8
669.011	40565.49
669.361	40522.32
669.711	40471.03
670.06	40436.9
670.41	40408.88
670.76	40348.09
671.109	40559.61
671.459	40415.66
671.808	40357.36
672.157	40382.89
672.507	40246.63
672.856	40153.75
673.205	40346.51
673.554	40463.79
673.904	40261.09
674.253	40440.97
674.602	40250.24
674.951	39670.14
675.3	39553.31
675.649	40203.01
675.998	40054.99
676.346	40114.65
676.695	40254.31
677.044	40112.39
677.393	40159.17
677.741	40177.7
678.09	39963.24
678.438	39935.22
678.787	40121.66
679.135	39978.61
679.484	39691.39
679.832	39890.93
680.181	39772.97
680.529	39721.22
680.877	39657.04
681.225	39597.38
681.573	39805.73
681.922	39443.48
682.27	39457.27
682.618	39470.83
682.966	39278.06
683.314	39464.95
683.661	39323.94
684.009	39259.98
684.357	39162.59
684.705	39095.47
685.053	39137.73
685.4	39047.79
685.748	38846.44
686.095	38858.41
686.443	38719.89
686.79	38661.58
687.138	38772.99
687.485	38683.05
687.832	38598.31
688.18	38713.56
688.527	38451.19
688.874	38462.94
689.221	38530.51
689.568	38290.29
689.915	38138.66
690.262	38176.62
690.609	38027.47
690.956	37961.94
691.303	37874.26
691.65	37678.56
691.997	37790.64
692.344	37413.48
692.69	37556.75
693.037	37401.05
693.383	37239.7
693.73	37290.77
694.077	37091.23
694.423	37058.01
694.769	36938.69
695.116	36764.01
695.462	36679.71
695.808	36645.14
696.155	36783.21
696.501	36572.37
696.847	36362.89
697.193	36203.34
697.539	36271.36
697.885	36046.06
698.231	36041.31
698.577	36131.48
698.923	35985.49
699.269	35772.17
699.614	35587.76
699.96	35559.07
700.306	35642.68
700.651	35552.96
700.997	35393.19
701.342	35232.75
701.688	35238.62
702.033	35167.44
702.379	35148
702.724	34971.28
703.069	34981.68
703.415	34705.75
703.76	34739.2
704.105	34734.68
704.45	34562.93
704.795	34441.58
705.14	34401.81
705.485	34322.71
705.83	34162.04
706.175	34134.92
706.52	33899.67
706.865	33959.11
707.209	33725.67
707.554	33738.1
707.899	33921.59
708.243	33677.31
708.588	33652.9
708.932	33506.92
709.277	33383.75
709.621	33474.6
709.966	33248.17
710.31	33344.43
710.654	33008.85
710.998	33150.54
711.342	33126.59
711.687	32858.57
712.031	32797.78
712.375	32819.25
712.719	32794.39
713.063	32595.08
713.407	32747.39
713.75	32622.19
714.094	32562.76
714.438	32448.86
714.782	32439.6
715.125	32222.66
715.469	32329.09
715.812	32155.99
716.156	32045.49
716.499	32068.08
716.843	32078.93
717.186	32014.75
717.53	32180.62
717.873	31922.32
718.216	32039.16
718.559	31748.77
718.902	31632.16
719.246	31746.28
719.589	31515.33
719.932	31533.18
720.275	31468.55
720.617	31353.07
720.96	31367.31
721.303	31257.94
721.646	31312.85
721.989	31046.19
722.331	31145.85
722.674	31130.25
723.016	31187.88
723.359	31044.83
723.701	31031.95
724.044	30803.03
724.386	30665.63
724.729	30866.98
725.071	30731.4
725.413	30660.66
725.755	30777.04
726.097	30469.03
726.439	30247.34
726.782	30385.19
727.124	30459.54
727.465	30243.27
727.807	30321.69
728.149	30178.64
728.491	30192.65
728.833	30273.1
729.175	30068.81
729.516	29990.85
729.858	30037.63
730.199	29955.82
730.541	29878.31
730.882	29887.35
731.224	29970.96
731.565	29747.69
731.906	29726.68
732.248	29813
732.589	29703.4
732.93	29537.75
733.271	29527.81
733.612	29534.36
733.953	29609.84
734.294	29384.09
734.635	29355.16
734.976	29398.1
735.317	29198.55
735.658	29227.93
735.999	29315.84
736.339	29133.02
736.68	29194.26
737.021	29111.78
737.361	29091.66
737.702	29216.86
738.042	28998.56
738.383	28901.16
738.723	28956.3
739.063	28895.51
739.404	28865
739.744	28852.8
740.084	28685.35
740.424	28702.52
740.764	28615.29
741.104	28721.96
741.444	28596.54
741.784	28487.39
742.124	28571.23
742.464	28495.75
742.804	28417.56
743.143	28277.45
743.483	28511.34
743.823	28251.46
744.162	28286.49
744.502	28245.81
744.841	28117.45
745.181	28232.93
745.52	28022.54
745.86	28184.34
746.199	28068.64
746.538	27971.69
746.877	27972.15
747.216	27869.55
747.556	27906.61
747.895	27930.34
748.234	27807.86
748.573	27869.55
748.911	27702.55
749.25	27610.12
749.589	27604.92
749.928	27555.43
750.267	27687.18
750.605	27503.01
750.944	27411.48
751.283	27317.93
751.621	27428.43
751.96	27211.26
752.298	27404.25
752.636	27350.47
752.975	27155.9
753.313	27011.72
753.651	27140.76
753.989	26948.22
754.327	26941.44
754.666	26880.42
755.004	26907.32
755.342	26845.62
755.679	26779.18
756.017	26604.05
756.355	26771.73
756.693	26578.06
757.031	26600.66
757.368	26437.04
757.706	26360.66
758.044	26255.81
758.381	26291.51
758.719	26167.45
759.056	26287.22
759.394	26047.22
759.731	25942.37
760.068	25867.57
760.405	25770.4
760.743	25658.76
761.08	25911.64
761.417	25690.4
761.754	25601.81
762.091	25585.77
762.428	25347.36
762.765	25369.73
763.102	25331.76
763.438	25242.73
763.775	25042.28
764.112	24967.03
764.449	25091.09
764.785	24856.52
765.122	24743.3
765.458	24780.37
765.795	24854.04
766.131	24671.22
766.467	24612.91
766.804	24485.91
767.14	24292.24
767.476	24308.29
767.812	24242.75
768.148	24240.04
768.485	24086.37
768.821	23968.64
769.157	23889.54
769.492	23825.36
769.828	23830.79
770.164	23625.82
770.5	23673.05
770.836	23464.02
771.171	23496.11
771.507	23345.37
771.842	23264.25
772.178	23269.44
772.513	23173.18
772.849	23151.71
773.184	23039.17
773.519	22975.89
773.855	22838.5
774.19	22749.91
774.525	22604.38
774.86	22666.97
775.195	22645.28
775.53	22439.41
775.865	22310.37
776.2	22289.36
776.535	22090.94
776.87	22092.75
777.205	21973.66
777.539	21917.84
777.874	21869.71
778.209	21827.45
778.543	21749.03
778.878	21531.64
779.212	21552.43
779.547	21431.98
779.881	21482.37
780.215	21294.81
780.55	21374.13
780.884	21177.97
781.218	21062.05
781.552	21168.71
781.886	20943.18
782.22	20824.09
782.554	20876.06
782.888	20668.84
783.222	20598.78
783.556	20499.57
783.889	20422.06
784.223	20316.08
784.557	20367.6
784.89	20407.6
785.224	20227.94
785.557	19977.1
785.891	20067.04
786.224	20001.28
786.558	19945.46
786.891	19871.79
787.224	19782.08
787.557	19703.44
787.891	19618.02
788.224	19502.54
788.557	19618.02
788.89	19487.62
789.223	19526.04
789.556	19273.39
789.888	19271.58
790.221	19184.13
790.554	18995.88
790.887	19117.69
791.219	18929.22
791.552	18848.09
791.884	18787.3
792.217	18745.72
792.549	18644.48
792.882	18610.13
793.214	18362.23
793.546	18543.92
793.879	18445.62
794.211	18333.08
794.543	18423.02
794.875	18254.66
795.207	18338.27
795.539	18189.58
795.871	18156.36
796.203	18001.56
796.535	17939.87
796.867	17903.94
797.198	17785.75
797.53	17854.22
797.862	17663.72
798.193	17710.95
798.525	17580.55
798.856	17526.77
799.188	17449.48
799.519	17435.47
799.85	17244.07
800.182	17266.89
800.513	17286.55
800.844	17102.15
801.175	17230.73
801.506	17167.68
801.837	17032.55
802.168	17023.51
802.499	16957.52
802.83	16862.61
803.161	16848.14
803.491	16884.08
803.822	16887.92
804.153	16801.14
804.483	16615.38
804.814	16532.67
805.145	16575.61
805.475	16552.11
805.805	16435.05
806.136	16501.26
806.466	16416.52
806.796	16350.3
807.126	16225.79
807.457	16238.22
807.787	16272.79
808.117	16084.1
808.447	16039.8
808.777	16062.85
809.107	16020.37
809.436	15946.47
809.766	15985.57
810.096	15913.71
810.426	15779.02
810.755	15792.81
811.085	15769.98
811.414	15747.38
811.744	15603.43
812.073	15581.51
812.403	15488.86
812.732	15457.67
813.061	15551.68
813.39	15430.78
813.719	15327.05
814.049	15465.58
814.378	15388.75
814.707	15242.76
815.036	15229.66
815.365	15207.96
815.693	15024.69
816.022	15145.14
816.351	15046.84
816.68	14921.42
817.008	14999.83
817.337	14866.95
817.665	14849.55
817.994	14911.47
818.322	14786.5
818.651	14762.55
818.979	14760.29
819.307	14756.22
819.636	14715.55
819.964	14572.95
820.292	14625.15
820.62	14673.74
820.948	14542.44
821.276	14726.62
821.604	14573.63
821.932	14611.82
822.259	14593.97
822.587	14611.14
822.915	14540.41
823.243	14645.04
823.57	14580.18
823.898	14566.17
824.225	14433.29
824.553	14516.23
824.88	14489.11
825.207	14630.35
825.535	14443.46
825.862	14445.95
826.189	14541.76
826.516	14517.13
826.843	14580.86
827.17	14552.16
827.497	14637.81
827.824	14460.41
828.151	14562.55
828.478	14473.52
828.805	14563.01
829.131	14450.47
829.458	14438.72
829.785	14343.13
830.111	14427.19
830.438	14521.2
830.764	14497.47
831.09	14398.27
831.417	14412.5
831.743	14346.52
832.069	14376.35
832.395	14307.42
832.722	14371.6
833.048	14365.05
833.374	14422.67
833.7	14288.44
834.026	14322.56
834.351	14341.77
834.677	14330.47
835.003	14337.48
835.329	14387.87
835.654	14254.31
835.98	14221.1
836.306	14173.64
836.631	14112.62
836.956	14232.62
837.282	14143.58
837.607	14157.14
837.932	14001.21
838.258	14086.41
838.583	14116.46
838.908	13953.98
839.233	13995.79
839.558	14026.52
839.883	13926.19
840.208	13852.74
840.533	13906.53
840.858	13888
841.182	13934.1
841.507	13911.95
841.832	13795.34
842.156	13788.56
842.481	13812.07
842.805	13734.55
843.13	13716.48
843.454	13669.7
843.778	13616.14
844.103	13572.3
844.427	13531.62
844.751	13545.18
845.075	13482.13
845.399	13449.36
845.723	13423.83
846.047	13371.63
846.371	13340.44
846.695	13335.69
847.019	13193.1
847.343	13088.7
847.666	13101.8
847.99	12992.43
848.313	12965.53
848.637	12926.67
848.96	12820.91
849.284	12844.86
849.607	12791.53
849.931	12700.01
850.254	12676.5
850.577	12604.41
850.9	12477.41
851.223	12528.94
851.546	12455.94
851.869	12351.77
852.192	12400.8
852.515	12328.26
852.838	12221.83
853.161	12265.67
853.483	12165.56
853.806	12114.48
854.129	12108.61
854.451	12103.64
854.774	12027.93
855.096	11945
855.419	11909.52
855.741	11884.21
856.063	11835.4
856.385	11781.84
856.708	11771.44
857.03	11745
857.352	11806.92
857.674	11634.5
857.996	11675.85
858.318	11632.91
858.64	11565.57
858.961	11535.97
859.283	11493.26
859.605	11425.91
859.926	11496.42
860.248	11383.66
860.57	11356.54
860.891	11368.06
861.212	11294.84
861.534	11380.49
861.855	11236.09
862.176	11253.04
862.498	11306.6
862.819	11252.59
863.14	11237.9
863.461	11178.24
863.782	11147.96
864.103	11068.64
864.424	11114.96
864.745	11095.75
865.065	10995.42
865.386	10993.61
865.707	10943.67
866.027	11022.31
866.348	10957.9
866.668	10980.05
866.989	10925.14
867.309	10797.68
867.63	10945.47
867.95	10858.47
868.27	10780.96
868.59	10859.83
868.91	10822.77
869.23	10724.01
869.55	10758.36
869.87	10829.32
870.19	10762.43
870.51	10818.25
870.83	10681.08
871.15	10676.56
871.469	10651.02
871.789	10683.79
872.109	10704.35
872.428	10536.45
872.748	10647.18
873.067	10571.7
873.386	10600.85
873.706	10564.02
874.025	10506.39
874.344	10513.4
874.663	10500.74
874.982	10466.84
875.301	10383.91
875.62	10486.73
875.939	10463.91
876.258	10403.34
876.577	10376.45
876.896	10335.77
877.214	10340.07
877.533	10327.19
877.852	10317.47
878.17	10300.29
878.489	10274.98
878.807	10350.46
879.125	10317.24
879.444	10242.22
879.762	10156.12
880.08	10233.63
880.398	10137.81
880.716	10214.42
881.034	10115.21
881.352	10114.76
881.67	10063.46
881.988	10092.62
882.306	10078.61
882.624	10049.91
882.941	10029.79
883.259	9988.89
883.577	9963.58
883.894	9964.71
884.212	9914.32
884.529	9928.78
884.846	9924.48
885.164	9816.69
885.481	9822.79
885.798	9806.75
886.115	9764.49
886.432	9719.29
886.75	9762.46
887.067	9747.09
887.383	9691.04
887.7	9717.71
888.017	9600.65
888.334	9617.83
888.651	9612.85
888.967	9564.95
889.284	9546.87
889.6	9505.29
889.917	9335.8
890.233	9428.23
890.55	9376.02
890.866	9418.51
891.182	9336.25
891.498	9330.38
891.815	9401.79
892.131	9316.37
892.447	9297.61
892.763	9227.1
893.079	9225.75
893.395	9120.21
893.71	9170.83
894.026	9163.37
894.342	9102.81
894.657	9010.84
894.973	9083.6
895.289	9052.87
895.604	9022.59
895.92	8914.57
896.235	8950.27
896.55	8938.07
896.865	8905.53
897.181	8886.77
897.496	8783.95
897.811	8819.2
898.126	8783.72
898.441	8673.67
898.756	8709.83
899.071	8700.34
899.386	8641.35
899.7	8551.41
900.015	8524.3
900.33	8454.69
900.644	8477.29
900.959	8518.19
901.273	8391.42
901.588	8426.45
901.902	8355.26
902.216	8343.96
902.531	8381.25
902.845	8288.14
903.159	8300.35
903.473	8254.7
903.787	8209.5
904.101	8160.01
904.415	8142.61
904.729	8122.72
905.042	8084.31
905.356	8035.95
905.67	8018.77
905.984	8072.33
906.297	8031.65
906.611	7936.29
906.924	7953.01
907.237	7886.35
907.551	7824.88
907.864	7807.93
908.177	7785.11
908.491	7791.21
908.804	7732.9
909.117	7679.35
909.43	7664.43
909.743	7649.74
910.056	7678.22
910.368	7500.82
910.681	7513.47
910.994	7472.12
911.307	7511.21
911.619	7392.8
911.932	7403.42
912.244	7397.77
912.557	7294.27
912.869	7322.52
913.181	7272.35
913.494	7318.45
913.806	7220.6
914.118	7194.61
914.43	7143.09
914.742	7174.95
915.054	7115.75
915.366	7100.6
915.678	7079.14
915.99	6980.61
916.302	7025.58
916.613	7026.71
916.925	6980.38
917.236	6965.69
917.548	6883.21
917.859	6839.59
918.171	6842.76
918.482	6750.56
918.794	6790.33
919.105	6732.03
919.416	6681.86
919.727	6642.09
920.038	6659.49
920.349	6616.1
920.66	6536.1
920.971	6602.76
921.282	6583.78
921.593	6470.34
921.903	6495.87
922.214	6502.43
922.525	6435.99
922.835	6384.01
923.146	6371.81
923.456	6362.32
923.767	6371.58
924.077	6311.02
924.387	6273.51
924.697	6268.54
925.008	6266.5
925.318	6221.53
925.628	6228.54
925.938	6179.27
926.248	6090.24
926.558	6053.17
926.867	6067.86
927.177	6086.85
927.487	5989.22
927.796	5990.12
928.106	5984.7
928.416	5956.68
928.725	5953.06
929.034	5909.9
929.344	5903.12
929.653	5840.98
929.962	5824.03
930.271	5766.63
930.581	5762.79
930.89	5737.02
931.199	5725.73
931.508	5709.68
931.817	5676.91
932.125	5680.75
932.434	5621.32
932.743	5546.07
933.051	5563.02
933.36	5529.8
933.669	5505.17
933.977	5494.77
934.286	5496.13
934.594	5409.12
934.902	5408.22
935.21	5353.53
935.519	5356.7
935.827	5350.14
936.135	5280.54
936.443	5273.53
936.751	5280.77
937.059	5254.1
937.367	5217.94
937.674	5231.73
937.982	5221.33
938.29	5191.5
938.597	5169.58
938.905	5120.09
939.213	5079.87
939.52	5079.87
939.827	5060.43
940.135	5051.84
940.442	5021.56
940.749	4997.83
941.056	5001.68
941.363	4948.34
941.67	4948.8
941.977	4929.81
942.284	4869.93
942.591	4840.78
942.898	4878.74
943.205	4788.57
943.511	4774.34
943.818	4877.84
944.125	4748.35
944.431	4766.65
944.738	4767.11
945.044	4706.09
945.35	4703.38
945.657	4677.84
945.963	4649.37
946.269	4620.67
946.575	4626.77
946.881	4562.59
947.187	4563.5
947.493	4575.92
947.799	4545.87
948.105	4521.92
948.41	4521.69
948.716	4475.81
949.022	4459.77
949.327	4425.19
949.633	4408.02
949.938	4421.13
950.244	4398.98
950.549	4344.29
950.854	4368.25
951.16	4290.51
951.465	4296.84
951.77	4276.72
952.075	4204.64
952.38	4242.83
952.685	4224.75
952.99	4214.13
953.294	4165.77
953.599	4158.99
953.904	4108.59
954.209	4077.41
954.513	4093.45
954.818	4111.53
955.122	4065.43
955.426	4032.89
955.731	4071.08
956.035	4003.74
956.339	4029.72
956.643	3976.62
956.948	3949.27
957.252	3970.07
957.556	3956.96
957.86	3912.67
958.163	3891.42
958.467	3885.32
958.771	3876.06
959.075	3897.98
959.378	3857.07
959.682	3834.48
959.985	3801.26
960.289	3767.36
960.592	3805.32
960.896	3750.64
961.199	3749.05
961.502	3742.05
961.805	3684.65
962.108	3728.26
962.411	3642.16
962.714	3682.84
963.017	3685.78
963.32	3666.8
963.623	3607.36
963.926	3605.33
964.228	3567.59
964.531	3537.99
964.833	3515.84
965.136	3540.92
965.438	3532.11
965.741	3486.69
966.043	3517.42
966.345	3462.06
966.648	3481.49
966.95	3497.54
967.252	3464.54
967.554	3443.07
967.856	3419.8
968.158	3368.95
968.46	3364.88
968.761	3339.57
969.063	3323.75
969.365	3310.2
969.666	3306.58
969.968	3267.94
970.269	3297.99
970.571	3271.33
970.872	3254.83
971.174	3230.42
971.475	3236.53
971.776	3189.07
972.077	3169.18
972.378	3167.6
972.679	3191.78
972.98	3139.8
973.281	3139.58
973.582	3147.94
973.883	3114.72
974.183	3104.1
974.484	3090.09
974.785	3047.38
975.085	3090.54
975.386	3051.9
975.686	3023.2
975.986	3027.27
976.287	3017.77
976.587	2976.42
976.887	2962.63
977.187	2954.95
977.487	2936.42
977.787	2908.17
978.087	2906.59
978.387	2909.08
978.687	2884.22
978.987	2914.95
979.286	2876.31
979.586	2866.37
979.885	2802.19
980.185	2838.34
980.484	2811.9
980.784	2831.34
981.083	2785.46
981.382	2764.67
981.682	2808.51
981.981	2764.45
982.28	2719.7
982.579	2723.54
982.878	2734.17
983.177	2750.44
983.475	2691
983.774	2676.54
984.073	2716.54
984.372	2662.75
984.67	2670.66
984.969	2664.56
985.267	2672.02
985.566	2618.46
985.864	2598.12
986.162	2605.81
986.461	2579.59
986.759	2585.24
987.057	2582.76
987.355	2548.41
987.653	2546.37
987.951	2502.76
988.249	2512.7
988.547	2483.32
988.844	2499.6
989.142	2482.65
989.44	2478.13
989.737	2457.79
990.035	2415.76
990.332	2461.63
990.63	2433.38
990.927	2424.57
991.224	2398.13
991.521	2358.36
991.819	2392.48
992.116	2375.3
992.413	2356.55
992.71	2329.2
993.006	2307.74
993.303	2340.5
993.6	2314.97
993.897	2315.87
994.193	2285.59
994.49	2277
994.787	2272.03
995.083	2279.94
995.379	2275.65
995.676	2243.33
995.972	2233.84
996.268	2241.52
996.565	2186.61
996.861	2181.41
997.157	2193.84
997.453	2189.09
997.749	2165.59
998.044	2167.17
998.34	2122.43
998.636	2113.16
998.932	2136.44
999.227	2101.64
999.523	2093.28
999.818	2100.06
1000.114	2077.91
1000.409	2075.88
1000.704	2064.8
1001	2055.99
1001.295	2052.83
1001.59	2031.36
1001.885	2030.23
1002.18	1989.78
1002.475	1971.02
1002.77	2010.12
1003.065	1993.39
1003.359	1995.43
1003.654	1973.51
1003.949	1948.2
1004.243	1946.16
1004.538	1922.66
1004.832	1890.35
1005.127	1916.79
1005.421	1925.83
1005.715	1860.74
1006.009	1887.41
1006.304	1883.11
1006.598	1870.91
1006.892	1844.7
1007.186	1808.31
1007.48	1835.66
1007.773	1824.13
1008.067	1806.05
1008.361	1780.74
1008.655	1803.57
1008.948	1790.46
1009.242	1734.87
1009.535	1744.13
1009.829	1718.82
1010.122	1720.18
1010.415	1744.13
1010.708	1706.62
1011.001	1704.59
1011.295	1715.66
1011.588	1701.2
1011.881	1695.32
1012.173	1676.11
1012.466	1650.13
1012.759	1628.66
1013.052	1626.4
1013.344	1617.81
1013.637	1618.26
1013.93	1595.89
1014.222	1600.18
1014.514	1597.25
1014.807	1570.35
1015.099	1561.77
1015.391	1567.19
1015.683	1544.59
1015.976	1533.29
1016.268	1539.17
1016.56	1537.81
1016.851	1510.02
1017.143	1528.55
1017.435	1536.46
1017.727	1506.85
1018.018	1479.28
1018.31	1481.32
1018.602	1470.02
1018.893	1454.43
1019.185	1397.7
1019.476	1426.4
1019.767	1438.83
1020.058	1394.31
1020.35	1424.37
1020.641	1409.23
1020.932	1392.73
1021.223	1374.65
1021.514	1381.21
1021.804	1346.63
1022.095	1363.13
1022.386	1359.06
1022.677	1324.26
1022.967	1340.98
1023.258	1312.28
1023.548	1308.67
1023.839	1275.45
1024.129	1303.02
1024.419	1302.11
1024.709	1273.64
1025	1255.79
1025.29	1255.11
1025.58	1234.77
1025.87	1239.06
1026.16	1241.78
1026.449	1239.06
1026.739	1213.3
1027.029	1222.79
1027.319	1212.85
1027.608	1218.5
1027.898	1180.53
1028.187	1183.7
1028.477	1173.53
1028.766	1153.42
1029.055	1144.15
1029.344	1174.66
1029.634	1130.14
1029.923	1113.42
1030.212	1125.39
1030.501	1112.97
1030.79	1102.57
1031.078	1117.26
1031.367	1090.37
1031.656	1075.23
1031.945	1073.87
1032.233	1105.06
1032.522	1084.94
1032.81	1053.76
1033.099	1052.18
1033.387	1055.34
1033.675	1055.79
1033.963	1046.53
1034.251	1043.81
1034.54	1018.05
1034.828	1025.74
1035.116	1020.09
1035.403	1013.08
1035.691	987.77
1035.979	988.22
1036.267	1002.01
1036.554	974.44
1036.842	977.6
1037.129	941.44
1037.417	969.01
1037.704	978.96
1037.992	962.46
1038.279	938.73
1038.566	957.04
1038.853	957.04
1039.14	957.04
