Data from hue_50_FLMS001491_11.txt Node
Date: Mon Feb 06 15:09:39 GMT 2017
User: dcchb
Spectrometer: FLMS00149
Trigger mode: 0
Integration Time (sec): 2.000000E-2
Scans to average: 10
Electric dark correction enabled: true
Nonlinearity correction enabled: false
Boxcar width: 0
XAxis mode: Wavelengths
Number of Pixels in Spectrum: 2048
>>>>>Begin Spectral Data<<<<<
341.393	-5.85
341.776	-5.85
342.16	-5.85
342.543	-66.86
342.927	-74.77
343.31	-72.51
343.693	-81.33
344.077	-55.79
344.46	-80.42
344.843	-47.2
345.226	-42.23
345.61	-45.17
345.993	2.97
346.376	-6.3
346.759	1.61
347.142	36.19
347.525	27.6
347.908	58.56
348.291	87.71
348.674	98.56
349.057	117.77
349.44	122.28
349.823	134.94
350.206	162.51
350.588	202.96
350.971	202.73
351.354	231.43
351.737	240.25
352.119	266.91
352.502	263.75
352.884	276.18
353.267	278.44
353.65	283.18
354.032	292.68
354.414	303.07
354.797	320.47
355.179	329.51
355.562	338.55
355.944	344.2
356.326	332
356.709	342.84
357.091	321.15
357.473	340.13
357.855	347.14
358.238	328.61
358.62	350.08
359.002	342.62
359.384	344.2
359.766	327.7
360.148	324.99
360.53	361.83
360.912	346.23
361.294	335.84
361.676	340.81
362.057	340.13
362.439	332.22
362.821	317.76
363.203	338.1
363.584	329.51
363.966	327.25
364.348	335.84
364.729	325.9
365.111	307.82
365.493	318.44
365.874	321.15
366.256	322.28
366.637	303.75
367.019	317.53
367.4	337.87
367.781	324.54
368.163	301.49
368.544	315.73
368.925	300.81
369.306	333.35
369.688	320.7
370.069	293.35
370.45	296.97
370.831	320.25
371.212	320.25
371.593	334.48
371.974	327.03
372.355	305.33
372.736	316.63
373.117	317.99
373.498	328.83
373.879	330.87
374.26	317.76
374.641	299.91
375.021	331.32
375.402	325.67
375.783	317.76
376.163	320.25
376.544	320.92
376.925	342.39
377.305	339.45
377.686	324.09
378.066	322.05
378.447	322.28
378.827	323.18
379.208	341.04
379.588	341.71
379.968	337.42
380.349	341.94
380.729	343.75
381.109	332.67
381.489	332.45
381.87	332.45
382.25	317.31
382.63	351.66
383.01	334.26
383.39	346.91
383.77	364.31
384.15	340.81
384.53	334.48
384.91	353.47
385.29	351.21
385.67	339.45
386.049	348.27
386.429	346.91
386.809	354.6
387.189	348.27
387.568	337.42
387.948	363.63
388.328	336.74
388.707	366.8
389.087	355.73
389.466	337.65
389.846	354.6
390.225	355.05
390.605	352.79
390.984	356.18
391.363	365.89
391.743	365.22
392.122	353.24
392.501	353.92
392.881	381.04
393.26	372.22
393.639	378.55
394.018	377.65
394.397	371.09
394.776	380.58
395.155	392.79
395.534	361.83
395.913	397.53
396.292	369.06
396.671	360.7
397.05	367.25
397.429	356.63
397.808	371.77
398.186	369.96
398.565	371.09
398.944	377.42
399.323	388.72
399.701	374.03
400.08	390.53
400.458	376.52
400.837	378.32
401.215	396.18
401.594	378.55
401.972	378.32
402.351	387.36
402.729	387.81
403.107	367.02
403.486	395.95
403.864	410.86
404.242	390.53
404.62	387.81
404.999	384.65
405.377	430.53
405.755	395.05
406.133	422.62
406.511	414.25
406.889	406.57
407.267	416.74
407.645	407.25
408.023	381.04
408.401	406.12
408.779	396.18
409.156	429.85
409.534	417.64
409.912	412.22
410.29	411.99
410.667	411.32
411.045	421.26
411.422	450.86
411.8	425.1
412.178	438.21
412.555	432.79
412.933	447.7
413.31	437.76
413.687	451.99
414.065	438.21
414.442	448.6
414.819	455.38
415.197	452.9
415.574	468.49
415.951	468.26
416.328	461.03
416.705	461.94
417.082	455.61
417.46	477.98
417.837	474.14
418.214	449.28
418.591	460.58
418.967	455.84
419.344	470.75
419.721	492.44
420.098	502.16
420.475	508.04
420.852	490.64
421.228	483.86
421.605	484.76
421.982	489.05
422.358	491.99
422.735	482.05
423.111	514.82
423.488	529.73
423.864	519.56
424.241	511.2
424.617	512.33
424.994	514.37
425.37	507.36
425.746	508.94
426.123	524.08
426.499	533.57
426.875	532.9
427.251	499.9
427.627	530.64
428.003	533.35
428.379	548.71
428.756	555.04
429.132	534.03
429.507	560.01
429.883	560.92
430.259	556.85
430.635	578.77
431.011	561.6
431.387	571.54
431.763	575.83
432.138	588.26
432.514	576.51
432.89	586.68
433.265	594.81
433.641	607.02
434.016	592.56
434.392	597.07
434.767	609.96
435.143	616.74
435.518	614.25
435.894	620.12
436.269	637.98
436.644	630.29
437.02	619.45
437.395	640.92
437.77	635.72
438.145	640.24
438.52	650.41
438.895	646.79
439.271	657.19
439.646	645.44
440.021	656.73
440.395	673.68
440.77	652.44
441.145	684.98
441.52	691.54
441.895	667.13
442.27	682.72
442.645	684.53
443.019	689.73
443.394	695.15
443.769	680.91
444.143	675.72
444.518	728.82
444.892	709.16
445.267	705.55
445.641	715.04
446.016	742.38
446.39	741.48
446.764	727.92
447.139	720.46
447.513	732.66
447.887	722.5
448.262	732.89
448.636	748.94
449.01	732.21
449.384	748.48
449.758	765.66
450.132	779.67
450.506	757.3
450.88	764.3
451.254	771.31
451.628	784.19
452.002	790.74
452.376	762.27
452.75	796.39
453.123	789.16
453.497	813.79
453.871	783.74
454.244	825.77
454.618	824.41
454.992	847.46
455.365	833
455.739	840.23
456.112	869.84
456.486	851.08
456.859	873.9
457.232	883.62
457.606	881.36
457.979	877.07
458.352	918.2
458.725	888.14
459.099	914.13
459.472	911.19
459.845	932.43
460.218	949.16
460.591	935.82
460.964	943.51
461.337	972.21
461.71	976.5
462.083	1000.45
462.456	981.47
462.829	1012.88
463.201	1032.54
463.574	1020.79
463.947	1044.29
464.32	1072.09
464.692	1096.72
465.065	1088.81
465.438	1108.25
465.81	1131.52
466.183	1122.48
466.555	1130.39
466.928	1174.01
467.3	1166.78
467.672	1172.43
468.045	1227.79
468.417	1206.32
468.789	1250.16
469.161	1262.37
469.534	1252.65
469.906	1313.21
470.278	1338.98
470.65	1337.85
471.022	1378.07
471.394	1385.53
471.766	1421.23
472.138	1423.27
472.51	1465.3
472.882	1479.99
473.253	1554.34
473.625	1559.54
473.997	1591.17
474.369	1611.29
474.74	1641.34
475.112	1643.6
475.484	1723.15
475.855	1764.73
476.227	1846.53
476.598	1860.32
476.97	1896.7
477.341	1967.89
477.713	2016.7
478.084	2029.35
478.455	2091.27
478.827	2130.14
479.198	2217.37
479.569	2272.28
479.94	2328.1
480.311	2396.58
480.682	2460.08
481.053	2580.98
481.424	2604.03
481.795	2682.44
482.166	2785.27
482.537	2880.18
482.908	2967.41
483.279	2996.33
483.65	3078.82
484.021	3229.55
484.391	3341.18
484.762	3374.4
485.133	3452.82
485.503	3565.58
485.874	3671.57
486.244	3729.2
486.615	3901.62
486.985	3978.45
487.356	4077.44
487.726	4189.75
488.097	4305.23
488.467	4406.69
488.837	4578.89
489.207	4667.02
489.578	4799.68
489.948	4941.59
490.318	4986.34
490.688	5117.86
491.058	5300.68
491.428	5408.02
491.798	5517.62
492.168	5716.26
492.538	5793.55
492.908	5921
493.278	6011.85
493.648	6121.45
494.017	6286.42
494.387	6384.95
494.757	6556.69
495.126	6689.34
495.496	6758.27
495.866	6914.65
496.235	7102.89
496.605	7205.26
496.974	7247.97
497.344	7435.31
497.713	7515.76
498.082	7600.73
498.452	7856.09
498.821	7912.36
499.19	8002.98
499.559	8168.63
499.928	8257.89
500.298	8376.76
500.667	8518
501.036	8609.07
501.405	8698.78
501.774	8846.35
502.143	8971.09
502.512	9029.4
502.88	9194.59
503.249	9228.71
503.618	9378.09
503.987	9470.29
504.356	9600
504.724	9657.85
505.093	9835.25
505.462	9906.66
505.83	9977.84
506.199	10148.01
506.567	10257.61
506.936	10300.77
507.304	10503.93
507.672	10630.26
508.041	10685.4
508.409	10727.2
508.777	10819.4
509.145	10994.77
509.514	11048.33
509.882	11242.22
510.25	11236.57
510.618	11402.21
510.986	11398.15
511.354	11595.43
511.722	11713.62
512.09	11897.34
512.458	11822.99
512.826	11948.41
513.193	12096.43
513.561	12106.38
513.929	12250.33
514.297	12409.42
514.664	12448.97
515.032	12561.05
515.4	12602.18
515.767	12794.27
516.135	12876.3
516.502	12864.1
516.869	13126.91
517.237	13129.17
517.604	13068.61
517.972	13366
518.339	13415.49
518.706	13470.18
519.073	13608.03
519.44	13643.74
519.808	13931.64
520.175	13827.01
520.542	13992.43
520.909	14120.79
521.276	14172.31
521.643	14371.4
522.009	14363.27
522.376	14538.4
522.743	14640.32
523.11	14737.27
523.477	14871.95
523.843	14919.18
524.21	15156.69
524.577	15199.63
524.943	15295.67
525.31	15461.77
525.676	15575.66
526.043	15696.56
526.409	15737.47
526.776	15905.15
527.142	15892.04
527.508	16029.66
527.874	16230.79
528.241	16221.97
528.607	16235.99
528.973	16533.38
529.339	16539.03
529.705	16741.28
530.071	16773.82
530.437	16802.52
530.803	17053.37
531.169	17045.91
531.535	17125.23
531.901	17163.19
532.267	17260.37
532.632	17424.88
532.998	17459.23
533.364	17532.45
533.73	17646.8
534.095	17735.83
534.461	17868.26
534.826	17874.59
535.192	18027.12
535.557	18146.44
535.923	18132.88
536.288	18249.27
536.653	18258.08
537.019	18303.73
537.384	18434.8
537.749	18526.32
538.114	18516.38
538.479	18549.37
538.845	18568.58
539.21	18651.97
539.575	18801.57
539.94	18802.02
540.305	18956.82
540.67	18907.78
541.034	19027.1
541.399	19090.37
541.764	19156.36
542.129	19220.99
542.494	19372.4
542.858	19373.3
543.223	19313.87
543.587	19550.7
543.952	19583.69
544.316	19626.18
544.681	19516.13
545.045	19736.23
545.41	19867.53
545.774	19867.98
546.138	19992.72
546.503	20091.7
546.867	19971.48
547.231	20260.96
547.595	20182.32
547.959	20378.25
548.324	20362.43
548.688	20340.51
549.052	20468.42
549.416	20533.27
549.779	20432.71
550.143	20542.99
550.507	20716.55
550.871	20775.75
551.235	20800.39
551.599	21049.42
551.962	20961.29
552.326	21082.64
552.689	21172.8
553.053	21085.58
553.417	21290.09
553.78	21453.93
554.143	21391.1
554.507	21477.66
554.87	21592.91
555.234	21799.23
555.597	21708.38
555.96	21761.94
556.323	21901.83
556.686	21961.71
557.05	22093.46
557.413	22125.77
557.776	22191.76
558.139	22356.28
558.502	22418.42
558.865	22547.46
559.228	22592.43
559.59	22649.38
559.953	22652.99
560.316	22921.46
560.679	22973.66
561.041	23091.17
561.404	23150.83
561.767	23294.56
562.129	23281.45
562.492	23564.83
562.854	23543.82
563.217	23434.21
563.579	23477.38
563.941	23704.94
564.304	23847.76
564.666	24119.62
565.028	24022.45
565.39	24101.09
565.753	24191.26
566.115	24267.41
566.477	24460.85
566.839	24447.07
567.201	24829.21
567.563	24719.15
567.925	24982.87
568.287	24950.56
568.648	24981.07
569.01	25155.07
569.372	25294.28
569.734	25222.19
570.095	25471.22
570.457	25533.14
570.819	25600.71
571.18	25735.17
571.542	25734.94
571.903	25927.03
572.265	25931.32
572.626	25879.8
572.987	26098.33
573.349	26235.72
573.71	26325.21
574.071	26430.29
574.432	26479.56
574.794	26625.99
575.155	26739.44
575.516	26542.16
575.877	26728.37
576.238	26732.43
576.599	27105.76
576.96	26987.12
577.32	27130.16
577.681	27216.49
578.042	27401.34
578.403	27376.94
578.763	27408.12
579.124	27590.04
579.485	27691.05
579.845	27943.47
580.206	27769.02
580.566	27898.96
580.927	27964.26
581.287	28185.95
581.648	28177.37
582.008	28435.44
582.368	28386.17
582.728	28566.96
583.089	28540.97
583.449	28592.72
583.809	28767.63
584.169	28917.23
584.529	28971.7
584.889	29197.45
585.249	29088.75
585.609	29185.02
585.969	29306.83
586.329	29334.62
586.688	29479.71
587.048	29608.29
587.408	29693.94
587.768	29710.89
588.127	29825.46
588.487	29754.95
588.846	30113.81
589.206	30022.74
589.565	30052.8
589.925	30260.02
590.284	30341.15
590.643	30344.32
591.003	30586.79
591.362	30680.58
591.721	30707.24
592.08	30726.45
592.44	30960.12
592.799	31093.22
593.158	31090.28
593.517	31182.71
593.876	31376.6
594.235	31447.56
594.593	31396.49
594.952	31697.05
595.311	31535.7
595.67	31702.7
596.029	31888
596.387	32018.85
596.746	32142.91
597.104	32061.56
597.463	32051.84
597.822	32249.58
598.18	32337.26
598.538	32376.35
598.897	32680.98
599.255	32444.15
599.613	32943.57
599.972	32691.82
600.33	32841.65
600.688	32830.13
601.046	33090.46
601.404	33200.51
601.762	33173.62
602.12	33336.55
602.478	33488.64
602.836	33550.11
603.194	33377.46
603.552	33455.87
603.91	33488.87
604.268	33633.27
604.625	33570.9
604.983	33843.43
605.341	33608.41
605.698	34085.69
606.056	34062.18
606.413	34032.81
606.771	34213.37
607.128	34345.34
607.485	34210.88
607.843	34371.78
608.2	34600.7
608.557	34722.05
608.914	34670.53
609.272	34753.24
609.629	34861.26
609.986	35060.35
610.343	34903.97
610.7	35163.17
611.057	34985.32
611.414	35260.57
611.771	35353.22
612.127	35437.97
612.484	35482.49
612.841	35521.35
613.198	35412.2
613.554	35554.57
613.911	35754.34
614.267	35708.69
614.624	35791.18
614.98	35879.76
615.337	36076.59
615.693	36063.26
616.05	35997.05
616.406	36316.59
616.762	36104.62
617.118	36137.38
617.475	36200.88
617.831	36468.22
618.187	36424.83
618.543	36523.14
618.899	36697.59
619.255	36627.99
619.611	36637.71
619.967	36848.78
620.323	36803.35
620.678	36855.33
621.034	36816.91
621.39	36754.32
621.746	36796.35
622.101	37079.51
622.457	37020.07
622.812	37025.5
623.168	37099.39
623.523	37150.46
623.879	37264.13
624.234	37103.46
624.589	37345.94
624.945	37303.45
625.3	37321.76
625.655	37342.32
626.01	37484.47
626.365	37422.1
626.72	37514.97
627.075	37326.5
627.43	37401.08
627.785	37420.06
628.14	37333.96
628.495	37396.11
628.85	37578.7
629.205	37391.14
629.559	37703.44
629.914	37427.97
630.269	37584.8
630.623	37451.47
630.978	37311.82
631.332	37497.35
631.687	37696.89
632.041	37371.47
632.396	37524.01
632.75	37369.22
633.104	37385.94
633.459	37247.18
633.813	37185.49
634.167	37300.97
634.521	37356.56
634.875	37339.61
635.229	37093.74
635.583	37054.2
635.937	37222.55
636.291	37091.71
636.645	37151.37
636.999	37134.87
637.352	37175.32
637.706	37087.41
638.06	37289.44
638.413	37003.35
638.767	36981.88
639.121	37116.79
639.474	36933.52
639.828	37013.07
640.181	37025.27
640.534	36965.16
640.888	36865.27
641.241	36760.19
641.594	36860.98
641.947	36919.51
642.301	36788.44
642.654	36808.78
643.007	36867.31
643.36	36920.87
643.713	36713.87
644.066	36927.42
644.419	36687.65
644.771	36344.61
645.124	36101
645.477	36111.17
645.83	35770.16
646.182	35694
646.535	35579.66
646.888	35719.99
647.24	35491.52
647.593	35547.79
647.945	35564.29
648.298	35535.14
648.65	35440.23
649.002	35297.63
649.355	35610.84
649.707	35397.29
650.059	35496.5
650.411	35957.95
650.763	35930.38
651.115	36284.5
651.467	36229.81
651.819	36271.39
652.171	36233.43
652.523	36101.45
652.875	36024.84
653.227	35952.08
653.578	36241.56
653.93	36176.25
654.282	35892.64
654.633	35940.1
654.985	36058.06
655.337	35990.04
655.688	35943.94
656.039	36100.77
656.391	35694.23
656.742	35732.65
657.094	35863.49
657.445	35966.31
657.796	35948.69
658.147	35940.1
658.498	35720.67
658.849	35913.21
659.2	35848.58
659.551	35781.23
659.902	35804.51
660.253	35719.09
660.604	35888.35
660.955	35688.13
661.306	35893.1
661.656	35751.63
662.007	35689.94
662.358	35792.31
662.708	35674.12
663.059	35759.99
663.409	35530.85
663.76	35805.64
664.11	35740.56
664.461	35823.27
664.811	35748.92
665.161	35734
665.511	35585.76
665.862	35798.41
666.212	35824.62
666.562	35744.17
666.912	35684.06
667.262	35602.48
667.612	35530.85
667.962	35628.92
668.312	35569.49
668.662	35762.7
669.011	35624.63
669.361	35435.03
669.711	35517.06
670.06	35339.89
670.41	35384.41
670.76	35392.77
671.109	35411.53
671.459	35444.29
671.808	35443.39
672.157	35592.99
672.507	35254.69
672.856	35314.35
673.205	35340.57
673.554	35483.84
673.904	35256.5
674.253	35456.72
674.602	35339.44
674.951	34818.1
675.3	34556.18
675.649	35211.08
675.998	35268.93
676.346	35258.54
676.695	35364.52
677.044	35084.76
677.393	35078.43
677.741	35198.88
678.09	35035.27
678.438	35047.47
678.787	35164.3
679.135	35195.49
679.484	34826.91
679.832	34883.18
680.181	34821.71
680.529	34892.22
680.877	34716.4
681.225	34575.62
681.573	34928.15
681.922	34575.62
682.27	34626.46
682.618	34664.65
682.966	34611.55
683.314	34622.62
683.661	34491.78
684.009	34391.21
684.357	34248.62
684.705	34260.82
685.053	34186.7
685.4	34185.34
685.748	33993.26
686.095	34062.41
686.443	33924.11
686.79	33860.38
687.138	33839.36
687.485	33971.79
687.832	33775.19
688.18	33929.08
688.527	33662.19
688.874	33690.89
689.221	33580.61
689.568	33493.84
689.915	33322.99
690.262	33410
690.609	33237.57
690.956	33167.52
691.303	33228.53
691.65	32953.74
691.997	32970.46
692.344	32771.37
692.69	32791.48
693.037	32901.99
693.383	32578.83
693.73	32743.8
694.077	32475.78
694.423	32506.52
694.769	32514.43
695.116	32367.99
695.462	32337.26
695.808	32237.82
696.155	32299.07
696.501	32046.19
696.847	32030.15
697.193	31850.04
697.539	31916.7
697.885	31655.24
698.231	31593.55
698.577	31595.36
698.923	31619.99
699.269	31432.65
699.614	31120.79
699.96	31172.09
700.306	31259.09
700.651	31077.18
700.997	30973.9
701.342	30988.59
701.688	30827.01
702.033	30892.1
702.379	30872.89
702.724	30612.56
703.069	30679
703.415	30356.97
703.76	30406.01
704.105	30382.73
704.45	30225.67
704.795	30093.7
705.14	30089.63
705.485	30150.2
705.83	29963.99
706.175	30086.24
706.52	29905
706.865	29772.13
707.209	29883.76
707.554	29612.58
707.899	29730.09
708.243	29540.49
708.588	29592.92
708.932	29409.88
709.277	29318.58
709.621	29277.22
709.966	29197.23
710.31	29127.4
710.654	28908.19
710.998	28973.73
711.342	28975.76
711.687	28910
712.031	28717.01
712.375	28642.66
712.719	28714.75
713.063	28670.23
713.407	28731.25
713.75	28559.28
714.094	28538.49
714.438	28387.98
714.782	28501.2
715.125	28339.4
715.469	28284.71
715.812	28176.01
716.156	28054.88
716.499	28028.67
716.843	28023.47
717.186	27963.13
717.53	27997.48
717.873	28019.86
718.216	27832.52
718.559	27810.82
718.902	27568.57
719.246	27809.24
719.589	27611.28
719.932	27486.54
720.275	27564.73
720.617	27615.12
720.96	27416.93
721.303	27342.81
721.646	27415.8
721.989	27241.35
722.331	27418.06
722.674	27227.79
723.016	27212.42
723.359	27174.45
723.701	27236.37
724.044	26914.57
724.386	26928.59
724.729	27003.39
725.071	26974.91
725.413	26903.95
725.755	26838.42
726.097	26868.25
726.439	26642.94
726.782	26597.3
727.124	26892.43
727.465	26510.07
727.807	26565.88
728.149	26612.66
728.491	26493.57
728.833	26501.7
729.175	26364.76
729.516	26353.69
729.858	26240.24
730.199	26350.3
730.541	26228.27
730.882	26071.43
731.224	26337.64
731.565	26188.94
731.906	26175.39
732.248	26132.22
732.589	25887.71
732.93	25883.19
733.271	25964.77
733.612	25860.37
733.953	25959.57
734.294	25898.56
734.635	25759.35
734.976	25863.08
735.317	25647.26
735.658	25577.43
735.999	25685.68
736.339	25619.92
736.68	25704.21
737.021	25631.9
737.361	25461.51
737.702	25505.57
738.042	25435.29
738.383	25414.05
738.723	25417.89
739.063	25392.13
739.404	25414.28
739.744	25305.13
740.084	25185.35
740.424	25169.54
740.764	25168.18
741.104	25284.79
741.444	25158.46
741.784	25032.14
742.124	25041.63
742.464	25147.84
742.804	24908.98
743.143	24913.27
743.483	24940.84
743.823	24877.11
744.162	24752.37
744.502	24780.17
744.841	24768.64
745.181	24807.06
745.52	24691.58
745.86	24741.75
746.199	24669.44
746.538	24624.92
746.877	24561.19
747.216	24662.88
747.556	24565.71
747.895	24534.52
748.234	24443.45
748.573	24380.18
748.911	24340.18
749.25	24251.37
749.589	24234.19
749.928	24274.64
750.267	24266.51
750.605	24183.12
750.944	24022.22
751.283	23956.01
751.621	24109.45
751.96	23891.83
752.298	23906.52
752.636	23940.87
752.975	23604.61
753.313	23654.55
753.651	23847.08
753.989	23692.51
754.327	23602.12
754.666	23475.57
755.004	23455.91
755.342	23565.28
755.679	23473.76
756.017	23284.84
756.355	23422.92
756.693	23293.2
757.031	23198.29
757.368	23121.45
757.706	23126.2
758.044	23012.53
758.381	22992.87
758.719	22989.03
759.056	23012.53
759.394	22905.19
759.731	22846.43
760.068	22751.75
760.405	22642.6
760.743	22561.24
761.08	22621.35
761.417	22500.23
761.754	22471.98
762.091	22445.77
762.428	22315.83
762.765	22197.41
763.102	22255.04
763.438	22136.4
763.775	22049.84
764.112	22113.8
764.449	22120.12
764.785	21846.46
765.122	21791.55
765.458	21732.11
765.795	21728.27
766.131	21583.19
766.467	21569.86
766.804	21482.18
767.14	21421.84
767.476	21298.68
767.812	21309.98
768.148	21295.06
768.485	21146.59
768.821	21091.23
769.157	21039.93
769.492	20938.69
769.828	20867.95
770.164	20697.79
770.5	20674.96
770.836	20667.73
771.171	20584.35
771.507	20483.56
771.842	20345.93
772.178	20312.94
772.513	20318.36
772.849	20245.37
773.184	20062.33
773.519	20199.95
773.855	20038.6
774.19	19964.25
774.525	19911.6
774.86	19869.11
775.195	19892.16
775.53	19661.88
775.865	19629.79
776.2	19456.47
776.535	19348.22
776.87	19375.11
777.205	19363.36
777.539	19225.06
777.874	19316.58
778.209	19109.36
778.543	19090.37
778.878	18979.87
779.212	18955.24
779.547	18800.44
779.881	18838.85
780.215	18717.28
780.55	18776.03
780.884	18567.9
781.218	18547.79
781.552	18581.46
781.886	18493.78
782.22	18319.32
782.554	18305.54
782.888	18168.14
783.222	18164.07
783.556	17967.69
783.889	17990.74
784.223	17863.06
784.557	17812.67
784.89	17768.15
785.224	17882.5
785.557	17541.94
785.891	17548.27
786.224	17599.34
786.558	17401.38
786.891	17337.43
787.224	17162.29
787.557	17207.71
787.891	17202.97
788.224	17217.65
788.557	17144.66
788.89	17125.91
789.223	17042.97
789.556	16876.87
789.888	16879.13
790.221	16758.91
790.554	16772.02
790.887	16696.54
791.219	16568.63
791.552	16566.6
791.884	16561.17
792.217	16398.69
792.549	16365.02
792.882	16261.97
793.214	16243.22
793.546	16259.94
793.879	16126.84
794.211	16006.84
794.543	16101.98
794.875	15960.29
795.207	16085.93
795.539	15925.94
795.871	15948.08
796.203	15786.28
796.535	15752.83
796.867	15732.95
797.198	15646.4
797.53	15687.3
797.862	15510.81
798.193	15504.03
798.525	15432.62
798.856	15496.12
799.188	15274.65
799.519	15278.04
799.85	15245.05
800.182	15130.25
800.513	15183.58
800.844	15039.63
801.175	15142.91
801.506	15110.82
801.837	15016.58
802.168	14949.69
802.499	14873.54
802.83	14838.96
803.161	14757.83
803.491	14749.24
803.822	14693.65
804.153	14637.16
804.483	14497.27
804.814	14522.81
805.145	14570.04
805.475	14509.7
805.805	14408.69
806.136	14428.58
806.466	14479.65
806.796	14418.86
807.126	14267.68
807.457	14183.61
807.787	14211.41
808.117	14142.48
808.447	14044.63
808.777	14150.84
809.107	14007.12
809.436	14090.05
809.766	14001.24
810.096	13940.23
810.426	13817.07
810.755	13931.64
811.085	13826.56
811.414	13795.15
811.744	13690.97
812.073	13688.48
812.403	13651.65
812.732	13591.08
813.061	13640.35
813.39	13587.69
813.719	13438.32
814.049	13564.42
814.378	13477.87
814.707	13412.33
815.036	13287.14
815.365	13269.51
815.693	13259.79
816.022	13264.09
816.351	13165.33
816.68	13117.88
817.008	13178.21
817.337	13111.32
817.665	13048.5
817.994	12996.52
818.322	13068.16
818.651	12975.96
818.979	12936.19
819.307	12947.94
819.636	12895.96
819.964	12860.93
820.292	12883.31
820.62	12908.62
820.948	12879.01
821.276	12843.76
821.604	12819.35
821.932	12800.14
822.259	12853.93
822.587	12816.19
822.915	12820.48
823.243	12887.15
823.57	12796.98
823.898	12786.81
824.225	12766.47
824.553	12677.21
824.88	12725.57
825.207	12764.21
825.535	12777.09
825.862	12778.45
826.189	12705.68
826.516	12708.62
826.843	12825.23
827.17	12823.19
827.497	12801.73
827.824	12733.93
828.151	12730.31
828.478	12727.83
828.805	12754.04
829.131	12641.5
829.458	12639.7
829.785	12678.34
830.111	12635.4
830.438	12716.53
830.764	12669.53
831.09	12684.89
831.417	12629.07
831.743	12701.84
832.069	12686.7
832.395	12599.24
832.722	12678.79
833.048	12592.01
833.374	12567.83
833.7	12525.35
834.026	12569.64
834.351	12663.42
834.677	12642.63
835.003	12576.65
835.329	12575.06
835.654	12468.4
835.98	12505.91
836.306	12504.56
836.631	12507.04
836.956	12500.04
837.282	12466.14
837.607	12360.16
837.932	12415.97
838.258	12431.34
838.583	12412.36
838.908	12255.98
839.233	12333.04
839.558	12326.71
839.883	12268.86
840.208	12224.79
840.533	12270.89
840.858	12155.19
841.182	12197.22
841.507	12139.37
841.832	12056.66
842.156	12076.55
842.481	12098.24
842.805	12007.4
843.13	12032.71
843.454	12017.11
843.778	11845.14
844.103	11904.57
844.427	11883.33
844.751	11841.75
845.075	11898.7
845.399	11861.64
845.723	11775.09
846.047	11745.03
846.371	11705.48
846.695	11690.57
847.019	11594.3
847.343	11490.35
847.666	11503.91
847.99	11429.78
848.313	11408.77
848.637	11308.88
848.96	11302.56
849.284	11331.93
849.607	11207.19
849.931	11164.71
850.254	11145.27
850.577	11063.69
850.9	10884.49
851.223	10919.97
851.546	10920.65
851.869	10876.58
852.192	10896.24
852.515	10779.63
852.838	10811.95
853.161	10774.66
853.483	10704.83
853.806	10685.17
854.129	10625.74
854.451	10608.79
854.774	10555
855.096	10506.19
855.419	10465.74
855.741	10424.16
856.063	10392.52
856.385	10434.33
856.708	10349.36
857.03	10300.55
857.352	10305.07
857.674	10248.35
857.996	10216.03
858.318	10136.71
858.64	10199.53
858.961	10199.08
859.283	10124.06
859.605	10048.8
859.926	10100.78
860.248	10027.56
860.57	10015.58
860.891	9987.11
861.212	9928.81
861.534	9907.11
861.855	9864.85
862.176	9926.09
862.498	9917.06
862.819	9903.04
863.14	9775.59
863.461	9817.17
863.782	9811.3
864.103	9767.91
864.424	9701.69
864.745	9780.56
865.065	9781.69
865.386	9733.56
865.707	9641.58
866.027	9651.75
866.348	9633.45
866.668	9588.93
866.989	9671.19
867.309	9538.76
867.63	9537.86
867.95	9530.63
868.27	9471.42
868.59	9492.43
868.91	9515.71
869.23	9511.87
869.55	9426.45
869.87	9478.65
870.19	9453.56
870.51	9395.26
870.83	9506.44
871.15	9391.65
871.469	9400.46
871.789	9373.12
872.109	9348.48
872.428	9319.11
872.748	9376.05
873.067	9312.33
873.386	9324.08
873.706	9303.74
874.025	9253.34
874.344	9227.81
874.663	9250.63
874.982	9256.96
875.301	9212.67
875.62	9187.58
875.939	9157.08
876.258	9112.11
876.577	9080.24
876.896	9089.28
877.214	9107.81
877.533	9111.43
877.852	9089.96
878.17	9051.77
878.489	9030.3
878.807	9098.77
879.125	8989.62
879.444	9038.21
879.762	8982.84
880.08	8998.89
880.398	8913.01
880.716	8903.07
881.034	8980.58
881.352	8926.57
881.67	8885.67
881.988	8920.25
882.306	8973.35
882.624	8894.26
882.941	8810.42
883.259	8779.46
883.577	8801.15
883.894	8709.18
884.212	8723.87
884.529	8732.23
884.846	8720.25
885.164	8672.57
885.481	8622.63
885.798	8670.53
886.115	8599.12
886.432	8587.83
886.75	8549.41
887.067	8554.83
887.383	8555.96
887.7	8513.7
888.017	8469.86
888.334	8412.24
888.651	8439.58
888.967	8397.1
889.284	8397.55
889.6	8334.05
889.917	8272.58
890.233	8335.85
890.55	8278
890.866	8245.01
891.182	8280.26
891.498	8276.42
891.815	8174.28
892.131	8162.98
892.447	8125.46
892.763	8128.4
893.079	8101.06
893.395	8175.41
893.71	8002.76
894.026	8052.92
894.342	8058.57
894.657	7964.34
894.973	7939.93
895.289	7949.88
895.604	7972.47
895.92	7887.96
896.235	7785.13
896.55	7894.06
896.865	7873.72
897.181	7853.83
897.496	7768.19
897.811	7731.58
898.126	7737.45
898.441	7650.45
898.756	7661.75
899.071	7633.73
899.386	7675.08
899.7	7610.68
900.015	7521.41
900.33	7421.75
900.644	7519.15
900.959	7472.37
901.273	7397.8
901.588	7414.3
901.902	7385.37
902.216	7369.33
902.531	7341.53
902.845	7359.16
903.159	7274.41
903.473	7192.16
903.787	7215.66
904.101	7228.99
904.415	7196.68
904.729	7166.85
905.042	7090.92
905.356	7160.07
905.67	7095.89
905.984	7127.07
906.297	7081.88
906.611	7071.71
906.924	6926.4
907.237	6929.11
907.551	6938.6
907.864	6894.31
908.177	6912.16
908.491	6900.41
908.804	6850.92
909.117	6817.7
909.43	6729.12
909.743	6738.16
910.056	6743.58
910.368	6630.36
910.681	6704.94
910.994	6651.15
911.307	6592.62
911.619	6522.57
911.932	6573.87
912.244	6499.97
912.557	6499.52
912.869	6439.41
913.181	6442.12
913.494	6410.71
913.806	6414.1
914.118	6385.62
914.43	6296.81
914.742	6340.88
915.054	6259.3
915.366	6239.41
915.678	6164.61
915.99	6262.24
916.302	6198.96
916.613	6099.3
916.925	6127.55
917.236	6159.87
917.548	6092.52
917.859	6063.6
918.171	6014.79
918.482	5993.54
918.794	6019.53
919.105	5991.96
919.416	5916.48
919.727	5932.98
920.038	5874.45
920.349	5846.2
920.66	5828.8
920.971	5798.97
921.282	5787.22
921.593	5742.48
921.903	5731.4
922.214	5732.08
922.525	5714.45
922.835	5654.12
923.146	5635.59
923.456	5567.34
923.767	5575.25
924.077	5602.14
924.387	5566.66
924.697	5536.61
925.008	5554.46
925.318	5455.93
925.628	5501.8
925.938	5448.92
926.248	5381.58
926.558	5367.12
926.867	5359.66
927.177	5360.34
927.487	5344.07
927.796	5265.65
928.106	5246.44
928.416	5241.25
928.725	5239.66
929.034	5194.69
929.344	5226.78
929.653	5206.45
929.962	5114.47
930.271	5142.04
930.581	5095.94
930.89	5101.59
931.199	5090.52
931.508	5002.83
931.817	5041.25
932.125	5019.33
932.434	5013.46
932.743	4932.33
933.051	4896.17
933.36	4903.63
933.669	4885.78
933.977	4860.24
934.286	4840.35
934.594	4832.22
934.902	4805.1
935.21	4767.36
935.519	4779.56
935.827	4731.2
936.135	4720.58
936.443	4670.64
936.751	4653.01
937.059	4700.02
937.367	4635.39
937.674	4594.26
937.982	4610.3
938.29	4583.18
938.597	4589.74
938.905	4529.17
939.213	4554.94
939.52	4506.8
939.827	4574.37
940.135	4485.56
940.442	4499.12
940.749	4467.26
941.056	4429.97
941.363	4420.7
941.67	4361.72
941.977	4353.81
942.284	4313.59
942.591	4345.68
942.898	4310.42
943.205	4279.01
943.511	4238.33
943.818	4227.26
944.125	4241.95
944.431	4212.12
944.738	4195.62
945.044	4202.4
945.35	4194.49
945.657	4137.77
945.963	4153.59
946.269	4074.5
946.575	4116.3
946.881	4067.27
947.187	4048.06
947.493	4072.46
947.799	4014.61
948.105	4041.96
948.41	3956.99
948.716	3964.22
949.022	3965.35
949.327	3958.34
949.633	3892.58
949.938	3893.26
950.244	3935.29
950.549	3865.01
950.854	3874.5
951.16	3844.22
951.465	3822.53
951.77	3784.34
952.075	3804.9
952.38	3782.3
952.685	3774.62
952.99	3718.8
953.294	3745.47
953.599	3698.69
953.904	3687.16
954.209	3704.11
954.513	3664.56
954.818	3664.11
955.122	3647.39
955.426	3595.41
955.731	3595.41
956.035	3566.26
956.339	3576.43
956.643	3547.05
956.948	3539.6
957.252	3511.12
957.556	3519.03
957.86	3503.66
958.163	3536.88
958.467	3474.74
958.771	3425.7
959.075	3459.15
959.378	3421.41
959.682	3416.44
959.985	3385.25
960.289	3396.78
960.592	3349.77
960.896	3336.89
961.199	3338.25
961.502	3321.3
961.805	3351.35
962.108	3286.04
962.411	3272.94
962.714	3267.74
963.017	3254.41
963.32	3257.57
963.623	3220.51
963.926	3198.59
964.228	3203.33
964.531	3148.87
964.833	3192.94
965.136	3140.96
965.438	3109.55
965.741	3097.57
966.043	3116.1
966.345	3091.92
966.648	3098.7
966.95	3076.11
967.252	3071.59
967.554	3041.98
967.856	3047.63
968.158	2990.91
968.46	3010.8
968.761	2979.38
969.063	2994.98
969.365	2985.03
969.666	2957.92
969.968	2943.45
970.269	2925.6
970.571	2895.32
970.872	2903.23
971.174	2910.23
971.475	2915.66
971.776	2864.36
972.077	2877.01
972.378	2825.94
972.679	2830.91
972.98	2820.07
973.281	2829.33
973.582	2806.73
973.883	2776.23
974.183	2779.62
974.484	2780.75
974.785	2747.53
975.085	2752.27
975.386	2740.52
975.686	2738.71
975.986	2673.63
976.287	2689.68
976.587	2684.48
976.887	2658.94
977.187	2655.33
977.487	2662.33
977.787	2601.77
978.087	2617.13
978.387	2615.78
978.687	2635.44
978.987	2574.42
979.286	2575.55
979.586	2596.34
979.885	2547.76
980.185	2545.95
980.484	2532.62
980.784	2534.88
981.083	2504.82
981.382	2504.82
981.682	2502.56
981.981	2495.56
982.28	2450.13
982.579	2429.12
982.878	2444.26
983.177	2430.47
983.475	2441.55
983.774	2422.34
984.073	2401.55
984.372	2385.05
984.67	2370.14
984.969	2373.07
985.267	2385.95
985.566	2348.44
985.864	2356.35
986.162	2349.35
986.461	2300.31
986.759	2299.63
987.057	2282.68
987.355	2293.3
987.653	2265.96
987.951	2298.72
988.249	2240.87
988.547	2247.65
988.844	2243.81
989.142	2216.02
989.44	2256.69
989.737	2190.71
990.035	2160.88
990.332	2188.45
990.63	2164.27
990.927	2199.52
991.224	2126.53
991.521	2149.8
991.819	2130.37
992.116	2127.66
992.413	2111.84
992.71	2121.33
993.006	2101.67
993.303	2092.18
993.6	2044.27
993.897	2080.88
994.193	2068.22
994.49	2027.55
994.787	2074.78
995.083	2060.54
995.379	2047.43
995.676	2020.54
995.972	2001.56
996.268	1992.29
996.565	1979.41
996.861	1971.73
997.157	1972.41
997.453	1955.68
997.749	1938.28
998.044	1967.21
998.34	1915.23
998.636	1939.41
998.932	1908.45
999.227	1879.98
999.523	1909.13
999.818	1903.26
1000.114	1873.43
1000.409	1865.52
1000.704	1854.67
1001	1846.53
1001.295	1829.13
1001.59	1845.63
1001.885	1851.05
1002.18	1804.05
1002.475	1794.78
1002.77	1778.29
1003.065	1787.78
1003.359	1778.74
1003.654	1733.99
1003.949	1760.43
1004.243	1732.19
1004.538	1730.15
1004.832	1741.9
1005.127	1748.68
1005.421	1728.12
1005.715	1691.06
1006.009	1690.15
1006.304	1694
1006.598	1655.13
1006.892	1654.22
1007.186	1640.66
1007.48	1638.86
1007.773	1642.02
1008.067	1639.99
1008.361	1621.45
1008.655	1573.32
1008.948	1593.21
1009.242	1598.86
1009.535	1578.52
1009.829	1581.46
1010.122	1555.92
1010.415	1549.82
1010.708	1563.15
1011.001	1520.89
1011.295	1531.51
1011.588	1557.95
1011.881	1521.8
1012.173	1518.63
1012.466	1503.27
1012.759	1505.53
1013.052	1526.32
1013.344	1460.33
1013.637	1469.59
1013.93	1444.28
1014.222	1423.49
1014.514	1440.44
1014.807	1451.29
1015.099	1417.17
1015.391	1415.13
1015.683	1430.27
1015.976	1418.3
1016.268	1399.99
1016.56	1380.56
1016.851	1400.22
1017.143	1392.53
1017.435	1362.25
1017.727	1356.83
1018.018	1336.04
1018.31	1337.62
1018.602	1353.21
1018.893	1312.31
1019.185	1319.09
1019.476	1293.33
1019.767	1315.47
1020.058	1285.87
1020.35	1294.01
1020.641	1283.61
1020.932	1265.98
1021.223	1255.59
1021.514	1238.64
1021.804	1230.05
1022.095	1232.09
1022.386	1211.75
1022.677	1231.18
1022.967	1215.59
1023.258	1210.17
1023.548	1178.75
1023.839	1174.69
1024.129	1169.94
1024.419	1181.69
1024.709	1159.32
1025	1150.51
1025.29	1153.9
1025.58	1140.56
1025.87	1121.35
1026.16	1133.33
1026.449	1133.11
1026.739	1088.81
1027.029	1122.71
1027.319	1091.75
1027.608	1106.67
1027.898	1091.07
1028.187	1079.77
1028.477	1067.8
1028.766	1077.06
1029.055	1042.26
1029.344	1049.94
1029.634	1057.63
1029.923	1069.15
1030.212	1052.2
1030.501	1035.26
1030.79	1046.33
1031.078	1011.75
1031.367	1035.71
1031.656	1019.21
1031.945	1002.49
1032.233	989.38
1032.522	958.65
1032.81	989.38
1033.099	973.79
1033.387	983.96
1033.675	976.73
1033.963	991.64
1034.251	946.22
1034.54	960.91
1034.828	957.07
1035.116	946.67
1035.403	930.4
1035.691	926.11
1035.979	931.76
1036.267	925.65
1036.554	922.72
1036.842	933.34
1037.129	901.25
1037.417	862.83
1037.704	878.88
1037.992	873.9
1038.279	872.32
1038.566	853.79
1038.853	853.79
1039.14	853.79
