Data from hue_50_FLMS001491_40.txt Node
Date: Mon Feb 06 15:10:03 GMT 2017
User: dcchb
Spectrometer: FLMS00149
Trigger mode: 0
Integration Time (sec): 2.000000E-2
Scans to average: 10
Electric dark correction enabled: true
Nonlinearity correction enabled: false
Boxcar width: 0
XAxis mode: Wavelengths
Number of Pixels in Spectrum: 2048
>>>>>Begin Spectral Data<<<<<
341.393	0.68
341.776	0.68
342.16	0.68
342.543	-45.65
342.927	-63.28
343.31	-74.8
343.693	-66.44
344.077	-63.05
344.46	-59.89
344.843	-67.12
345.226	-35.03
345.61	-35.25
345.993	-12.88
346.376	2.49
346.759	10.85
347.142	27.8
347.525	40.9
347.908	54.24
348.291	81.81
348.674	91.3
349.057	105.08
349.44	129.49
349.823	147.34
350.206	169.71
350.588	219.66
350.971	216.49
351.354	237.96
351.737	256.49
352.119	251.52
352.502	268.92
352.884	257.85
353.267	291.97
353.65	296.72
354.032	291.52
354.414	317.96
354.797	295.81
355.179	330.61
355.562	349.6
355.944	322.93
356.326	333.32
356.709	340.33
357.091	336.71
357.473	334
357.855	331.74
358.238	344.62
358.62	332.42
359.002	346.66
359.384	327.9
359.766	337.84
360.148	350.27
360.53	357.5
360.912	338.97
361.294	346.88
361.676	332.65
362.057	333.1
362.439	345.3
362.821	361.12
363.203	322.03
363.584	316.38
363.966	317.51
364.348	336.49
364.729	314.34
365.111	316.38
365.493	342.14
365.874	328.13
366.256	332.42
366.637	327.22
367.019	290.16
367.4	315.7
367.781	310.27
368.163	303.49
368.544	305.75
368.925	311.4
369.306	320.44
369.688	305.53
370.069	327
370.45	330.61
370.831	305.98
371.212	300.33
371.593	314.57
371.974	307.11
372.355	300.56
372.736	338.3
373.117	319.09
373.498	324.51
373.879	303.27
374.26	331.29
374.641	291.07
375.021	315.7
375.402	313.44
375.783	324.74
376.163	322.25
376.544	332.65
376.925	341.91
377.305	317.28
377.686	329.48
378.066	329.48
378.447	324.96
378.827	341.69
379.208	334.68
379.588	324.74
379.968	330.39
380.349	336.71
380.729	304.17
381.109	337.62
381.489	340.33
381.87	320.22
382.25	349.37
382.63	337.39
383.01	336.49
383.39	334.45
383.77	317.28
384.15	326.32
384.53	328.13
384.91	352.08
385.29	361.8
385.67	357.73
386.049	336.49
386.429	345.3
386.809	350.05
387.189	344.62
387.568	348.92
387.948	341.23
388.328	357.28
388.707	353.89
389.087	352.99
389.466	374.91
389.846	349.14
390.225	375.13
390.605	341.91
390.984	353.89
391.363	365.87
391.743	369.48
392.122	362.93
392.501	362.93
392.881	359.09
393.26	366.32
393.639	352.99
394.018	350.73
394.397	375.13
394.776	366.09
395.155	383.94
395.534	388.46
395.913	362.25
396.292	393.21
396.671	383.49
397.05	388.01
397.429	371.29
397.808	365.41
398.186	354.79
398.565	391.18
398.944	378.07
399.323	390.95
399.701	387.79
400.08	366.77
400.458	377.17
400.837	377.84
401.215	386.66
401.594	384.17
401.972	394.79
402.351	377.39
402.729	392.76
403.107	384.4
403.486	391.4
403.864	391.4
404.242	389.59
404.62	380.1
404.999	411.06
405.377	403.83
405.755	381.46
406.133	401.12
406.511	424.4
406.889	389.82
407.267	415.13
407.645	421.46
408.023	418.07
408.401	416.03
408.779	400.44
409.156	426.43
409.534	404.28
409.912	423.04
410.29	435.69
410.667	406.77
411.045	425.98
411.422	416.94
411.8	429.59
412.178	403.38
412.555	446.09
412.933	446.77
413.31	457.39
413.687	457.39
414.065	443.15
414.442	422.36
414.819	447.45
415.197	455.58
415.574	450.84
415.951	461.46
416.328	462.36
416.705	440.89
417.082	458.74
417.46	470.04
417.837	485.18
418.214	487.9
418.591	463.26
418.967	487.22
419.344	460.1
419.721	475.02
420.098	475.92
420.475	496.03
420.852	501.23
421.228	501.91
421.605	513.43
421.982	493.77
422.358	516.37
422.735	505.3
423.111	510.95
423.488	508.01
423.864	490.61
424.241	503.72
424.617	520.44
424.994	498.74
425.37	501.91
425.746	505.52
426.123	524.51
426.499	537.84
426.875	515.92
427.251	516.6
427.627	543.71
428.003	543.94
428.379	562.92
428.756	551.85
429.132	525.86
429.507	543.71
429.883	531.96
430.259	535.13
430.635	548.01
431.011	555.69
431.387	565.63
431.763	569.93
432.138	593.43
432.514	584.17
432.89	582.13
433.265	576.03
433.641	575.13
434.016	606.31
434.392	586.88
434.767	611.51
435.143	605.41
435.518	590.72
435.894	620.77
436.269	620.77
436.644	628.68
437.02	623.03
437.395	613.09
437.77	646.31
438.145	636.14
438.52	623.71
438.895	671.17
439.271	649.47
439.646	650.38
440.021	643.6
440.395	668.91
440.77	681.34
441.145	680.89
441.52	672.07
441.895	703.48
442.27	684.28
442.645	698.96
443.019	658.97
443.394	704.84
443.769	686.99
444.143	668.91
444.518	704.84
444.892	701.22
445.267	698.96
445.641	715.69
446.016	719.3
446.39	708
446.764	715.01
447.139	732.41
447.513	749.81
447.887	723.82
448.262	736.48
448.636	734.67
449.01	731.73
449.384	766.53
449.758	726.99
450.132	742.35
450.506	744.39
450.88	770.15
451.254	775.57
451.628	777.38
452.002	752.07
452.376	776.25
452.75	776.25
453.123	786.42
453.497	799.53
453.871	813.76
454.244	837.27
454.618	814.67
454.992	816.7
455.365	822.8
455.739	856.47
456.112	843.37
456.486	868.9
456.859	854.21
457.232	846.98
457.606	865.06
457.979	866.19
458.352	893.99
458.725	921.78
459.099	915.68
459.472	936.02
459.845	929.47
460.218	951.61
460.591	964.49
460.964	945.96
461.337	975.57
461.71	962.69
462.083	963.36
462.456	987.09
462.829	1013.31
463.201	1018.73
463.574	1029.8
463.947	1041.78
464.32	1058.28
464.692	1069.12
465.065	1056.92
465.438	1094.89
465.81	1092.4
466.183	1110.48
466.555	1168.56
466.928	1129.91
467.3	1170.59
467.672	1159.07
468.045	1208.33
468.417	1213.53
468.789	1232.74
469.161	1227.09
469.534	1288.33
469.906	1302.34
470.278	1324.71
470.65	1326.52
471.022	1371.04
471.394	1367.65
471.766	1401.55
472.138	1427.08
472.51	1467.08
472.882	1477.25
473.253	1517.25
473.625	1542.78
473.997	1538.04
474.369	1613.52
474.74	1611.03
475.112	1663.91
475.484	1738.03
475.855	1770.57
476.227	1784.36
476.598	1847.41
476.97	1855.54
477.341	1906.84
477.713	1974.19
478.084	1997.91
478.455	2087.4
478.827	2160.4
479.198	2229.77
479.569	2229.32
479.94	2349.09
480.311	2375.76
480.682	2472.03
481.053	2562.64
481.424	2622.3
481.795	2719.48
482.166	2753.37
482.537	2820.04
482.908	2923.99
483.279	2984.78
483.65	3068.85
484.021	3204.66
484.391	3266.35
484.762	3326.69
485.133	3406.69
485.503	3548.16
485.874	3665.89
486.244	3730.3
486.615	3817.3
486.985	3957.18
487.356	4057.07
487.726	4124.86
488.097	4285.54
488.467	4364.41
488.837	4490.05
489.207	4611.86
489.578	4742.47
489.948	4842.81
490.318	4997.16
490.688	5095.46
491.058	5217.49
491.428	5378.62
491.798	5474.21
492.168	5640.76
492.538	5737.02
492.908	5830.81
493.278	6017.69
493.648	6098.37
494.017	6239.38
494.387	6349.89
494.757	6473.5
495.126	6614.52
495.496	6779.26
495.866	6803.89
496.235	6957.11
496.605	7003.43
496.974	7223.09
497.344	7414.27
497.713	7459.69
498.082	7622.85
498.452	7722.73
498.821	7792.11
499.19	7962.5
499.559	8050.18
499.928	8191.2
500.298	8336.05
500.667	8400.46
501.036	8499.89
501.405	8635.03
501.774	8703.95
502.143	8858.3
502.512	8989.37
502.88	9094.22
503.249	9222.58
503.618	9265.07
503.987	9391.17
504.356	9533.53
504.724	9601.33
505.093	9697.37
505.462	9802.23
505.83	10003.8
506.199	10041.32
506.567	10248.32
506.936	10263.68
507.304	10454.87
507.672	10480.18
508.041	10572.6
508.409	10679.49
508.777	10801.75
509.145	10965.36
509.514	10931.69
509.882	11106.15
510.25	11239.7
510.618	11287.61
510.986	11410.77
511.354	11547.04
511.722	11685.34
512.09	11789.75
512.458	11726.02
512.826	11954.26
513.193	12087.82
513.561	12057.99
513.929	12254.59
514.297	12362.39
514.664	12391.76
515.032	12423.4
515.4	12705.43
515.767	12731.19
516.135	12872.43
516.502	12854.58
516.869	13054.12
517.237	13096.38
517.604	13131.18
517.972	13262.48
518.339	13405.07
518.706	13467.67
519.073	13516.25
519.44	13586.31
519.808	13761.22
520.175	13849.58
520.542	14027.88
520.909	14115.11
521.276	14132.06
521.643	14226.97
522.009	14357.14
522.376	14417.7
522.743	14575.44
523.11	14702.89
523.477	14884.81
523.843	14926.84
524.21	15046.84
524.577	15157.34
524.943	15314.4
525.31	15377.67
525.676	15475.98
526.043	15578.12
526.409	15686.59
526.776	15916.42
527.142	15894.72
527.508	15985.79
527.874	16081.39
528.241	16286.13
528.607	16338.78
528.973	16514.59
529.339	16472.11
529.705	16621.03
530.071	16786.9
530.437	16821.93
530.803	17012.21
531.169	17041.59
531.535	17087.91
531.901	17190.96
532.267	17198.87
532.632	17395.02
532.998	17438.64
533.364	17618.75
533.73	17617.39
534.095	17676.82
534.461	17740.1
534.826	17901.45
535.192	17932.64
535.557	18063.93
535.923	17992.52
536.288	18157.04
536.653	18301.21
537.019	18246.3
537.384	18319.52
537.749	18357.03
538.114	18377.37
538.479	18549.79
538.845	18580.75
539.21	18691.03
539.575	18714.08
539.94	18746.17
540.305	18897.81
540.67	18874.98
541.034	18927.64
541.399	19131.93
541.764	19148.65
542.129	19168.54
542.494	19268.19
542.858	19408.76
543.223	19386.83
543.587	19478.81
543.952	19480.62
544.316	19599.48
544.681	19599.71
545.045	19725.13
545.41	19778.46
545.774	19877.9
546.138	19954.05
546.503	20020.26
546.867	19892.58
547.231	20156.53
547.595	20211.9
547.959	20208.06
548.324	20213.71
548.688	20307.94
549.052	20470.42
549.416	20456.64
549.779	20546.8
550.143	20599.46
550.507	20657.54
550.871	20734.82
551.235	20819.57
551.599	21023.4
551.962	21018.43
552.326	21082.38
552.689	21171.87
553.053	21136.39
553.417	21191.99
553.78	21470.62
554.143	21418.65
554.507	21572.99
554.87	21624.74
555.234	21856.37
555.597	21658.41
555.96	21756.04
556.323	21774.34
556.686	21882.81
557.05	22121.9
557.413	22181.11
557.776	22187.44
558.139	22422.46
558.502	22365.97
558.865	22462.91
559.228	22511.72
559.59	22708.1
559.953	22643.47
560.316	22943.13
560.679	22857.7
561.041	23151.71
561.404	23245.49
561.767	23298.14
562.129	23313.29
562.492	23526.39
562.854	23435.54
563.217	23540.62
563.579	23680.96
563.941	23764.35
564.304	23866.04
564.666	24109.65
565.028	24031.91
565.39	24077.33
565.753	24355.29
566.115	24401.84
566.477	24438.91
566.839	24474.84
567.201	24676.41
567.563	24675.28
567.925	24950.3
568.287	24842.74
568.648	24929.29
569.01	25092.22
569.372	25294.48
569.734	25144.65
570.095	25351.2
570.457	25586.22
570.819	25526.79
571.18	25575.6
571.542	25741.92
571.903	25863.73
572.265	25914.12
572.626	25941.46
572.987	26026.66
573.349	26222.14
573.71	26226.66
574.071	26340.55
574.432	26569.92
574.794	26810.14
575.155	26679.52
575.516	26604.27
575.877	26722.69
576.238	26799.07
576.599	26962.23
576.96	26981.21
577.32	27093.07
577.681	27212.84
578.042	27327.87
578.403	27362.9
578.763	27515.21
579.124	27598.37
579.485	27772.83
579.845	27931.02
580.206	27856.22
580.566	27893.5
580.927	27995.65
581.287	28089.2
581.648	28113.84
582.008	28293.49
582.368	28363.1
582.728	28417.56
583.089	28589.76
583.449	28624.56
583.809	28858.9
584.169	28846.25
584.529	28858.68
584.889	29048.95
585.249	29081.72
585.609	29039.69
585.969	29251.89
586.329	29390.19
586.688	29626.57
587.048	29601.93
587.408	29683.06
587.768	29712.44
588.127	29829.27
588.487	29854.81
588.846	30163.95
589.206	30120.34
589.565	30177.74
589.925	30497.05
590.284	30362.82
590.643	30573.89
591.003	30727.33
591.362	30807.33
591.721	30924.84
592.08	30882.35
592.44	31203.93
592.799	31191.5
593.158	31162.8
593.517	31378.16
593.876	31516.23
594.235	31409.34
594.593	31563.01
594.952	31698.6
595.311	31687.08
595.67	31871.48
596.029	32059.95
596.387	32208.19
596.746	32211.81
597.104	32195.99
597.463	32251.81
597.822	32492.48
598.18	32475.53
598.538	32519.82
598.897	32779.7
599.255	32582.19
599.613	33141.73
599.972	32962.98
600.33	33132.69
600.688	33088.17
601.046	33308.05
601.404	33313.02
601.762	33375.85
602.12	33563.86
602.478	33638.66
602.836	33652.9
603.194	33670.53
603.552	33918.2
603.91	33792.56
604.268	33971.76
604.625	33970.41
604.983	34159.78
605.341	34033.46
605.698	34268.7
606.056	34345.76
606.413	34157.52
606.771	34483.16
607.128	34677.73
607.485	34585.98
607.843	34495.36
608.2	34789.82
608.557	34932.41
608.914	34839.76
609.272	34937.16
609.629	35235.68
609.986	35327.66
610.343	35121.79
610.7	35415.79
611.057	35310.48
611.414	35529.01
611.771	35478.62
612.127	35662.34
612.484	35681.32
612.841	35834.99
613.198	35869.79
613.554	35902.11
613.911	36110.24
614.267	36103.01
614.624	36079.05
614.98	36211.93
615.337	36356.78
615.693	36297.58
616.05	36399.27
616.406	36584.35
616.762	36381.64
617.118	36543.9
617.475	36569.66
617.831	36685.59
618.187	36700.05
618.543	36764.68
618.899	37117.44
619.255	36971.01
619.611	36854.85
619.967	37021.85
620.323	37185.24
620.678	37151.11
621.034	37003.09
621.39	37152.92
621.746	37167.16
622.101	37648.5
622.457	37216.65
622.812	37375.51
623.168	37479.69
623.523	37411.45
623.879	37548.39
624.234	37301.62
624.589	37577.09
624.945	37534.61
625.3	37757.2
625.655	37599.92
626.01	37478.34
626.365	37671.78
626.72	37566.02
627.075	37797.42
627.43	37560.14
627.785	37604.43
628.14	37675.62
628.495	37720.14
628.85	37729.18
629.205	37594.94
629.559	37847.14
629.914	37591.1
630.269	37785
630.623	37739.35
630.978	37653.7
631.332	37683.75
631.687	37880.13
632.041	37638.56
632.396	37733.7
632.75	37666.35
633.104	37643.98
633.459	37644.21
633.813	37611.21
634.167	37604.66
634.521	37520.6
634.875	37691.89
635.229	37540.03
635.583	37391.79
635.937	37494.61
636.291	37489.86
636.645	37552.68
636.999	37489.64
637.352	37478.11
637.706	37263.65
638.06	37444.44
638.413	37384.33
638.767	37259.59
639.121	37505.68
639.474	37261.39
639.828	37320.6
640.181	37212.13
640.534	37318.11
640.888	37159.93
641.241	37048.74
641.594	37144.11
641.947	37264.78
642.301	37101.4
642.654	37111.34
643.007	36909.99
643.36	37041.96
643.713	37004.22
644.066	37070.89
644.419	36915.41
644.771	36735.98
645.124	36330.57
645.477	36293.73
645.83	36038.6
646.182	35999.05
646.535	36030.47
646.888	35946.63
647.24	35736.24
647.593	35854.2
647.945	35813.3
648.298	35777.14
648.65	35740.08
649.002	35588.67
649.355	35714.09
649.707	35639.06
650.059	35815.1
650.411	36294.19
650.763	36290.8
651.115	36705.93
651.467	36533.05
651.819	36436.33
652.171	36274.07
652.523	36426.16
652.875	36359.04
653.227	36136
653.578	36545.71
653.93	36361.98
654.282	36265.71
654.633	36192.04
654.985	36227.3
655.337	36143.46
655.688	36238.37
656.039	36334.86
656.391	35926.29
656.742	36078.37
657.094	36067.75
657.445	36350.68
657.796	36136.22
658.147	36187.98
658.498	36047.19
658.849	36130.35
659.2	36017.13
659.551	36011.48
659.902	35944.37
660.253	35986.4
660.604	36012.84
660.955	35954.76
661.306	35994.99
661.656	35800.64
662.007	36054.42
662.358	35821.43
662.708	36013.74
663.059	35906.85
663.409	35531.27
663.76	36025.49
664.11	35931.71
664.461	35818.95
664.811	35805.84
665.161	35823.01
665.511	35658.5
665.862	35915.21
666.212	35917.25
666.562	35888.55
666.912	35726.29
667.262	35904.82
667.612	35811.04
667.962	35882.67
668.312	35635
668.662	35997.02
669.011	35829.79
669.361	35652.85
669.711	35783.92
670.06	35642.68
670.41	35618.95
670.76	35632.51
671.109	35758.83
671.459	35690.14
671.808	35638.61
672.157	35731.49
672.507	35557.71
672.856	35538.05
673.205	35558.16
673.554	35620.98
673.904	35611.27
674.253	35622.79
674.602	35574.88
674.951	35088.79
675.3	34973.09
675.649	35530.59
675.998	35368.34
676.346	35514.55
676.695	35596.13
677.044	35166.53
677.393	35317.04
677.741	35341.22
678.09	35216.02
678.438	35281.11
678.787	35279.3
679.135	35215.35
679.484	34964.5
679.832	35090.15
680.181	34933.54
680.529	35145.29
680.877	34931.96
681.225	34820.1
681.573	35142.8
681.922	34980.55
682.27	34816.49
682.618	34869.37
682.966	34758.41
683.314	34844.96
683.661	34819.42
684.009	34590.5
684.357	34553.89
684.705	34550.5
685.053	34477.96
685.4	34466.66
685.748	34182.15
686.095	34244.52
686.443	34119.55
686.79	34068.71
687.138	34220.12
687.485	34071.42
687.832	34067.8
688.18	34085.66
688.527	33920.69
688.874	33950.97
689.221	33872.56
689.568	33545.33
689.915	33735.84
690.262	33780.58
690.609	33583.3
690.956	33372.46
691.303	33365.45
691.65	33214.95
691.997	33263.98
692.344	32992.8
692.69	33024.44
693.037	33112.58
693.383	32812.92
693.73	32989.87
694.077	32707.61
694.423	32728.86
694.769	32561.18
695.116	32626.94
695.462	32464.46
695.808	32477.34
696.155	32510.33
696.501	32203.45
696.847	32218.36
697.193	32052.49
697.539	32014.75
697.885	31899.73
698.231	31771.59
698.577	31753.97
698.923	31798.94
699.269	31536.57
699.614	31480.98
699.96	31434.65
700.306	31388.55
700.651	31292.06
700.997	31188.56
701.342	31093.87
701.688	31100.43
702.033	30918.74
702.379	30867.44
702.724	30943.82
703.069	30982.01
703.415	30571.85
703.76	30600.1
704.105	30608.91
704.45	30414.79
704.795	30266.55
705.14	30153.33
705.485	30256.15
705.83	30113.56
706.175	30157.17
706.52	30016.16
706.865	29868.82
707.209	29857.97
707.554	29802.83
707.899	29830.18
708.243	29743.17
708.588	29709.5
708.932	29495.95
709.277	29452.56
709.621	29478.32
709.966	29290.3
710.31	29426.57
710.654	29131.21
710.998	29203.98
711.342	29239.46
711.687	29091.21
712.031	29024.32
712.375	28939.13
712.719	28936.41
713.063	28948.62
713.407	28898.22
713.75	28682.64
714.094	28793.59
714.438	28593.15
714.782	28598.34
715.125	28558.57
715.469	28599.02
715.812	28463.66
716.156	28281.29
716.499	28217.11
716.843	28243.55
717.186	28121.29
717.53	28220.5
717.873	28239.71
718.216	28239.48
718.559	27920.85
718.902	27723.34
719.246	27871.36
719.589	27693.74
719.932	27822.09
720.275	27725.37
720.617	27623.23
720.96	27574.87
721.303	27599.73
721.646	27692.15
721.989	27355.89
722.331	27509.79
722.674	27321.99
723.016	27431.37
723.359	27380.3
723.701	27409.9
724.044	27231.15
724.386	27045.84
724.729	27213.52
725.071	27150.47
725.413	27163.58
725.755	26990.93
726.097	26881.78
726.439	26836.36
726.782	26793.42
727.124	26833.64
727.465	26637.04
727.807	26620.99
728.149	26775.57
728.491	26668
728.833	26639.53
729.175	26580.54
729.516	26532.64
729.858	26377.39
730.199	26441.56
730.541	26348.46
730.882	26407.44
731.224	26479.76
731.565	26324.05
731.906	26168.13
732.248	26265.98
732.589	26142.14
732.93	26025.53
733.271	26176.49
733.612	26058.52
733.953	26060.11
734.294	25909.15
734.635	25866.89
734.976	25905.08
735.317	25802.26
735.658	25826.67
735.999	25827.12
736.339	25739.66
736.68	25853.78
737.021	25759.77
737.361	25706.67
737.702	25687.46
738.042	25581.25
738.383	25497.18
738.723	25543.74
739.063	25402.95
739.404	25451.08
739.744	25419.67
740.084	25232.78
740.424	25376.51
740.764	25327.47
741.104	25413.34
741.444	25157.3
741.784	25186.68
742.124	25272.33
742.464	25145.33
742.804	25224.65
743.143	24980.36
743.483	25085.89
743.823	24828.73
744.162	24921.6
744.502	25024.65
744.841	24814.49
745.181	24892.23
745.52	24756.19
745.86	24830.53
746.199	24722.74
746.538	24738.78
746.877	24757.99
747.216	24644.32
747.556	24573.82
747.895	24583.99
748.234	24490.88
748.573	24477.55
748.911	24466.93
749.25	24406.59
749.589	24371.11
749.928	24313.03
750.267	24464.67
750.605	24181.29
750.944	24154.85
751.283	24119.82
751.621	24198.46
751.96	23982.19
752.298	24027.84
752.636	24128.41
752.975	23927.73
753.313	23855.64
753.651	23897.9
753.989	23858.36
754.327	23744.91
754.666	23546.95
755.004	23688.19
755.342	23645.25
755.679	23553.28
756.017	23463.56
756.355	23533.17
756.693	23328.2
757.031	23430.34
757.368	23261.76
757.706	23124.36
758.044	23168.43
758.381	23211.82
758.719	22973.63
759.056	23046.85
759.394	22967.31
759.731	22837.82
760.068	22799.17
760.405	22741.55
760.743	22592.63
761.08	22735.9
761.417	22578.39
761.754	22507.2
762.091	22512.4
762.428	22307.66
762.765	22350.6
763.102	22330.94
763.438	22123.49
763.775	22038.97
764.112	22050.72
764.449	22083.04
764.785	21961
765.122	21832.87
765.458	21755.81
765.795	21689.83
766.131	21714.68
766.467	21545.42
766.804	21545.42
767.14	21385.2
767.476	21403.51
767.812	21355.37
768.148	21371.64
768.485	21140.91
768.821	21029.73
769.157	21046.9
769.492	20998.32
769.828	20924.42
770.164	20700.02
770.5	20765.56
770.836	20628.61
771.171	20670.19
771.507	20532.12
771.842	20395.4
772.178	20323.53
772.513	20319.24
772.849	20252.8
773.184	20230.2
773.519	20208.28
773.855	20040.6
774.19	19960.61
774.525	19905.69
774.86	19913.83
775.195	19789.31
775.53	19798.12
775.865	19634.06
776.2	19525.36
776.535	19305.26
776.87	19403.78
777.205	19340.28
777.539	19298.02
777.874	19253.51
778.209	19056.22
778.543	19110.68
778.878	18943.23
779.212	19020.74
779.547	18834.08
779.881	18864.36
780.215	18719.96
780.55	18831.6
780.884	18582.56
781.218	18628.66
781.552	18506.18
781.886	18530.59
782.22	18423.47
782.554	18351.38
782.888	18158.84
783.222	18077.49
783.556	18070.71
783.889	18030.71
784.223	17940.32
784.557	17833.66
784.89	17875.46
785.224	17769.48
785.557	17694.9
785.891	17595.92
786.224	17605.41
786.558	17506.43
786.891	17357.51
787.224	17356.38
787.557	17242.94
787.891	17311.64
788.224	17238.87
788.557	17178.53
788.89	17067.8
789.223	17029.83
789.556	16836.85
789.888	16916.17
790.221	16910.74
790.554	16756.62
790.887	16703.06
791.219	16642.73
791.552	16671.65
791.884	16550.53
792.217	16543.75
792.549	16489.74
792.882	16223.53
793.214	16174.04
793.546	16223.53
793.879	16181.04
794.211	15988.73
794.543	16081.61
794.875	16114.6
795.207	16045.23
795.539	16032.8
795.871	15959.35
796.203	15788.51
796.535	15747.38
796.867	15679.36
797.198	15728.85
797.53	15639.36
797.862	15522.3
798.193	15521.4
798.525	15430.78
798.856	15578.57
799.188	15328.41
799.519	15284.34
799.85	15255.64
800.182	15156.21
800.513	15197.11
800.844	15085.03
801.175	15155.08
801.506	15058.81
801.837	15062.43
802.168	15055.65
802.499	14899.72
802.83	14811.59
803.161	14762.55
803.491	14746.05
803.822	14838.48
804.153	14704.25
804.483	14538.6
804.814	14491.14
805.145	14548.32
805.475	14537.24
805.805	14380.19
806.136	14463.35
806.466	14426.06
806.796	14450.47
807.126	14318.72
807.457	14266.07
807.787	14185.62
808.117	14207.08
808.447	14083.7
808.777	14102.91
809.107	14076.69
809.436	13993.98
809.766	14080.31
810.096	13942.46
810.426	13887.54
810.755	13929.8
811.085	13857.26
811.414	13848.45
811.744	13621.56
812.073	13712.63
812.403	13687.1
812.732	13570.49
813.061	13655.23
813.39	13598.06
813.719	13550.15
814.049	13632.18
814.378	13501.34
814.707	13462.47
815.036	13453.43
815.365	13397.39
815.693	13252.53
816.022	13312.87
816.351	13250.27
816.68	13214.12
817.008	13232.42
817.337	13155.59
817.665	13001.69
817.994	13170.05
818.322	13082.59
818.651	12944.74
818.979	13000.56
819.307	13022.26
819.636	12954.01
819.964	12916.5
820.292	12956.72
820.62	12935.93
820.948	12814.35
821.276	12866.33
821.604	12896.16
821.932	12844.63
822.259	12851.19
822.587	12826.1
822.915	12748.14
823.243	12855.03
823.57	12715.6
823.898	12874.92
824.225	12692.32
824.553	12669.5
824.88	12745.65
825.207	12835.59
825.535	12730.51
825.862	12732.55
826.189	12679.67
826.516	12749.04
826.843	12862.03
827.17	12810.74
827.497	12778.65
827.824	12849.15
828.151	12863.16
828.478	12791.75
828.805	12813.45
829.131	12689.16
829.458	12643.74
829.785	12657.52
830.111	12684.86
830.438	12721.02
830.764	12683.06
831.09	12740
831.417	12601.48
831.743	12755.6
832.069	12697.29
832.395	12682.38
832.722	12753.79
833.048	12580.69
833.374	12644.87
833.7	12549.5
834.026	12594.47
834.351	12553.12
834.677	12594.47
835.003	12589.95
835.329	12572.1
835.654	12455.94
835.98	12534.13
836.306	12548.6
836.631	12453.91
836.956	12446
837.282	12443.97
837.607	12388.6
837.932	12348.15
838.258	12400.8
838.583	12392.44
838.908	12268.15
839.233	12365.32
839.558	12243.07
839.883	12256.17
840.208	12165.78
840.533	12243.52
840.858	12325.33
841.182	12246.46
841.507	12213.24
841.832	12081.49
842.156	12106.12
842.481	12037.42
842.805	12061.15
843.13	12014.15
843.454	11965.56
843.778	11952.68
844.103	11966.47
844.427	11931.89
844.751	11912
845.075	11885.79
845.399	11807.6
845.723	11710.43
846.047	11773.48
846.371	11715.85
846.695	11689.18
847.019	11540.94
847.343	11557.66
847.666	11471.56
847.99	11442.19
848.313	11470.88
848.637	11389.31
848.96	11336.2
849.284	11300.95
849.607	11170.55
849.931	11225.24
850.254	11076.32
850.577	11075.19
850.9	11025.02
851.223	11053.72
851.546	10927.17
851.869	10861.86
852.192	10923.55
852.515	10824.35
852.838	10788.19
853.161	10717.46
853.483	10733.05
853.806	10662.09
854.129	10701.64
854.451	10557.24
854.774	10567.41
855.096	10506.39
855.419	10505.71
855.741	10550.01
856.063	10419.61
856.385	10449.22
856.708	10337.58
857.03	10320.63
857.352	10352.95
857.674	10286.06
857.996	10239.05
858.318	10178.94
858.64	10206.74
858.961	10159.96
859.283	10191.6
859.605	10110.02
859.926	10105.27
860.248	9991.83
860.57	10009.45
860.891	10045.61
861.212	10032.96
861.534	9966.07
861.855	9923.35
862.176	9975.56
862.498	9888.78
862.819	9895.33
863.14	9861.21
863.461	9863.92
863.782	9800.65
864.103	9787.54
864.424	9789.8
864.745	9826.41
865.065	9764.26
865.386	9736.92
865.707	9670.25
866.027	9731.95
866.348	9709.35
866.668	9658.28
866.989	9648.79
867.309	9610.82
867.63	9604.72
867.95	9513.65
868.27	9559.3
868.59	9578.28
868.91	9567.66
869.23	9507.77
869.55	9465.74
869.87	9421.9
870.19	9454.89
870.51	9458.51
870.83	9469.13
871.15	9407.44
871.469	9353.65
871.789	9444.5
872.109	9391.39
872.428	9347.78
872.748	9336.25
873.067	9285.63
873.386	9383.93
873.706	9370.15
874.025	9240.21
874.344	9265.97
874.663	9243.15
874.982	9264.16
875.301	9174.22
875.62	9166.76
875.939	9202.02
876.258	9142.58
876.577	9105.52
876.896	9146.88
877.214	9099.65
877.533	9133.09
877.852	9091.29
878.17	9058.07
878.489	9025.07
878.807	9064.17
879.125	9004.06
879.444	8963.61
879.762	8995.92
880.08	8968.13
880.398	8945.98
880.716	8901.69
881.034	8868.47
881.352	8851.52
881.67	8885.87
881.988	8913.89
882.306	8831.18
882.624	8879.54
882.941	8810.16
883.259	8787.79
883.577	8697.62
883.894	8754.35
884.212	8760.22
884.529	8736.72
884.846	8768.36
885.164	8710.96
885.481	8659.89
885.798	8652.65
886.115	8543.5
886.432	8604.75
886.75	8575.82
887.067	8605.42
887.383	8533.79
887.7	8525.88
888.017	8489.72
888.334	8494.47
888.651	8474.13
888.967	8466.67
889.284	8383.28
889.6	8337.63
889.917	8382.6
890.233	8357.97
890.55	8284.98
890.866	8294.02
891.182	8245.88
891.498	8223.51
891.815	8212.44
892.131	8174.02
892.447	8144.19
892.763	8173.12
893.079	8179.22
893.395	8122.95
893.71	8081.37
894.026	8101.26
894.342	8023.52
894.657	8002.5
894.973	8047.02
895.289	7964.76
895.604	7953.24
895.92	7898.78
896.235	7885.22
896.55	7836.4
896.865	7839.12
897.181	7803.86
897.496	7729.97
897.811	7776.74
898.126	7726.12
898.441	7764.99
898.756	7759.8
899.071	7650.65
899.386	7652.68
899.7	7601.38
900.015	7576.3
900.33	7530.42
900.644	7485.23
900.959	7465.57
901.273	7446.36
901.588	7445.68
901.902	7388.05
902.216	7378.11
902.531	7354.16
902.845	7298.11
903.159	7267.83
903.473	7229.64
903.787	7196.42
904.101	7201.84
904.415	7143.31
904.729	7162.52
905.042	7112.81
905.356	7060.15
905.67	7086.82
905.984	7049.53
906.297	7020.38
906.611	6981.06
906.924	6953.49
907.237	6937.67
907.551	6947.84
907.864	6880.95
908.177	6845.7
908.491	6862.64
908.804	6815.64
909.117	6750.33
909.43	6766.83
909.743	6735.42
910.056	6709.2
910.368	6631.69
910.681	6682.08
910.994	6596.21
911.307	6582.2
911.619	6523.44
911.932	6617.91
912.244	6515.31
912.557	6485.71
912.869	6478.25
913.181	6452.94
913.494	6421.3
913.806	6421.53
914.118	6369.78
914.43	6346.95
914.742	6333.39
915.054	6250.68
915.366	6231.7
915.678	6231.25
915.99	6165.94
916.302	6178.59
916.613	6177.92
916.925	6130.69
917.236	6102.66
917.548	6061.08
917.859	6052.95
918.171	6057.24
918.482	5955.78
918.794	5916
919.105	5931.37
919.416	5962.78
919.727	5885.27
920.038	5852.73
920.349	5784.71
920.66	5840.75
920.971	5770.47
921.282	5819.96
921.593	5760.98
921.903	5711.49
922.214	5710.81
922.525	5777.25
922.835	5661.32
923.146	5633.75
923.456	5635.33
923.767	5650.7
924.077	5573.41
924.387	5561.89
924.697	5516.47
925.008	5482.34
925.318	5433.3
925.628	5469.46
925.938	5485.51
926.248	5410.48
926.558	5366.41
926.867	5327.54
927.177	5357.83
927.487	5302.01
927.796	5323.02
928.106	5285.06
928.416	5270.82
928.725	5289.8
929.034	5243.7
929.344	5228.11
929.653	5207.77
929.962	5118.96
930.271	5115.12
930.581	5093.65
930.89	5023.6
931.199	5074.22
931.508	5077.61
931.817	5037.16
932.125	5005.07
932.434	4986.76
932.743	4927.55
933.051	4906.54
933.36	4935.24
933.669	4853.66
933.977	4825.64
934.286	4850.49
934.594	4852.53
934.902	4829.03
935.21	4784.28
935.519	4783.15
935.827	4750.16
936.135	4721.23
936.443	4706.77
936.751	4694.79
937.059	4661.8
937.367	4627.22
937.674	4584.51
937.982	4596.94
938.29	4565.76
938.597	4563.27
938.905	4521.69
939.213	4493.22
939.52	4522.82
939.827	4491.41
940.135	4465.65
940.442	4413.44
940.749	4466.1
941.056	4427.91
941.363	4365.08
941.67	4393.1
941.977	4351.52
942.284	4270.17
942.591	4318.53
942.898	4295.48
943.205	4278.98
943.511	4245.31
943.818	4227.69
944.125	4206.22
944.431	4178.65
944.738	4201.02
945.044	4203.96
945.35	4162.38
945.657	4134.58
945.963	4135.48
946.269	4125.99
946.575	4094.13
946.881	4081.93
947.187	4048.03
947.493	4020.01
947.799	4027.01
948.105	3982.04
948.41	3979.1
948.716	4010.06
949.022	3968.03
949.327	3945.43
949.633	3918.77
949.938	3907.24
950.244	3920.12
950.549	3895.26
950.854	3850.07
951.16	3818.66
951.465	3796.28
951.77	3797.19
952.075	3824.76
952.38	3739.34
952.685	3777.53
952.99	3769.39
953.294	3716.06
953.599	3714.25
953.904	3685.33
954.209	3634.93
954.513	3687.13
954.818	3634.93
955.122	3611.66
955.426	3613.92
955.731	3628.15
956.035	3587.7
956.339	3602.39
956.643	3545.22
956.948	3565.78
957.252	3535.95
957.556	3504.54
957.86	3493.24
958.163	3474.48
958.467	3480.81
958.771	3469.74
959.075	3477.65
959.378	3439.91
959.682	3399.23
959.985	3402.85
960.289	3365.56
960.592	3397.65
960.896	3344.54
961.199	3314.49
961.502	3354.49
961.805	3293.47
962.108	3279.24
962.411	3262.51
962.714	3252.12
963.017	3228.39
963.32	3242.4
963.623	3236.98
963.926	3179.35
964.228	3181.61
964.531	3204.44
964.833	3163.53
965.136	3136.64
965.438	3110.65
965.741	3117.88
966.043	3116.75
966.345	3087.15
966.648	3068.39
966.95	3054.38
967.252	3014.61
967.554	3050.99
967.856	3029.75
968.158	3037.66
968.46	2989.53
968.761	2985.01
969.063	2986.59
969.365	2948.62
969.666	2943.65
969.968	2914.27
970.269	2942.3
970.571	2905.23
970.872	2925.57
971.174	2919.02
971.475	2881.51
971.776	2854.16
972.077	2835.63
972.378	2833.15
972.679	2814.62
972.98	2843.54
973.281	2818.91
973.582	2806.93
973.883	2763.32
974.183	2744.33
974.484	2770.55
974.785	2719.7
975.085	2724.67
975.386	2748.18
975.686	2702.98
975.986	2724.45
976.287	2682.42
976.587	2661.85
976.887	2672.25
977.187	2676.31
977.487	2627.5
977.787	2627.28
978.087	2657.11
978.387	2607.16
978.687	2589.76
978.987	2593.15
979.286	2603.77
979.586	2585.24
979.885	2545.92
980.185	2539.82
980.484	2515.64
980.784	2477.45
981.083	2513.83
981.382	2512.48
981.682	2507.5
981.981	2486.71
982.28	2427.73
982.579	2455.98
982.878	2422.99
983.177	2408.3
983.475	2440.16
983.774	2415.76
984.073	2406.49
984.372	2399.03
984.67	2364.68
984.969	2328.75
985.267	2369.88
985.566	2311.35
985.864	2335.76
986.162	2357.23
986.461	2318.58
986.759	2347.06
987.057	2265.48
987.355	2292.82
987.653	2264.35
987.951	2297.11
988.249	2252.6
988.547	2249.21
988.844	2253.95
989.142	2235.2
989.44	2215.76
989.737	2222.99
990.035	2181.86
990.332	2186.38
990.63	2180.06
990.927	2183.67
991.224	2166.04
991.521	2130.34
991.819	2196.55
992.116	2149.32
992.413	2124.24
992.71	2098.25
993.006	2125.37
993.303	2109.55
993.6	2083.79
993.897	2105.03
994.193	2065.26
994.49	2076.56
994.787	2032.71
995.083	2012.6
995.379	2018.93
995.676	2015.77
995.972	2005.15
996.268	1969.21
996.565	1966.28
996.861	2001.53
997.157	1950.46
997.453	1967.18
997.749	1965.82
998.044	1960.85
998.34	1912.72
998.636	1920.18
998.932	1901.42
999.227	1878.82
999.523	1899.84
999.818	1899.61
1000.114	1859.61
1000.409	1841.99
1000.704	1862.32
1001	1854.19
1001.295	1851.48
1001.59	1811.03
1001.885	1798.37
1002.18	1798.37
1002.475	1782.55
1002.77	1807.64
1003.065	1779.84
1003.359	1774.19
1003.654	1769.45
1003.949	1781.42
1004.243	1733.51
1004.538	1729.45
1004.832	1735.1
1005.127	1743.46
1005.421	1721.99
1005.715	1700.52
1006.009	1693.29
1006.304	1679.28
1006.598	1654.65
1006.892	1670.69
1007.186	1659.62
1007.48	1645.38
1007.773	1638.6
1008.067	1629.34
1008.361	1638.38
1008.655	1608.09
1008.948	1608.77
1009.242	1615.78
1009.535	1586.62
1009.829	1566.96
1010.122	1578.26
1010.415	1536.23
1010.708	1539.17
1011.001	1542.56
1011.295	1510.92
1011.588	1542.33
1011.881	1519.06
1012.173	1511.82
1012.466	1463.24
1012.759	1470.24
1013.052	1485.61
1013.344	1456.46
1013.637	1472.5
1013.93	1454.43
1014.222	1437.48
1014.514	1430.24
1014.807	1445.39
1015.099	1413.3
1015.391	1416.01
1015.683	1425.73
1015.976	1391.15
1016.268	1406.97
1016.56	1368.33
1016.851	1394.77
1017.143	1354.54
1017.435	1334.88
1017.727	1351.6
1018.018	1362.9
1018.31	1337.14
1018.602	1338.95
1018.893	1324.03
1019.185	1345.73
1019.476	1303.69
1019.767	1316.8
1020.058	1290.59
1020.35	1284.71
1020.641	1241.32
1020.932	1256.46
1021.223	1271.6
1021.514	1237.03
1021.804	1254.2
1022.095	1252.4
1022.386	1238.16
1022.677	1208.33
1022.967	1202.91
1023.258	1196.58
1023.548	1192.96
1023.839	1182.12
1024.129	1184.6
1024.419	1187.77
1024.709	1172.62
1025	1130.59
1025.29	1152.29
1025.58	1112.97
1025.87	1113.87
1026.16	1117.03
1026.449	1140.53
1026.739	1138.28
1027.029	1122.91
1027.319	1097.37
1027.608	1083.14
1027.898	1097.37
1028.187	1070.93
1028.477	1057.6
1028.766	1056.7
1029.055	1073.42
1029.344	1058.5
1029.634	1064.6
1029.923	1038.39
1030.212	1028.45
1030.501	1035
1030.79	1052.18
1031.078	1004.95
1031.367	1023.25
1031.656	1011.95
1031.945	989.13
1032.233	1002.23
1032.522	982.35
1032.81	997.26
1033.099	968.79
1033.387	964.27
1033.675	960.43
1033.963	946.64
1034.251	945.06
1034.54	948.68
1034.828	953.2
1035.116	936.25
1035.403	927.89
1035.691	918.17
1035.979	926.53
1036.267	929.69
1036.554	923.82
1036.842	878.62
1037.129	921.11
1037.417	887.89
1037.704	887.43
1037.992	872.07
1038.279	867.1
1038.566	894.89
1038.853	894.89
1039.14	894.89
