Data from hue_50_FLMS001491_66.txt Node
Date: Mon Feb 06 15:10:45 GMT 2017
User: dcchb
Spectrometer: FLMS00149
Trigger mode: 0
Integration Time (sec): 2.000000E-2
Scans to average: 10
Electric dark correction enabled: true
Nonlinearity correction enabled: false
Boxcar width: 0
XAxis mode: Wavelengths
Number of Pixels in Spectrum: 2048
>>>>>Begin Spectral Data<<<<<
341.393	3.08
341.776	3.08
342.16	3.08
342.543	-64.49
342.927	-59.52
343.31	-76.24
343.693	-86.64
344.077	-51.16
344.46	-63.59
344.843	-32.17
345.226	-47.32
345.61	-20.2
345.993	-37.82
346.376	-5.51
346.759	10.31
347.142	29.74
347.525	37.2
347.908	61.16
348.291	76.3
348.674	96.41
349.057	109.52
349.44	128.27
349.823	139.35
350.206	162.17
350.588	202.4
350.971	206.69
351.354	236.29
351.737	246.69
352.119	245.78
352.502	272.68
352.884	274.71
353.267	269.96
353.65	302.51
354.032	314.48
354.414	310.19
354.797	343.18
355.179	325.56
355.562	327.36
355.944	329.17
356.326	342.28
356.709	343.86
357.091	347.48
357.473	357.42
357.855	358.32
358.238	342.51
358.62	330.53
359.002	350.64
359.384	352
359.766	381.37
360.148	362.39
360.53	350.41
360.912	351.77
361.294	338.89
361.676	350.41
362.057	321.71
362.439	334.37
362.821	351.54
363.203	333.01
363.584	337.31
363.966	317.65
364.348	330.75
364.729	334.82
365.111	327.82
365.493	325.1
365.874	320.58
366.256	318.1
366.637	345.22
367.019	316.52
367.4	319.45
367.781	322.17
368.163	316.97
368.544	323.07
368.925	301.15
369.306	319.68
369.688	294.14
370.069	331.21
370.45	326.46
370.831	328.04
371.212	314.26
371.593	339.34
371.974	315.61
372.355	319.45
372.736	339.79
373.117	330.08
373.498	320.58
373.879	329.62
374.26	314.26
374.641	318.78
375.021	350.41
375.402	359.23
375.783	323.07
376.163	341.15
376.544	328.04
376.925	328.04
377.305	328.27
377.686	319.91
378.066	360.58
378.447	332.79
378.827	326.23
379.208	328.04
379.588	330.08
379.968	344.54
380.349	334.14
380.729	330.53
381.109	352.9
381.489	351.54
381.87	337.31
382.25	321.94
382.63	353.8
383.01	333.92
383.39	347.02
383.77	354.93
384.15	340.02
384.53	341.83
384.91	355.16
385.29	361.04
385.67	368.04
386.049	348.83
386.429	347.93
386.809	369.62
387.189	366.01
387.568	369.17
387.948	352
388.328	367.14
388.707	339.57
389.087	381.37
389.466	381.6
389.846	360.36
390.225	367.36
390.605	372.11
390.984	369.17
391.363	365.78
391.743	381.15
392.122	356.74
392.501	371.2
392.881	377.98
393.26	377.53
393.639	364.88
394.018	379.11
394.397	380.47
394.776	379.11
395.155	386.57
395.534	398.1
395.913	392.22
396.292	380.92
396.671	395.16
397.05	386.57
397.429	394.93
397.808	384.99
398.186	400.81
398.565	389.96
398.944	384.54
399.323	371.66
399.701	390.64
400.08	407.14
400.458	407.81
400.837	421.15
401.215	388.61
401.594	383.18
401.972	394.48
402.351	415.05
402.729	402.84
403.107	405.55
403.486	416.4
403.864	382.28
404.242	416.63
404.62	408.27
404.999	422.28
405.377	426.34
405.755	418.44
406.133	404.65
406.511	415.95
406.889	429.73
407.267	426.12
407.645	429.96
408.023	433.58
408.401	441.49
408.779	413.92
409.156	416.85
409.534	433.8
409.912	433.12
410.29	441.49
410.667	429.96
411.045	419.11
411.422	432.22
411.8	447.36
412.178	456.63
412.555	457.53
412.933	450.52
413.31	449.85
413.687	447.14
414.065	454.82
414.442	471.77
414.819	470.41
415.197	479.45
415.574	471.99
415.951	448.72
416.328	486.46
416.705	481.26
417.082	490.98
417.46	473.12
417.837	495.72
418.214	496.4
418.591	489.17
418.967	490.52
419.344	491.2
419.721	484.65
420.098	494.59
420.475	513.35
420.852	490.3
421.228	507.02
421.605	496.63
421.982	511.09
422.358	514.03
422.735	527.58
423.111	516.74
423.488	512.67
423.864	523.97
424.241	542.73
424.617	512.67
424.994	518.55
425.37	527.13
425.746	535.27
426.123	549.05
426.499	552.67
426.875	557.41
427.251	557.87
427.627	553.35
428.003	544.08
428.379	557.19
428.756	574.36
429.132	562.84
429.507	564.65
429.883	561.26
430.259	573.46
430.635	597.64
431.011	589.5
431.387	589.96
431.763	600.13
432.138	600.13
432.514	589.96
432.89	600.58
433.265	613.68
433.641	631.09
434.016	620.01
434.392	638.32
434.767	617.07
435.143	633.12
435.518	634.7
435.894	641.48
436.269	655.49
436.644	641.93
437.02	664.53
437.395	663.63
437.77	650.52
438.145	660.69
438.52	644.19
438.895	683.29
439.271	679.9
439.646	687.58
440.021	696.62
440.395	707.02
440.77	689.16
441.145	709.5
441.52	720.8
441.895	711.76
442.27	725.32
442.645	718.77
443.019	741.59
443.394	701.37
443.769	723.96
444.143	726.22
444.518	722.83
444.892	739.78
445.267	748.82
445.641	712.21
446.016	753.34
446.39	746.79
446.764	754.7
447.139	737.75
447.513	754.47
447.887	747.92
448.262	760.35
448.636	780.46
449.01	774.81
449.384	783.85
449.758	770.29
450.132	801.25
450.506	800.8
450.88	808.71
451.254	803.06
451.628	802.15
452.002	796.5
452.376	822.04
452.75	856.16
453.123	842.38
453.497	833.34
453.871	835.83
454.244	857.29
454.618	863.4
454.992	855.49
455.365	871.53
455.739	884.41
456.112	887.58
456.486	903.85
456.859	897.29
457.232	931.64
457.606	916.95
457.979	919.44
458.352	922.15
458.725	937.52
459.099	964.41
459.472	974.35
459.845	996.5
460.218	998.31
460.591	974.35
460.964	1019.32
461.337	1027.01
461.71	1033.11
462.083	1041.24
462.456	1037.18
462.829	1063.62
463.201	1066.78
463.574	1089.83
463.947	1111.07
464.32	1124.41
464.692	1102.03
465.065	1113.78
465.438	1143.16
465.81	1176.83
466.183	1184.97
466.555	1199.88
466.928	1223.16
467.3	1176.61
467.672	1241.24
468.045	1280.11
468.417	1297.06
468.789	1287.57
469.161	1319.43
469.534	1337.06
469.906	1372.53
470.278	1412.08
470.65	1417.96
471.022	1452.31
471.394	1486.66
471.766	1495.7
472.138	1517.62
472.51	1567.56
472.882	1605.3
473.253	1636.93
473.625	1644.39
473.997	1705.86
474.369	1740.66
474.74	1755.58
475.112	1800.32
475.484	1850.49
475.855	1898.4
476.227	1922.12
476.598	2002.8
476.97	2044.83
477.341	2108.79
477.713	2179.97
478.084	2181.55
478.455	2239.86
478.827	2330.7
479.198	2376.12
479.569	2483.01
479.94	2535.89
480.311	2610.24
480.682	2732.05
481.053	2775.66
481.424	2856.34
481.795	2916
482.166	3054.07
482.537	3097.91
482.908	3203.45
483.279	3278.47
483.65	3432.59
484.021	3551.01
484.391	3570.67
484.762	3655.41
485.133	3776.54
485.503	3892.24
485.874	4019.24
486.244	4118.45
486.615	4225.34
486.985	4371.1
487.356	4517.99
487.726	4587.37
488.097	4742.39
488.467	4874.82
488.837	5008.6
489.207	5194.13
489.578	5265.09
489.948	5381.47
490.318	5534.23
490.688	5662.82
491.058	5836.15
491.428	5977.84
491.798	6074.11
492.168	6295.79
492.538	6340.77
492.908	6572.4
493.278	6746.4
493.648	6812.62
494.017	6972.39
494.387	7137.58
494.757	7229.56
495.126	7384.35
495.496	7498.93
495.866	7682.88
496.235	7851.69
496.605	7988.18
496.974	8084.22
497.344	8249.42
497.713	8352.01
498.082	8498.67
498.452	8703.19
498.821	8842.62
499.19	8938.44
499.559	9047.59
499.928	9209.16
500.298	9307.69
500.667	9523.28
501.036	9597.18
501.405	9739.32
501.774	9737.06
502.143	10033.1
502.512	10028.8
502.88	10205.07
503.249	10288.68
503.618	10456.82
503.987	10534.33
504.356	10718.73
504.724	10870.82
505.093	10920.76
505.462	11054.09
505.83	11182.9
506.199	11360.07
506.567	11491.59
506.936	11522.1
507.304	11731.13
507.672	11786.27
508.041	11963.89
508.409	12012.25
508.777	12228.52
509.145	12301.74
509.514	12337.22
509.882	12526.14
510.25	12581.96
510.618	12676.87
510.986	12809.75
511.354	13054.71
511.722	13129.51
512.09	13201.6
512.458	13281.15
512.826	13478.43
513.193	13527.7
513.561	13594.59
513.929	13792.77
514.297	13889.27
514.664	13989.6
515.032	14145.31
515.4	14234.57
515.767	14273.89
516.135	14389.82
516.502	14424.39
516.869	14662.35
517.237	14805.63
517.604	14766.98
517.972	15001.78
518.339	15039.07
518.706	15066.41
519.073	15171.72
519.44	15308.44
519.808	15538.26
520.175	15510.02
520.542	15758.6
520.909	15876.56
521.276	15908.88
521.643	16017.8
522.009	16230.67
522.376	16352.93
522.743	16430.67
523.11	16565.81
523.477	16700.49
523.843	16851.9
524.21	17078.79
524.577	17098.67
524.943	17179.8
525.31	17282.17
525.676	17467.03
526.043	17544.31
526.409	17677.87
526.776	17883.96
527.142	17897.3
527.508	18018.42
527.874	18120.57
528.241	18255.93
528.607	18317.63
528.973	18591.74
529.339	18539.77
529.705	18806.43
530.071	19015.23
530.437	19006.2
530.803	19107.89
531.169	19110.15
531.535	19285.74
531.901	19252.74
532.267	19483.24
532.632	19473.3
532.998	19527.31
533.364	19740.87
533.73	19736.8
534.095	20029.45
534.461	20065.6
534.826	20050.24
535.192	20158.93
535.557	20444.8
535.923	20173.17
536.288	20428.08
536.653	20562.54
537.019	20518.92
537.384	20597.79
537.749	20768.41
538.114	20920.04
538.479	20849.08
538.845	21030.77
539.21	20925.01
539.575	21096.54
539.94	21123.65
540.305	21293.14
540.67	21340.37
541.034	21344.66
541.399	21504.89
541.764	21404.1
542.129	21605.67
542.494	21745.56
542.858	21864.88
543.223	21800.7
543.587	21894.93
543.952	21979.45
544.316	22045.21
544.681	22088.15
545.045	22197.3
545.41	22306.9
545.774	22334.47
546.138	22409.95
546.503	22557.06
546.867	22545.54
547.231	22709.83
547.595	22767
547.959	22796.83
548.324	22790.5
548.688	23028.69
549.052	23066.88
549.416	22972.64
549.779	23056.48
550.143	23264.16
550.507	23312.97
550.871	23439.52
551.235	23541.67
551.599	23589.13
551.962	23705.28
552.326	23729.91
552.689	23876.58
553.053	23871.38
553.417	23796.8
553.78	24160.18
554.143	24007.19
554.507	24121.99
554.87	24366.28
555.234	24507.97
555.597	24502.55
555.96	24516.78
556.323	24617.8
556.686	24627.06
557.05	24768.3
557.413	24860.73
557.776	24913.84
558.139	25151.12
558.502	25145.92
558.865	25236.99
559.228	25509.3
559.59	25548.62
559.953	25503.88
560.316	25857.99
560.679	25742.97
561.041	25936.18
561.404	26002.4
561.767	26080.36
562.129	26135.5
562.492	26293.24
562.854	26325.1
563.217	26369.39
563.579	26553.79
563.941	26747.23
564.304	26909.04
564.666	26974.8
565.028	27068.36
565.39	27247.33
565.753	27300.21
566.115	27310.38
566.477	27549.02
566.839	27562.58
567.201	27697.94
567.563	27698.62
567.925	27946.53
568.287	28029.23
568.648	28035.79
569.01	28246.18
569.372	28372.73
569.734	28270.13
570.095	28482.78
570.457	28687.75
570.819	28663.79
571.18	28647.98
571.542	28860.4
571.903	28997.12
572.265	29068.98
572.626	29116.21
572.987	29219.71
573.349	29509.42
573.71	29417.45
574.071	29621.51
574.432	29611.57
574.794	29983.08
575.155	29847.04
575.516	29929.07
575.877	30077.99
576.238	30175.39
576.599	30367.48
576.96	30322.28
577.32	30445.22
577.681	30543.52
578.042	30791.2
578.403	30757.98
578.763	30945.99
579.124	31028.48
579.485	31160.68
579.845	31318.19
580.206	31338.07
580.566	31357.73
580.927	31560.44
581.287	31747.1
581.648	31716.82
582.008	31969.7
582.368	31930.38
582.728	32043.14
583.089	32223.7
583.449	32340.99
583.809	32453.75
584.169	32661.43
584.529	32709.11
584.889	33017.58
585.249	32792.27
585.609	32947.98
585.969	33191.58
586.329	33297.57
586.688	33417.57
587.048	33591.8
587.408	33481.97
587.768	33604.68
588.127	33773.49
588.487	33756.77
588.846	34085.35
589.206	33977.78
589.565	34117.21
589.925	34327.37
590.284	34424.09
590.643	34552.68
591.003	34726.69
591.362	35014.81
591.721	35036.96
592.08	35119.22
592.44	35331.19
592.799	35334.35
593.158	35372.77
593.517	35474.01
593.876	35725.08
594.235	35788.35
594.593	35914.9
594.952	35947.67
595.311	35915.36
595.67	36222.69
596.029	36425.17
596.387	36570.71
596.746	36617.48
597.104	36544.04
597.463	36665.84
597.822	36878.72
598.18	36925.72
598.538	36934.31
598.897	37201.42
599.255	37015.44
599.613	37683.67
599.972	37450.91
600.33	37591.24
600.688	37538.82
601.046	37666.27
601.404	37900.84
601.762	37984.68
602.12	38201.17
602.478	38249.98
602.836	38237.33
603.194	38087.5
603.552	38383.54
603.91	38387.83
604.268	38680.48
604.625	38540.14
604.983	38856.75
605.341	38790.99
605.698	38912.34
606.056	39065.33
606.413	38980.59
606.771	39228.26
607.128	39316.17
607.485	39131.99
607.843	39265.32
608.2	39524.75
608.557	39760.9
608.914	39637.07
609.272	39898.98
609.629	39948.92
609.986	40055.13
610.343	39912.76
610.7	40141.23
611.057	40250.38
611.414	40262.13
611.771	40420.1
612.127	40565.18
612.484	40503.93
612.841	40626.87
613.198	40550.94
613.554	40707.77
613.911	40982.57
614.267	40911.61
614.624	40811.95
614.98	41099.4
615.337	41356.57
615.693	41316.79
616.05	41269.56
616.406	41533.96
616.762	41495.1
617.118	41513.85
617.475	41476.79
617.831	41615.09
618.187	41760.85
618.543	41850.34
618.899	42125.36
619.255	42016.44
619.611	41960.39
619.967	42100.28
620.323	42120.84
620.678	42045.59
621.034	42047.4
621.39	42096.44
621.746	42069.77
622.101	42500.04
622.457	42278.8
622.812	42290.55
623.168	42513.37
623.523	42488.29
623.879	42608.29
624.234	42291.91
624.589	42520.61
624.945	42636.31
625.3	42725.8
625.655	42755.18
626.01	42744.78
626.365	42829.3
626.72	42741.84
627.075	42746.59
627.43	42639.47
627.785	42797.66
628.14	42772.12
628.495	42822.07
628.85	42796.98
629.205	42578.23
629.559	42919.24
629.914	42741.62
630.269	42750.66
630.623	42688.28
630.978	42662.07
631.332	42864.55
631.687	42865.23
632.041	42709.75
632.396	42806.7
632.75	42636.53
633.104	42788.39
633.459	42566.48
633.813	42614.84
634.167	42655.97
634.521	42604.22
634.875	42739.13
635.229	42578.23
635.583	42418.46
635.937	42519.7
636.291	42483.32
636.645	42413.04
636.999	42335.07
637.352	42450.78
637.706	42352.47
638.06	42403.55
638.413	42377.56
638.767	42294.4
639.121	42265.92
639.474	42127.4
639.828	42165.81
640.181	42335.98
640.534	42326.03
640.888	42081.97
641.241	41998.13
641.594	41922.43
641.947	42184.57
642.301	42148.64
642.654	42074.74
643.007	41969.89
643.36	41866.84
643.713	41926.72
644.066	42057.11
644.419	41821.19
644.771	41595.43
645.124	41233.18
645.477	41230.47
645.83	40962.23
646.182	40703.03
646.535	40765.62
646.888	40651.73
647.24	40476.82
647.593	40837.94
647.945	40581
648.298	40696.92
648.65	40408.57
649.002	40489.92
649.355	40626.19
649.707	40373.54
650.059	40618.06
650.411	40960.19
650.763	41039.74
651.115	41566.96
651.467	41430.46
651.819	41480.86
652.171	41270.24
652.523	41160.41
652.875	41245.84
653.227	41170.36
653.578	41306.4
653.93	41191.6
654.282	41089.23
654.633	40892.4
654.985	41086.07
655.337	41008.55
655.688	41093.3
656.039	41118.38
656.391	40835
656.742	40913.42
657.094	40872.74
657.445	41055.78
657.796	41008.33
658.147	40930.36
658.498	40765.4
658.849	40804.94
659.2	40816.24
659.551	40750.03
659.902	40886.75
660.253	40836.13
660.604	40940.76
660.955	40683.59
661.306	40864.83
661.656	40721.1
662.007	40776.47
662.358	40723.36
662.708	40672.52
663.059	40727.21
663.409	40385.97
663.76	40751.61
664.11	40758.17
664.461	40722.01
664.811	40687.43
665.161	40655.8
665.511	40596.36
665.862	40620.09
666.212	40679.75
666.562	40810.14
666.912	40724.95
667.262	40522.69
667.612	40576.48
667.962	40739.18
668.312	40612.18
668.662	40866.41
669.011	40549.13
669.361	40638.85
669.711	40530.15
670.06	40421.9
670.41	40423.49
670.76	40270.95
671.109	40453.31
671.459	40378.06
671.808	40272.98
672.157	40381.45
672.507	40184.62
672.856	40285.18
673.205	40174.68
673.554	40434.56
673.904	40175.58
674.253	40384.84
674.602	40349.14
674.951	39717.97
675.3	39496.28
675.649	40238.18
675.998	40144.4
676.346	40216.48
676.695	40321.79
677.044	39914.35
677.393	40137.16
677.741	40111.18
678.09	39978.3
678.438	39882.48
678.787	40043.38
679.135	40017.62
679.484	39704.41
679.832	39862.82
680.181	39700.11
680.529	39842.48
680.877	39662.38
681.225	39509.38
681.573	39855.36
681.922	39465.54
682.27	39452.44
682.618	39581.93
682.966	39356.62
683.314	39589.61
683.661	39404.3
684.009	39192.78
684.357	39080.47
684.705	39114.82
685.053	39129.06
685.4	39065.55
685.748	38756.64
686.095	38898.55
686.443	38815.17
686.79	38468.51
687.138	38720.71
687.485	38676.19
687.832	38522.07
688.18	38503.54
688.527	38403.2
688.874	38391.67
689.221	38406.36
689.568	38185.8
689.915	38173.37
690.262	38169.31
690.609	37925.7
690.956	37903.78
691.303	37879.15
691.65	37628.53
691.997	37810.22
692.344	37460.85
692.69	37436.22
693.037	37529.78
693.383	37114.65
693.73	37307.41
694.077	37023.57
694.423	37061.77
694.769	36792.85
695.116	36899.06
695.462	36776.58
695.808	36728.67
696.155	36709.46
696.501	36356.25
696.847	36399.86
697.193	36239.87
697.539	36268.34
697.885	36071.51
698.231	35964.85
698.577	35886.66
698.923	35961.46
699.269	35737.96
699.614	35570.96
699.96	35486.67
700.306	35572.99
700.651	35515.59
700.997	35282.15
701.342	35373.9
701.688	35238.31
702.033	35126.68
702.379	35155.83
702.724	34956.96
703.069	35029.05
703.415	34653.92
703.76	34760.81
704.105	34753.35
704.45	34476.52
704.795	34414.83
705.14	34201.73
705.485	34199.47
705.83	34199.47
706.175	34147.94
706.52	34053.03
706.865	33999.93
707.209	33948.18
707.554	33792.25
707.899	33875.63
708.243	33628.18
708.588	33713.61
708.932	33422.99
709.277	33385.03
709.621	33347.74
709.966	33094.86
710.31	33223.67
710.654	33036.79
710.998	33091.7
711.342	33025.04
711.687	32939.61
712.031	32748.66
712.375	32715.21
712.719	32876.11
713.063	32637.7
713.407	32662.79
713.75	32609.23
714.094	32512.05
714.438	32395.67
714.782	32368.33
715.125	32216.02
715.469	32348.44
715.812	32141.89
716.156	32026.19
716.499	32122.69
716.843	32047.89
717.186	31710.04
717.53	32149.58
717.873	31933.09
718.216	31941.67
718.559	31770.83
718.902	31558.63
719.246	31498.3
719.589	31720.21
719.932	31405.87
720.275	31486.77
720.617	31292.88
720.96	31358.19
721.303	31384.17
721.646	31228.47
721.989	31120.45
722.331	31245.2
722.674	31159.77
723.016	31051.53
723.359	30976.28
723.701	30954.13
724.044	30732.89
724.386	30719.56
724.729	30813.79
725.071	30757.75
725.413	30826.22
725.755	30627.58
726.097	30532.45
726.439	30349.17
726.782	30427.59
727.124	30527.93
727.465	30287.93
727.807	30340.59
728.149	30063.98
728.491	30162.06
728.833	30209.74
729.175	30023.31
729.516	29992.35
729.858	29950.99
730.199	30028.05
730.541	29862.86
730.882	29949.86
731.224	29881.16
731.565	29774.05
731.906	29808.4
732.248	29803.2
732.589	29607.72
732.93	29605.01
733.271	29594.17
733.612	29564.11
733.953	29563.66
734.294	29268.52
734.635	29322.99
734.976	29436.66
735.317	29225.14
735.658	29213.84
735.999	29228.3
736.339	29117.57
736.68	29166.15
737.021	29091.81
737.361	28945.82
737.702	29136.1
738.042	29042.54
738.383	28921.41
738.723	28957.8
739.063	28836.45
739.404	28967.29
739.744	28704.47
740.084	28730.01
740.424	28740.4
740.764	28631.25
741.104	28680.97
741.444	28529.56
741.784	28423.8
742.124	28468.09
742.464	28472.39
742.804	28468.77
743.143	28268.32
743.483	28344.03
743.823	28148.33
744.162	28180.64
744.502	28257.25
744.841	28061.1
745.181	28210.02
745.52	28063.81
745.86	28179.97
746.199	27995.79
746.538	27980.2
746.877	28096.58
747.216	28055.9
747.556	27918.05
747.895	27894.32
748.234	27737.94
748.573	27624.27
748.911	27617.49
749.25	27673.31
749.589	27554.9
749.928	27591.28
750.267	27645.52
750.605	27556.25
750.944	27496.14
751.283	27389.93
751.621	27395.35
751.96	27373.66
752.298	27246.66
752.636	27282.36
752.975	27128.24
753.313	27100.67
753.651	27021.13
753.989	26999.88
754.327	26873.11
754.666	26829.94
755.004	26868.14
755.342	26893.45
755.679	26792.21
756.017	26553.34
756.355	26713.11
756.693	26568.26
757.031	26586.11
757.368	26466.11
757.706	26483.51
758.044	26258.21
758.381	26268.83
758.719	26219.56
759.056	26182.73
759.394	26047.59
759.731	25985.22
760.068	25906.58
760.405	25885.34
760.743	25795.85
761.08	25671.56
761.417	25629.07
761.754	25621.16
762.091	25542.29
762.428	25450.32
762.765	25258.01
763.102	25349.08
763.438	25172.36
763.775	24996.77
764.112	24998.81
764.449	25058.92
764.785	24897.57
765.122	24816.21
765.458	24681.07
765.795	24695.09
766.131	24709.32
766.467	24614.86
766.804	24442.89
767.14	24363.79
767.476	24355.89
767.812	24166.06
768.148	24216.68
768.485	24064.82
768.821	23792.28
769.157	24011.26
769.492	23849.68
769.828	23801.55
770.164	23622.57
770.5	23515.91
770.836	23620.99
771.171	23442.91
771.507	23384.61
771.842	23333.54
772.178	23235.24
772.513	23254.9
772.849	23072.75
773.184	22979.2
773.519	22951.85
773.855	22814.91
774.19	22693.1
774.525	22642.26
774.86	22703.95
775.195	22592.09
775.53	22401.36
775.865	22412.89
776.2	22105.1
776.535	22121.59
776.87	22035.49
777.205	22002.73
777.539	21966.34
777.874	21823.3
778.209	21676.86
778.543	21714.37
778.878	21604.09
779.212	21576.75
779.547	21597.77
779.881	21378.79
780.215	21406.36
780.55	21480.25
780.884	21116.42
781.218	21200.49
781.552	21146.03
781.886	21001.4
782.22	20865.58
782.554	20855.64
782.888	20704.91
783.222	20503.33
783.556	20467.4
783.889	20486.61
784.223	20300.85
784.557	20304.24
784.89	20353.5
785.224	20157.35
785.557	20027.86
785.891	19955.32
786.224	20009.33
786.558	20041.65
786.891	19787.87
787.224	19729.79
787.557	19734.54
787.891	19613.86
788.224	19532.28
788.557	19517.37
788.89	19393.98
789.223	19582.45
789.556	19273.98
789.888	19199.18
790.221	19119.86
790.554	19100.2
790.887	19051.17
791.219	18933.65
791.552	18978.85
791.884	18863.15
792.217	18724.17
792.549	18763.49
792.882	18498.19
793.214	18479.43
793.546	18502.25
793.879	18424.52
794.211	18285.76
794.543	18308.81
794.875	18243.73
795.207	18334.35
795.539	18205.09
795.871	18164.64
796.203	18010.52
796.535	17909.5
796.867	17809.84
797.198	17803.74
797.53	17775.95
797.862	17725.78
798.193	17697.3
798.525	17573.69
798.856	17642.16
799.188	17463.86
799.519	17422.06
799.85	17331.66
800.182	17314.49
800.513	17280.14
800.844	17107.26
801.175	17241.5
801.506	17230.87
801.837	17028.17
802.168	17027.26
802.499	16975.51
802.83	16890.09
803.161	16925.57
803.491	16870.21
803.822	16889.87
804.153	16745.69
804.483	16535.75
804.814	16615.3
805.145	16490.33
805.475	16566.03
805.805	16491.91
806.136	16342.08
806.466	16444.91
806.796	16428.18
807.126	16234.97
807.457	16198.59
807.787	16209.21
808.117	16169.66
808.447	16087.85
808.777	16161.75
809.107	16041.53
809.436	15943.45
809.766	15994.07
810.096	15923.79
810.426	15894.19
810.755	15761.31
811.085	15747.52
811.414	15801.53
811.744	15586.4
812.073	15535.1
812.403	15515.89
812.732	15475.67
813.061	15463.01
813.39	15379.85
813.719	15435.44
814.049	15439.51
814.378	15331.04
814.707	15259.63
815.036	15280.64
815.365	15185.73
815.693	15017.37
816.022	15021.89
816.351	15064.15
816.68	14975.57
817.008	15042.23
817.337	14954.32
817.665	14884.95
817.994	14884.04
818.322	14864.16
818.651	14752.07
818.979	14715.01
819.307	14743.48
819.636	14682.47
819.964	14598.85
820.292	14617.61
820.62	14564.5
820.948	14564.5
821.276	14568.12
821.604	14574.9
821.932	14655.8
822.259	14627.1
822.587	14554.79
822.915	14520.21
823.243	14537.61
823.57	14467.78
823.898	14608.12
824.225	14436.15
824.553	14431.17
824.88	14564.73
825.207	14560.44
825.535	14505.97
825.862	14515.69
826.189	14381.91
826.516	14518.4
826.843	14565.86
827.17	14508.91
827.497	14503.71
827.824	14444.28
828.151	14548.23
828.478	14581.9
828.805	14574
829.131	14517.95
829.458	14420.55
829.785	14431.85
830.111	14370.16
830.438	14466.43
830.764	14510.04
831.09	14435.02
831.417	14310.27
831.743	14363.38
832.069	14446.09
832.395	14282.03
832.722	14382.14
833.048	14338.3
833.374	14356.6
833.7	14288.13
834.026	14369.25
834.351	14386.43
834.677	14295.36
835.003	14348.92
835.329	14290.61
835.654	14184.4
835.98	14185.76
836.306	14230.05
836.631	14160.9
836.956	14203.16
837.282	14156.83
837.607	14096.49
837.932	14114.8
838.258	14077.06
838.583	14124.97
838.908	13999.77
839.233	13979.43
839.558	13990.28
839.883	13970.4
840.208	13864.64
840.533	13920.45
840.858	13867.12
841.182	13907.12
841.507	13873
841.832	13793
842.156	13866.67
842.481	13755.03
842.805	13724.07
843.13	13694.92
843.454	13670.06
843.778	13620.35
844.103	13605.21
844.427	13561.59
844.751	13594.36
845.075	13430.3
845.399	13468.71
845.723	13395.27
846.047	13442.95
846.371	13341.03
846.695	13317.08
847.019	13124.09
847.343	13138.55
847.666	13039.8
847.99	12984.66
848.313	13038.67
848.637	12905.79
848.96	12885
849.284	12851.78
849.607	12774.27
849.931	12722.07
850.254	12682.07
850.577	12563.65
850.9	12502.86
851.223	12547.61
851.546	12400.04
851.869	12380.83
852.192	12463.32
852.515	12348.74
852.838	12246.6
853.161	12254.06
853.483	12160.27
853.806	12097.68
854.129	12153.04
854.451	12072.82
854.774	11968.19
855.096	11918.47
855.419	11952.14
855.741	11886.83
856.063	11841.19
856.385	11784.69
856.708	11797.12
857.03	11742.21
857.352	11759.38
857.674	11676.9
857.996	11675.54
858.318	11595.77
858.64	11574.3
858.961	11525.49
859.283	11463.79
859.605	11442.55
859.926	11422.44
860.248	11407.98
860.57	11341.99
860.891	11391.48
861.212	11316.45
861.534	11322.78
861.855	11236
862.176	11289.11
862.498	11238.94
862.819	11232.61
863.14	11195.55
863.461	11232.84
863.782	11133.86
864.103	11183.8
864.424	11056.35
864.745	11125.95
865.065	11057.93
865.386	11015.22
865.707	10960.53
866.027	10952.4
866.348	10945.16
866.668	11008.21
866.989	10971.83
867.309	10887.09
867.63	10853.64
867.95	10808.9
868.27	10843.25
868.59	10827.88
868.91	10806.41
869.23	10816.13
869.55	10798.5
869.87	10779.52
870.19	10740.88
870.51	10800.76
870.83	10700.88
871.15	10658.17
871.469	10698.62
871.789	10748.79
872.109	10711.27
872.428	10558.73
872.748	10589.02
873.067	10481.22
873.386	10625.17
873.706	10518.73
874.025	10536.59
874.344	10488
874.663	10522.12
874.982	10502.01
875.301	10458.85
875.62	10481.45
875.939	10406.65
876.258	10443.03
876.577	10421.34
876.896	10415.69
877.214	10387.21
877.533	10398.29
877.852	10314.67
878.17	10301.57
878.489	10356.71
878.807	10265.41
879.125	10271.06
879.444	10225.86
879.762	10199.2
880.08	10244.62
880.398	10206.2
880.716	10152.19
881.034	10196.03
881.352	10152.64
881.67	10093.44
881.988	10121.91
882.306	10047.79
882.624	10062.48
882.941	10013.21
883.259	9986.55
883.577	9870.39
883.894	9983.83
884.212	9929.37
884.529	9976.15
884.846	9904.51
885.164	9897.73
885.481	9854.12
885.798	9847.79
886.115	9777.96
886.432	9818.64
886.75	9773.9
887.067	9736.83
887.383	9621.13
887.7	9678.76
888.017	9663.16
888.334	9666.33
888.651	9621.36
888.967	9624.07
889.284	9518.31
889.6	9583.62
889.917	9478.76
890.233	9512.66
890.55	9374.58
890.866	9403.96
891.182	9356.73
891.498	9351.08
891.815	9307.47
892.131	9323.96
892.447	9282.38
892.763	9174.59
893.079	9222.27
893.395	9169.17
893.71	9152.44
894.026	9128.26
894.342	9081.26
894.657	9061.15
894.973	9093.01
895.289	9051.43
895.604	9061.82
895.92	8979.79
896.235	8919.68
896.55	8897.99
896.865	8910.19
897.181	8862.73
897.496	8817.08
897.811	8820.25
898.126	8829.51
898.441	8651.44
898.756	8689.18
899.071	8687.37
899.386	8720.59
899.7	8561.95
900.015	8588.16
900.33	8479.92
900.644	8465.68
900.959	8519.92
901.273	8425.23
901.588	8408.73
901.902	8308.4
902.216	8345.91
902.531	8359.24
902.845	8304.1
903.159	8249.42
903.473	8205.58
903.787	8175.07
904.101	8187.27
904.415	8182.3
904.729	8140.72
905.042	8118.35
905.356	8147.72
905.67	8011.46
905.984	8011.23
906.297	7986.15
906.611	7944.79
906.924	7938.46
907.237	7940.72
907.551	7851.46
907.864	7817.11
908.177	7836.55
908.491	7786.38
908.804	7678.81
909.117	7654.18
909.43	7691.69
909.743	7627.51
910.056	7603.11
910.368	7603.33
910.681	7542.54
910.994	7495.09
911.307	7472.94
911.619	7408.53
911.932	7421.42
912.244	7388.87
912.557	7373.73
912.869	7290.12
913.181	7273.62
913.494	7269.1
913.806	7197.47
914.118	7302.55
914.43	7136.68
914.742	7175.09
915.054	7143.46
915.366	7070.46
915.678	7068.2
915.99	7019.17
916.302	6946.4
916.613	7004.7
916.925	6927.64
917.236	6973.07
917.548	6882.9
917.859	6867.98
918.171	6800.87
918.482	6798.61
918.794	6809.23
919.105	6727.87
919.416	6654.66
919.727	6711.38
920.038	6652.4
920.349	6609.68
920.66	6605.39
920.971	6632.96
921.282	6513.19
921.593	6541.89
921.903	6475.68
922.214	6525.17
922.525	6414.89
922.835	6406.98
923.146	6380.54
923.456	6380.54
923.767	6305.96
924.077	6308.9
924.387	6301.44
924.697	6264.16
925.008	6205.85
925.318	6241.79
925.628	6162.47
925.938	6188.45
926.248	6090.38
926.558	6077.27
926.867	6098.74
927.177	6044.28
927.487	6003.15
927.796	5989.36
928.106	5992.75
928.416	5938.52
928.725	5897.16
929.034	5891.51
929.344	5947.78
929.653	5829.37
929.962	5838.41
930.271	5790.5
930.581	5711.18
930.89	5717.51
931.199	5717.73
931.508	5688.13
931.817	5627.34
932.125	5665.3
932.434	5610.62
932.743	5577.4
933.051	5544.63
933.36	5518.19
933.669	5515.93
933.977	5485.42
934.286	5456.49
934.594	5462.37
934.902	5449.26
935.21	5385.54
935.519	5404.52
935.827	5354.35
936.135	5338.31
936.443	5296.05
936.751	5273.67
937.059	5304.18
937.367	5221.7
937.674	5240.68
937.982	5216.05
938.29	5169.04
938.597	5184.64
938.905	5142.83
939.213	5099.22
939.52	5046.79
939.827	5100.35
940.135	4992.1
940.442	5042.04
940.749	5047.47
941.056	4988.03
941.363	4979.45
941.67	4951.65
941.977	4886.11
942.284	4869.39
942.591	4859.45
942.898	4879.11
943.205	4865.78
943.511	4810.86
943.818	4766.57
944.125	4781.94
944.431	4774.48
944.738	4731.99
945.044	4729.06
945.35	4695.84
945.657	4661.94
945.963	4658.55
946.269	4638.44
946.575	4616.74
946.881	4594.14
947.187	4627.36
947.493	4557.99
947.799	4553.47
948.105	4512.56
948.41	4498.33
948.716	4518.89
949.022	4490.87
949.327	4433.25
949.633	4414.49
949.938	4378.11
950.244	4409.52
950.549	4392.57
950.854	4345.34
951.16	4287.49
951.465	4342.63
951.77	4286.81
952.075	4280.48
952.38	4272.8
952.685	4229.41
952.99	4240.26
953.294	4238.45
953.599	4181.73
953.904	4157.77
954.209	4143.54
954.513	4126.36
954.818	4117.32
955.122	4075.74
955.426	4024.89
955.731	4050.88
956.035	3998.91
956.339	4041.39
956.643	3992.8
956.948	3989.64
957.252	3956.2
957.556	3983.77
957.86	3961.39
958.163	3937.21
958.467	3882.53
958.771	3884.78
959.075	3899.7
959.378	3813.6
959.682	3852.02
959.985	3818.12
960.289	3833.71
960.592	3757.78
960.896	3812.24
961.199	3763.66
961.502	3695.41
961.805	3711
962.108	3644.34
962.411	3665.36
962.714	3665.36
963.017	3624.45
963.32	3633.94
963.623	3592.82
963.926	3587.84
964.228	3550.56
964.531	3590.1
964.833	3588.52
965.136	3513.04
965.438	3488.86
965.741	3556.88
966.043	3466.26
966.345	3467.17
966.648	3447.28
966.95	3475.76
967.252	3433.27
967.554	3442.54
967.856	3395.08
968.158	3383.33
968.46	3340.84
968.761	3349.88
969.063	3357.79
969.365	3339.49
969.666	3340.39
969.968	3308.98
970.269	3267.4
970.571	3264.91
970.872	3295.42
971.174	3251.81
971.475	3252.03
971.776	3183.56
972.077	3182.66
972.378	3183.56
972.679	3167.06
972.98	3155.09
973.281	3174.3
973.582	3143.34
973.883	3146.95
974.183	3130
974.484	3097.91
974.785	3048.2
975.085	3052.04
975.386	3061.08
975.686	3035.09
975.986	3012.72
976.287	3040.29
976.587	3014.98
976.887	2996.67
977.187	2998.25
977.487	2991.02
977.787	2955.54
978.087	2973.17
978.387	2915.77
978.687	2895.21
978.987	2897.24
979.286	2875.09
979.586	2887.52
979.885	2841.65
980.185	2843.46
980.484	2876.22
980.784	2813.85
981.083	2806.85
981.382	2777.02
981.682	2796
981.981	2781.09
982.28	2742.44
982.579	2709.45
982.878	2705.83
983.177	2740.86
983.475	2711.48
983.774	2676.46
984.073	2694.08
984.372	2652.95
984.67	2665.38
984.969	2667.64
985.267	2634.65
985.566	2623.12
985.864	2634.87
986.162	2605.95
986.461	2571.15
986.759	2614.99
987.057	2579.28
987.355	2553.29
987.653	2581.99
987.951	2547.42
988.249	2524.82
988.547	2451.83
988.844	2469.68
989.142	2471.04
989.44	2480.08
989.737	2418.16
990.035	2438.5
990.332	2423.35
990.63	2448.44
990.927	2383.81
991.224	2405.5
991.521	2413.64
991.819	2404.6
992.116	2370.25
992.413	2367.54
992.71	2365.73
993.006	2336.13
993.303	2342.9
993.6	2337.48
993.897	2293.41
994.193	2301.78
994.49	2304.71
994.787	2293.19
995.083	2260.19
995.379	2255.22
995.676	2245.28
995.972	2245.96
996.268	2214.55
996.565	2231.72
996.861	2214.32
997.157	2173.42
997.453	2196.47
997.749	2186.75
998.044	2177.49
998.34	2162.57
998.636	2135.45
998.932	2120.54
999.227	2145.85
999.523	2119.41
999.818	2081.89
1000.114	2079.18
1000.409	2084.61
1000.704	2052.29
1001	2076.92
1001.295	2053.87
1001.59	2018.39
1001.885	2036.25
1002.18	2021.11
1002.475	1987.89
1002.77	1983.14
1003.065	1975.91
1003.359	1982.24
1003.654	1975.46
1003.949	1965.06
1004.243	1924.38
1004.538	1929.36
1004.832	1896.36
1005.127	1895.68
1005.421	1905.85
1005.715	1873.76
1006.009	1882.13
1006.304	1827.89
1006.598	1856.82
1006.892	1855.23
1007.186	1852.75
1007.48	1838.96
1007.773	1834.9
1008.067	1801
1008.361	1809.13
1008.655	1821.11
1008.948	1778.63
1009.242	1756.93
1009.535	1758.97
1009.829	1720.77
1010.122	1736.82
1010.415	1708.8
1010.708	1701.11
1011.001	1682.13
1011.295	1711.06
1011.588	1682.36
1011.881	1667.67
1012.173	1655.01
1012.466	1637.84
1012.759	1638.06
1013.052	1655.24
1013.344	1649.36
1013.637	1660.89
1013.93	1638.06
1014.222	1608.46
1014.514	1610.95
1014.807	1600.33
1015.099	1576.6
1015.391	1572.08
1015.683	1551.74
1015.976	1547.22
1016.268	1539.31
1016.56	1525.07
1016.851	1541.12
1017.143	1507.45
1017.435	1499.99
1017.727	1518.07
1018.018	1500.67
1018.31	1479.2
1018.602	1469.71
1018.893	1467.22
1019.185	1412.99
1019.476	1425.64
1019.767	1467.22
1020.058	1453.21
1020.35	1373.44
1020.641	1418.86
1020.932	1388.58
1021.223	1382.25
1021.514	1379.54
1021.804	1385.19
1022.095	1344.29
1022.386	1332.31
1022.677	1349.71
1022.967	1321.01
1023.258	1319.43
1023.548	1318.98
1023.839	1293.21
1024.129	1317.85
1024.419	1277.17
1024.709	1289.37
1025	1275.36
1025.29	1262.71
1025.58	1281.92
1025.87	1249.37
1026.16	1236.04
1026.449	1229.26
1026.739	1233.1
1027.029	1259.54
1027.319	1213.89
1027.608	1204.63
1027.898	1184.52
1028.187	1182.93
1028.477	1183.61
1028.766	1169.83
1029.055	1146.33
1029.344	1177.06
1029.634	1197.85
1029.923	1155.59
1030.212	1130.06
1030.501	1142.26
1030.79	1116.5
1031.078	1134.57
1031.367	1082.82
1031.656	1114.46
1031.945	1117.4
1032.233	1062.26
1032.522	1081.02
1032.81	1062.26
1033.099	1060.68
1033.387	1057.97
1033.675	1033.56
1033.963	1034.46
1034.251	1027.23
1034.54	1042.83
1034.828	1042.83
1035.116	1013
1035.403	1020.91
1035.691	1019.32
1035.979	993.79
1036.267	1020.68
1036.554	989.27
1036.842	991.98
1037.129	948.36
1037.417	982.49
1037.704	983.62
1037.992	959.66
1038.279	948.59
1038.566	923.96
1038.853	923.96
1039.14	923.96
