Data from hue_30_FLMS001491_6.txt Node
Date: Mon Feb 06 15:04:34 GMT 2017
User: dcchb
Spectrometer: FLMS00149
Trigger mode: 0
Integration Time (sec): 2.000000E-2
Scans to average: 10
Electric dark correction enabled: true
Nonlinearity correction enabled: false
Boxcar width: 0
XAxis mode: Wavelengths
Number of Pixels in Spectrum: 2048
>>>>>Begin Spectral Data<<<<<
341.393	-1.14
341.776	-1.14
342.16	-1.14
342.543	-62.84
342.927	-68.94
343.31	-59.22
343.693	-71.2
344.077	-61.48
344.46	-77.53
344.843	-49.28
345.226	-47.92
345.61	-31.65
345.993	-22.61
346.376	-4.08
346.759	19.19
347.142	21
347.525	39.53
347.908	73.88
348.291	70.27
348.674	85.63
349.057	115.46
349.44	132.41
349.823	144.39
350.206	141.45
350.588	186.87
350.971	188
351.354	218.29
351.737	242.47
352.119	253.99
352.502	268.45
352.884	262.13
353.267	272.97
353.65	285.85
354.032	285.63
354.414	309.81
354.797	330.15
355.179	331.73
355.562	330.37
355.944	316.36
356.326	326.53
356.709	339.64
357.091	345.06
357.473	333.31
357.855	337.6
358.238	338.73
358.62	329.02
359.002	336.25
359.384	318.62
359.766	341.9
360.148	331.5
360.53	342.35
360.912	321.56
361.294	342.58
361.676	345.51
362.057	336.7
362.439	319.3
362.821	320.43
363.203	318.4
363.584	315.23
363.966	336.7
364.348	347.1
364.729	321.79
365.111	345.74
365.493	320.43
365.874	294.44
366.256	300.09
366.637	316.59
367.019	300.09
367.4	317.49
367.781	300.09
368.163	291.5
368.544	302.8
368.925	300.09
369.306	331.5
369.688	328.56
370.069	311.62
370.45	297.38
370.831	317.27
371.212	313.65
371.593	307.77
371.974	307.1
372.355	311.16
372.736	297.83
373.117	319.07
373.498	320.2
373.879	315.23
374.26	309.58
374.641	286.31
375.021	296.48
375.402	298.74
375.783	305.51
376.163	318.17
376.544	313.88
376.925	315.91
377.305	313.42
377.686	334.89
378.066	331.05
378.447	325.4
378.827	335.34
379.208	318.4
379.588	324.95
379.968	350.03
380.349	311.39
380.729	322.69
381.109	321.56
381.489	324.95
381.87	330.6
382.25	333.08
382.63	329.69
383.01	338.73
383.39	333.54
383.77	321.11
384.15	333.08
384.53	336.02
384.91	349.36
385.29	334.67
385.67	348
386.049	340.32
386.429	341.22
386.809	339.86
387.189	355.46
387.568	359.98
387.948	346.42
388.328	348.9
388.707	347.55
389.087	374.89
389.466	340.09
389.846	342.8
390.225	338.06
390.605	359.3
390.984	382.35
391.363	372.18
391.743	342.35
392.122	364.04
392.501	363.37
392.881	342.12
393.26	370.6
393.639	361.11
394.018	361.56
394.397	374.89
394.776	381.44
395.155	363.59
395.534	377.83
395.913	366.98
396.292	385.96
396.671	379.64
397.05	371.05
397.429	361.78
397.808	372.41
398.186	400.43
398.565	367.89
398.944	376.93
399.323	382.8
399.701	390.03
400.08	390.03
400.458	371.95
400.837	389.58
401.215	392.74
401.594	381.44
401.972	396.13
402.351	377.6
402.729	399.98
403.107	390.26
403.486	391.39
403.864	389.58
404.242	409.69
404.62	403.14
404.999	369.92
405.377	401.56
405.755	416.25
406.133	397.94
406.511	374.44
406.889	406.75
407.267	402.01
407.645	413.31
408.023	405.62
408.401	411.05
408.779	420.09
409.156	431.84
409.534	421.9
409.912	439.97
410.29	446.53
410.667	423.03
411.045	454.44
411.422	421.9
411.8	438.39
412.178	438.17
412.555	437.71
412.933	436.36
413.31	468.67
413.687	457.6
414.065	439.07
414.442	468
414.819	459.86
415.197	451.73
415.574	439.97
415.951	462.57
416.328	470.03
416.705	488.33
417.082	476.58
417.46	460.31
417.837	481.1
418.214	475.68
418.591	474.1
418.967	493.08
419.344	474.32
419.721	499.41
420.098	487.43
420.475	491.5
420.852	496.47
421.228	517.03
421.605	500.76
421.982	479.3
422.358	507.77
422.735	528.33
423.111	499.63
423.488	503.7
423.864	510.93
424.241	517.26
424.617	534.66
424.994	506.87
425.37	505.96
425.746	524.27
426.123	530.37
426.499	514.55
426.875	517.94
427.251	526.98
427.627	533.98
428.003	522.68
428.379	559.52
428.756	555.68
429.132	534.21
429.507	569.91
429.883	554.1
430.259	552.97
430.635	575.79
431.011	576.47
431.387	590.48
431.763	583.25
432.138	590.25
432.514	588.22
432.89	593.87
433.265	611.72
433.641	611.72
434.016	604.04
434.392	610.37
434.767	623.02
435.143	607.65
435.518	630.03
435.894	623.92
436.269	622.79
436.644	626.18
437.02	666.86
437.395	652.62
437.77	632.96
438.145	659.86
438.52	648.56
438.895	669.57
439.271	693.3
439.646	689.91
440.021	662.12
440.395	670.7
440.77	686.75
441.145	677.48
441.52	687.88
441.895	704.37
442.27	709.57
442.645	712.51
443.019	686.75
443.394	692.17
443.769	717.71
444.143	705.73
444.518	737.59
444.892	706.41
445.267	713.41
445.641	740.08
446.016	739.63
446.39	741.21
446.764	726.52
447.139	705.73
447.513	733.3
447.887	731.72
448.262	752.51
448.636	764.49
449.01	754.54
449.384	762.68
449.758	776.69
450.132	773.52
450.506	778.95
450.88	772.39
451.254	765.84
451.628	786.41
452.002	775.11
452.376	819.63
452.75	806.74
453.123	797.93
453.497	835.44
453.871	826.18
454.244	842.45
454.618	849.23
454.992	843.58
455.365	861.66
455.739	851.49
456.112	858.72
456.486	872.28
456.859	895.1
457.232	868.66
457.606	889.91
457.979	905.05
458.352	908.21
458.725	909.11
459.099	931.49
459.472	943.92
459.845	948.66
460.218	952.05
460.591	963.35
460.964	982.78
461.337	988.43
461.71	993.18
462.083	1021.2
462.456	995.67
462.829	996.57
463.201	1044.48
463.574	1026.85
463.947	1056.91
464.32	1071.6
464.692	1073.86
465.065	1069.34
465.438	1117.02
465.81	1112.5
466.183	1129.22
466.555	1127.64
466.928	1156.57
467.3	1122.22
467.672	1133.29
468.045	1180.07
468.417	1196.79
468.789	1218.71
469.161	1218.48
469.534	1228.43
469.906	1263.91
470.278	1261.65
470.65	1273.85
471.022	1291.25
471.394	1327.86
471.766	1347.52
472.138	1345.49
472.51	1370.57
472.882	1410.8
473.253	1453.51
473.625	1444.02
473.997	1500.51
474.369	1491.92
474.74	1536.22
475.112	1504.58
475.484	1573.28
475.855	1599.49
476.227	1598.81
476.598	1662.54
476.97	1709.55
477.341	1703.67
477.713	1761.52
478.084	1770.56
478.455	1796.1
478.827	1853.95
479.198	1901.4
479.569	1899.6
479.94	1967.62
480.311	2001.06
480.682	2051.01
481.053	2103.66
481.424	2144.79
481.795	2140.95
482.166	2216.88
482.537	2261.4
482.908	2329.64
483.279	2378
483.65	2393.37
484.021	2410.54
484.391	2494.38
484.762	2524.67
485.133	2563.99
485.503	2638.33
485.874	2700.71
486.244	2673.59
486.615	2769.18
486.985	2805.34
487.356	2876.29
487.726	2919.01
488.097	3010.98
488.467	3044.88
488.837	3135.04
489.207	3173.91
489.578	3224.53
489.948	3250.75
490.318	3329.16
490.688	3335.72
491.058	3452.1
491.428	3483.74
491.798	3535.49
492.168	3643.51
492.538	3622.94
492.908	3721.47
493.278	3743.62
493.648	3811.86
494.017	3857.96
494.387	3898.19
494.757	3912.65
495.126	3975.02
495.496	4011.18
495.866	4125.53
496.235	4109.48
496.605	4155.58
496.974	4238.29
497.344	4288.23
497.713	4294.56
498.082	4333.66
498.452	4418.85
498.821	4483.26
499.19	4481.68
499.559	4549.24
499.928	4535.23
500.298	4606.42
500.667	4628.34
501.036	4631.73
501.405	4727.09
501.774	4756.7
502.143	4758.96
502.512	4822.23
502.88	4882.34
503.249	4897.71
503.618	4954.21
503.987	4986.75
504.356	5012.74
504.724	5045.28
505.093	5052.51
505.462	5055.22
505.83	5148.78
506.199	5180.64
506.567	5256.12
506.936	5269.9
507.304	5297.47
507.672	5325.95
508.041	5368.21
508.409	5407.08
508.777	5439.62
509.145	5491.82
509.514	5496.11
509.882	5499.28
510.25	5563.23
510.618	5581.31
510.986	5603.68
511.354	5662.44
511.722	5683.68
512.09	5730.23
512.458	5687.07
512.826	5775.2
513.193	5868.31
513.561	5812.04
513.929	5863.11
514.297	5873.28
514.664	5918.47
515.032	5934.97
515.4	5954.18
515.767	6014.74
516.135	6059.04
516.502	6015.19
516.869	6136.77
517.237	6098.36
517.604	6105.81
517.972	6188.52
518.339	6173.61
518.706	6240.27
519.073	6276.21
519.44	6318.01
519.808	6379.93
520.175	6346.26
520.542	6381.29
520.909	6416.99
521.276	6364.56
521.643	6487.05
522.009	6489.76
522.376	6487.27
522.743	6551.23
523.11	6700.15
523.477	6670.77
523.843	6734.95
524.21	6741.96
524.577	6739.47
524.943	6857.88
525.31	6854.27
525.676	6926.36
526.043	6920.48
526.409	6983.31
526.776	7031.21
527.142	7039.12
527.508	7103.98
527.874	7102.85
528.241	7192.79
528.607	7174.71
528.973	7263.75
529.339	7212.45
529.705	7261.04
530.071	7312.56
530.437	7374.26
530.803	7430.52
531.169	7505.78
531.535	7459
531.901	7527.92
532.267	7529.73
532.632	7593.68
532.998	7638.88
533.364	7656.28
533.73	7707.35
534.095	7702.83
534.461	7736.28
534.826	7754.58
535.192	7767.47
535.557	7883.85
535.923	7865.54
536.288	7959.78
536.653	8010.62
537.019	7969.72
537.384	8017.4
537.749	7987.35
538.114	8068.25
538.479	8097.17
538.845	8143.27
539.21	8137.17
539.575	8167.45
539.94	8220.79
540.305	8261.69
540.67	8245.42
541.034	8300.33
541.399	8308.69
541.764	8345.08
542.129	8393.89
542.494	8481.8
542.858	8427.79
543.223	8468.24
543.587	8606.77
543.952	8576.03
544.316	8588.69
544.681	8630.27
545.045	8620.32
545.41	8739.64
545.774	8693.54
546.138	8740.32
546.503	8792.98
546.867	8767.44
547.231	8924.05
547.595	8896.48
547.959	8889.7
548.324	8968.79
548.688	8919.53
549.052	9010.6
549.416	9043.14
549.779	8982.35
550.143	9090.59
550.507	9140.76
550.871	9191.38
551.235	9196.58
551.599	9276.13
551.962	9286.75
552.326	9359.74
552.689	9348.21
553.053	9345.05
553.417	9398.38
553.78	9446.74
554.143	9431.6
554.507	9439.06
554.87	9481.32
555.234	9627.3
555.597	9504.14
555.96	9617.36
556.323	9580.52
556.686	9641.99
557.05	9690.13
557.413	9681.99
557.776	9755.44
558.139	9759.05
558.502	9826.85
558.865	9846.05
559.228	9908.88
559.59	9893.96
559.953	9977.8
560.316	10044.24
560.679	9970.8
561.041	10070
561.404	10188.19
561.767	10199.72
562.129	10106.84
562.492	10212.82
562.854	10229.32
563.217	10275.2
563.579	10293.27
563.941	10330.79
564.304	10345.93
564.666	10426.15
565.028	10387.28
565.39	10500.5
565.753	10535.53
566.115	10519.03
566.477	10560.61
566.839	10617.56
567.201	10745.01
567.563	10703.43
567.925	10746.37
568.287	10715.18
568.648	10793.6
569.01	10852.36
569.372	10905.91
569.734	10955.63
570.095	11004.44
570.457	11045.12
570.819	11072.24
571.18	11065.46
571.542	11236.98
571.903	11203.31
572.265	11292.34
572.626	11273.59
572.987	11408.27
573.349	11385.68
573.71	11512.68
574.071	11562.17
574.432	11638.78
574.794	11720.81
575.155	11733.24
575.516	11711.09
575.877	11900.01
576.238	11932.1
576.599	12051.19
576.96	12142.49
577.32	12169.38
577.681	12251.42
578.042	12387
578.403	12434.24
578.763	12529.15
579.124	12646.66
579.485	12702.93
579.845	12906.54
580.206	12971.62
580.566	13096.36
580.927	13169.81
581.287	13424.27
581.648	13436.69
582.008	13623.58
582.368	13772.05
582.728	14007.3
583.089	14030.35
583.449	14267.86
583.809	14401.87
584.169	14530.45
584.529	14672.14
584.889	15033.26
585.249	15158.68
585.609	15252.69
585.969	15549.18
586.329	15823.52
586.688	16010.86
587.048	16061.48
587.408	16304.19
587.768	16546.22
588.127	16727.91
588.487	16960.44
588.846	17352.75
589.206	17330.6
589.565	17606.98
589.925	17960.42
590.284	18090.81
590.643	18419.84
591.003	18628.42
591.362	18895.08
591.721	19078.58
592.08	19291.23
592.44	19513.15
592.799	19835.62
593.158	20109.51
593.517	20336.63
593.876	20645.77
594.235	20800.57
594.593	21118.98
594.952	21376.6
595.311	21578.63
595.67	21906.3
596.029	22189.68
596.387	22497.25
596.746	22864.47
597.104	22971.59
597.463	23258.58
597.822	23509.42
598.18	23668.29
598.538	23947.83
598.897	24224.21
599.255	24262.85
599.613	24957.07
599.972	25009.95
600.33	25322.71
600.688	25438.19
601.046	25746.2
601.404	26140.99
601.762	26170.15
602.12	26509.35
602.478	26687.87
602.836	26949.11
603.194	26944.81
603.552	27359.94
603.91	27406.04
604.268	27810.78
604.625	27905.01
604.983	28246.7
605.341	28255.51
605.698	28713.58
606.056	28801.94
606.413	28918.77
606.771	29267.92
607.128	29553.11
607.485	29474.24
607.843	29722.59
608.2	30050.5
608.557	30212.98
608.914	30366.42
609.272	30547.43
609.629	30819.97
609.986	30872.39
610.343	31070.58
610.7	31482.55
611.057	31441.87
611.414	31653.16
611.771	31880.05
612.127	32074.4
612.484	32026.04
612.841	32388.96
613.198	32402.52
613.554	32547.15
613.911	32883.64
614.267	32993.92
614.624	33120.47
614.98	33202.5
615.337	33468.71
615.693	33427.13
616.05	33531.31
616.406	33891.07
616.762	33869.38
617.118	33990.96
617.475	33991.18
617.831	34159.54
618.187	34326.77
618.543	34341
618.899	34817.38
619.255	34693.99
619.611	34832.06
619.967	35028.67
620.323	35034.32
620.678	35075.45
621.034	35021.66
621.39	35212.39
621.746	35170.59
622.101	35726.05
622.457	35388.89
622.812	35605.83
623.168	35685.83
623.523	35716.56
623.879	35917.69
624.234	35779.38
624.589	36042.88
624.945	36119.49
625.3	36170.79
625.655	36277.68
626.01	36253.27
626.365	36456.2
626.72	36413.04
627.075	36358.8
627.43	36385.92
627.785	36439.71
628.14	36523.55
628.495	36545.92
628.85	36569.87
629.205	36451.23
629.559	36798.11
629.914	36746.14
630.269	36680.15
630.623	36680.38
630.978	36509.53
631.332	36741.84
631.687	36877.43
632.041	36712.01
632.396	36716.99
632.75	36744.33
633.104	36710.21
633.459	36640.38
633.813	36644.22
634.167	36804.89
634.521	36846.93
634.875	36951.33
635.229	36765.57
635.583	36542.98
635.937	36677.44
636.291	36698.91
636.645	36698.91
636.999	36773.48
637.352	36774.39
637.706	36512.7
638.06	36718.57
638.413	36613.71
638.767	36623.2
639.121	36731.22
639.474	36551.12
639.828	36597.22
640.181	36679.93
640.534	36565.8
640.888	36527.16
641.241	36435.19
641.594	36511.57
641.947	36630.89
642.301	36546.14
642.654	36514.28
643.007	36588.18
643.36	36513.83
643.713	36555.18
644.066	36521.06
644.419	36395.19
644.771	36145.93
645.124	35855.09
645.477	35781.87
645.83	35518.6
646.182	35459.39
646.535	35356.8
646.888	35638.6
647.24	35383.01
647.593	35666.84
647.945	35401.54
648.298	35393.86
648.65	35199.74
649.002	35023.25
649.355	35158.16
649.707	35353.18
650.059	35394.76
650.411	35734.41
650.763	35848.53
651.115	36101.64
651.467	35959.27
651.819	35984.58
652.171	35984.12
652.523	35903.22
652.875	36006.72
653.227	35780.06
653.578	35995.65
653.93	35899.15
654.282	35885.6
654.633	35740.52
654.985	35845.15
655.337	35860.96
655.688	35833.62
656.039	35831.59
656.391	35588.65
656.742	35707.3
657.094	35617.13
657.445	35810.57
657.796	35769.21
658.147	35722.21
658.498	35563.12
658.849	35725.37
659.2	35698.03
659.551	35597.92
659.902	35634.98
660.253	35603.8
660.604	35711.36
660.955	35535.77
661.306	35704.36
661.656	35614.19
662.007	35542.1
662.358	35546.62
662.708	35591.37
663.059	35531.26
663.409	35175.33
663.76	35623.68
664.11	35564.25
664.461	35727.86
664.811	35567.41
665.161	35478.15
665.511	35504.36
665.862	35529.45
666.212	35709.33
666.562	35648.54
666.912	35417.36
667.262	35595.21
667.612	35502.56
667.962	35521.76
668.312	35495.32
668.662	35643.34
669.011	35453.06
669.361	35345.27
669.711	35591.14
670.06	35386.85
670.41	35288.55
670.76	35279.74
671.109	35373.52
671.459	35255.1
671.808	35373.29
672.157	35367.64
672.507	35188.67
672.856	35152.96
673.205	35156.12
673.554	35289.68
673.904	35259.17
674.253	35411.26
674.602	35182.11
674.951	34717.27
675.3	34546.65
675.649	35162.23
675.998	35148.21
676.346	35141.66
676.695	35296.01
677.044	34909.12
677.393	35111.83
677.741	34972.63
678.09	34994.32
678.438	34820.54
678.787	34835.23
679.135	34909.12
679.484	34781.22
679.832	34903.7
680.181	34642.01
680.529	34885.85
680.877	34745.96
681.225	34653.99
681.573	34859.41
681.922	34659.41
682.27	34465.29
682.618	34512.75
682.966	34491.06
683.314	34536.25
683.661	34361.12
684.009	34355.24
684.357	34234.34
684.705	34116.38
685.053	34116.38
685.4	34107.11
685.748	33902.37
686.095	33942.6
686.443	33851.07
686.79	33798.42
687.138	33842.49
687.485	33762.71
687.832	33614.7
688.18	33753.22
688.527	33592.55
688.874	33477.07
689.221	33553.45
689.568	33412.44
689.915	33328.83
690.262	33332.22
690.609	33330.18
690.956	33014.03
691.303	33091.55
691.65	33044.99
691.997	32971.55
692.344	32815.85
692.69	32823.08
693.037	32681.16
693.383	32481.39
693.73	32584.89
694.077	32464.22
694.423	32407.95
694.769	32390.09
695.116	32237.33
695.462	32222.42
695.808	32024.45
696.155	32159.14
696.501	31838.24
696.847	31922.08
697.193	31646.61
697.539	31796.89
697.885	31438.71
698.231	31503.11
698.577	31421.08
698.923	31375.88
699.269	31328.2
699.614	31053.41
699.96	31019.06
700.306	31149.22
700.651	30900.87
700.997	30814.77
701.342	30740.19
701.688	30814.32
702.033	30620.65
702.379	30563.48
702.724	30443.71
703.069	30556.92
703.415	30200.55
703.76	30178.4
704.105	30313.99
704.45	30185.41
704.795	30028.35
705.14	29976.6
705.485	29871.74
705.83	29748.81
706.175	29832.87
706.52	29744.97
706.865	29566.89
707.209	29521.02
707.554	29511.53
707.899	29573.22
708.243	29449.16
708.588	29383.39
708.932	29240.12
709.277	29100.69
709.621	29153.57
709.966	29114.02
710.31	29184.08
710.654	28776.4
710.998	28654.83
711.342	28846.46
711.687	28747.25
712.031	28645.56
712.375	28523.76
712.719	28724.2
713.063	28456.41
713.407	28543.42
713.75	28400.82
714.094	28431.33
714.438	28271.33
714.782	28357.88
715.125	28227.94
715.469	28260.71
715.812	28030.66
716.156	27900.72
716.499	27974.62
716.843	27949.76
717.186	27787.73
717.53	27869.31
717.873	27933.26
718.216	27841.06
718.559	27617.11
718.902	27482.88
719.246	27650.33
719.589	27515.19
719.932	27408.3
720.275	27399.27
720.617	27428.42
720.96	27398.59
721.303	27282.43
721.646	27349.78
721.989	27096
722.331	27243.34
722.674	27166.5
723.016	27010.35
723.359	27050.35
723.701	27150.68
724.044	26898.94
724.386	26688.32
724.729	26976.68
725.071	26730.36
725.413	26830.92
725.755	26756.12
726.097	26673.41
726.439	26500.08
726.782	26514.77
727.124	26642
727.465	26513.86
727.807	26505.96
728.149	26455.11
728.491	26335.11
728.833	26345.96
729.175	26291.95
729.516	26274.1
729.858	26188.68
730.199	26188.68
730.541	26213.08
730.882	26164.04
731.224	26167.66
731.565	26007.89
731.906	25993.65
732.248	25943.48
732.589	25884.73
732.93	25733.55
733.271	25833.2
733.612	25945.74
733.953	25886.54
734.294	25668.69
734.635	25701.46
734.976	25694.68
735.317	25702.81
735.658	25496.72
735.999	25621.46
736.339	25497.85
736.68	25526.77
737.021	25513.67
737.361	25358.19
737.702	25541.01
738.042	25391.18
738.383	25266.21
738.723	25335.82
739.063	25163.39
739.404	25308.47
739.744	25192.77
740.084	25169.04
740.424	25130.17
740.764	25068.48
741.104	25220.34
741.444	25032.55
741.784	24956.39
742.124	24877.98
742.464	24941.7
742.804	24952.55
743.143	24828.03
743.483	24861.93
743.823	24784.87
744.162	24841.82
744.502	24866.68
744.841	24669.39
745.181	24742.39
745.52	24605.67
745.86	24746.45
746.199	24532
746.538	24619.23
746.877	24576.97
747.216	24527.7
747.556	24457.65
747.895	24529.51
748.234	24394.6
748.573	24350.08
748.911	24278.9
749.25	24277.99
749.589	24242.96
749.928	24148.73
750.267	24303.98
750.605	24129.07
750.944	24115.96
751.283	24000.03
751.621	24018.79
751.96	24006.13
752.298	23946.47
752.636	23974.27
752.975	23888.17
753.313	23835.29
753.651	23875.97
753.989	23847.72
754.327	23768.17
754.666	23599.82
755.004	23594.85
755.342	23723.88
755.679	23573.6
756.017	23433.27
756.355	23523.44
756.693	23378.13
757.031	23471.23
757.368	23345.59
757.706	23273.05
758.044	23199.6
758.381	23198.02
758.719	23163.22
759.056	23078.48
759.394	23078.48
759.731	22857.24
760.068	22902.89
760.405	22620.18
760.743	22779.73
761.08	22836.45
761.417	22591.93
761.754	22633.06
762.091	22570.92
762.428	22446.85
762.765	22312.85
763.102	22541.54
763.438	22236.69
763.775	22191.94
764.112	22197.82
764.449	22229.23
764.785	22067.65
765.122	22058.61
765.458	21977.49
765.795	21866.98
766.131	21960.76
766.467	21899.75
766.804	21685.74
767.14	21570.27
767.476	21549.25
767.812	21445.07
768.148	21490.95
768.485	21411.17
768.821	21263.16
769.157	21267.22
769.492	21150.16
769.828	21148.13
770.164	20991.98
770.5	20871.53
770.836	20930.73
771.171	20859.1
771.507	20756.05
771.842	20594.25
772.178	20688.93
772.513	20537.07
772.849	20404.2
773.184	20383.86
773.519	20376.4
773.855	20288.04
774.19	20179.12
774.525	20121.26
774.86	20090.76
775.195	20019.8
775.53	19938.44
775.865	19833.59
776.2	19655.97
776.535	19616.42
776.87	19579.13
777.205	19568.74
777.539	19318.57
777.874	19471.11
778.209	19285.58
778.543	19253.04
778.878	19198.58
779.212	19178.24
779.547	18982.09
779.881	19138.01
780.215	18989.77
780.55	18957.45
780.884	18777.8
781.218	18680.85
781.552	18789.32
781.886	18701.87
782.22	18616.45
782.554	18429.33
782.888	18371.93
783.222	18263.69
783.556	18185.95
783.889	18254.42
784.223	18146.63
784.557	17960.87
784.89	18174.65
785.224	17985.73
785.557	17952.51
785.891	17801.78
786.224	17715
786.558	17684.94
786.891	17544.84
787.224	17466.87
787.557	17409.47
787.891	17390.72
788.224	17345.74
788.557	17367.66
788.89	17305.97
789.223	17267.55
789.556	17075.7
789.888	17033.21
790.221	17042.93
790.554	16866.44
790.887	16933.33
791.219	16881.58
791.552	16743.73
791.884	16719.77
792.217	16694.69
792.549	16598.65
792.882	16555.03
793.214	16377.63
793.546	16449.5
793.879	16425.54
794.211	16315.49
794.543	16332.44
794.875	16202.05
795.207	16314.36
795.539	16089.73
795.871	16074.14
796.203	16006.8
796.535	15889.06
796.867	15993.01
797.198	15800.25
797.53	15842.51
797.862	15675.28
798.193	15808.61
798.525	15612.46
798.856	15617.2
799.188	15536.3
799.519	15425.12
799.85	15418.11
800.182	15441.84
800.513	15352.35
800.844	15207.5
801.175	15351.45
801.506	15203.65
801.837	15108.52
802.168	15173.37
802.499	15110.55
802.83	15003.21
803.161	14889.76
803.491	14926.15
803.822	14916.88
804.153	14781.07
804.483	14784
804.814	14642.99
805.145	14642.09
805.475	14706.94
805.805	14625.82
806.136	14632.82
806.466	14582.65
806.796	14608.42
807.126	14443
807.457	14373.62
807.787	14328.87
808.117	14308.08
808.447	14344.69
808.777	14281.87
809.107	14128.2
809.436	14171.59
809.766	14203.23
810.096	14146.73
810.426	14084.59
810.755	14079.39
811.085	14021.09
811.414	13961.2
811.744	13892.5
812.073	13829
812.403	13844.59
812.732	13774.99
813.061	13718.27
813.39	13642.57
813.719	13745.84
814.049	13725.27
814.378	13673.98
814.707	13609.57
815.036	13478.95
815.365	13538.61
815.693	13460.2
816.022	13460.2
816.351	13387.43
816.68	13297.49
817.008	13387.88
817.337	13178.17
817.665	13143.6
817.994	13265.85
818.322	13161
818.651	13156.93
818.979	13069.02
819.307	13165.97
819.636	13106.76
819.964	13062.92
820.292	13104.95
820.62	13129.81
820.948	12959.65
821.276	12981.79
821.604	12936.14
821.932	12998.51
822.259	12974.79
822.587	12988.12
822.915	12889.14
823.243	12907.67
823.57	12921.23
823.898	12924.17
824.225	12909.25
824.553	12927.78
824.88	12881.46
825.207	12904.73
825.535	12898.4
825.862	12918.97
826.189	12876.03
826.516	12958.06
826.843	12929.14
827.17	12987.22
827.497	12899.31
827.824	12894.34
828.151	12965.07
828.478	12889.14
828.805	12906.31
829.131	12901.57
829.458	12837.16
829.785	12785.41
830.111	12810.27
830.438	12905.86
830.764	12873.55
831.09	12886.88
831.417	12830.38
831.743	12922.58
832.069	12846.65
832.395	12805.3
832.722	12808.01
833.048	12814.79
833.374	12844.39
833.7	12718.97
834.026	12735.02
834.351	12831.06
834.677	12734.34
835.003	12750.16
835.329	12765.53
835.654	12655.02
835.98	12596.26
836.306	12603.04
836.631	12632.2
836.956	12527.57
837.282	12633.1
837.607	12648.47
837.932	12545.87
838.258	12532.54
838.583	12545.42
838.908	12504.97
839.233	12507
839.558	12417.74
839.883	12485.08
840.208	12400.56
840.533	12381.58
840.858	12333.9
841.182	12378.42
841.507	12302.94
841.832	12303.62
842.156	12231.53
842.481	12240.34
842.805	12195.37
843.13	12209.83
843.454	12095.04
843.778	12128.48
844.103	12019.78
844.427	12117.18
844.751	12105.2
845.075	11993.34
845.399	12007.81
845.723	11936.17
846.047	11832.9
846.371	11829.28
846.695	11721.26
847.019	11717.87
847.343	11667.93
847.666	11594.94
847.99	11466.8
848.313	11594.94
848.637	11494.6
848.96	11500.02
849.284	11363.53
849.607	11360.14
849.931	11288.28
850.254	11281.72
850.577	11226.81
850.9	11119.47
851.223	11166.25
851.546	11044.44
851.869	11005.35
852.192	11102.97
852.515	10959.02
852.838	10916.53
853.161	10910.66
853.483	10845.12
853.806	10801.96
854.129	10756.77
854.451	10706.37
854.774	10677.22
855.096	10616.66
855.419	10556.54
855.741	10601.52
856.063	10526.26
856.385	10509.77
856.708	10459.82
857.03	10404.23
857.352	10506.15
857.674	10416.66
857.996	10423.21
858.318	10376.66
858.64	10358.13
858.961	10296.21
859.283	10309.55
859.605	10182.99
859.926	10266.38
860.248	10216.21
860.57	10122.88
860.891	10171.92
861.212	10070.68
861.534	10105.71
861.855	10055.09
862.176	10026.61
862.498	10044.47
862.819	10023.68
863.14	9943
863.461	9982.1
863.782	9927.41
864.103	9857.13
864.424	9896.45
864.745	9895.77
865.065	9911.36
865.386	9877.24
865.707	9801.76
866.027	9787.98
866.348	9755.21
866.668	9801.76
866.989	9736
867.309	9666.17
867.63	9713.85
867.95	9737.81
868.27	9610.35
868.59	9664.14
868.91	9581.2
869.23	9596.57
869.55	9562.67
869.87	9627.76
870.19	9547.98
870.51	9597.25
870.83	9497.36
871.15	9542.11
871.469	9493.07
871.789	9492.39
872.109	9546.18
872.428	9465.95
872.748	9544.37
873.067	9496.01
873.386	9479.28
873.706	9453.07
874.025	9457.59
874.344	9400.64
874.663	9347.99
874.982	9364.49
875.301	9373.3
875.62	9297.59
875.939	9330.36
876.258	9311.38
876.577	9240.42
876.896	9348.67
877.214	9211.04
877.533	9290.14
877.852	9185.28
878.17	9235.68
878.489	9259.86
878.807	9255.56
879.125	9211.27
879.444	9167.43
879.762	9135.79
880.08	9164.72
880.398	9127.88
880.716	9052.18
881.034	9023.25
881.352	9070.71
881.67	9014.89
881.988	9063.48
882.306	8990.03
882.624	8951.61
882.941	8912.29
883.259	8962.69
883.577	8941.22
883.894	8828.23
884.212	8799.98
884.529	8838.85
884.846	8792.07
885.164	8815.12
885.481	8759.3
885.798	8774.44
886.115	8655.35
886.432	8647.44
886.75	8663.94
887.067	8602.47
887.383	8653.32
887.7	8672.98
888.017	8548.24
888.334	8593.66
888.651	8522.7
888.967	8550.04
889.284	8471.63
889.6	8446.54
889.917	8408.35
890.233	8410.16
890.55	8462.36
890.866	8429.82
891.182	8338.52
891.498	8395.7
891.815	8304.17
892.131	8204.06
892.447	8255.81
892.763	8234.57
893.079	8224.85
893.395	8259.2
893.71	8162.48
894.026	8183.5
894.342	8200.67
894.657	8126.55
894.973	8100.34
895.289	8076.84
895.604	8050.4
895.92	8007.68
896.235	7926.33
896.55	7923.85
896.865	7990.28
897.181	7931.3
897.496	7958.42
897.811	7864.19
898.126	7823.51
898.441	7766.11
898.756	7763.17
899.071	7717.75
899.386	7704.19
899.7	7656.51
900.015	7684.98
900.33	7584.42
900.644	7623.74
900.959	7600.24
901.273	7556.85
901.588	7559.56
901.902	7578.77
902.216	7474.37
902.531	7434.37
902.845	7389.85
903.159	7350.53
903.473	7338.78
903.787	7361.15
904.101	7308.04
904.415	7289.29
904.729	7264.65
905.042	7202.51
905.356	7193.02
905.67	7200.25
905.984	7159.8
906.297	7162.96
906.611	7034.15
906.924	7083.64
907.237	7074.38
907.551	6976.98
907.864	6934.94
908.177	6954.61
908.491	6982.63
908.804	6927.26
909.117	6837.77
909.43	6833.48
909.743	6803.65
910.056	6819.92
910.368	6784.44
910.681	6731.11
910.994	6711
911.307	6707.15
911.619	6609.08
911.932	6634.39
912.244	6622.41
912.557	6600.94
912.869	6553.94
913.181	6567.04
913.494	6543.99
913.806	6412.47
914.118	6427.61
914.43	6363.66
914.742	6385.13
915.054	6390.55
915.366	6332.47
915.678	6301.97
915.99	6276.43
916.302	6253.15
916.613	6191.91
916.925	6227.62
917.236	6173.83
917.548	6133.61
917.859	6103.55
918.171	6084.12
918.482	6062.88
918.794	6063.1
919.105	6094.74
919.416	5960.28
919.727	5982.88
920.038	5988.98
920.349	5911.02
920.66	5853.17
920.971	5866.05
921.282	5911.92
921.593	5792.38
921.903	5757.35
922.214	5785.82
922.525	5798.93
922.835	5739.95
923.146	5657.69
923.456	5730.46
923.767	5698.59
924.077	5613.85
924.387	5581.99
924.697	5611.14
925.008	5562.33
925.318	5569.56
925.628	5547.41
925.938	5579.05
926.248	5504.25
926.558	5490.46
926.867	5417.47
927.177	5398.49
927.487	5389
927.796	5327.98
928.106	5302.67
928.416	5299.28
928.725	5302.45
929.034	5277.36
929.344	5281.65
929.653	5251.37
929.962	5209.34
930.271	5183.58
930.581	5186.29
930.89	5097.03
931.199	5100.87
931.508	5131.15
931.817	5117.37
932.125	5072.39
932.434	5059.97
932.743	4984.49
933.051	4990.14
933.36	4929.8
933.669	4944.94
933.977	4913.08
934.286	4905.62
934.594	4906.3
934.902	4863.81
935.21	4861.33
935.519	4818.39
935.827	4858.39
936.135	4771.61
936.443	4696.13
936.751	4741.1
937.059	4744.95
937.367	4691.61
937.674	4713.53
937.982	4716.47
938.29	4639.64
938.597	4671.28
938.905	4546.53
939.213	4596.02
939.52	4577.27
939.827	4561.45
940.135	4592.63
940.442	4523.26
940.749	4520.09
941.056	4473.09
941.363	4434.22
941.67	4459.3
941.977	4415.91
942.284	4376.82
942.591	4385.18
942.898	4308.12
943.205	4359.65
943.511	4363.26
943.818	4308.8
944.125	4269.03
944.431	4265.86
944.738	4228.8
945.044	4194.45
945.35	4238.97
945.657	4198.07
945.963	4157.16
946.269	4160.55
946.575	4152.87
946.881	4069.94
947.187	4098.41
947.493	4097.05
947.799	4053.21
948.105	4059.31
948.41	4019.77
948.716	4001.24
949.022	3976.6
949.327	3988.36
949.633	3966.89
949.938	4000.56
950.244	3968.24
950.549	3917.62
950.854	3918.98
951.16	3893.22
951.465	3830.17
951.77	3816.16
952.075	3834.01
952.38	3847.79
952.685	3784.29
952.99	3771.19
953.294	3752.88
953.599	3811.19
953.904	3729.15
954.209	3705.65
954.513	3700
954.818	3679.89
955.122	3654.35
955.426	3673.79
955.731	3634.92
956.035	3639.21
956.339	3625.43
956.643	3590.17
956.948	3584.07
957.252	3588.82
957.556	3562.38
957.86	3566.67
958.163	3565.54
958.467	3541.59
958.771	3524.19
959.075	3486.67
959.378	3467.01
959.682	3473.57
959.985	3420.69
960.289	3382.95
960.592	3381.82
960.896	3358.09
961.199	3389.05
961.502	3363.74
961.805	3333.23
962.108	3309.96
962.411	3311.09
962.714	3324.19
963.017	3320.8
963.32	3271.99
963.623	3278.32
963.926	3284.19
964.228	3248.71
964.531	3171.43
964.833	3184.99
965.136	3195.16
965.438	3199.22
965.741	3170.98
966.043	3163.52
966.345	3143.63
966.648	3139.11
966.95	3104.31
967.252	3093.92
967.554	3099.11
967.856	3054.37
968.158	3034.71
968.46	3002.62
968.761	3067.7
969.063	3018.21
969.365	3044.2
969.666	2986.8
969.968	2970.76
970.269	2962.62
970.571	2933.02
970.872	2915.62
971.174	2924.65
971.475	2903.41
971.776	2917.88
972.077	2890.31
972.378	2869.74
972.679	2886.46
972.98	2845.33
973.281	2853.7
973.582	2833.58
973.883	2776.18
974.183	2809.86
974.484	2808.05
974.785	2753.59
975.085	2727.6
975.386	2748.39
975.686	2745.22
975.986	2730.54
976.287	2702.06
976.587	2679.46
976.887	2715.39
977.187	2693.02
977.487	2683.53
977.787	2691.67
978.087	2617.32
978.387	2624.78
978.687	2600.37
978.987	2648.96
979.286	2580.71
979.586	2581.16
979.885	2547.72
980.185	2556.53
980.484	2549.3
980.784	2548.39
981.083	2485.8
981.382	2525.8
981.682	2540.26
981.981	2481.5
982.28	2463.2
982.579	2462.75
982.878	2490.77
983.177	2450.09
983.475	2468.62
983.774	2432.24
984.073	2427.27
984.372	2424.33
984.67	2415.29
984.969	2429.53
985.267	2406.48
985.566	2372.58
985.864	2381.84
986.162	2332.13
986.461	2349.53
986.759	2336.2
987.057	2319.02
987.355	2291
987.653	2284.22
987.951	2282.19
988.249	2276.76
988.547	2292.81
988.844	2244.45
989.142	2277.44
989.44	2221.4
989.737	2204.9
990.035	2216.65
990.332	2241.28
990.63	2217.78
990.927	2204.9
991.224	2227.72
991.521	2154.28
991.819	2155.41
992.116	2143.21
992.413	2160.38
992.71	2111.57
993.006	2097.33
993.303	2108.18
993.6	2091
993.897	2112.02
994.193	2094.62
994.49	2080.38
994.787	2086.71
995.083	2075.64
995.379	2055.53
995.676	2036.09
995.972	2054.4
996.268	2011.23
996.565	1997.67
996.861	1983.89
997.157	1986.83
997.453	1979.82
997.749	1984.34
998.044	1987.28
998.34	1970.56
998.636	1972.14
998.932	1945.25
999.227	1935.08
999.523	1894.17
999.818	1897.79
1000.114	1894.17
1000.409	1875.19
1000.704	1857.34
1001	1858.92
1001.295	1839.71
1001.59	1835.64
1001.885	1859.15
1002.18	1806.72
1002.475	1813.05
1002.77	1819.83
1003.065	1809.88
1003.359	1794.51
1003.654	1807.17
1003.949	1754.97
1004.243	1773.72
1004.538	1726.72
1004.832	1737.34
1005.127	1751.58
1005.421	1761.52
1005.715	1707.96
1006.009	1731.92
1006.304	1702.31
1006.598	1669.55
1006.892	1642.2
1007.186	1655.99
1007.48	1687.85
1007.773	1632.94
1008.067	1628.64
1008.361	1659.6
1008.655	1595.65
1008.948	1632.71
1009.242	1599.72
1009.535	1585.25
1009.829	1576.22
1010.122	1564.46
1010.415	1568.31
1010.708	1564.01
1011.001	1565.37
1011.295	1545.03
1011.588	1538.7
1011.881	1525.14
1012.173	1537.8
1012.466	1519.04
1012.759	1500.29
1013.052	1507.97
1013.344	1486.5
1013.637	1487.86
1013.93	1471.13
1014.222	1441.3
1014.514	1481.08
1014.807	1454.41
1015.099	1439.5
1015.391	1435.2
1015.683	1435.43
1015.976	1408.08
1016.268	1407.63
1016.56	1397.69
1016.851	1397.01
1017.143	1399.05
1017.435	1393.62
1017.727	1354.07
1018.018	1343.45
1018.31	1371.93
1018.602	1334.87
1018.893	1333.28
1019.185	1335.77
1019.476	1316.34
1019.767	1317.69
1020.058	1286.73
1020.35	1289.9
1020.641	1277.47
1020.932	1263
1021.223	1282.44
1021.514	1257.58
1021.804	1258.26
1022.095	1262.1
1022.386	1223
1022.677	1215.1
1022.967	1234.3
1023.258	1179.16
1023.548	1217.81
1023.839	1184.36
1024.129	1209.22
1024.419	1196.11
1024.709	1173.97
1025	1165.15
1025.29	1128.54
1025.58	1174.87
1025.87	1149.56
1026.16	1141.65
1026.449	1120.41
1026.739	1114.08
1027.029	1099.84
1027.319	1115.44
1027.608	1106.4
1027.898	1108.88
1028.187	1080.64
1028.477	1085.38
1028.766	1070.24
1029.055	1091.03
1029.344	1080.18
1029.634	1078.6
1029.923	1043.35
1030.212	1051.26
1030.501	1027.3
1030.79	1042.44
1031.078	1037.47
1031.367	981.65
1031.656	1014.65
1031.945	1005.38
1032.233	987.53
1032.522	1004.03
1032.81	1006.97
1033.099	963.12
1033.387	984.82
1033.675	947.98
1033.963	958.38
1034.251	951.15
1034.54	939.85
1034.828	925.16
1035.116	974.42
1035.403	948.44
1035.691	922
1035.979	916.57
1036.267	934.65
1036.554	919.96
1036.842	934.2
1037.129	889.68
1037.417	906.18
1037.704	894.65
1037.992	879.51
1038.279	873.41
1038.566	855.33
1038.853	855.33
1039.14	855.33
