Data from hue_260_FLMS001491_00037.txt Node
Date: Tue Feb 07 15:58:55 GMT 2017
User: dcchb
Spectrometer: FLMS00149
Trigger mode: 0
Integration Time (sec): 2.000000E-2
Scans to average: 10
Electric dark correction enabled: true
Nonlinearity correction enabled: false
Boxcar width: 0
XAxis mode: Wavelengths
Number of Pixels in Spectrum: 2048
>>>>>Begin Spectral Data<<<<<
341.393	4.8
341.776	4.8
342.16	4.8
342.543	-63.44
342.927	-60.96
343.31	-64.12
343.693	-58.93
344.077	-62.31
344.46	-54.18
344.843	-54.86
345.226	-42.88
345.61	-32.26
345.993	-27.74
346.376	2.99
346.759	2.09
347.142	46.16
347.525	42.32
347.908	46.38
348.291	58.81
348.674	82.77
349.057	115.76
349.44	91.58
349.823	138.13
350.206	157.57
350.588	192.82
350.971	185.14
351.354	220.16
351.737	228.3
352.119	237.11
352.502	257
352.884	269.65
353.267	254.29
353.65	280.5
354.032	263.1
354.414	286.83
354.797	300.16
355.179	293.61
355.562	319.14
355.944	298.13
356.326	320.27
356.709	316.66
357.091	311.46
357.473	334.51
357.855	335.41
358.238	320.95
358.62	301.52
359.002	336.54
359.384	313.49
359.766	315.98
360.148	321.86
360.53	343.78
360.912	324.57
361.294	325.47
361.676	313.49
362.057	318.47
362.439	304.68
362.821	330.67
363.203	309.2
363.584	322.31
363.966	322.31
364.348	318.69
364.729	327.96
365.111	285.25
365.493	323.66
365.874	315.08
366.256	289.77
366.637	304.46
367.019	316.21
367.4	294.74
367.781	292.93
368.163	311.69
368.544	299.26
368.925	304.91
369.306	322.99
369.688	307.62
370.069	313.95
370.45	297.45
370.831	287.73
371.212	289.99
371.593	305.59
371.974	319.82
372.355	317.79
372.736	300.39
373.117	314.17
373.498	297.68
373.879	313.49
374.26	309.65
374.641	274.63
375.021	297.45
375.402	303.33
375.783	313.04
376.163	318.24
376.544	321.63
376.925	310.33
377.305	325.47
377.686	312.14
378.066	331.8
378.447	332.48
378.827	341.74
379.208	321.18
379.588	320.27
379.968	304
380.349	316.21
380.729	330.9
381.109	327.28
381.489	332.25
381.87	318.24
382.25	300.84
382.63	338.8
383.01	321.63
383.39	337.67
383.77	341.06
384.15	330.67
384.53	334.74
384.91	333.61
385.29	332.93
385.67	341.52
386.049	325.7
386.429	339.03
386.809	334.06
387.189	359.37
387.568	368.86
387.948	331.12
388.328	370.67
388.707	362.76
389.087	346.71
389.466	353.49
389.846	335.87
390.225	345.13
390.605	358.47
390.984	357.11
391.363	354.85
391.743	353.95
392.122	370.89
392.501	373.15
392.881	346.26
393.26	354.85
393.639	363.66
394.018	370.44
394.397	365.7
394.776	365.7
395.155	395.07
395.534	381.06
395.913	371.8
396.292	390.1
396.671	372.25
397.05	378.35
397.429	400.5
397.808	388.52
398.186	389.2
398.565	390.1
398.944	386.26
399.323	400.27
399.701	405.92
400.08	393.04
400.458	404.11
400.837	408.18
401.215	379.03
401.594	398.69
401.972	419.71
402.351	398.24
402.729	421.51
403.107	414.06
403.486	418.58
403.864	416.99
404.242	414.06
404.62	446.37
404.999	436.2
405.377	452.93
405.755	437.33
406.133	440.95
406.511	452.25
406.889	445.47
407.267	455.86
407.645	452.02
408.023	450.89
408.401	466.71
408.779	449.31
409.156	485.24
409.534	489.31
409.912	477.56
410.29	498.57
410.667	496.77
411.045	504
411.422	498.57
411.8	487.5
412.178	527.27
412.555	525.92
412.933	540.16
413.31	547.84
413.687	547.16
414.065	560.27
414.442	568.18
414.819	588.06
415.197	564.34
415.574	601.4
415.951	608.4
416.328	588.29
416.705	620.83
417.082	612.24
417.46	611.34
417.837	619.02
418.214	634.62
418.591	646.82
418.967	637.78
419.344	650.43
419.721	639.81
420.098	668.06
420.475	667.16
420.852	683.88
421.228	692.02
421.605	692.02
421.982	694.95
422.358	713.26
422.735	738.79
423.111	733.14
423.488	742.41
423.864	758.91
424.241	760.49
424.617	802.52
424.994	798.45
425.37	800.94
425.746	811.11
426.123	847.27
426.499	825.8
426.875	838
427.251	855.18
427.627	864.44
428.003	863.31
428.379	906.47
428.756	868.51
429.132	896.3
429.507	877.1
429.883	935.85
430.259	951.44
430.635	933.14
431.011	928.85
431.387	973.14
431.763	960.03
432.138	989.86
432.514	984.44
432.89	1007.71
433.265	1037.32
433.641	1064.89
434.016	1059.24
434.392	1089.07
434.767	1095.85
435.143	1102.4
435.518	1120.03
435.894	1145.34
436.269	1154.15
436.644	1157.54
437.02	1179.01
437.395	1206.58
437.77	1219.23
438.145	1235.5
438.52	1227.82
438.895	1245.9
439.271	1270.98
439.646	1278.89
440.021	1334.71
440.395	1336.74
440.77	1343.52
441.145	1354.6
441.52	1365.67
441.895	1381.49
442.27	1391.43
442.645	1383.97
443.019	1416.97
443.394	1401.6
443.769	1424.2
444.143	1442.73
444.518	1461.71
444.892	1463.75
445.267	1482.5
445.641	1475.5
446.016	1494.25
446.39	1503.07
446.764	1532.45
447.139	1548.72
447.513	1519.56
447.887	1537.87
448.262	1552.56
448.636	1555.27
449.01	1597.53
449.384	1587.59
449.758	1606.57
450.132	1611.99
450.506	1608.15
450.88	1637.98
451.254	1667.36
451.628	1693.12
452.002	1708.26
452.376	1696.06
452.75	1711.42
453.123	1744.19
453.497	1730.41
453.871	1739.22
454.244	1806.56
454.618	1768.6
454.992	1774.25
455.365	1832.78
455.739	1856.28
456.112	1890.85
456.486	1901.02
456.859	1867.8
457.232	1916.16
457.606	1929.5
457.979	1928.59
458.352	1994.35
458.725	2014.92
459.099	1987.35
459.472	2041.58
459.845	2072.09
460.218	2061.92
460.591	2070.51
460.964	2093.56
461.337	2151.86
461.71	2169.72
462.083	2192.99
462.456	2193.22
462.829	2236.38
463.201	2234.57
463.574	2249.26
463.947	2268.7
464.32	2332.42
464.692	2352.76
465.065	2395.47
465.438	2372.65
465.81	2407.9
466.183	2428.92
466.555	2477.96
466.928	2506.43
467.3	2496.94
467.672	2526.09
468.045	2584.85
468.417	2579.2
468.789	2594.56
469.161	2610.16
469.534	2663.26
469.906	2742.13
470.278	2749.59
470.65	2752.53
471.022	2799.53
471.394	2842.69
471.766	2875.24
472.138	2909.81
472.51	2971.28
472.882	2964.27
473.253	3006.98
473.625	3058.28
473.997	3104.83
474.369	3111.61
474.74	3112.07
475.112	3149.58
475.484	3256.02
475.855	3306.64
476.227	3314.32
476.598	3367.88
476.97	3391.15
477.341	3413.07
477.713	3529.23
478.084	3526.29
478.455	3555.22
478.827	3688.1
479.198	3704.14
479.569	3705.95
479.94	3825.04
480.311	3874.08
480.682	3945.26
481.053	3969.44
481.424	4007.41
481.795	4049.22
482.166	4124.92
482.537	4149.1
482.908	4237.46
483.279	4280.85
483.65	4331.24
484.021	4380.51
484.391	4384.12
484.762	4472.26
485.133	4486.94
485.503	4559.48
485.874	4633.83
486.244	4641.06
486.615	4773.72
486.985	4768.74
487.356	4860.04
487.726	4902.53
488.097	4989.08
488.467	5017.55
488.837	5086.93
489.207	5120.37
489.578	5165.8
489.948	5195.17
490.318	5273.36
490.688	5270.43
491.058	5370.76
491.428	5418.45
491.798	5433.81
492.168	5546.58
492.538	5518.56
492.908	5587.93
493.278	5608.5
493.648	5638.55
494.017	5707.48
494.387	5752
494.757	5809.85
495.126	5837.64
495.496	5848.49
495.866	5882.61
496.235	5953.8
496.605	6013.01
496.974	5988.83
497.344	6014.81
497.713	6026.34
498.082	6027.47
498.452	6124.19
498.821	6107.92
499.19	6191.53
499.559	6187.69
499.928	6235.82
500.298	6275.82
500.667	6295.94
501.036	6320.57
501.405	6365.76
501.774	6350.62
502.143	6423.39
502.512	6407.57
502.88	6426.33
503.249	6431.3
503.618	6446.44
503.987	6490.96
504.356	6521.69
504.724	6530.73
505.093	6568.25
505.462	6673.55
505.83	6660.67
506.199	6665.64
506.567	6735.02
506.936	6694.57
507.304	6798.3
507.672	6770.95
508.041	6792.42
508.409	6775.02
508.777	6784.51
509.145	6836.03
509.514	6814.57
509.882	6838.07
510.25	6905.64
510.618	6896.15
510.986	6901.57
511.354	6934.11
511.722	6984.51
512.09	7021.11
512.458	6985.86
512.826	7014.56
513.193	7036.48
513.561	7096.59
513.929	7095.46
514.297	7130.26
514.664	7137.27
515.032	7161.68
515.4	7151.51
515.767	7165.07
516.135	7188.12
516.502	7095.92
516.869	7238.06
517.237	7215.69
517.604	7134.33
517.972	7288.9
518.339	7310.82
518.706	7296.14
519.073	7214.78
519.44	7274.67
519.808	7344.95
520.175	7305.18
520.542	7369.81
520.909	7385.63
521.276	7334.78
521.643	7419.3
522.009	7449.13
522.376	7436.7
522.743	7450.48
523.11	7566.86
523.477	7523.25
523.843	7487.32
524.21	7579.97
524.577	7655.22
524.943	7659.06
525.31	7570.25
525.676	7682.34
526.043	7674.43
526.409	7662.68
526.776	7713.53
527.142	7696.35
527.508	7670.59
527.874	7724.37
528.241	7703.58
528.607	7720.53
528.973	7786.29
529.339	7796.91
529.705	7829.91
530.071	7865.61
530.437	7887.76
530.803	7903.8
531.169	7952.39
531.535	7845.27
531.901	7850.25
532.267	7818.83
532.632	7931.37
532.998	7914.65
533.364	7924.82
533.73	7931.83
534.095	7949.9
534.461	7909.45
534.826	7926.4
535.192	7917.14
535.557	7957.36
535.923	7894.76
536.288	7948.55
536.653	7892.28
537.019	7856.35
537.384	7866.97
537.749	7880.75
538.114	7884.59
538.479	7896.12
538.845	7915.33
539.21	7883.47
539.575	7884.82
539.94	7887.31
540.305	7886.4
540.67	7880.08
541.034	7891.37
541.399	7805.05
541.764	7892.96
542.129	7905.16
542.494	7902.9
542.858	7867.65
543.223	7824.03
543.587	7890.24
543.952	7902.9
544.316	7885.05
544.681	7812.05
545.045	7784.48
545.41	7805.05
545.774	7792.39
546.138	7827.65
546.503	7820.42
546.867	7807.76
547.231	7834.88
547.595	7843.69
547.959	7831.49
548.324	7698.84
548.688	7824.03
549.052	7832.84
549.416	7815.22
549.779	7819.96
550.143	7811.83
550.507	7832.62
550.871	7765.95
551.235	7749.01
551.599	7778.16
551.962	7795.33
552.326	7798.5
552.689	7767.31
553.053	7756.91
553.417	7743.36
553.78	7852.51
554.143	7778.84
554.507	7754.65
554.87	7724.83
555.234	7839.17
555.597	7751.72
555.96	7792.39
556.323	7767.76
556.686	7789.23
557.05	7760.08
557.413	7858.83
557.776	7818.83
558.139	7922.56
558.502	7827.65
558.865	7875.56
559.228	7830.13
559.59	7870.13
559.953	7883.01
560.316	7961.43
560.679	7900.19
561.041	7970.69
561.404	7880.3
561.767	7998.49
562.129	7965.95
562.492	7963.01
562.854	7971.82
563.217	7999.39
563.579	8012.5
563.941	8004.82
564.304	8026.29
564.666	8128.88
565.028	8127.3
565.39	8130.92
565.753	8158.94
566.115	8114.19
566.477	8162.78
566.839	8169.79
567.201	8208.65
567.563	8266.28
567.925	8218.15
568.287	8262.44
568.648	8247.07
569.01	8348.09
569.372	8344.24
569.734	8341.08
570.095	8308.99
570.457	8419.04
570.819	8431.7
571.18	8341.76
571.542	8472.15
571.903	8470.12
572.265	8440.06
572.626	8488.87
572.987	8479.61
573.349	8610
573.71	8552.6
574.071	8568.19
574.432	8553.96
574.794	8632.37
575.155	8594.41
575.516	8572.26
575.877	8643.22
576.238	8645.93
576.599	8673.27
576.96	8670.56
577.32	8721.86
577.681	8787.4
578.042	8799.83
578.403	8756.89
578.763	8824.23
579.124	8898.35
579.485	8864.91
579.845	8911.69
580.206	8874.4
580.566	8913.04
580.927	8882.76
581.287	8912.14
581.648	8960.5
582.008	9018.35
582.368	8978.58
582.728	9033.49
583.089	8984.45
583.449	8965.24
583.809	9064
584.169	9027.84
584.529	9050.21
584.889	9148.74
585.249	9064.45
585.609	9056.99
585.969	9133.6
586.329	9112.59
586.688	9123.43
587.048	9145.35
587.408	9123.66
587.768	9085.47
588.127	9175.63
588.487	9108.97
588.846	9197.78
589.206	9196.65
589.565	9205.46
589.925	9234.39
590.284	9237.1
590.643	9258.12
591.003	9246.59
591.362	9319.13
591.721	9266.71
592.08	9248.4
592.44	9333.37
592.799	9312.81
593.158	9323.43
593.517	9335.18
593.876	9400.94
594.235	9378.79
594.593	9369.53
594.952	9370.88
595.311	9311
595.67	9328.85
596.029	9402.07
596.387	9413.59
596.746	9425.35
597.104	9375.63
597.463	9398.23
597.822	9420.6
598.18	9433.48
598.538	9386.93
598.897	9405.23
599.255	9429.41
599.613	9615.4
599.972	9374.05
600.33	9538.79
600.688	9428.28
601.046	9558.45
601.404	9552.57
601.762	9482.07
602.12	9523.87
602.478	9562.97
602.836	9521.61
603.194	9551.67
603.552	9542.63
603.91	9497.43
604.268	9545.34
604.625	9477.77
604.983	9541.05
605.341	9541.27
605.698	9632.8
606.056	9587.38
606.413	9524.1
606.771	9557.09
607.128	9538.11
607.485	9611.1
607.843	9542.18
608.2	9652.91
608.557	9596.87
608.914	9572.01
609.272	9708.28
609.629	9633.02
609.986	9693.81
610.343	9682.29
610.7	9715.51
611.057	9600.26
611.414	9699.46
611.771	9672.57
612.127	9767.71
612.484	9767.03
612.841	9808.16
613.198	9767.26
613.554	9710.31
613.911	9807.71
614.267	9840.02
614.624	9760.7
614.98	9736.52
615.337	9879.57
615.693	9801.15
616.05	9750.08
616.406	9836.18
616.762	9779.91
617.118	9767.48
617.475	9810.65
617.831	9803.19
618.187	9887.71
618.543	9856.07
618.899	9930.87
619.255	9875.28
619.611	9859.91
619.967	9884.54
620.323	9879.12
620.678	9917.31
621.034	9928.16
621.39	9914.82
621.746	9861.72
622.101	9989.62
622.457	9858.33
622.812	9886.8
623.168	9969.06
623.523	9964.09
623.879	9929.96
624.234	9857.2
624.589	9903.3
624.945	9913.02
625.3	9932
625.655	9927.48
626.01	9831.89
626.365	9913.92
626.72	9889.06
627.075	9936.07
627.43	9908.95
627.785	9832.11
628.14	9917.99
628.495	9800.7
628.85	9852.45
629.205	9833.24
629.559	9939.46
629.914	9879.8
630.269	9844.54
630.623	9815.84
630.978	9816.75
631.332	9814.26
631.687	9838.89
632.041	9748.95
632.396	9833.47
632.75	9735.85
633.104	9734.04
633.459	9753.47
633.813	9746.69
634.167	9734.26
634.521	9666.47
634.875	9682.97
635.229	9709.86
635.583	9659.69
635.937	9662.4
636.291	9674.83
636.645	9572.91
636.999	9648.62
637.352	9639.8
637.706	9537.43
638.06	9627.6
638.413	9567.26
638.767	9559.13
639.121	9577.88
639.474	9498.34
639.828	9555.29
640.181	9547.38
640.534	9559.81
640.888	9504.21
641.241	9411.11
641.594	9533.59
641.947	9520.26
642.301	9452.46
642.654	9469.86
643.007	9410.2
643.36	9453.59
643.713	9435.74
644.066	9555.51
644.419	9380.37
644.771	9370.66
645.124	9287.5
645.477	9263.09
645.83	9193.49
646.182	9153.26
646.535	9151.68
646.888	9153.04
647.24	9074.17
647.593	9119.82
647.945	9131.57
648.298	9065.81
648.65	9049.08
649.002	9050.21
649.355	9124.56
649.707	9104
650.059	9204.33
650.411	9277.78
650.763	9253.6
651.115	9334.05
651.467	9287.5
651.819	9299.25
652.171	9292.24
652.523	9199.59
652.875	9279.59
653.227	9285.24
653.578	9376.31
653.93	9293.6
654.282	9305.57
654.633	9201.17
654.985	9270.55
655.337	9327.27
655.688	9276.65
656.039	9300.6
656.391	9198.46
656.742	9214.5
657.094	9291.79
657.445	9301.51
657.796	9233.03
658.147	9242.07
658.498	9238.46
658.849	9285.91
659.2	9305.57
659.551	9177.89
659.902	9338.57
660.253	9278
660.604	9306.93
660.955	9241.85
661.306	9255.18
661.656	9224.9
662.007	9214.96
662.358	9312.81
662.708	9194.62
663.059	9271
663.409	9288.17
663.76	9343.99
664.11	9269.64
664.461	9264.45
664.811	9254.5
665.161	9280.94
665.511	9214.5
665.862	9243.88
666.212	9305.12
666.562	9359.58
666.912	9331.34
667.262	9239.36
667.612	9303.31
667.962	9297.21
668.312	9292.92
668.662	9296.76
669.011	9262.64
669.361	9189.87
669.711	9222.86
670.06	9205.69
670.41	9256.54
670.76	9229.42
671.109	9176.31
671.459	9223.32
671.808	9200.04
672.157	9202.07
672.507	9148.06
672.856	9171.57
673.205	9199.36
673.554	9194.39
673.904	9091.79
674.253	9138.12
674.602	9150.1
674.951	9077.33
675.3	9000.95
675.649	9134.73
675.998	9146.93
676.346	9103.55
676.695	9145.58
677.044	9078.46
677.393	9066.48
677.741	9094.73
678.09	9062.42
678.438	9052.93
678.787	9037.78
679.135	9027.16
679.484	9042.3
679.832	9024.68
680.181	9001.4
680.529	9010.67
680.877	8951.91
681.225	8893.38
681.573	8940.84
681.922	8886.15
682.27	8930.67
682.618	8875.53
682.966	8779.49
683.314	8889.54
683.661	8824.91
684.009	8815.42
684.357	8758.47
684.705	8784.01
685.053	8706.04
685.4	8714.4
685.748	8736.55
686.095	8694.29
686.443	8708.75
686.79	8687.06
687.138	8648.87
687.485	8665.37
687.832	8612.03
688.18	8601.64
688.527	8496.78
688.874	8582.66
689.221	8577.01
689.568	8474.41
689.915	8492.04
690.262	8533.62
690.609	8417.24
690.956	8425.82
691.303	8409.1
691.65	8355.99
691.997	8358.03
692.344	8327.07
692.69	8268.54
693.037	8271.48
693.383	8210.69
693.73	8251.82
694.077	8246.17
694.423	8194.64
694.769	8138.6
695.116	8171.37
695.462	8080.52
695.808	8027.42
696.155	8093.18
696.501	8000.98
696.847	8002.11
697.193	7903.58
697.539	7934.31
697.885	7819.29
698.231	7827.65
698.577	7866.52
698.923	7795.11
699.269	7772.96
699.614	7760.53
699.96	7719.63
700.306	7695.67
700.651	7644.15
700.997	7674.88
701.342	7692.28
701.688	7629.01
702.033	7587.65
702.379	7577.71
702.724	7583.13
703.069	7579.07
703.415	7525.06
703.76	7528.67
704.105	7472.63
704.45	7467.66
704.795	7418.62
705.14	7372.97
705.485	7325.51
705.83	7295.46
706.175	7362.35
706.52	7314.67
706.865	7281.9
707.209	7303.82
707.554	7245.74
707.899	7230.37
708.243	7145.63
708.588	7229.47
708.932	7079.19
709.277	7136.59
709.621	7141.34
709.966	7085.97
710.31	7111.28
710.654	7028.8
710.998	7001.45
711.342	7036.26
711.687	7015.47
712.031	6976.37
712.375	6949.03
712.719	6971.62
713.063	6964.39
713.407	6934.11
713.75	6883.04
714.094	6896.37
714.438	6878.29
714.782	6887.11
715.125	6835.58
715.469	6823.15
715.812	6831.29
716.156	6808.24
716.499	6817.5
716.843	6845.75
717.186	6751.74
717.53	6814.57
717.873	6773.89
718.216	6759.43
718.559	6756.71
718.902	6625.19
719.246	6750.61
719.589	6712.65
719.932	6679.88
720.275	6632.42
720.617	6658.86
720.96	6651.41
721.303	6676.27
721.646	6647.57
721.989	6616.83
722.331	6642.82
722.674	6652.08
723.016	6626.1
723.359	6627.68
723.701	6627.23
724.044	6542.26
724.386	6534.35
724.729	6580
725.071	6585.19
725.413	6592.2
725.755	6588.13
726.097	6519.43
726.439	6511.3
726.782	6497.06
727.124	6577.96
727.465	6505.87
727.807	6524.18
728.149	6536.16
728.491	6500.9
728.833	6535.7
729.175	6532.54
729.516	6508.81
729.858	6483.73
730.199	6516.72
730.541	6487.12
730.882	6480.79
731.224	6525.76
731.565	6483.5
731.906	6484.41
732.248	6465.42
732.589	6382.94
732.93	6495.48
733.271	6464.29
733.612	6502.48
733.953	6452.09
734.294	6449.6
734.635	6425.2
734.976	6501.81
735.317	6487.8
735.658	6477.17
735.999	6437.18
736.339	6470.85
736.68	6465.65
737.021	6475.82
737.361	6464.29
737.702	6463.39
738.042	6521.69
738.383	6462.26
738.723	6537.51
739.063	6418.64
739.404	6494.12
739.744	6522.82
740.084	6479.89
740.424	6509.72
740.764	6480.79
741.104	6502.03
741.444	6505.87
741.784	6525.08
742.124	6516.72
742.464	6583.61
742.804	6565.31
743.143	6549.71
743.483	6587.68
743.823	6576.15
744.162	6517.85
744.502	6623.16
744.841	6623.16
745.181	6701.58
745.52	6690.05
745.86	6674.23
746.199	6748.13
746.538	6715.59
746.877	6764.17
747.216	6845.53
747.556	6794.91
747.895	6884.85
748.234	6889.14
748.573	6900.89
748.911	6930.95
749.25	7002.13
749.589	7010.04
749.928	7086.2
750.267	7125.52
750.605	7116.03
750.944	7276.02
751.283	7264.27
751.621	7396.47
751.96	7372.52
752.298	7444.61
752.636	7499.97
752.975	7585.62
753.313	7625.84
753.651	7727.54
753.989	7766.18
754.327	7850.92
754.666	7856.12
755.004	7991.71
755.342	8158.71
755.679	8155.77
756.017	8220.86
756.355	8346.73
756.693	8499.95
757.031	8619.49
757.368	8703.1
757.706	8805.93
758.044	8819.26
758.381	8979.48
758.719	9061.74
759.056	9177.22
759.394	9284.33
759.731	9404.78
760.068	9489.3
760.405	9645.45
760.743	9708.5
761.08	9948.72
761.417	9900.36
761.754	10089.51
762.091	10186.46
762.428	10270.29
762.765	10305.55
763.102	10538.31
763.438	10595.71
763.775	10781.02
764.112	10905.53
764.449	11015.13
764.785	11127.45
765.122	11231.17
765.458	11267.33
765.795	11390.94
766.131	11445.86
766.467	11632.97
766.804	11732.63
767.14	11829.58
767.476	11962.23
767.812	11992.74
768.148	12146.4
768.485	12203.58
768.821	12292.39
769.157	12369.67
769.492	12465.49
769.828	12623
770.164	12600.18
770.5	12679.5
770.836	12822.54
771.171	12790.91
771.507	12827.29
771.842	12898.02
772.178	13106.6
772.513	13059.6
772.849	13152.03
773.184	13160.61
773.519	13298.46
773.855	13278.58
774.19	13369.42
774.525	13366.71
774.86	13450.55
775.195	13482.64
775.53	13497.78
775.865	13488.74
776.2	13474.28
776.535	13472.47
776.87	13535.07
777.205	13548.63
777.539	13603.99
777.874	13639.02
778.209	13606.93
778.543	13634.73
778.878	13652.35
779.212	13717.89
779.547	13639.92
779.881	13720.6
780.215	13759.47
780.55	13736.64
780.884	13697.32
781.218	13769.86
781.552	13797.89
781.886	13843.08
782.22	13722.63
782.554	13813.48
782.888	13643.31
783.222	13675.63
783.556	13699.58
783.889	13674.05
784.223	13618.23
784.557	13676.99
784.89	13737.32
785.224	13624.33
785.557	13603.09
785.891	13592.69
786.224	13621.85
786.558	13637.66
786.891	13539.59
787.224	13524.9
787.557	13540.27
787.891	13551.11
788.224	13497.1
788.557	13567.84
788.89	13595.18
789.223	13557.67
789.556	13403.55
789.888	13344.34
790.221	13410.55
790.554	13299.37
790.887	13362.64
791.219	13257.79
791.552	13294.85
791.884	13241.97
792.217	13232.48
792.549	13225.02
792.882	13179.37
793.214	13100.95
793.546	13095.76
793.879	13107.51
794.211	13035.19
794.543	13063.67
794.875	13055.53
795.207	13099.83
795.539	12986.83
795.871	13000.62
796.203	12901.86
796.535	12848.76
796.867	12825.93
797.198	12911.13
797.53	12822.32
797.862	12783.45
798.193	12863
798.525	12655.32
798.856	12698.25
799.188	12564.92
799.519	12629.55
799.85	12532.16
800.182	12605.83
800.513	12522.44
800.844	12521.08
801.175	12510.24
801.506	12475.66
801.837	12473.17
802.168	12432.95
802.499	12376.91
802.83	12379.62
803.161	12318.83
803.491	12382.33
803.822	12320.64
804.153	12234.76
804.483	12145.73
804.814	12171.04
805.145	12103.02
805.475	12108.21
805.805	12109.12
806.136	12050.81
806.466	12088.78
806.796	12035.22
807.126	11945.96
807.457	11944.6
807.787	11868.44
808.117	11926.52
808.447	11849.24
808.777	11972.17
809.107	11913.19
809.436	11813.76
809.766	11844.26
810.096	11707.09
810.426	11672.52
810.755	11646.98
811.085	11705.06
811.414	11675.91
811.744	11610.6
812.073	11576.02
812.403	11568.11
812.732	11570.15
813.061	11605.4
813.39	11418.51
813.719	11432.3
814.049	11472.3
814.378	11461.68
814.707	11429.13
815.036	11389.36
815.365	11375.8
815.693	11308.46
816.022	11277.5
816.351	11202.93
816.68	11222.81
817.008	11226.2
817.337	11138.07
817.665	11168.58
817.994	11267.56
818.322	11182.59
818.651	11075.47
818.979	11065.53
819.307	11128.35
819.636	11108.92
819.964	10972.88
820.292	11064.85
820.62	11059.43
820.948	11019.65
821.276	11094.45
821.604	10941.69
821.932	11014.23
822.259	11031.18
822.587	11021.01
822.915	11029.15
823.243	11080.44
823.57	11023.95
823.898	10986.89
824.225	10996.83
824.553	10976.94
824.88	11017.39
825.207	11089.93
825.535	11010.84
825.862	11072.53
826.189	10965.42
826.516	11049.94
826.843	11043.61
827.17	11072.08
827.497	10988.24
827.824	11079.99
828.151	11048.81
828.478	11079.54
828.805	11098.07
829.131	11124.06
829.458	11060.33
829.785	11019.88
830.111	10964.97
830.438	11071.18
830.764	11071.86
831.09	11081.35
831.417	10969.94
831.743	11028.24
832.069	11022.14
832.395	10943.27
832.722	11011.07
833.048	10945.08
833.374	10992.31
833.7	10957.96
834.026	10980.78
834.351	10936.94
834.677	10929.94
835.003	10925.87
835.329	10899.2
835.654	10916.61
835.98	10810.39
836.306	10858.53
836.631	10851.75
836.956	10862.82
837.282	10853.78
837.607	10715.93
837.932	10837.51
838.258	10811.07
838.583	10738.98
838.908	10760.9
839.233	10720.45
839.558	10676.16
839.883	10680.23
840.208	10694.92
840.533	10671.41
840.858	10623.05
841.182	10621.47
841.507	10631.19
841.832	10590.29
842.156	10562.49
842.481	10632.09
842.805	10569.72
843.13	10484.3
843.454	10489.5
843.778	10402.49
844.103	10436.62
844.427	10417.41
844.751	10385.32
845.075	10396.39
845.399	10351.87
845.723	10293.35
846.047	10318.88
846.371	10205.89
846.695	10192.1
847.019	10099.68
847.343	10129.96
847.666	10050.41
847.99	9993.47
848.313	10077.53
848.637	9950.3
848.96	9936.52
849.284	9883.64
849.607	9749.18
849.931	9846.13
850.254	9739.69
850.577	9666.24
850.9	9694.49
851.223	9666.69
851.546	9559.58
851.869	9545.34
852.192	9647.49
852.515	9498.79
852.838	9440.71
853.161	9480.49
853.483	9387.61
853.806	9327.95
854.129	9371.34
854.451	9350.55
854.774	9234.62
855.096	9239.81
855.419	9269.19
855.741	9206.59
856.063	9199.14
856.385	9195.97
856.708	9092.02
857.03	9171.57
857.352	9085.02
857.674	9029.88
857.996	9002.31
858.318	8974.74
858.64	8974.51
858.961	8941.06
859.283	8909.65
859.605	8865.36
859.926	8991.46
860.248	8884.34
860.57	8827.62
860.891	8884.79
861.212	8787.17
861.534	8750.79
861.855	8750.11
862.176	8766.15
862.498	8732.26
862.819	8666.72
863.14	8658.13
863.461	8680.73
863.782	8693.16
864.103	8636.44
864.424	8585.59
864.745	8654.29
865.065	8585.14
865.386	8603.9
865.707	8552.6
866.027	8598.25
866.348	8524.35
866.668	8514.18
866.989	8466.73
867.309	8452.04
867.63	8443.22
867.95	8493.17
868.27	8400.51
868.59	8435.31
868.91	8380.18
869.23	8393.51
869.55	8338.14
869.87	8363.68
870.19	8369.33
870.51	8386.05
870.83	8350.12
871.15	8306.5
871.469	8313.06
871.789	8262.21
872.109	8262.89
872.428	8246.17
872.748	8300.18
873.067	8238.26
873.386	8258.14
873.706	8168.2
874.025	8195.32
874.344	8207.52
874.663	8214.76
874.982	8187.86
875.301	8151.03
875.62	8169.33
875.939	8113.97
876.258	8129.56
876.577	8100.86
876.896	8085.27
877.214	8047.75
877.533	8038.04
877.852	8070.58
878.17	8083.23
878.489	8097.92
878.807	8031.48
879.125	7955.55
879.444	8054.76
879.762	7934.54
880.08	8024.25
880.398	7932.96
880.716	7911.94
881.034	7887.98
881.352	7961.2
881.67	7838.72
881.988	7879.17
882.306	7840.53
882.624	7795.56
882.941	7746.75
883.259	7787.87
883.577	7744.49
883.894	7799.63
884.212	7737.48
884.529	7737.48
884.846	7768.89
885.164	7690.7
885.481	7622.45
885.798	7684.83
886.115	7622.45
886.432	7628.78
886.75	7607.99
887.067	7591.95
887.383	7504.49
887.7	7610.48
888.017	7549.24
888.334	7529.35
888.651	7481.67
888.967	7464.27
889.284	7460.43
889.6	7426.3
889.917	7409.81
890.233	7401.9
890.55	7382.69
890.866	7377.72
891.182	7321.9
891.498	7302.92
891.815	7271.96
892.131	7265.4
892.447	7241
892.763	7238.06
893.079	7201.9
893.395	7184.73
893.71	7191.51
894.026	7145.18
894.342	7140.43
894.657	7041.23
894.973	7064.28
895.289	7066.31
895.604	7052.3
895.92	6977.27
896.235	6948.12
896.55	6915.58
896.865	6891.63
897.181	6869.03
897.496	6884.85
897.811	6834.45
898.126	6863.83
898.441	6830.61
898.756	6840.78
899.071	6778.41
899.386	6779.77
899.7	6702.48
900.015	6691.86
900.33	6610.5
900.644	6625.64
900.959	6641.24
901.273	6565.99
901.588	6540.45
901.902	6515.37
902.216	6508.13
902.531	6496.61
902.845	6469.94
903.159	6416.16
903.473	6394.92
903.787	6338.42
904.101	6382.94
904.415	6362.6
904.729	6327.12
905.042	6322.15
905.356	6305.65
905.67	6192.66
905.984	6269.5
906.297	6255.26
906.611	6171.42
906.924	6176.17
907.237	6166.22
907.551	6131.65
907.864	6102.27
908.177	6091.65
908.491	6056.39
908.804	6041.93
909.117	5982.05
909.43	5973.46
909.743	5920.35
910.056	5943.4
910.368	5934.59
910.681	5883.07
910.994	5857.53
911.307	5823.18
911.619	5755.61
911.932	5815.5
912.244	5724.88
912.557	5746.8
912.869	5683.52
913.181	5726.46
913.494	5703.64
913.806	5630.19
914.118	5670.64
914.43	5592.45
914.742	5610.76
915.054	5530.98
915.366	5514.94
915.678	5502.28
915.99	5473.81
916.302	5484.21
916.613	5426.13
916.925	5452.12
917.236	5389.97
917.548	5363.98
917.859	5347.49
918.171	5344.1
918.482	5290.99
918.794	5308.62
919.105	5279.47
919.416	5300.26
919.727	5242.63
920.038	5173.25
920.349	5195.4
920.66	5164.89
920.971	5204.44
921.282	5126.93
921.593	5059.58
921.903	5060.49
922.214	5041.73
922.525	5036.53
922.835	5033.6
923.146	4984.56
923.456	4956.31
923.767	4944.33
924.077	4925.58
924.387	4973.94
924.697	4876.31
925.008	4951.34
925.318	4878.12
925.628	4876.09
925.938	4895.52
926.248	4751.57
926.558	4806.03
926.867	4790.66
927.177	4783.43
927.487	4754.96
927.796	4703.44
928.106	4686.94
928.416	4676.32
928.725	4643.1
929.034	4701.85
929.344	4679.03
929.653	4648.07
929.962	4591.12
930.271	4551.35
930.581	4521.07
930.89	4580.28
931.199	4482.88
931.508	4531.91
931.817	4515.42
932.125	4495.53
932.434	4458.24
932.743	4415.76
933.051	4381.64
933.36	4361.3
933.669	4364.01
933.977	4377.34
934.286	4331.02
934.594	4377.57
934.902	4320.85
935.21	4248.76
935.519	4293.28
935.827	4279.94
936.135	4176.9
936.443	4225.26
936.751	4183.68
937.059	4186.16
937.367	4190
937.674	4177.8
937.982	4129.21
938.29	4121.3
938.597	4150.91
938.905	4096.9
939.213	3993.4
939.52	4105.26
939.827	4036.79
940.135	3995.43
940.442	3966.51
940.749	3990.91
941.056	3967.18
941.363	3947.75
941.67	3944.13
941.977	3941.42
942.284	3880.18
942.591	3891.03
942.898	3863.68
943.205	3836.34
943.511	3848.32
943.818	3836.34
944.125	3805.38
944.431	3771.48
944.738	3769.67
945.044	3753.86
945.35	3713.41
945.657	3716.57
945.963	3701.43
946.269	3680.19
946.575	3684.25
946.881	3670.02
947.187	3620.07
947.493	3632.96
947.799	3660.98
948.105	3611.71
948.41	3575.56
948.716	3573.97
949.022	3543.47
949.327	3541.21
949.633	3565.84
949.938	3485.39
950.244	3507.76
950.549	3466.18
950.854	3482.9
951.16	3432.51
951.465	3433.19
951.77	3424.37
952.075	3396.58
952.38	3366.3
952.685	3366.52
952.99	3357.71
953.294	3343.25
953.599	3317.03
953.904	3315.9
954.209	3288.56
954.513	3288.78
954.818	3248.78
955.122	3262.57
955.426	3250.59
955.731	3214.21
956.035	3193.87
956.339	3197.94
956.643	3207.2
956.948	3190.71
957.252	3189.13
957.556	3172.85
957.86	3132.18
958.163	3167.66
958.467	3077.49
958.771	3133.08
959.075	3088.56
959.378	3111.61
959.682	3049.24
959.985	3066.42
960.289	3024.16
960.592	3001.11
960.896	3064.16
961.199	3043.14
961.502	3021.45
961.805	2980.77
962.108	2956.36
962.411	2945.97
962.714	2935.35
963.017	2925.18
963.32	2943.71
963.623	2918.17
963.926	2876.82
964.228	2880.66
964.531	2865.97
964.833	2894.9
965.136	2822.36
965.438	2843.6
965.741	2800.21
966.043	2791.85
966.345	2817.61
966.648	2796.59
966.95	2812.64
967.252	2776.48
967.554	2752.3
967.856	2750.04
968.158	2729.25
968.46	2718.63
968.761	2699.87
969.063	2704.39
969.365	2655.81
969.666	2678.63
969.968	2645.64
970.269	2637.95
970.571	2660.1
970.872	2629.59
971.174	2635.92
971.475	2599.99
971.776	2586.43
972.077	2608.8
972.378	2559.54
972.679	2551.85
972.98	2563.6
973.281	2541.68
973.582	2560.67
973.883	2516.83
974.183	2501.01
974.484	2514.79
974.785	2501.23
975.085	2494
975.386	2453.55
975.686	2471.18
975.986	2476.6
976.287	2435.92
976.587	2403.38
976.887	2388.69
977.187	2459.43
977.487	2375.14
977.787	2381.91
978.087	2375.36
978.387	2332.65
978.687	2328.36
978.987	2347.11
979.286	2340.79
979.586	2301.24
979.885	2282.93
980.185	2277.06
980.484	2291.97
980.784	2298.08
981.083	2287.45
981.382	2254.91
981.682	2251.3
981.981	2262.14
982.28	2216.5
982.579	2238.19
982.878	2247.91
983.177	2210.39
983.475	2201.13
983.774	2182.37
984.073	2193.9
984.372	2131.75
984.67	2155.71
984.969	2162.03
985.267	2143.73
985.566	2133.33
985.864	2142.6
986.162	2096.95
986.461	2122.26
986.759	2110.51
987.057	2080.91
987.355	2070.06
987.653	2106.89
987.951	2042.71
988.249	2053.79
988.547	2068.02
988.844	2020.57
989.142	2022.83
989.44	2009.95
989.737	1993.22
990.035	1993.45
990.332	1981.7
990.63	2009.5
990.927	1954.81
991.224	1936.05
991.521	1948.48
991.819	1937.63
992.116	1917.29
992.413	1933.79
992.71	1885.2
993.006	1900.12
993.303	1904.41
993.6	1890.63
993.897	1882.04
994.193	1880.01
994.49	1868.48
994.787	1843.4
995.083	1829.84
995.379	1842.95
995.676	1841.36
995.972	1825.09
996.268	1806.11
996.565	1823.96
996.861	1800.69
997.157	1771.99
997.453	1788.48
997.749	1773.34
998.044	1738.09
998.34	1761.59
998.636	1746.45
998.932	1721.14
999.227	1722.27
999.523	1723.63
999.818	1721.37
1000.114	1686.57
1000.409	1720.46
1000.704	1692.44
1001	1646.79
1001.295	1655.61
1001.59	1659.45
1001.885	1637.53
1002.18	1659.67
1002.475	1640.69
1002.77	1645.66
1003.065	1602.27
1003.359	1619.67
1003.654	1597.3
1003.949	1602.73
1004.243	1548.04
1004.538	1583.52
1004.832	1567.02
1005.127	1566.57
1005.421	1536.74
1005.715	1536.06
1006.009	1507.81
1006.304	1546.68
1006.598	1526.12
1006.892	1493.58
1007.186	1532.9
1007.48	1493.12
1007.773	1506.01
1008.067	1490.86
1008.361	1475.27
1008.655	1482.73
1008.948	1423.3
1009.242	1431.21
1009.535	1455.61
1009.829	1403.86
1010.122	1429.85
1010.415	1415.39
1010.708	1395.27
1011.001	1397.08
1011.295	1385.1
1011.588	1404.99
1011.881	1352.34
1012.173	1362.73
1012.466	1388.72
1012.759	1357.99
1013.052	1362.96
1013.344	1346.91
1013.637	1344.65
1013.93	1301.04
1014.222	1321.15
1014.514	1283.86
1014.807	1299.91
1015.099	1316.63
1015.391	1308.95
1015.683	1267.82
1015.976	1260.36
1016.268	1248.16
1016.56	1248.16
1016.851	1258.1
1017.143	1258.55
1017.435	1247.93
1017.727	1226.92
1018.018	1226.69
1018.31	1209.29
1018.602	1191.89
1018.893	1208.39
1019.185	1200.48
1019.476	1198.67
1019.767	1195.05
1020.058	1170.65
1020.35	1165
1020.641	1141.95
1020.932	1120.48
1021.223	1150.31
1021.514	1155.96
1021.804	1121.38
1022.095	1121.61
1022.386	1123.19
1022.677	1100.14
1022.967	1100.14
1023.258	1110.31
1023.548	1114.83
1023.839	1096.52
1024.129	1068.73
1024.419	1078.9
1024.709	1075.73
1025	1030.09
1025.29	1055.85
1025.58	1052.23
1025.87	1022.63
1026.16	1062.18
1026.449	1025.34
1026.739	1009.75
1027.029	1011.1
1027.319	1026.7
1027.608	1012.01
1027.898	971.1
1028.187	985.12
1028.477	977.66
1028.766	1004.78
1029.055	1005
1029.344	938.79
1029.634	968.17
1029.923	951.44
1030.212	934.5
1030.501	935.85
1030.79	948.73
1031.078	923.2
1031.367	920.71
1031.656	926.36
1031.945	907.83
1032.233	917.55
1032.522	900.15
1032.81	878.23
1033.099	875.97
1033.387	887.49
1033.675	891.11
1033.963	857.66
1034.251	867.38
1034.54	883.42
1034.828	871.22
1035.116	865.57
1035.403	840.03
1035.691	845.46
1035.979	849.53
1036.267	857.44
1036.554	840.71
1036.842	823.99
1037.129	839.58
1037.417	839.13
1037.704	805.91
1037.992	813.59
1038.279	797.55
1038.566	812.46
1038.853	812.46
1039.14	812.46
