Data from hue_100_FLMS001491_00033.txt Node
Date: Tue Feb 07 17:03:04 GMT 2017
User: dcchb
Spectrometer: FLMS00149
Trigger mode: 0
Integration Time (sec): 2.000000E-2
Scans to average: 10
Electric dark correction enabled: true
Nonlinearity correction enabled: false
Boxcar width: 0
XAxis mode: Wavelengths
Number of Pixels in Spectrum: 2048
>>>>>Begin Spectral Data<<<<<
341.393	-11.12
341.776	-11.12
342.16	-11.12
342.543	-69.87
342.927	-68.52
343.31	-68.74
343.693	-70.1
344.077	-59.48
344.46	-62.19
344.843	-64.45
345.226	-48.63
345.61	-26.93
345.993	-18.35
346.376	-5.69
346.759	5.38
347.142	24.59
347.525	49.67
347.908	67.98
348.291	91.48
348.674	87.86
349.057	97.58
349.44	130.12
349.823	143.91
350.206	168.31
350.588	210.35
350.971	218.93
351.354	236.34
351.737	253.96
352.119	265.26
352.502	264.58
352.884	270.23
353.267	285.6
353.65	306.62
354.032	306.16
354.414	306.62
354.797	331.02
355.179	319.5
355.562	355.88
355.944	316.33
356.326	347.52
356.709	357.69
357.091	356.56
357.473	348.42
357.855	358.37
358.238	365.37
358.62	347.07
359.002	340.74
359.384	345.49
359.766	344.81
360.148	347.52
360.53	329.89
360.912	331.7
361.294	340.06
361.676	330.57
362.057	348.65
362.439	335.32
362.821	350.68
363.203	360.4
363.584	347.52
363.966	344.13
364.348	345.71
364.729	332.83
365.111	329.67
365.493	325.6
365.874	324.24
366.256	314.53
366.637	326.73
367.019	319.72
367.4	322.89
367.781	304.36
368.163	338.71
368.544	322.44
368.925	333.96
369.306	336.9
369.688	318.14
370.069	316.79
370.45	332.15
370.831	343.45
371.212	318.59
371.593	323.79
371.974	350.91
372.355	313.17
372.736	330.34
373.117	322.66
373.498	345.03
373.879	338.03
374.26	311.14
374.641	334.41
375.021	325.82
375.402	326.05
375.783	352.49
376.163	358.37
376.544	336.45
376.925	329.67
377.305	318.59
377.686	334.19
378.066	345.26
378.447	340.06
378.827	335.77
379.208	354.52
379.588	338.25
379.968	352.49
380.349	340.74
380.729	342.77
381.109	358.82
381.489	338.48
381.87	352.04
382.25	365.37
382.63	371.02
383.01	348.42
383.39	362.66
383.77	380.29
384.15	354.07
384.53	359.04
384.91	354.98
385.29	375.54
385.67	362.66
386.049	382.55
386.429	371.02
386.809	371.47
387.189	369.21
387.568	382.77
387.948	366.28
388.328	376.22
388.707	383.22
389.087	390.23
389.466	413.28
389.846	403.79
390.225	398.59
390.605	389.1
390.984	410.57
391.363	387.07
391.743	391.13
392.122	375.54
392.501	401.3
392.881	391.13
393.26	407.4
393.639	404.47
394.018	401.08
394.397	411.02
394.776	408.31
395.155	408.08
395.534	425.71
395.913	426.84
396.292	433.39
396.671	437.01
397.05	426.39
397.429	414.18
397.808	435.43
398.186	434.3
398.565	423
398.944	436.1
399.323	422.32
399.701	451.92
400.08	434.75
400.458	455.54
400.837	443.34
401.215	441.75
401.594	443.79
401.972	453.51
402.351	446.73
402.729	440.4
403.107	439.27
403.486	471.36
403.864	458.7
404.242	469.32
404.62	484.24
404.999	482.43
405.377	486.05
405.755	472.26
406.133	483.56
406.511	491.7
406.889	498.02
407.267	493.96
407.645	493.5
408.023	496.44
408.401	495.99
408.779	492.6
409.156	509.1
409.534	511.58
409.912	512.26
410.29	522.88
410.667	520.4
411.045	524.69
411.422	528.76
411.8	527.85
412.178	544.12
412.555	514.75
412.933	555.88
413.31	531.47
413.687	578.7
414.065	559.04
414.442	568.53
414.819	567.63
415.197	569.66
415.574	559.72
415.951	594.52
416.328	587.96
416.705	568.98
417.082	587.74
417.46	595.42
417.837	630.45
418.214	594.74
418.591	609.66
418.967	610.56
419.344	628.64
419.721	606.72
420.098	644.91
420.475	615.31
420.852	634.74
421.228	641.07
421.605	655.53
421.982	658.92
422.358	662.77
422.735	662.77
423.111	656.21
423.488	667.51
423.864	659.38
424.241	681.07
424.617	689.66
424.994	672.48
425.37	674.52
425.746	689.21
426.123	688.53
426.499	741.18
426.875	719.94
427.251	707.51
427.627	714.74
428.003	724.91
428.379	729.66
428.756	748.86
429.132	747.73
429.507	746.6
429.883	757.68
430.259	783.21
430.635	797.9
431.011	784.8
431.387	785.7
431.763	819.82
432.138	830.22
432.514	803.78
432.89	830.9
433.265	839.94
433.641	873.61
434.016	871.12
434.392	868.18
434.767	899.82
435.143	875.64
435.518	913.15
435.894	914.28
436.269	897.34
436.644	930.78
437.02	921.97
437.395	920.61
437.77	941.4
438.145	965.36
438.52	965.81
438.895	996.99
439.271	980.95
439.646	980.72
440.021	994.73
440.395	1019.14
440.77	978.24
441.145	986.6
441.52	1026.82
441.895	1044
442.27	1027.95
442.645	1042.64
443.019	1056.43
443.394	1066.37
443.769	1073.38
444.143	1053.26
444.518	1073.6
444.892	1061.85
445.267	1078.12
445.641	1091.45
446.016	1081.51
446.39	1123.32
446.764	1119.7
447.139	1116.99
447.513	1123.54
447.887	1108.86
448.262	1136.88
448.636	1145.69
449.01	1163.77
449.384	1174.84
449.758	1173.94
450.132	1216.65
450.506	1194.95
450.88	1187.95
451.254	1194.5
451.628	1225.46
452.002	1243.99
452.376	1245.8
452.75	1264.78
453.123	1262.75
453.497	1318.57
453.871	1308.4
454.244	1317.44
454.618	1322.18
454.992	1339.13
455.365	1360.37
455.739	1366.25
456.112	1398.11
456.486	1416.19
456.859	1422.97
457.232	1434.04
457.606	1423.87
457.979	1487.38
458.352	1495.74
458.725	1511.78
459.099	1503.42
459.472	1533.25
459.845	1575.06
460.218	1568.5
460.591	1588.62
460.964	1586.13
461.337	1641.04
461.71	1665.22
462.083	1676.75
462.456	1700.93
462.829	1719.01
463.201	1724.88
463.574	1766.92
463.947	1778.89
464.32	1797.42
464.692	1845.78
465.065	1841.72
465.438	1866.12
465.81	1901.15
466.183	1934.37
466.555	1974.14
466.928	2008.94
467.3	2004.88
467.672	2022.28
468.045	2108.6
468.417	2100.47
468.789	2124.65
469.161	2119.22
469.534	2234.48
469.906	2272.44
470.278	2277.86
470.65	2320.8
471.022	2352.21
471.394	2439.22
471.766	2457.97
472.138	2480.34
472.51	2543.17
472.882	2611.87
473.253	2648.7
473.625	2707.46
473.997	2754.69
474.369	2744.07
474.74	2853.44
475.112	2913.78
475.484	2981.8
475.855	3059.76
476.227	3134.34
476.598	3246.43
476.97	3249.59
477.341	3361.23
477.713	3430.83
478.084	3485.29
478.455	3612.29
478.827	3648.45
479.198	3807.77
479.569	3837.37
479.94	4006.18
480.311	4041.43
480.682	4179.06
481.053	4300.86
481.424	4408.88
481.795	4472.61
482.166	4588.99
482.537	4690.68
482.908	4852.94
483.279	4983.1
483.65	5102.42
484.021	5256.77
484.391	5351.46
484.762	5481.85
485.133	5566.59
485.503	5690.43
485.874	5888.39
486.244	5968.16
486.615	6167.93
486.985	6276.85
487.356	6461.71
487.726	6617.41
488.097	6883.39
488.467	6923.39
488.837	7072.09
489.207	7282.25
489.578	7468.46
489.948	7574.9
490.318	7745.29
490.688	7886.76
491.058	8075.23
491.428	8344.37
491.798	8373.75
492.168	8608.54
492.538	8751.14
492.908	8932.6
493.278	9140.96
493.648	9314.74
494.017	9394.06
494.387	9568.07
494.757	9737.55
495.126	9879.92
495.496	10057.32
495.866	10202.18
496.235	10315.84
496.605	10529.4
496.974	10648.94
497.344	10812.78
497.713	10908.37
498.082	11081.25
498.452	11265.65
498.821	11341.13
499.19	11467.9
499.559	11700.89
499.928	11684.62
500.298	11867.44
500.667	12036.03
501.036	12081.45
501.405	12279.18
501.774	12280.09
502.143	12499.74
502.512	12569.34
502.88	12735.89
503.249	12853.18
503.618	12882.33
503.987	13022.21
504.356	13202.77
504.724	13273.28
505.093	13371.36
505.462	13498.81
505.83	13580.17
506.199	13733.38
506.567	13893.6
506.936	13912.81
507.304	14046.59
507.672	14141.73
508.041	14271.9
508.409	14359.58
508.777	14467.83
509.145	14529.52
509.514	14487.03
509.882	14605
510.25	14675.28
510.618	14774.03
510.986	14858.32
511.354	15062.84
511.722	15057.64
512.09	15198.2
512.458	15260.12
512.826	15340.8
513.193	15484.75
513.561	15459.66
513.929	15503.05
514.297	15739.88
514.664	15803.84
515.032	15762.48
515.4	15889.48
515.767	15961.8
516.135	15957.05
516.502	15968.8
516.869	16099.87
517.237	16176.93
517.604	16102.36
517.972	16288.34
518.339	16353.88
518.706	16386.65
519.073	16437.94
519.44	16504.38
519.808	16618.73
520.175	16584.61
520.542	16701.44
520.909	16812.62
521.276	16758.61
521.643	16875.45
522.009	16906.86
522.376	17046.74
522.743	17091.49
523.11	17211.93
523.477	17277.02
523.843	17297.58
524.21	17533.51
524.577	17545.71
524.943	17471.59
525.31	17587.29
525.676	17660.06
526.043	17622.77
526.409	17824.12
526.776	17865.48
527.142	17917.45
527.508	17852.82
527.874	17982.76
528.241	17954.29
528.607	18009.65
528.973	18118.13
529.339	18061.63
529.705	18190.89
530.071	18283.77
530.437	18259.82
530.803	18218.01
531.169	18304.79
531.535	18174.4
531.901	18202.19
532.267	18205.58
532.632	18251.68
532.998	18245.13
533.364	18367.16
533.73	18425.01
534.095	18440.15
534.461	18446.25
534.826	18432.92
535.192	18278.57
535.557	18356.09
535.923	18380.94
536.288	18485.8
536.653	18445.8
537.019	18329.42
537.384	18296.88
537.749	18357.22
538.114	18398.12
538.479	18230.44
538.845	18293.94
539.21	18206.03
539.575	18284.45
539.94	18292.13
540.305	18309.53
540.67	18327.39
541.034	18227.5
541.399	18290.1
541.764	18296.88
542.129	18181.63
542.494	18282.64
542.858	18188.86
543.223	18093.95
543.587	18307.27
543.952	18079.26
544.316	18119.71
544.681	18083.1
545.045	18046.26
545.41	18086.49
545.774	18087.84
546.138	17952.71
546.503	17976.66
546.867	17879.49
547.231	18074.28
547.595	17930.33
547.959	18007.85
548.324	17886.72
548.688	17867.74
549.052	17763.78
549.416	17820.73
549.779	17813.73
550.143	17726.95
550.507	17775.31
550.871	17827.96
551.235	17701.41
551.599	17790.22
551.962	17713.39
552.326	17704.58
552.689	17811.69
553.053	17656.67
553.417	17607.18
553.78	17777.12
554.143	17587.52
554.507	17687.4
554.87	17715.42
555.234	17753.84
555.597	17693.5
555.96	17667.52
556.323	17652.15
556.686	17631.58
557.05	17634.97
557.413	17666.16
557.776	17731.02
558.139	17738.7
558.502	17727.85
558.865	17645.14
559.228	17703.45
559.59	17721.75
559.953	17797.46
560.316	17926.04
560.679	17692.6
561.041	17756.78
561.404	17877.45
561.767	17895.53
562.129	17799.94
562.492	17982.76
562.854	17874.74
563.217	17812.6
563.579	17900.05
563.941	17939.15
564.304	17947.28
564.666	18051.69
565.028	17962.65
565.39	18058.47
565.753	18126.26
566.115	18132.81
566.477	18181.17
566.839	18201.29
567.201	18266.37
567.563	18283.77
567.925	18309.76
568.287	18332.13
568.648	18376.42
569.01	18431.34
569.372	18424.33
569.734	18360.83
570.095	18446.48
570.457	18573.25
570.819	18507.72
571.18	18586.36
571.542	18586.36
571.903	18623.2
572.265	18722.4
572.626	18607.38
572.987	18671.33
573.349	18744.55
573.71	18720.14
574.071	18736.64
574.432	18742.06
574.794	18778.45
575.155	18790.88
575.516	18751.78
575.877	18792.01
576.238	18725.34
576.599	18836.75
576.96	18839.01
577.32	18822.29
577.681	18965.79
578.042	18950.87
578.403	18837.88
578.763	18979.12
579.124	18928.27
579.485	18937.54
579.845	19036.75
580.206	19000.81
580.566	18899.35
580.927	18968.5
581.287	19025.22
581.648	18844.21
582.008	18946.8
582.368	18871.33
582.728	18903.19
583.089	18950.19
583.449	18898.44
583.809	18924.88
584.169	18939.35
584.529	18951.1
584.889	18992.23
585.249	18871.78
585.609	18811.21
585.969	18944.54
586.329	18885.34
586.688	19013.69
587.048	18906.35
587.408	18802.63
587.768	18830.2
588.127	18750.65
588.487	18680.14
588.846	18832.23
589.206	18703.42
589.565	18700.26
589.925	18773.02
590.284	18770.54
590.643	18760.14
591.003	18838.78
591.362	18797.88
591.721	18739.13
592.08	18694.83
592.44	18738
592.799	18795.62
593.158	18710.43
593.517	18726.24
593.876	18841.04
594.235	18669.52
594.593	18726.92
594.952	18771.89
595.311	18621.16
595.67	18672.24
596.029	18753.36
596.387	18729.63
596.746	18861.38
597.104	18778.22
597.463	18672.46
597.822	18727.83
598.18	18603.76
598.538	18651.67
598.897	18756.98
599.255	18483.09
599.613	18832
599.972	18621.84
600.33	18777.77
600.688	18613.48
601.046	18714.49
601.404	18788.39
601.762	18676.98
602.12	18761.5
602.478	18792.23
602.836	18741.84
603.194	18761.27
603.552	18713.36
603.91	18622.97
604.268	18702.06
604.625	18685.12
604.983	18701.16
605.341	18733.02
605.698	18786.81
606.056	18763.08
606.413	18793.81
606.771	18817.54
607.128	18747.26
607.485	18696.19
607.843	18686.7
608.2	18745.45
608.557	18917.88
608.914	18745
609.272	18856.86
609.629	18903.42
609.986	18908.16
610.343	18917.43
610.7	18948.61
611.057	18854.15
611.414	18912.45
611.771	18908.16
612.127	19086.69
612.484	18904.77
612.841	19021.6
613.198	19030.87
613.554	19045.11
613.911	19050.08
614.267	19038.55
614.624	18949.74
614.98	18994.03
615.337	19140.47
615.693	19032.23
616.05	19082.62
616.406	19193.13
616.762	19161.26
617.118	19147.48
617.475	19136.86
617.831	19213.69
618.187	19180.7
618.543	19154.93
618.899	19312.9
619.255	19281.03
619.611	19252.78
619.967	19342.73
620.323	19329.84
620.678	19317.19
621.034	19326.91
621.39	19269.96
621.746	19254.82
622.101	19484.42
622.457	19350.18
622.812	19268.38
623.168	19422.27
623.523	19301.15
623.879	19399.9
624.234	19305.21
624.589	19348.15
624.945	19335.04
625.3	19311.99
625.655	19369.17
626.01	19425.89
626.365	19273.8
626.72	19325.1
627.075	19320.81
627.43	19298.43
627.785	19209.17
628.14	19314.93
628.495	19345.44
628.85	19258.89
629.205	19260.47
629.559	19315.83
629.914	19156.52
630.269	19283.07
630.623	19144.99
630.978	19157.42
631.332	19260.47
631.687	19217.31
632.041	19050.53
632.396	19166.23
632.75	19053.02
633.104	19067.7
633.459	19038.55
633.813	18914.94
634.167	18962.17
634.521	18915.17
634.875	19024.99
635.229	18918.33
635.583	18784.1
635.937	18884.66
636.291	18784.77
636.645	18905
636.999	18764.66
637.352	18775.96
637.706	18710.88
638.06	18792.91
638.413	18733.25
638.767	18624.78
639.121	18721.5
639.474	18630.65
639.828	18578.45
640.181	18636.3
640.534	18626.81
640.888	18602.18
641.241	18596.08
641.594	18475.4
641.947	18608.73
642.301	18589.53
642.654	18561.28
643.007	18550.66
643.36	18487.83
643.713	18418.46
644.066	18469.08
644.419	18422.52
644.771	18405.8
645.124	18170.78
645.477	18119.26
645.83	18101.18
646.182	17996.32
646.535	17925.81
646.888	17977.11
647.24	17802.2
647.593	18020.27
647.945	17867.96
648.298	17790.22
648.65	17735.54
649.002	17726.27
649.355	17820.28
649.707	17936.66
650.059	17966.49
650.411	18154.73
650.763	18170.78
651.115	18260.04
651.467	18233.83
651.819	18253.94
652.171	18228.63
652.523	18185.02
652.875	18146.15
653.227	18111.35
653.578	18146.15
653.93	18206.71
654.282	18095.08
654.633	18130.1
654.985	18191.57
655.337	18179.59
655.688	18173.49
656.039	18300.95
656.391	18044
656.742	18126.94
657.094	18115.64
657.445	18238.35
657.796	18224.56
658.147	18208.97
658.498	18206.71
658.849	18224.11
659.2	18192.25
659.551	18185.47
659.902	18163.1
660.253	18160.16
660.604	18216.88
660.955	18179.82
661.306	18229.76
661.656	18208.97
662.007	18307.05
662.358	18141.85
662.708	18219.59
663.059	18252.81
663.409	18084.23
663.76	18285.35
664.11	18218.01
664.461	18198.12
664.811	18217.56
665.161	18172.36
665.511	18171.91
665.862	18223.66
666.212	18238.35
666.562	18239.7
666.912	18131.68
667.262	18106.37
667.612	18198.12
667.962	18210.33
668.312	18229.99
668.662	18257.33
669.011	18182.76
669.361	18196.99
669.711	18189.31
670.06	18112.48
670.41	18164.45
670.76	18077
671.109	18176.2
671.459	18077.67
671.808	18101.4
672.157	18173.27
672.507	18086.94
672.856	18031.35
673.205	18018.69
673.554	18055.08
673.904	17941.86
674.253	18098.69
674.602	17998.13
674.951	17734.41
675.3	17626.84
675.649	17996.55
675.998	17948.41
676.346	17993.83
676.695	17948.19
677.044	17806.27
677.393	17834.52
677.741	17921.75
678.09	17832.48
678.438	17733.73
678.787	17841.52
679.135	17812.14
679.484	17596.11
679.832	17732.82
680.181	17639.27
680.529	17664.8
680.877	17509.33
681.225	17596.33
681.573	17697.35
681.922	17541.42
682.27	17497.58
682.618	17417.13
682.966	17387.3
683.314	17524.02
683.661	17327.86
684.009	17249.9
684.357	17315.43
684.705	17218.49
685.053	17301.65
685.4	17237.92
685.748	17153.18
686.095	17040.64
686.443	16928.33
686.79	17011.26
687.138	17025.05
687.485	17036.8
687.832	16966.74
688.18	16908.21
688.527	16896.69
688.874	16703.02
689.221	16675.9
689.568	16729.69
689.915	16751.61
690.262	16686.75
690.609	16591.39
690.956	16510.71
691.303	16468.23
691.65	16452.18
691.997	16457.38
692.344	16303.48
692.69	16336.25
693.037	16312.75
693.383	16166.76
693.73	16171.28
694.077	16077.5
694.423	16062.59
694.769	16046.09
695.116	15998.86
695.462	15839.54
695.808	15896.04
696.155	15847.9
696.501	15734.69
696.847	15781.46
697.193	15549.83
697.539	15639.77
697.885	15508.48
698.231	15555.03
698.577	15435.26
698.923	15374.02
699.269	15371.53
699.614	15225.55
699.96	15221.7
700.306	15253.79
700.651	15045.66
700.997	15100.58
701.342	14998.21
701.688	14985.33
702.033	14893.58
702.379	14915.95
702.724	14807.03
703.069	14834.37
703.415	14608.61
703.76	14661.49
704.105	14719.34
704.45	14565.9
704.795	14557.31
705.14	14473.48
705.485	14496.98
705.83	14341.28
706.175	14399.13
706.52	14346.25
706.865	14300.82
707.209	14281.39
707.554	14178.79
707.899	14291.56
708.243	14087.95
708.588	14117.33
708.932	14022.64
709.277	13885.69
709.621	14025.13
709.966	13894.96
710.31	13914.62
710.654	13742.2
710.998	13881.4
711.342	13814.96
711.687	13747.39
712.031	13669.2
712.375	13658.81
712.719	13673.5
713.063	13606.38
713.407	13674.4
713.75	13532.71
714.094	13530
714.438	13576.1
714.782	13578.36
715.125	13439.6
715.469	13464.46
715.812	13473.73
716.156	13375.65
716.499	13282.09
716.843	13373.17
717.186	13209.78
717.53	13277.35
717.873	13320.51
718.216	13222.43
718.559	13142.44
718.902	13026.51
719.246	13235.77
719.589	13083.46
719.932	13136.79
720.275	13107.86
720.617	13077.35
720.96	12993.06
721.303	13132.72
721.646	13047.98
721.989	13008.88
722.331	12997.81
722.674	13001.88
723.016	12980.18
723.359	12963.68
723.701	13007.98
724.044	12953.74
724.386	12853.86
724.729	12978.83
725.071	12920.75
725.413	12849.79
725.755	12885.72
726.097	12824.93
726.439	12749
726.782	12792.39
727.124	12790.58
727.465	12748.77
727.807	12747.42
728.149	12737.7
728.491	12776.8
728.833	12740.64
729.175	12676.91
729.516	12652.51
729.858	12689.34
730.199	12657.48
730.541	12672.17
730.882	12599.85
731.224	12688.89
731.565	12636.91
731.906	12595.11
732.248	12666.74
732.589	12622.22
732.93	12616.8
733.271	12603.69
733.612	12572.51
733.953	12620.87
734.294	12543.36
734.635	12619.96
734.976	12556.46
735.317	12498.61
735.658	12606.86
735.999	12535
736.339	12598.27
736.68	12620.19
737.021	12538.16
737.361	12515.33
737.702	12636.24
738.042	12585.84
738.383	12569.8
738.723	12639.17
739.063	12551.72
739.404	12627.87
739.744	12589.23
740.084	12502.23
740.424	12579.29
740.764	12570.93
741.104	12688.21
741.444	12605.95
741.784	12609.8
742.124	12648.44
742.464	12671.71
742.804	12688.21
743.143	12711.71
743.483	12703.35
743.823	12651.38
744.162	12679.4
744.502	12855.44
744.841	12701.54
745.181	12877.36
745.52	12866.51
745.86	12922.1
746.199	12882.78
746.538	13027.86
746.877	13134.08
747.216	13091.59
747.556	13131.82
747.895	13223.56
748.234	13250.68
748.573	13275.09
748.911	13355.31
749.25	13408.64
749.589	13443.9
749.928	13534.52
750.267	13643.89
750.605	13721.86
750.944	13725.47
751.283	13775.87
751.621	13910.1
751.96	13997.78
752.298	14105.58
752.636	14175.63
752.975	14353.03
753.313	14395.29
753.651	14543.98
753.989	14623.08
754.327	14803.86
754.666	14819.23
755.004	15023.07
755.342	15150.52
755.679	15272.55
756.017	15342.15
756.355	15596.38
756.693	15723.39
757.031	15811.07
757.368	15860.33
757.706	16099.87
758.044	16213.99
758.381	16508.45
758.719	16580.09
759.056	16720.87
759.394	16870.93
759.731	16974.43
760.068	17133.97
760.405	17378.26
760.743	17454.64
761.08	17711.81
761.417	17847.17
761.754	17952.25
762.091	18195.41
762.428	18274.05
762.765	18383.88
763.102	18695.29
763.438	18778.45
763.775	19010.08
764.112	19055.28
764.449	19312.44
764.785	19351.54
765.122	19469.05
765.458	19610.29
765.795	19760.57
766.131	19908.59
766.467	20086.21
766.804	20238.75
767.14	20292.31
767.476	20443.94
767.812	20559.87
768.148	20742.46
768.485	20860.88
768.821	20928.67
769.157	21047.31
769.492	21200.53
769.828	21325.95
770.164	21204.6
770.5	21344.71
770.836	21487.98
771.171	21486.85
771.507	21526.62
771.842	21640.97
772.178	21852.94
772.513	21861.98
772.849	21891.59
773.184	21917.8
773.519	22096.1
773.855	22150.11
774.19	21991.92
774.525	22194.4
774.86	22155.76
775.195	22285.02
775.53	22239.6
775.865	22418.35
776.2	22237.34
776.535	22342.87
776.87	22446.83
777.205	22402.76
777.539	22344.91
777.874	22434.85
778.209	22408.86
778.543	22427.39
778.878	22402.08
779.212	22440.5
779.547	22380.61
779.881	22555.52
780.215	22459.03
780.55	22582.87
780.884	22407.28
781.218	22362.53
781.552	22481.4
781.886	22443.21
782.22	22328.41
782.554	22355.53
782.888	22422.64
783.222	22273.04
783.556	22198.7
783.889	22214.06
784.223	22013.62
784.557	22076.89
784.89	22168.87
785.224	22026.95
785.557	21970.45
785.891	21998.02
786.224	21927.97
786.558	21969.78
786.891	21785.6
787.224	21744.47
787.557	21760.52
787.891	21771.14
788.224	21744.7
788.557	21811.36
788.89	21730.01
789.223	21627.41
789.556	21593.51
789.888	21581.76
790.221	21435.33
790.554	21410.02
790.887	21371.37
791.219	21383.8
791.552	21290.47
791.884	21203.02
792.217	21167.54
792.549	21116.69
792.882	21025.39
793.214	21023.81
793.546	21021.1
793.879	21016.81
794.211	20792.86
794.543	20969.12
794.875	20939.75
795.207	20955.56
795.539	20778.17
795.871	20839.18
796.203	20611.17
796.535	20539.98
796.867	20693.88
797.198	20513.54
797.53	20398.29
797.862	20397.84
798.193	20517.38
798.525	20334.56
798.856	20373.21
799.188	20119.2
799.519	20149.03
799.85	20022.48
800.182	20062.03
800.513	20075.14
800.844	19894.58
801.175	19954.91
801.506	19881.69
801.837	19905.65
802.168	19795.14
802.499	19742.94
802.83	19652.77
803.161	19651.87
803.491	19573
803.822	19595.15
804.153	19393.8
804.483	19356.96
804.814	19274.48
805.145	19298.66
805.475	19254.14
805.805	19180.7
806.136	19162.39
806.466	19224.08
806.796	19184.99
807.126	19032.9
807.457	19031.77
807.787	18963.53
808.117	18896.86
808.447	18810.08
808.777	18762.63
809.107	18728.05
809.436	18736.19
809.766	18660.48
810.096	18686.47
810.426	18443.99
810.755	18633.82
811.085	18577.55
811.414	18479.7
811.744	18365.8
812.073	18357.89
812.403	18340.27
812.732	18271.57
813.061	18345.69
813.39	18167.16
813.719	18182.98
814.049	18299.59
814.378	18062.76
814.707	18117.45
815.036	18045.36
815.365	17949.54
815.693	17891.92
816.022	17838.58
816.351	17823.22
816.68	17740.51
817.008	17849.21
817.337	17706.38
817.665	17639.27
817.994	17656.67
818.322	17677.46
818.651	17531.47
818.979	17501.19
819.307	17672.94
819.636	17532.15
819.964	17416
820.292	17564.47
820.62	17494.41
820.948	17395.88
821.276	17452.83
821.604	17310.01
821.932	17370.12
822.259	17406.96
822.587	17418.71
822.915	17376.9
823.243	17387.52
823.57	17375.32
823.898	17317.69
824.225	17277.24
824.553	17241.54
824.88	17274.76
825.207	17345.72
825.535	17315.43
825.862	17365.38
826.189	17308.2
826.516	17309.56
826.843	17413.74
827.17	17393.85
827.497	17423.45
827.824	17344.59
828.151	17392.49
828.478	17401.76
828.805	17446.96
829.131	17373.29
829.458	17415.54
829.785	17267.3
830.111	17370.57
830.438	17350.69
830.764	17411.25
831.09	17408.54
831.417	17301.42
831.743	17371.03
832.069	17327.64
832.395	17175.1
832.722	17274.08
833.048	17305.72
833.374	17328.09
833.7	17131.48
834.026	17221.43
834.351	17242.89
834.677	17175.78
835.003	17209.67
835.329	17192.05
835.654	17099.85
835.98	16997.93
836.306	17208.54
836.631	17114.08
836.956	17120.86
837.282	17079.96
837.607	16997.02
837.932	17019.17
838.258	16877.03
838.583	16947.99
838.908	16798.39
839.233	16914.99
839.558	16799.97
839.883	16776.01
840.208	16692.85
840.533	16735.34
840.858	16693.76
841.182	16726.75
841.507	16755.22
841.832	16596.81
842.156	16592.29
842.481	16538.73
842.805	16440.43
843.13	16528.34
843.454	16424.84
843.778	16375.12
844.103	16353.2
844.427	16325.4
844.751	16237.95
845.075	16278.17
845.399	16155.24
845.723	16045.64
846.047	16221.9
846.371	16081.57
846.695	16063.72
847.019	15853.55
847.343	15870.27
847.666	15681.58
847.99	15713.22
848.313	15682.48
848.637	15552.77
848.96	15588.7
849.284	15511.87
849.607	15408.59
849.931	15367.92
850.254	15265.09
850.577	15207.47
850.9	15045.44
851.223	15057.64
851.546	15025.33
851.869	14887.7
852.192	14986.91
852.515	14903.07
852.838	14769.74
853.161	14832.11
853.483	14726.12
853.806	14607.26
854.129	14578.33
854.451	14548.73
854.774	14467.83
855.096	14446.13
855.419	14426.7
855.741	14337.89
856.063	14315.06
856.385	14279.81
856.708	14214.95
857.03	14146.93
857.352	14155.74
857.674	14111
857.996	14060.6
858.318	14012.02
858.64	13987.61
858.961	13904.45
859.283	13837.33
859.605	13818.8
859.926	13832.59
860.248	13727.05
860.57	13760.95
860.891	13720.73
861.212	13639.82
861.534	13682.31
861.855	13558.47
862.176	13619.94
862.498	13585.36
862.819	13580.62
863.14	13445.25
863.461	13511.69
863.782	13506.27
864.103	13499.94
864.424	13378.14
864.745	13516.21
865.065	13344.01
865.386	13305.6
865.707	13231.02
866.027	13280.06
866.348	13251.13
866.668	13288.2
866.989	13191.7
867.309	13146.96
867.63	13222.43
867.95	13174.75
868.27	13120.29
868.59	13167.75
868.91	13091.82
869.23	12971.59
869.55	13036.45
869.87	13156.45
870.19	12953.74
870.51	13005.04
870.83	12952.39
871.15	12918.26
871.469	12958.26
871.789	12949.9
872.109	12920.07
872.428	12794.65
872.748	12860.86
873.067	12845.72
873.386	12800.07
873.706	12855.66
874.025	12720.98
874.344	12625.16
874.663	12706.97
874.982	12570.02
875.301	12711.26
875.62	12658.38
875.939	12635.56
876.258	12608.21
876.577	12500.42
876.896	12586.97
877.214	12517.59
877.533	12466.07
877.852	12437.6
878.17	12439.4
878.489	12484.6
878.807	12438.95
879.125	12475.34
879.444	12402.12
879.762	12346.53
880.08	12419.52
880.398	12274.66
880.716	12295.23
881.034	12241.22
881.352	12277.83
881.67	12213.65
881.988	12257.94
882.306	12146.53
882.624	12113.99
882.941	12073.54
883.259	12117.83
883.577	12077.83
883.894	12043.48
884.212	12048.45
884.529	11987.67
884.846	11949.47
885.164	11948.34
885.481	11895.46
885.798	11927.1
886.115	11804.39
886.432	11894.33
886.75	11718.97
887.067	11801.68
887.383	11735.92
887.7	11841.91
888.017	11692.31
888.334	11735.47
888.651	11705.86
888.967	11597.62
889.284	11542.25
889.6	11527.79
889.917	11372.09
890.233	11482.14
890.55	11451.18
890.866	11457.28
891.182	11364.63
891.498	11299.55
891.815	11231.53
892.131	11183.39
892.447	11198.99
892.763	11144.98
893.079	11070.85
893.395	11054.13
893.71	11083.96
894.026	11066.11
894.342	11001.25
894.657	10932.78
894.973	10884.87
895.289	10862.72
895.604	10851.88
895.92	10739.56
896.235	10681.71
896.55	10746.12
896.865	10667.93
897.181	10638.1
897.496	10678.55
897.811	10661.82
898.126	10548.15
898.441	10523.07
898.756	10499.57
899.071	10490.3
899.386	10435.39
899.7	10442.17
900.015	10378.67
900.33	10318.78
900.644	10216.86
900.959	10285.79
901.273	10236.75
901.588	10192.68
901.902	10130.99
902.216	10093.25
902.531	10068.62
902.845	10026.36
903.159	9921.5
903.473	9915.86
903.787	9854.61
904.101	9861.85
904.415	9709.08
904.729	9752.02
905.042	9739.14
905.356	9682.19
905.67	9612.59
905.984	9703.43
906.297	9603.55
906.611	9582.76
906.924	9493.72
907.237	9494.17
907.551	9526.94
907.864	9397.68
908.177	9408.98
908.491	9416.21
908.804	9317.23
909.117	9245.82
909.43	9209.66
909.743	9231.81
910.056	9153.39
910.368	9050.79
910.681	9077.46
910.994	9030.91
911.307	9002.66
911.619	8954.52
911.932	8961.98
912.244	8831.82
912.557	8863
912.869	8780.07
913.181	8771.03
913.494	8688.32
913.806	8632.72
914.118	8668.43
914.43	8646.51
914.742	8665.04
915.054	8570.58
915.366	8529.22
915.678	8468.66
915.99	8438.38
916.302	8382.79
916.613	8366.97
916.925	8355.9
917.236	8332.39
917.548	8256.46
917.859	8305.05
918.171	8194.09
918.482	8177.14
918.794	8152.96
919.105	8067.77
919.416	8070.25
919.727	8005.62
920.038	7997.49
920.349	7925.62
920.66	7852.18
920.971	7952.52
921.282	7861.9
921.593	7905.74
921.903	7787.32
922.214	7814.89
922.525	7736.7
922.835	7731.28
923.146	7669.59
923.456	7656.93
923.767	7617.38
924.077	7622.81
924.387	7575.35
924.697	7490.38
925.008	7540.78
925.318	7430.27
925.628	7479.53
925.938	7408.58
926.248	7347.11
926.558	7285.42
926.867	7287.45
927.177	7304.4
927.487	7253.55
927.796	7134.23
928.106	7207.23
928.416	7174.01
928.725	7104.4
929.034	7041.35
929.344	7067.57
929.653	7068.47
929.962	7008.13
930.271	6941.24
930.581	6925.65
930.89	6893.34
931.199	6857.63
931.508	6864.64
931.817	6844.98
932.125	6821.7
932.434	6784.64
932.743	6733.34
933.051	6674.81
933.36	6666.45
933.669	6665.32
933.977	6612.67
934.286	6596.85
934.594	6576.28
934.902	6554.14
935.21	6527.47
935.519	6529.73
935.827	6455.16
936.135	6401.6
936.443	6358.21
936.751	6362.28
937.059	6388.49
937.367	6259.45
937.674	6283.41
937.982	6255.39
938.29	6225.1
938.597	6213.81
938.905	6196.4
939.213	6185.33
939.52	6065.11
939.827	6106.24
940.135	6069.4
940.442	6055.39
940.749	6069.85
941.056	6052.91
941.363	5950.76
941.67	5927.94
941.977	5900.37
942.284	5882.97
942.591	5865.79
942.898	5855.17
943.205	5836.64
943.511	5790.99
943.818	5791.67
944.125	5719.58
944.431	5678.45
944.738	5727.26
945.044	5696.31
945.35	5614.95
945.657	5565.46
945.963	5601.39
946.269	5602.3
946.575	5568.17
946.881	5510.32
947.187	5469.64
947.493	5425.8
947.799	5469.19
948.105	5436.65
948.41	5370.44
948.716	5407.73
949.022	5374.96
949.327	5349.42
949.633	5271.01
949.938	5320.04
950.244	5270.78
950.549	5192.59
950.854	5228.52
951.16	5179.71
951.465	5123.89
951.77	5176.77
952.075	5112.14
952.38	5104.68
952.685	5083.89
952.99	5026.04
953.294	5017
953.599	5018.58
953.904	5035.31
954.209	4994.85
954.513	4971.35
954.818	4945.14
955.122	4941.75
955.426	4889.55
955.731	4828.31
956.035	4781.3
956.339	4836.89
956.643	4806.61
956.948	4777.91
957.252	4749.66
957.556	4737.46
957.86	4701.3
958.163	4668.99
958.467	4705.37
958.771	4666.05
959.075	4649.33
959.378	4626.73
959.682	4624.47
959.985	4637.35
960.289	4553.96
960.592	4526.39
960.896	4565.49
961.199	4528.2
961.502	4501.99
961.805	4478.94
962.108	4439.39
962.411	4423.34
962.714	4383.35
963.017	4452.72
963.32	4382.89
963.623	4358.71
963.926	4342.67
964.228	4308.32
964.531	4272.39
964.833	4256.12
965.136	4257.25
965.438	4207.98
965.741	4215.44
966.043	4191.26
966.345	4219.73
966.648	4166.63
966.95	4125.27
967.252	4116.23
967.554	4118.49
967.856	4084.6
968.158	4032.62
968.46	4037.82
968.761	4022.9
969.063	4008.21
969.365	3954.66
969.666	3971.38
969.968	3931.15
970.269	3945.62
970.571	3904.49
970.872	3921.44
971.174	3880.76
971.475	3880.53
971.776	3880.76
972.077	3827.2
972.378	3812.51
972.679	3814.32
972.98	3822
973.281	3793.08
973.582	3804.83
973.883	3733.42
974.183	3732.74
974.484	3730.26
974.785	3697.26
975.085	3654.1
975.386	3689.8
975.686	3657.94
975.986	3610.48
976.287	3654.32
976.587	3581.33
976.887	3557.15
977.187	3542.24
977.487	3558.73
977.787	3528.9
978.087	3499.3
978.387	3512.41
978.687	3468.79
978.987	3465.63
979.286	3433.31
979.586	3446.19
979.885	3436.48
980.185	3395.8
980.484	3380.43
980.784	3389.25
981.083	3377.72
981.382	3395.35
981.682	3291.85
981.981	3332.3
982.28	3265.18
982.579	3226.54
982.878	3298.4
983.177	3242.81
983.475	3257.05
983.774	3213.21
984.073	3186.09
984.372	3221.12
984.67	3194.22
984.969	3169.14
985.267	3162.13
985.566	3125.75
985.864	3130.95
986.162	3106.54
986.461	3106.32
986.759	3102.47
987.057	3036.26
987.355	3053.89
987.653	3031.52
987.951	3037.39
988.249	3018.18
988.547	3009.14
988.844	2963.27
989.142	2994.68
989.44	2949.26
989.737	2948.13
990.035	2907
990.332	2937.73
990.63	2879.88
990.927	2877.17
991.224	2837.17
991.521	2852.76
991.819	2851.41
992.116	2816.15
992.413	2806.66
992.71	2800.56
993.006	2782.03
993.303	2796.04
993.6	2750.17
993.897	2763.95
994.193	2755.37
994.49	2714.91
994.787	2738.19
995.083	2671.07
995.379	2641.47
995.676	2685.31
995.972	2632.2
996.268	2636.72
996.565	2641.92
996.861	2604.63
997.157	2606.67
997.453	2570.96
997.749	2591.08
998.044	2581.36
998.34	2536.16
998.636	2535.03
998.932	2553.34
999.227	2494.81
999.523	2514.69
999.818	2467.69
1000.114	2438.31
1000.409	2471.98
1000.704	2460.68
1001	2456.16
1001.295	2435.37
1001.59	2396.28
1001.885	2425.2
1002.18	2382.95
1002.475	2386.56
1002.77	2362.38
1003.065	2361.25
1003.359	2334.59
1003.654	2285.1
1003.949	2306.56
1004.243	2307.92
1004.538	2279.45
1004.832	2296.17
1005.127	2261.82
1005.421	2225.21
1005.715	2228.15
1006.009	2191.76
1006.304	2183.86
1006.598	2184.98
1006.892	2167.13
1007.186	2144.08
1007.48	2157.64
1007.773	2112.67
1008.067	2123.74
1008.361	2074.93
1008.655	2117.64
1008.948	2075.84
1009.242	2067.02
1009.535	2072.45
1009.829	2050.75
1010.122	2028.6
1010.415	2023.63
1010.708	1996.97
1011.001	2009.85
1011.295	1994.71
1011.588	1995.16
1011.881	1963.97
1012.173	1952
1012.466	1941.38
1012.759	1901.38
1013.052	1901.38
1013.344	1942.51
1013.637	1916.52
1013.93	1879.68
1014.222	1894.15
1014.514	1855.95
1014.807	1869.96
1015.099	1850.53
1015.391	1847.37
1015.683	1813.7
1015.976	1838.78
1016.268	1773.92
1016.56	1774.6
1016.851	1766.92
1017.143	1774.15
1017.435	1798.33
1017.727	1736.18
1018.018	1738.44
1018.31	1726.47
1018.602	1708.39
1018.893	1715.39
1019.185	1706.58
1019.476	1668.39
1019.767	1678.11
1020.058	1634.72
1020.35	1649.41
1020.641	1613.25
1020.932	1609.18
1021.223	1622.97
1021.514	1595.4
1021.804	1593.81
1022.095	1604.44
1022.386	1581.61
1022.677	1570.54
1022.967	1566.02
1023.258	1525.12
1023.548	1533.02
1023.839	1520.82
1024.129	1530.09
1024.419	1466.36
1024.709	1503.42
1025	1465.68
1025.29	1439.24
1025.58	1443.31
1025.87	1442.18
1026.16	1414.61
1026.449	1441.5
1026.739	1411.22
1027.029	1391.56
1027.319	1390.66
1027.608	1395.18
1027.898	1423.65
1028.187	1360.15
1028.477	1377.77
1028.766	1358.57
1029.055	1332.8
1029.344	1324.44
1029.634	1314.5
1029.923	1349.3
1030.212	1304.1
1030.501	1298.23
1030.79	1290.32
1031.078	1290.77
1031.367	1297.55
1031.656	1235.41
1031.945	1262.07
1032.233	1244.44
1032.522	1207.16
1032.81	1218.23
1033.099	1242.41
1033.387	1206.48
1033.675	1226.14
1033.963	1194.05
1034.251	1182.53
1034.54	1175.97
1034.828	1163.77
1035.116	1167.61
1035.403	1166.48
1035.691	1148.18
1035.979	1150.21
1036.267	1139.81
1036.554	1134.17
1036.842	1116.99
1037.129	1114.5
1037.417	1113.6
1037.704	1087.84
1037.992	1099.14
1038.279	1061.62
1038.566	1063.88
1038.853	1063.88
1039.14	1063.88
