Data from hue_330_FLMS001491_65.txt Node
Date: Mon Feb 06 15:45:44 GMT 2017
User: dcchb
Spectrometer: FLMS00149
Trigger mode: 0
Integration Time (sec): 2.000000E-2
Scans to average: 10
Electric dark correction enabled: true
Nonlinearity correction enabled: false
Boxcar width: 0
XAxis mode: Wavelengths
Number of Pixels in Spectrum: 2048
>>>>>Begin Spectral Data<<<<<
341.393	2.85
341.776	2.85
342.16	2.85
342.543	-47.09
342.927	-63.59
343.31	-60.2
343.693	-56.58
344.077	-52.29
344.46	-51.38
344.843	-57.94
345.226	-40.08
345.61	-37.6
345.993	-41.44
346.376	3.53
346.759	0.37
347.142	35.62
347.525	32.23
347.908	50.31
348.291	65.22
348.674	79.01
349.057	131.21
349.44	126.01
349.823	148.84
350.206	168.72
350.588	164.43
350.971	185.9
351.354	234.49
351.737	226.12
352.119	251.21
352.502	274.71
352.884	270.87
353.267	290.98
353.65	271.09
354.032	300.7
354.414	310.19
354.797	306.57
355.179	333.47
355.562	315.61
355.944	308.83
356.326	346.35
356.709	335.5
357.091	342.28
357.473	339.79
357.855	328.27
358.238	337.31
358.62	352.9
359.002	354.26
359.384	335.27
359.766	338.66
360.148	343.64
360.53	344.54
360.912	328.04
361.294	336.63
361.676	324.88
362.057	337.08
362.439	326.23
362.821	321.04
363.203	318.32
363.584	315.16
363.966	329.4
364.348	328.49
364.729	330.53
365.111	339.34
365.493	331.66
365.874	319.68
366.256	327.59
366.637	314.94
367.019	312.22
367.4	307.48
367.781	315.16
368.163	300.25
368.544	317.42
368.925	320.58
369.306	322.84
369.688	315.16
370.069	313.35
370.45	291.88
370.831	314.03
371.212	297.99
371.593	313.35
371.974	316.97
372.355	321.49
372.736	319.23
373.117	303.64
373.498	306.8
373.879	319.45
374.26	308.61
374.641	307.7
375.021	328.04
375.402	330.98
375.783	326.01
376.163	341.83
376.544	310.19
376.925	343.86
377.305	307.7
377.686	348.83
378.066	325.33
378.447	324.43
378.827	335.95
379.208	316.97
379.588	332.11
379.968	344.99
380.349	329.62
380.729	333.47
381.109	346.12
381.489	357.19
381.87	349.06
382.25	339.12
382.63	323.07
383.01	362.39
383.39	338.89
383.77	352.67
384.15	340.02
384.53	346.8
384.91	349.28
385.29	348.61
385.67	349.06
386.049	357.19
386.429	350.64
386.809	366.46
387.189	349.06
387.568	351.77
387.948	348.83
388.328	375.5
388.707	361.94
389.087	355.16
389.466	351.32
389.846	350.19
390.225	367.59
390.605	360.36
390.984	367.14
391.363	371.66
391.743	361.26
392.122	383.86
392.501	372.56
392.881	387.93
393.26	388.83
393.639	392.22
394.018	368.27
394.397	364.88
394.776	369.85
395.155	376.18
395.534	398.1
395.913	390.19
396.292	389.06
396.671	394.71
397.05	374.82
397.429	376.4
397.808	378.44
398.186	394.48
398.565	380.7
398.944	390.41
399.323	396.51
399.701	389.96
400.08	415.72
400.458	401.26
400.837	388.61
401.215	381.37
401.594	416.63
401.972	402.39
402.351	425.44
402.729	397.19
403.107	416.85
403.486	395.16
403.864	406.46
404.242	412.56
404.62	418.66
404.999	410.98
405.377	423.86
405.755	427.47
406.133	422.5
406.511	424.08
406.889	419.11
407.267	444.42
407.645	445.33
408.023	434.03
408.401	422.95
408.779	444.88
409.156	439.23
409.534	457.76
409.912	443.29
410.29	464.31
410.667	452.56
411.045	449.62
411.422	456.4
411.8	491.2
412.178	476.06
412.555	498.66
412.933	497.08
413.31	489.85
413.687	478.09
414.065	506.34
414.442	512.22
414.819	504.99
415.197	522.61
415.574	532.56
415.951	533.23
416.328	541.82
416.705	544.76
417.082	540.92
417.46	543.86
417.837	558.09
418.214	561.93
418.591	566.91
418.967	578.66
419.344	578.88
419.721	558.32
420.098	583.18
420.475	598.54
420.852	586.79
421.228	600.58
421.605	622.5
421.982	615.72
422.358	620.69
422.735	662.27
423.111	634.25
423.488	621.37
423.864	632.22
424.241	653.68
424.617	643.74
424.994	684.19
425.37	662.5
425.746	660.01
426.123	666.34
426.499	683.06
426.875	671.99
427.251	676.73
427.627	725.55
428.003	721.7
428.379	715.38
428.756	731.87
429.132	723.51
429.507	722.38
429.883	737.07
430.259	775.49
430.635	787.92
431.011	752.89
431.387	771.87
431.763	777.52
432.138	778.88
432.514	801.25
432.89	820.01
433.265	810.74
433.641	830.4
434.016	820.68
434.392	862.04
434.767	845.32
435.143	845.32
435.518	864.98
435.894	875.37
436.269	884.41
436.644	903.62
437.02	880.34
437.395	883.06
437.77	904.07
438.145	905.88
438.52	892.55
438.895	939.1
439.271	953.56
439.646	940.91
440.021	936.84
440.395	951.53
440.77	963.51
441.145	967.12
441.52	965.54
441.895	976.39
442.27	1003.5
442.645	986.78
443.019	1005.54
443.394	984.07
443.769	989.04
444.143	984.52
444.518	986.78
444.892	997.18
445.267	1016.39
445.641	1025.88
446.016	1015.03
446.39	1026.1
446.764	1047.12
447.139	1045.09
447.513	1019.78
447.887	1028.59
448.262	1065.2
448.636	1064.07
449.01	1041.7
449.384	1060.68
449.758	1062.49
450.132	1066.33
450.506	1082.15
450.88	1096.84
451.254	1066.78
451.628	1104.07
452.002	1111.3
452.376	1098.42
452.75	1093.67
453.123	1122.15
453.497	1103.84
453.871	1155.82
454.244	1157.17
454.618	1156.27
454.992	1141.58
455.365	1151.3
455.739	1165.53
456.112	1156.95
456.486	1182.48
456.859	1200.34
457.232	1206.21
457.606	1231.52
457.979	1203.27
458.352	1226.78
458.725	1245.76
459.099	1241.92
459.472	1261.8
459.845	1298.64
460.218	1274.46
460.591	1270.84
460.964	1287.57
461.337	1319.2
461.71	1323.72
462.083	1309.94
462.456	1329.37
462.829	1335.02
463.201	1346.55
463.574	1345.42
463.947	1382.25
464.32	1395.58
464.692	1396.94
465.065	1395.58
465.438	1444.4
465.81	1432.42
466.183	1445.53
466.555	1467.22
466.928	1467.67
467.3	1464.96
467.672	1472.64
468.045	1475.58
468.417	1498.63
468.789	1520.33
469.161	1543.15
469.534	1542.02
469.906	1567.33
470.278	1592.42
470.65	1589.7
471.022	1619.31
471.394	1667.67
471.766	1650.72
472.138	1662.92
472.51	1655.24
472.882	1722.81
473.253	1715.35
473.625	1738.63
473.997	1776.82
474.369	1756.03
474.74	1772.75
475.112	1825.4
475.484	1868.34
475.855	1837.16
476.227	1847.78
476.598	1900.66
476.97	1938.62
477.341	1979.3
477.713	1962.8
478.084	1977.72
478.455	2081.22
478.827	2033.08
479.198	2051.39
479.569	2085.06
479.94	2147.66
480.311	2151.95
480.682	2201.67
481.053	2243.7
481.424	2257.48
481.795	2262.68
482.166	2287.09
482.537	2343.81
482.908	2333.64
483.279	2334.54
483.65	2365.73
484.021	2426.74
484.391	2486.86
484.762	2459.29
485.133	2488.66
485.503	2492.51
485.874	2564.14
486.244	2547.42
486.615	2621.09
486.985	2634.65
487.356	2661.54
487.726	2663.12
488.097	2758.94
488.467	2727.3
488.837	2782.67
489.207	2790.12
489.578	2852.04
489.948	2869.44
490.318	2862.21
490.688	2868.99
491.058	2939.95
491.428	2947.18
491.798	2981.76
492.168	3036.67
492.538	3074.18
492.908	3101.75
493.278	3079.61
493.648	3110.57
494.017	3159.15
494.387	3175.42
494.757	3163.9
495.126	3190.79
495.496	3221.75
495.866	3244.12
496.235	3246.38
496.605	3293.16
496.974	3296.33
497.344	3358.92
497.713	3366.15
498.082	3343.1
498.452	3403.89
498.821	3421.97
499.19	3377
499.559	3442.54
499.928	3446.83
500.298	3487.73
500.667	3497.22
501.036	3453.16
501.405	3497.22
501.774	3512.82
502.143	3572.7
502.512	3565.02
502.88	3595.3
503.249	3567.28
503.618	3628.52
503.987	3607.28
504.356	3633.27
504.724	3615.64
505.093	3685.02
505.462	3645.47
505.83	3704.45
506.199	3680.95
506.567	3711.68
506.936	3718.46
507.304	3781.06
507.672	3766.82
508.041	3783.32
508.409	3737.67
508.777	3810.89
509.145	3831.23
509.514	3800.95
509.882	3804.79
510.25	3791.68
510.618	3841.17
510.986	3864.9
511.354	3878.23
511.722	3947.16
512.09	3934.95
512.458	3914.84
512.826	3976.99
513.193	3948.29
513.561	3932.47
513.929	3972.92
514.297	3952.81
514.664	4023.09
515.032	3998.91
515.4	4048.4
515.767	3972.69
516.135	4009.08
516.502	4016.53
516.869	4038.45
517.237	4017.89
517.604	4035.52
517.972	4094.95
518.339	4103.54
518.706	4099.69
519.073	4134.04
519.44	4140.6
519.808	4132.01
520.175	4136.76
520.542	4203.19
520.909	4201.84
521.276	4192.57
521.643	4250.2
522.009	4269.18
522.376	4241.16
522.743	4254.94
523.11	4254.04
523.477	4338.11
523.843	4342.63
524.21	4376.52
524.577	4395.96
524.943	4372.46
525.31	4401.38
525.676	4435.96
526.043	4426.47
526.409	4475.05
526.776	4524.99
527.142	4483.64
527.508	4523.64
527.874	4574.94
528.241	4609.51
528.607	4575.39
528.973	4607.03
529.339	4601.15
529.705	4626.69
530.071	4704.88
530.437	4670.75
530.803	4750.3
531.169	4735.38
531.535	4778.77
531.901	4722.5
532.267	4750.52
532.632	4838.21
532.998	4811.09
533.364	4844.08
533.73	4842.5
534.095	4884.98
534.461	4892.89
534.826	4916.85
535.192	4943.74
535.557	4952.33
535.923	4972.21
536.288	4969.5
536.653	4976.73
537.019	5020.8
537.384	5068.48
537.749	5066.22
538.114	5073.91
538.479	5105.32
538.845	5091.53
539.21	5093.79
539.575	5136.5
539.94	5112.32
540.305	5230.74
540.67	5206.33
541.034	5186.67
541.399	5283.84
541.764	5281.81
542.129	5263.73
542.494	5289.27
542.858	5355.93
543.223	5328.14
543.587	5369.04
543.952	5349.61
544.316	5379.21
544.681	5481.81
545.045	5446.78
545.41	5519.77
545.774	5481.35
546.138	5536.27
546.503	5545.76
546.867	5548.7
547.231	5602.48
547.595	5588.02
547.959	5649.03
548.324	5668.47
548.688	5662.82
549.052	5648.81
549.416	5715.7
549.779	5711.86
550.143	5713.44
550.507	5764.74
550.871	5777.39
551.235	5717.51
551.599	5824.62
551.962	5865.98
552.326	5823.94
552.689	5875.69
553.053	5879.08
553.417	5874.56
553.78	5978.52
554.143	5919.31
554.507	5911.85
554.87	5992.98
555.234	5966.09
555.597	5964.73
555.96	6007.89
556.323	6020.55
556.686	6000.44
557.05	6055.12
557.413	6080.43
557.776	6092.18
558.139	6146.65
558.502	6187.1
558.865	6170.6
559.228	6151.17
559.59	6208.79
559.953	6235.23
560.316	6301.44
560.679	6292.63
561.041	6286.3
561.404	6289.02
561.767	6266.64
562.129	6281.78
562.492	6319.98
562.854	6320.2
563.217	6373.31
563.579	6441.78
563.941	6428.22
564.304	6433.87
564.666	6502.34
565.028	6525.17
565.39	6549.57
565.753	6547.54
566.115	6570.36
566.477	6596.35
566.839	6630.93
567.201	6654.2
567.563	6683.58
567.925	6632.96
568.287	6696.01
568.648	6766.97
569.01	6711.15
569.372	6825.72
569.734	6823.92
570.095	6887.87
570.457	6898.49
570.819	6876.8
571.18	6928.32
571.542	6954.53
571.903	7015.32
572.265	7034.31
572.626	7046.96
572.987	7103.68
573.349	7100.29
573.71	7189.33
574.071	7140.52
574.432	7263.68
574.794	7338.71
575.155	7320.63
575.516	7400.4
575.877	7428.65
576.238	7514.97
576.599	7507.74
576.96	7647.17
577.32	7716.77
577.681	7779.15
578.042	7855.08
578.403	7927.84
578.763	7948.18
579.124	8098.01
579.485	8205.8
579.845	8283.31
580.206	8381.39
580.566	8478.11
580.927	8560.37
581.287	8688.5
581.648	8820.93
582.008	8997.87
582.368	9107.25
582.728	9178.66
583.089	9363.51
583.449	9496.84
583.809	9656.16
584.169	9845.08
584.529	10021.57
584.889	10199.2
585.249	10306.76
585.609	10539.07
585.969	10748.11
586.329	10815
586.688	11138.61
587.048	11340.41
587.408	11572.04
587.768	11808.64
588.127	11969.77
588.487	12182.42
588.846	12503.99
589.206	12577.44
589.565	12925.45
589.925	13125.45
590.284	13353.46
590.643	13684.3
591.003	13855.37
591.362	14238.18
591.721	14395.24
592.08	14687.66
592.44	14923.36
592.799	15322.22
593.158	15446.97
593.517	15803.34
593.876	16112.26
594.235	16351.35
594.593	16663.66
594.952	16941.62
595.311	17152.91
595.67	17532.79
596.029	18021.36
596.387	18241.02
596.746	18567.34
597.104	18714.68
597.463	18968
597.822	19290.26
598.18	19567.31
598.538	19833.52
598.897	20295.88
599.255	20328.65
599.613	20908.29
599.972	21066.71
600.33	21295.63
600.688	21532.46
601.046	21943.29
601.404	22190.07
601.762	22411.98
602.12	22842.25
602.478	23105.07
602.836	23369.24
603.194	23463.93
603.552	23834.32
603.91	24010.58
604.268	24360.63
604.625	24545.26
604.983	24751.81
605.341	25020.95
605.698	25349.08
606.056	25605.8
606.413	25819.35
606.771	26167.81
607.128	26354.25
607.485	26425.44
607.843	26718.99
608.2	26976.16
608.557	27308.58
608.914	27458.85
609.272	27741.56
609.629	28057.03
609.986	28291.6
610.343	28396.68
610.7	28657.69
611.057	28808.42
611.414	29077.34
611.771	29213.16
612.127	29485.69
612.484	29637.1
612.841	29927.72
613.198	29892.01
613.554	30015.62
613.911	30515.95
614.267	30546.23
614.624	30694.48
614.98	30881.36
615.337	31188.7
615.693	31231.86
616.05	31416.04
616.406	31646.09
616.762	31735.13
617.118	31856.03
617.475	31939.41
617.831	32211.27
618.187	32291.72
618.543	32421.21
618.899	32891.48
619.255	32849.22
619.611	32811.26
619.967	33004.47
620.323	33263
620.678	33218.48
621.034	33305.25
621.39	33415.76
621.746	33492.14
622.101	33937.78
622.457	33736.43
622.812	33971.68
623.168	34012.35
623.523	34175.74
623.879	34375.96
624.234	34115.18
624.589	34341.84
624.945	34455.28
625.3	34580.7
625.655	34695.73
626.01	34770.53
626.365	34821.15
626.72	34920.58
627.075	34961.93
627.43	34968.04
627.785	35002.38
628.14	35148.14
628.495	35262.72
628.85	35301.81
629.205	35258.65
629.559	35479.43
629.914	35403.05
630.269	35391.75
630.623	35439.89
630.978	35474.24
631.332	35594.46
631.687	35645.31
632.041	35422.03
632.396	35627.23
632.75	35390.4
633.104	35565.99
633.459	35583.16
633.813	35521.02
634.167	35549.71
634.521	35522.37
634.875	35676.49
635.229	35723.72
635.583	35570.51
635.937	35541.13
636.291	35608.02
636.645	35643.5
636.999	35586.1
637.352	35688.24
637.706	35483.28
638.06	35775.02
638.413	35667.45
638.767	35648.92
639.121	35659.32
639.474	35540
639.828	35687.34
640.181	35643.05
640.534	35650.5
640.888	35526.44
641.241	35451.86
641.594	35503.61
641.947	35572.31
642.301	35565.31
642.654	35645.98
643.007	35654.57
643.36	35540.45
643.713	35558.98
644.066	35562.82
644.419	35391.75
644.771	35201.48
645.124	35000.35
645.477	34913.57
645.83	34668.38
646.182	34526.01
646.535	34598.1
646.888	34638.1
647.24	34491.66
647.593	34568.05
647.945	34578.44
648.298	34459.35
648.65	34367.37
649.002	34377.77
649.355	34485.34
649.707	34516.75
650.059	34591.55
650.411	34849.17
650.763	34984.31
651.115	35378.42
651.467	35273.34
651.819	35254.58
652.171	35141.14
652.523	35112.21
652.875	35180.23
653.227	35064.3
653.578	35272.89
653.93	35162.15
654.282	35103.17
654.633	34906.57
654.985	35022.72
655.337	35135.94
655.688	34977.53
656.039	35185.2
656.391	34863.63
656.742	35013.23
657.094	34999.45
657.445	35115.15
657.796	35054.36
658.147	34866.8
658.498	34955.15
658.849	34959.45
659.2	34881.48
659.551	34716.74
659.902	35083.29
660.253	34842.16
660.604	35109.27
660.955	34780.02
661.306	34966
661.656	34802.62
662.007	34781.37
662.358	34764.88
662.708	34799.68
663.059	34767.59
663.409	34620.47
663.76	34882.84
664.11	34840.36
664.461	34836.51
664.811	34823.86
665.161	34996.28
665.511	34784.54
665.862	34857.08
666.212	34959.45
666.562	34906.12
666.912	34881.03
667.262	34748.61
667.612	34855.95
667.962	35005.1
668.312	34778.44
668.662	34936.4
669.011	34752
669.361	34738.66
669.711	34652.11
670.06	34625.9
670.41	34517.2
670.76	34642.39
671.109	34707.48
671.459	34764.2
671.808	34657.54
672.157	34623.19
672.507	34496.86
672.856	34444.66
673.205	34549.06
673.554	34612.56
673.904	34566.01
674.253	34651.66
674.602	34549.97
674.951	34162.86
675.3	33888.74
675.649	34339.58
675.998	34368.28
676.346	34451.89
676.695	34436.98
677.044	34154.05
677.393	34281.5
677.741	34301.39
678.09	34253.93
678.438	34244.21
678.787	34370.76
679.135	34310.65
679.484	34134.84
679.832	34303.87
680.181	34077.44
680.529	34124.22
680.877	34010.77
681.225	33956.54
681.573	34265
681.922	33935.75
682.27	33947.72
682.618	33810.55
682.966	33834.51
683.314	33858.69
683.661	33762.87
684.009	33583.21
684.357	33517.45
684.705	33486.04
685.053	33643.78
685.4	33481.52
685.748	33331.47
686.095	33294.18
686.443	33159.04
686.79	33183.9
687.138	33133.51
687.485	33185.48
687.832	33175.09
688.18	33144.58
688.527	32988.2
688.874	33034.3
689.221	32864.36
689.568	32802.67
689.915	32787.53
690.262	32734.2
690.609	32619.17
690.956	32509.79
691.303	32522.22
691.65	32334.43
691.997	32475.45
692.344	32339.18
692.69	32190.71
693.037	32179.63
693.383	31992.75
693.73	32063.03
694.077	31894.44
694.423	31926.08
694.769	31769.25
695.116	31710.04
695.462	31829.36
695.808	31648.57
696.155	31686.99
696.501	31314.57
696.847	31444.06
697.193	31117.06
697.539	31209.04
697.885	31101.47
698.231	31013.79
698.577	30881.59
698.923	30934.24
699.269	30747.58
699.614	30616.06
699.96	30551.43
700.306	30518.43
700.651	30505.55
700.997	30339.23
701.342	30343.75
701.688	30290.64
702.033	30217.2
702.379	30170.42
702.724	29993.25
703.069	30157.77
703.415	29757.78
703.76	29793.93
704.105	29759.58
704.45	29766.14
704.795	29657.44
705.14	29545.58
705.485	29512.36
705.83	29333.61
706.175	29486.82
706.52	29224.01
706.865	29189.66
707.209	29073.28
707.554	29083.9
707.899	29169.32
708.243	28851.36
708.588	28894.3
708.932	28678.71
709.277	28754.64
709.621	28716.9
709.966	28498.83
710.31	28586.73
710.654	28417.47
710.998	28413.18
711.342	28538.37
711.687	28319.17
712.031	28290.02
712.375	28061.1
712.719	28203.24
713.063	28052.74
713.407	28175.67
713.75	28039.4
714.094	28040.31
714.438	27918.5
714.782	27915.57
715.125	27751.5
715.469	27752.41
715.812	27655.23
716.156	27663.14
716.499	27621.11
716.843	27576.14
717.186	27393.77
717.53	27664.27
717.873	27523.94
718.216	27442.58
718.559	27420.44
718.902	27183.83
719.246	27090.5
719.589	27050.73
719.932	27014.8
720.275	27126.66
720.617	26992.2
720.96	26945.87
721.303	26936.83
721.646	26992.88
721.989	26691.64
722.331	26867.46
722.674	26846.67
723.016	26776.84
723.359	26613.9
723.701	26740.68
724.044	26508.82
724.386	26446.68
724.729	26472.44
725.071	26360.13
725.413	26426.11
725.755	26344.99
726.097	26232.67
726.439	26189.28
726.782	26260.02
727.124	26248.72
727.465	26162.84
727.807	26061.15
728.149	26110.19
728.491	26012.11
728.833	25993.81
729.175	25937.54
729.516	25872.46
729.858	25717.88
730.199	25793.36
730.541	25831.33
730.882	25847.37
731.224	25909.97
731.565	25667.49
731.906	25672.91
732.248	25550.66
732.589	25587.49
732.93	25412.81
733.271	25428.85
733.612	25469.53
733.953	25593.82
734.294	25412.58
734.635	25265.92
734.976	25417.33
735.317	25290.1
735.658	25223.88
735.999	25230.21
736.339	25161.29
736.68	25205.13
737.021	25089.88
737.361	25058.92
737.702	25103.44
738.042	24944.8
738.383	24935.53
738.723	25001.29
739.063	25034.51
739.404	24903.22
739.744	24936.21
740.084	24714.29
740.424	24764.69
740.764	24690.57
741.104	24810.11
741.444	24694.18
741.784	24598.59
742.124	24514.3
742.464	24530.12
742.804	24522.21
743.143	24468.42
743.483	24446.73
743.823	24343.68
744.162	24435.66
744.502	24342.55
744.841	24364.7
745.181	24227.07
745.52	24101.43
745.86	24285.38
746.199	24150.69
746.538	24094.42
746.877	24232.27
747.216	24221.2
747.556	24062.79
747.895	24104.37
748.234	23971.94
748.573	23940.53
748.911	23960.42
749.25	23868.44
749.589	23786.18
749.928	23780.98
750.267	23793.64
750.605	23698.95
750.944	23664.15
751.283	23522.91
751.621	23568.34
751.96	23564.72
752.298	23495.57
752.636	23501.9
752.975	23277.27
753.313	23380.32
753.651	23339.87
753.989	23214.9
754.327	23160.21
754.666	23077.27
755.004	23169.48
755.342	23172.19
755.679	22986.66
756.017	22897.62
756.355	22969.93
756.693	22986.88
757.031	22925.19
757.368	22844.51
757.706	22693.33
758.044	22618.98
758.381	22597.97
758.719	22659.66
759.056	22589.15
759.394	22543.96
759.731	22284.75
760.068	22250.18
760.405	22257.86
760.743	22224.42
761.08	22179.9
761.417	22120.92
761.754	22072.1
762.091	21845.67
762.428	21906.46
762.765	21771.77
763.102	21878.89
763.438	21591.89
763.775	21626.24
764.112	21524.1
764.449	21667.14
764.785	21604.09
765.122	21337.43
765.458	21307.15
765.795	21244.78
766.131	21276.87
766.467	21225.57
766.804	20930.66
767.14	21014.73
767.476	20941.29
767.812	20835.07
768.148	20897.67
768.485	20745.36
768.821	20612.25
769.157	20655.19
769.492	20532.03
769.828	20518.02
770.164	20320.96
770.5	20374.75
770.836	20355.99
771.171	20183.79
771.507	20127.75
771.842	20018.15
772.178	20057.69
772.513	19976.34
772.849	19897.92
773.184	19762.11
773.519	19691.15
773.855	19719.4
774.19	19598.5
774.525	19531.61
774.86	19497.71
775.195	19474.88
775.53	19370.71
775.865	19263.36
776.2	19082.35
776.535	19047.32
776.87	19056.59
777.205	18958.74
777.539	18903.15
777.874	18850.04
778.209	18693.89
778.543	18662.7
778.878	18669.48
779.212	18603.04
779.547	18433.33
779.881	18367.34
780.215	18359.66
780.55	18409.37
780.884	18201.02
781.218	18238.98
781.552	18254.8
781.886	18086.22
782.22	18024.07
782.554	17935.04
782.888	17811.88
783.222	17709.51
783.556	17716.74
783.889	17604.65
784.223	17470.42
784.557	17410.3
784.89	17586.35
785.224	17322.4
785.557	17330.98
785.891	17274.94
786.224	17242.17
786.558	17085.57
786.891	16975.06
787.224	17044.21
787.557	16966.02
787.891	16903.88
788.224	16935.06
788.557	16845.12
788.89	16819.36
789.223	16737.1
789.556	16568.75
789.888	16570.1
790.221	16547.73
790.554	16373.27
790.887	16314.97
791.219	16336.43
791.552	16225.48
791.884	16258.47
792.217	16222.99
792.549	16218.47
792.882	16014.18
793.214	15942.55
793.546	16015.09
793.879	15824.13
794.211	15701.88
794.543	15767.64
794.875	15771.03
795.207	15760.18
795.539	15648.09
795.871	15730.8
796.203	15508.21
796.535	15491.49
796.867	15404.93
797.198	15371.04
797.53	15374.43
797.862	15153.19
798.193	15249.91
798.525	15221.89
798.856	15145.28
799.188	15008.79
799.519	14980.76
799.85	14948.45
800.182	14907.32
800.513	14904.61
800.844	14779.64
801.175	14910.03
801.506	14798.85
801.837	14697.61
802.168	14599.53
802.499	14630.94
802.83	14618.97
803.161	14521.12
803.491	14550.72
803.822	14501.91
804.153	14429.37
804.483	14252.87
804.814	14321.35
805.145	14202.48
805.475	14251.29
805.805	14208.13
806.136	14203.16
806.466	14217.62
806.796	14126.32
807.126	13988.93
807.457	13981.69
807.787	14002.03
808.117	13903.96
808.447	13890.62
808.777	13923.16
809.107	13801.36
809.436	13754.13
809.766	13776.95
810.096	13745.54
810.426	13734.92
810.755	13616.05
811.085	13606.34
811.414	13623.06
811.744	13500.58
812.073	13439.79
812.403	13457.64
812.732	13443.86
813.061	13400.92
813.39	13409.51
813.719	13315.05
814.049	13286.8
814.378	13230.75
814.707	13215.84
815.036	13163.41
815.365	13111.89
815.693	13022.17
816.022	13018.56
816.351	13036.41
816.68	12899.01
817.008	12990.99
817.337	12821.5
817.665	12738.34
817.994	12845.68
818.322	12753.03
818.651	12725.68
818.979	12703.08
819.307	12674.16
819.636	12609.75
819.964	12674.16
820.292	12650.43
820.62	12669.19
820.948	12628.74
821.276	12603.65
821.604	12511.9
821.932	12680.49
822.259	12595.29
822.587	12584.44
822.915	12500.15
823.243	12605.01
823.57	12544.67
823.898	12609.98
824.225	12470.55
824.553	12469.42
824.88	12560.71
825.207	12515.52
825.535	12476.2
825.862	12524.33
826.189	12430.55
826.516	12512.35
826.843	12552.13
827.17	12528.85
827.497	12543.99
827.824	12511.45
828.151	12573.37
828.478	12510.09
828.805	12509.87
829.131	12447.72
829.458	12520.94
829.785	12456.31
830.111	12394.62
830.438	12602.3
830.764	12427.16
831.09	12497.67
831.417	12446.82
831.743	12528.17
832.069	12486.37
832.395	12361.4
832.722	12434.39
833.048	12420.61
833.374	12408.18
833.7	12398.69
834.026	12351.91
834.351	12411.11
834.677	12313.26
835.003	12325.92
835.329	12354.17
835.654	12334.05
835.98	12328.4
836.306	12340.83
836.631	12243.66
836.956	12341.51
837.282	12313.04
837.607	12160.5
837.932	12134.06
838.258	12215.19
838.583	12108.07
838.908	12106.49
839.233	12080.5
839.558	12074.17
839.883	11986.27
840.208	11995.76
840.533	11963.22
840.858	12028.07
841.182	11961.18
841.507	11930.22
841.832	11855.42
842.156	11925.25
842.481	11875.76
842.805	11831.92
843.13	11820.4
843.454	11754.41
843.778	11724.35
844.103	11789.89
844.427	11711.92
844.751	11643
845.075	11634.86
845.399	11559.16
845.723	11540.85
846.047	11571.14
846.371	11509.67
846.695	11502.89
847.019	11428.77
847.343	11367.07
847.666	11331.82
847.99	11195.78
848.313	11248.66
848.637	11141.32
848.96	11097.93
849.284	11079.62
849.607	11010.47
849.931	10906.3
850.254	10919.85
850.577	10930.02
850.9	10766.64
851.223	10741.55
851.546	10706.53
851.869	10690.71
852.192	10774.32
852.515	10532.97
852.838	10519.41
853.161	10609.81
853.483	10543.14
853.806	10476.93
854.129	10486.87
854.451	10414.33
854.774	10341.11
855.096	10326.2
855.419	10333.65
855.741	10271.06
856.063	10178.86
856.385	10192.19
856.708	10150.83
857.03	10160.55
857.352	10125.98
857.674	10096.82
857.996	10090.95
858.318	10046.88
858.64	10063.15
858.961	9945.87
859.283	9987.68
859.605	9904.74
859.926	9888.92
860.248	9837.85
860.57	9777.06
860.891	9815.7
861.212	9751.07
861.534	9714.01
861.855	9758.53
862.176	9775.7
862.498	9746.78
862.819	9670.62
863.14	9665.2
863.461	9668.36
863.782	9572.54
864.103	9657.29
864.424	9591.3
864.745	9568.7
865.065	9545.43
865.386	9487.12
865.707	9536.16
866.027	9533.22
866.348	9497.97
866.668	9482.38
866.989	9485.32
867.309	9376.17
867.63	9420.46
867.95	9373.68
868.27	9352.44
868.59	9341.36
868.91	9361.7
869.23	9343.62
869.55	9245.1
869.87	9420.01
870.19	9244.19
870.51	9288.03
870.83	9314.47
871.15	9226.11
871.469	9288.94
871.789	9278.09
872.109	9216.62
872.428	9123.97
872.748	9221.37
873.067	9186.11
873.386	9226.34
873.706	9243.51
874.025	9100.69
874.344	9100.92
874.663	9165.32
874.982	9096.17
875.301	9084.2
875.62	9107.92
875.939	9024.08
876.258	9041.26
876.577	8977.76
876.896	8988.61
877.214	8898.66
877.533	8994.03
877.852	9033.58
878.17	8940.7
878.489	8974.59
878.807	8953.13
879.125	8876.07
879.444	8948.38
879.762	8827.03
880.08	8889.85
880.398	8787.25
880.716	8803.3
881.034	8805.11
881.352	8779.57
881.67	8753.13
881.988	8800.59
882.306	8705.68
882.624	8718.33
882.941	8705.45
883.259	8613.02
883.577	8632.46
883.894	8594.72
884.212	8618.67
884.529	8601.72
884.846	8558.11
885.164	8560.59
885.481	8549.75
885.798	8518.11
886.115	8454.83
886.432	8386.59
886.75	8411.45
887.067	8408.51
887.383	8340.71
887.7	8380.49
888.017	8339.36
888.334	8369.41
888.651	8288.06
888.967	8277.66
889.284	8227.72
889.6	8208.06
889.917	8199.25
890.233	8186.37
890.55	8190.89
890.866	8193.15
891.182	8166.71
891.498	8116.76
891.815	8072.47
892.131	8033.83
892.447	8050.78
892.763	8005.35
893.079	7990.21
893.395	7911.57
893.71	7913.83
894.026	7943.44
894.342	7957.45
894.657	7797
894.973	7842.42
895.289	7800.61
895.604	7829.54
895.92	7766.72
896.235	7707.96
896.55	7742.08
896.865	7655.08
897.181	7688.98
897.496	7659.83
897.811	7608.53
898.126	7542.99
898.441	7615.08
898.756	7547.74
899.071	7491.24
899.386	7487.18
899.7	7451.24
900.015	7377.12
900.33	7377.8
900.644	7341.87
900.959	7379.38
901.273	7308.42
901.588	7289.44
901.902	7273.17
902.216	7274.3
902.531	7249.89
902.845	7217.13
903.159	7168.99
903.473	7159.73
903.787	7115.66
904.101	7039.28
904.415	7100.29
904.729	7043.35
905.042	7017.13
905.356	6982.78
905.67	6983.46
905.984	6973.52
906.297	6903.69
906.611	6863.24
906.924	6872.73
907.237	6840.41
907.551	6762.22
907.864	6741.43
908.177	6816.69
908.491	6751.38
908.804	6712.51
909.117	6645.84
909.43	6658.05
909.743	6624.83
910.056	6582.34
910.368	6531.49
910.681	6509.35
910.994	6503.25
911.307	6480.87
911.619	6444.49
911.932	6490.59
912.244	6425.51
912.557	6426.19
912.869	6348.9
913.181	6340.99
913.494	6281.33
913.806	6273.2
914.118	6256.93
914.43	6235.01
914.742	6232.75
915.054	6153.65
915.366	6124.05
915.678	6090.15
915.99	6105.97
916.302	6102.13
916.613	6038.63
916.925	6059.64
917.236	6034.56
917.548	5975.58
917.859	5949.14
918.171	5936.93
918.482	5915.92
918.794	5878.63
919.105	5870.27
919.416	5844.96
919.727	5803.38
920.038	5798.18
920.349	5731.52
920.66	5715.25
920.971	5722.25
921.282	5695.36
921.593	5695.81
921.903	5617.62
922.214	5653.78
922.525	5599.09
922.835	5552.99
923.146	5543.05
923.456	5542.37
923.767	5525.87
924.077	5536.72
924.387	5511.41
924.697	5397.51
925.008	5420.79
925.318	5401.36
925.628	5396.84
925.938	5383.5
926.248	5327.68
926.558	5276.39
926.867	5286.33
927.177	5286.56
927.487	5258.99
927.796	5219.67
928.106	5221.92
928.416	5155.03
928.725	5190.97
929.034	5137.41
929.344	5123.4
929.653	5105.32
929.962	5027.58
930.271	5015.15
930.581	4973.34
930.89	5054.7
931.199	4983.96
931.508	4987.81
931.817	5002.95
932.125	4942.38
932.434	4965.89
932.743	4883.63
933.051	4884.76
933.36	4879.11
933.669	4788.49
933.977	4786.23
934.286	4770.64
934.594	4783.74
934.902	4727.93
935.21	4719.79
935.519	4702.39
935.827	4714.82
936.135	4657.87
936.443	4592.56
936.751	4639.79
937.059	4612
937.367	4579.23
937.674	4598.66
937.982	4555.73
938.29	4501.49
938.597	4526.58
938.905	4472.11
939.213	4466.46
939.52	4440.02
939.827	4452.91
940.135	4387.6
940.442	4379.69
940.749	4412.45
941.056	4357.31
941.363	4332.23
941.67	4343.76
941.977	4290.2
942.284	4223.08
942.591	4267.83
942.898	4231.22
943.205	4246.13
943.511	4237.54
943.818	4186.25
944.125	4196.64
944.431	4180.6
944.738	4142.41
945.044	4170.2
945.35	4089.07
945.657	4056.31
945.963	4077.32
946.269	4025.8
946.575	4068.28
946.881	4033.93
947.187	4030.77
947.493	3988.74
947.799	3954.61
948.105	3928.85
948.41	3962.75
948.716	3956.2
949.022	3918.23
949.327	3886.82
949.633	3836.88
949.938	3847.5
950.244	3845.24
950.549	3817.89
950.854	3791.68
951.16	3800.49
951.465	3798.69
951.77	3713.49
952.075	3740.16
952.38	3708.07
952.685	3709.42
952.99	3672.14
953.294	3672.36
953.599	3647.28
953.904	3617
954.209	3655.86
954.513	3624.45
954.818	3600.95
955.122	3583.78
955.426	3534.06
955.731	3523.21
956.035	3513.5
956.339	3549.65
956.643	3486.6
956.948	3477.34
957.252	3452.03
957.556	3470.78
957.86	3420.84
958.163	3435.08
958.467	3439.37
958.771	3389.43
959.075	3419.71
959.378	3390.56
959.682	3384.91
959.985	3351.69
960.289	3344.23
960.592	3315.53
960.896	3304.46
961.199	3310.34
961.502	3292.26
961.805	3247.06
962.108	3219.72
962.411	3275.31
962.714	3185.14
963.017	3240.73
963.32	3222.88
963.623	3158.25
963.926	3175.88
964.228	3172.26
964.531	3130.68
964.833	3111.47
965.136	3067.63
965.438	3129.1
965.741	3103.56
966.043	3068.76
966.345	3074.64
966.648	3030.12
966.95	3043.23
967.252	3012.49
967.554	2989.89
967.856	2975.2
968.158	2933.85
968.46	2991.48
968.761	2913.96
969.063	2942.89
969.365	2899.27
969.666	2918.93
969.968	2901.08
970.269	2884.59
970.571	2891.36
970.872	2854.98
971.174	2817.02
971.475	2826.28
971.776	2817.69
972.077	2823.57
972.378	2821.31
972.679	2778.37
972.98	2785.15
973.281	2759.39
973.582	2775.21
973.883	2739.05
974.183	2774.98
974.484	2716
974.785	2694.53
975.085	2739.05
975.386	2716
975.686	2696.79
975.986	2694.99
976.287	2648.43
976.587	2586.74
976.887	2670.35
977.187	2633.52
977.487	2633.07
977.787	2611.6
978.087	2591.03
978.387	2570.02
978.687	2559.62
978.987	2562.11
979.286	2538.15
979.586	2506.06
979.885	2527.76
980.185	2504.71
980.484	2486.63
980.784	2511.71
981.083	2471.26
981.382	2478.72
981.682	2465.61
981.981	2457.7
982.28	2431.49
982.579	2441.66
982.878	2429.46
983.177	2415.9
983.475	2408.67
983.774	2377.25
984.073	2359.4
984.372	2358.27
984.67	2359.18
984.969	2335.45
985.267	2320.76
985.566	2303.58
985.864	2304.71
986.162	2281.21
986.461	2271.04
986.759	2275.56
987.057	2289.57
987.355	2262.68
987.653	2268.78
987.951	2216.58
988.249	2219.07
988.547	2218.16
988.844	2193.53
989.142	2200.08
989.44	2201.21
989.737	2180.42
990.035	2160.76
990.332	2167.77
990.63	2172.97
990.927	2167.77
991.224	2128.67
991.521	2120.09
991.819	2124.15
992.116	2109.69
992.413	2073.53
992.71	2091.39
993.006	2103.36
993.303	2050.26
993.6	2045.74
993.897	2052.06
994.193	2055.45
994.49	2048.45
994.787	2040.77
995.083	2002.12
995.379	1987.66
995.676	2010.26
995.972	1972.97
996.268	1992.63
996.565	1995.79
996.861	1976.36
997.157	1961.22
997.453	1934.55
997.749	1909.24
998.044	1901.79
998.34	1912.41
998.636	1903.14
998.932	1883.26
999.227	1882.58
999.523	1877.83
999.818	1845.97
1000.114	1840.77
1000.409	1855.01
1000.704	1837.38
1001	1829.92
1001.295	1807.78
1001.59	1795.12
1001.885	1797.16
1002.18	1795.35
1002.475	1771.85
1002.77	1779.3
1003.065	1765.29
1003.359	1739.3
1003.654	1732.98
1003.949	1762.81
1004.243	1727.55
1004.538	1699.08
1004.832	1719.64
1005.127	1697.27
1005.421	1690.27
1005.715	1712.41
1006.009	1650.04
1006.304	1673.77
1006.598	1656.14
1006.892	1640.32
1007.186	1624.73
1007.48	1627.44
1007.773	1621.79
1008.067	1599.65
1008.361	1596.48
1008.655	1583.83
1008.948	1584.73
1009.242	1559.42
1009.535	1554
1009.829	1556.94
1010.122	1548.58
1010.415	1548.58
1010.708	1534.79
1011.001	1509.48
1011.295	1490.27
1011.588	1506.77
1011.881	1488.01
1012.173	1475.13
1012.466	1474.45
1012.759	1458.18
1013.052	1489.82
1013.344	1462.25
1013.637	1427
1013.93	1433.32
1014.222	1432.19
1014.514	1417.51
1014.807	1426.54
1015.099	1410.5
1015.391	1392.87
1015.683	1387.45
1015.976	1406.43
1016.268	1371.86
1016.56	1360.33
1016.851	1341.8
1017.143	1365.76
1017.435	1342.03
1017.727	1333.21
1018.018	1321.46
1018.31	1347.9
1018.602	1309.49
1018.893	1344.74
1019.185	1282.14
1019.476	1297.28
1019.767	1281.69
1020.058	1286.21
1020.35	1274.91
1020.641	1263.38
1020.932	1246.44
1021.223	1234.23
1021.514	1229.71
1021.804	1218.19
1022.095	1183.39
1022.386	1211.63
1022.677	1207.34
1022.967	1184.97
1023.258	1173.22
1023.548	1185.65
1023.839	1174.35
1024.129	1183.61
1024.419	1160.56
1024.709	1170.51
1025	1135.93
1025.29	1159.43
1025.58	1137.29
1025.87	1121.24
1026.16	1119.21
1026.449	1121.69
1026.739	1104.74
1027.029	1078.98
1027.319	1103.62
1027.608	1084.63
1027.898	1079.89
1028.187	1069.49
1028.477	1064.52
1028.766	1060.23
1029.055	1059.77
1029.344	1059.55
1029.634	1044.86
1029.923	1052.09
1030.212	1036.05
1030.501	1028.14
1030.79	1036.05
1031.078	1001.7
1031.367	1001.7
1031.656	995.82
1031.945	991.75
1032.233	1003.05
1032.522	991.53
1032.81	974.13
1033.099	949.72
1033.387	950.4
1033.675	944.52
1033.963	946.11
1034.251	941.81
1034.54	928.48
1034.828	926.67
1035.116	915.37
1035.403	912.66
1035.691	912.89
1035.979	921.47
1036.267	891.19
1036.554	914.69
1036.842	875.37
1037.129	918.99
1037.417	884.41
1037.704	895.48
1037.992	889.84
1038.279	860.01
1038.566	871.3
1038.853	871.3
1039.14	871.3
