Data from hue_280_FLMS001491_00014.txt Node
Date: Tue Feb 07 15:54:54 GMT 2017
User: dcchb
Spectrometer: FLMS00149
Trigger mode: 0
Integration Time (sec): 2.000000E-2
Scans to average: 10
Electric dark correction enabled: true
Nonlinearity correction enabled: false
Boxcar width: 0
XAxis mode: Wavelengths
Number of Pixels in Spectrum: 2048
>>>>>Begin Spectral Data<<<<<
341.393	7.4
341.776	7.4
342.16	7.4
342.543	-63.78
342.927	-57
343.31	-63.33
343.693	-80.05
344.077	-58.81
344.46	-68.53
344.843	-44.35
345.226	-38.25
345.61	-28.98
345.993	-39.15
346.376	-9.55
346.759	8.53
347.142	29.77
347.525	34.07
347.908	65.03
348.291	81.52
348.674	113.84
349.057	98.25
349.44	132.82
349.823	151.58
350.206	146.83
350.588	212.59
350.971	215.98
351.354	223.44
351.737	239.26
352.119	249.2
352.502	245.59
352.884	271.57
353.267	279.03
353.65	267.51
354.032	291.01
354.414	291.46
354.797	310.9
355.179	293.5
355.562	306.83
355.944	330.33
356.326	326.04
356.709	327.17
357.091	318.13
357.473	318.13
357.855	361.06
358.238	334.85
358.62	328.07
359.002	328.52
359.384	326.71
359.766	324.91
360.148	333.27
360.53	343.89
360.912	342.31
361.294	334.4
361.676	310.67
362.057	335.3
362.439	315.19
362.821	313.16
363.203	326.04
363.584	317.68
363.966	310.67
364.348	340.5
364.729	351.8
365.111	325.58
365.493	343.66
365.874	313.61
366.256	314.74
366.637	327.39
367.019	307.05
367.4	340.05
367.781	315.64
368.163	307.51
368.544	310.9
368.925	294.4
369.306	308.18
369.688	309.54
370.069	307.73
370.45	306.38
370.831	343.89
371.212	318.58
371.593	322.19
371.974	330.78
372.355	320.84
372.736	299.37
373.117	334.4
373.498	334.62
373.879	312.48
374.26	316.77
374.641	321.07
375.021	318.35
375.402	324.45
375.783	305.25
376.163	319.26
376.544	317.9
376.925	321.74
377.305	352.7
377.686	330.33
378.066	318.81
378.447	347.5
378.827	340.05
379.208	335.08
379.588	334.17
379.968	340.95
380.349	327.39
380.729	340.95
381.109	345.25
381.489	340.95
381.87	357.45
382.25	347.28
382.63	349.99
383.01	345.02
383.39	340.05
383.77	330.56
384.15	333.27
384.53	351.8
384.91	348.86
385.29	348.86
385.67	350.44
386.049	362.87
386.429	365.58
386.809	346.6
387.189	361.06
387.568	380.27
387.948	380.05
388.328	368.07
388.707	356.32
389.087	372.14
389.466	353.38
389.846	377.56
390.225	369.2
390.605	375.53
390.984	375.3
391.363	386.83
391.743	370.78
392.122	377.11
392.501	403.32
392.881	371.23
393.26	387.28
393.639	385.92
394.018	364
394.397	391.12
394.776	405.58
395.155	389.99
395.534	397.45
395.913	395.87
396.292	402.87
396.671	404.9
397.05	392.02
397.429	385.92
397.808	400.84
398.186	397.9
398.565	415.75
398.944	415.07
399.323	408.29
399.701	428.63
400.08	442.42
400.458	416.43
400.837	425.24
401.215	420.5
401.594	436.99
401.972	425.7
402.351	429.54
402.729	413.94
403.107	430.67
403.486	425.7
403.864	444.45
404.242	464.11
404.62	440.16
404.999	461.85
405.377	452.36
405.755	464.56
406.133	463.43
406.511	485.13
406.889	486.48
407.267	484
407.645	475.64
408.023	479.03
408.401	500.72
408.779	506.82
409.156	519.25
409.534	526.48
409.912	499.82
410.29	543.43
410.667	541.62
411.045	535.3
411.422	532.13
411.8	548.18
412.178	558.12
412.555	562.87
412.933	574.62
413.31	577.56
413.687	574.17
414.065	569.65
414.442	610.1
414.819	604.67
415.197	609.19
415.574	622.3
415.951	613.94
416.328	638.57
416.705	651
417.082	650.1
417.46	660.49
417.837	642.41
418.214	661.62
418.591	678.34
418.967	676.99
419.344	703.65
419.721	702.98
420.098	688.74
420.475	714.95
420.852	733.26
421.228	731.68
421.605	773.03
421.982	776.65
422.358	790.66
422.735	782.07
423.111	772.8
423.488	786.82
423.864	820.94
424.241	836.98
424.617	806.48
424.994	853.71
425.37	836.76
425.746	863.65
426.123	853.48
426.499	867.72
426.875	876.76
427.251	901.16
427.627	907.26
428.003	925.12
428.379	933.03
428.756	923.54
429.132	948.85
429.507	937.55
429.883	960.37
430.259	977.32
430.635	1001.5
431.011	999.01
431.387	1015.51
431.763	1020.03
432.138	1043.76
432.514	1027.94
432.89	1053.02
433.265	1068.84
433.641	1110.87
434.016	1113.59
434.392	1115.85
434.767	1153.36
435.143	1140.03
435.518	1169.18
435.894	1177.31
436.269	1215.5
436.644	1222.06
437.02	1212.79
437.395	1240.14
437.77	1252.11
438.145	1290.76
438.52	1259.35
438.895	1289.4
439.271	1289.85
439.646	1326.91
440.021	1334.37
440.395	1354.71
440.77	1348.16
441.145	1370.53
441.52	1386.12
441.895	1395.16
442.27	1380.92
442.645	1413.01
443.019	1440.58
443.394	1426.35
443.769	1414.37
444.143	1445.56
444.518	1466.8
444.892	1446.01
445.267	1481.03
445.641	1489.17
446.016	1487.81
446.39	1522.16
446.764	1507.25
447.139	1533.46
447.513	1498.44
447.887	1528.94
448.262	1517.64
448.636	1547.93
449.01	1560.81
449.384	1556.29
449.758	1578.21
450.132	1605.55
450.506	1586.12
450.88	1627.02
451.254	1608.94
451.628	1636.51
452.002	1653.91
452.376	1632.22
452.75	1644.19
453.123	1677.41
453.497	1719.67
453.871	1694.81
454.244	1725.55
454.618	1718.09
454.992	1745.66
455.365	1756.51
455.739	1794.7
456.112	1792.21
456.486	1796.73
456.859	1825.43
457.232	1843.96
457.606	1815.94
457.979	1864.08
458.352	1908.82
458.725	1914.7
459.099	1903.4
459.472	1931.19
459.845	1968.25
460.218	1991.3
460.591	1988.59
460.964	1987.01
461.337	2034.47
461.71	2054.58
462.083	2056.16
462.456	2076.73
462.829	2078.08
463.201	2104.75
463.574	2115.14
463.947	2175.25
464.32	2196.27
464.692	2176.84
465.065	2203.05
465.438	2266.55
465.81	2256.61
466.183	2262.93
466.555	2282.82
466.928	2311.75
467.3	2317.85
467.672	2328.02
468.045	2359.66
468.417	2384.97
468.789	2419.54
469.161	2439.2
469.534	2477.17
469.906	2475.13
470.278	2494.57
470.65	2563.94
471.022	2571.4
471.394	2593.77
471.766	2629.7
472.138	2659.99
472.51	2678.29
472.882	2732.53
473.253	2743.83
473.625	2744.73
473.997	2806.65
474.369	2847.33
474.74	2854.33
475.112	2913.99
475.484	2919.19
475.855	2956.93
476.227	3034.21
476.598	3026.3
476.97	3061.56
477.341	3144.95
477.713	3131.84
478.084	3155.79
478.455	3250.93
478.827	3231.72
479.198	3341.55
479.569	3323.7
479.94	3395.56
480.311	3419.74
480.682	3489.34
481.053	3533.86
481.424	3600.75
481.795	3594.2
482.166	3665.16
482.537	3695.44
482.908	3778.38
483.279	3747.64
483.65	3825.61
484.021	3877.13
484.391	3871.71
484.762	3902.89
485.133	3971.82
485.503	3996.45
485.874	4068.99
486.244	4130.91
486.615	4137.69
486.985	4199.38
487.356	4226.05
487.726	4276.22
488.097	4333.84
488.467	4381.98
488.837	4425.14
489.207	4420.84
489.578	4535.42
489.948	4513.5
490.318	4551.24
490.688	4599.6
491.058	4677.33
491.428	4719.82
491.798	4724.57
492.168	4784.9
492.538	4811.12
492.908	4836.65
493.278	4908.74
493.648	4929.76
494.017	4967.95
494.387	4977.67
494.757	4994.16
495.126	5045.23
495.496	5116.65
495.866	5129.3
496.235	5164.55
496.605	5161.62
496.974	5206.13
497.344	5221.95
497.713	5282.52
498.082	5300.6
498.452	5307.37
498.821	5289.97
499.19	5360.25
499.559	5397.54
499.928	5380.59
500.298	5420.14
500.667	5463.98
501.036	5442.29
501.405	5425.11
501.774	5500.82
502.143	5550.98
502.512	5600.25
502.88	5603.41
503.249	5576.97
503.618	5616.52
503.987	5644.31
504.356	5623.52
504.724	5667.59
505.093	5721.6
505.462	5732
505.83	5755.72
506.199	5781.71
506.567	5814.71
506.936	5818.55
507.304	5893.8
507.672	5870.98
508.041	5857.42
508.409	5891.31
508.777	5931.31
509.145	5987.58
509.514	5929.05
509.882	5998.43
510.25	5945.55
510.618	6038.2
510.986	6037.07
511.354	6050.41
511.722	6101.25
512.09	6142.61
512.458	6160.46
512.826	6146
513.193	6242.27
513.561	6186.67
513.929	6296.5
514.297	6261.7
514.664	6315.94
515.032	6281.59
515.4	6345.31
515.767	6298.53
516.135	6421.7
516.502	6336.5
516.869	6380.79
517.237	6428.02
517.604	6412.43
517.972	6447.23
518.339	6440.68
518.706	6526.78
519.073	6414.69
519.44	6541.47
519.808	6492.88
520.175	6554.8
520.542	6567.45
520.909	6649.03
521.276	6628.02
521.643	6663.5
522.009	6702.37
522.376	6724.51
522.743	6694.68
523.11	6804.51
523.477	6822.14
523.843	6793.89
524.21	6887.22
524.577	6891.51
524.943	6856.49
525.31	6881.8
525.676	6994.79
526.043	7018.29
526.409	7029.14
526.776	7073.43
527.142	7090.6
527.508	7163.37
527.874	7117.27
528.241	7144.39
528.607	7148.23
528.973	7235.46
529.339	7187.78
529.705	7264.39
530.071	7290.83
530.437	7278.4
530.803	7311.62
531.169	7371.73
531.535	7354.55
531.901	7385.96
532.267	7444.95
532.632	7440.65
532.998	7507.09
533.364	7510.48
533.73	7519.29
534.095	7552.97
534.461	7592.29
534.826	7580.54
535.192	7607.65
535.557	7652.4
535.923	7686.3
536.288	7697.14
536.653	7692.4
537.019	7679.29
537.384	7732.85
537.749	7679.06
538.114	7728.1
538.479	7744.82
538.845	7827.08
539.21	7764.94
539.575	7806.29
539.94	7831.15
540.305	7817.82
540.67	7856.46
541.034	7876.57
541.399	7835.44
541.764	7910.92
542.129	7881.32
542.494	7931.71
542.858	8011.48
543.223	7977.36
543.587	8012.61
543.952	7966.06
544.316	7997.25
544.681	7972.16
545.045	8076.12
545.41	8116.11
545.774	8069.34
546.138	8063.23
546.503	8110.92
546.867	8117.24
547.231	8167.86
547.595	8211.03
547.959	8198.37
548.324	8149.56
548.688	8225.49
549.052	8188.2
549.416	8203.34
549.779	8234.3
550.143	8215.77
550.507	8256.68
550.871	8261.42
551.235	8224.81
551.599	8332.15
551.962	8337.35
552.326	8398.14
552.689	8431.36
553.053	8336.9
553.417	8405.82
553.78	8470.46
554.143	8434.07
554.507	8456.67
554.87	8434.3
555.234	8542.09
555.597	8448.99
555.96	8482.43
556.323	8527.18
556.686	8578.02
557.05	8615.31
557.413	8584.35
557.776	8633.39
558.139	8690.56
558.502	8689.66
558.865	8722.2
559.228	8741.63
559.59	8743.89
559.953	8749.77
560.316	8846.26
560.679	8851.69
561.041	8876.32
561.404	8858.69
561.767	8956.54
562.129	8896.21
562.492	8949.31
562.854	8985.7
563.217	9018.69
563.579	9053.04
563.941	9081.29
564.304	9112.7
564.666	9157.67
565.028	9092.36
565.39	9157.22
565.753	9203.77
566.115	9276.99
566.477	9287.61
566.839	9336.65
567.201	9314.27
567.563	9368.51
567.925	9405.12
568.287	9401.73
568.648	9427.94
569.01	9454.84
569.372	9557.21
569.734	9452.58
570.095	9571.44
570.457	9604.21
570.819	9645.79
571.18	9666.36
571.542	9694.15
571.903	9691.89
572.265	9782.06
572.626	9723.98
572.987	9749.29
573.349	9825.67
573.71	9922.17
574.071	9958.1
574.432	9867.71
574.794	10063.18
575.155	10081.03
575.516	10063.63
575.877	10148.83
576.238	10058.44
576.599	10138.43
576.96	10137.76
577.32	10273.8
577.681	10335.04
578.042	10402.16
578.403	10376.39
578.763	10330.97
579.124	10441.48
579.485	10543.17
579.845	10563.06
580.206	10577.07
580.566	10614.13
580.927	10677.85
581.287	10720.57
581.648	10732.32
582.008	10815.7
582.368	10857.74
582.728	10906.1
583.089	10902.93
583.449	10949.26
583.809	10978.64
584.169	11141.12
584.529	11168.01
584.889	11271.96
585.249	11252.98
585.609	11311.06
585.969	11360.77
586.329	11374.79
586.688	11525.29
587.048	11640.99
587.408	11564.61
587.768	11672.86
588.127	11770.71
588.487	11843.47
588.846	11901.78
589.206	11939.97
589.565	11916.47
589.925	12116.46
590.284	12190.36
590.643	12216.12
591.003	12297.25
591.362	12346.74
591.721	12406.85
592.08	12468.09
592.44	12543.57
592.799	12563.45
593.158	12633.28
593.517	12765.71
593.876	12869.21
594.235	12925.71
594.593	12883.45
594.952	13000.51
595.311	12982.43
595.67	13037.79
596.029	13274.85
596.387	13228.3
596.746	13327.05
597.104	13413.38
597.463	13409.76
597.822	13567.27
598.18	13541.51
598.538	13569.53
598.897	13660.38
599.255	13571.34
599.613	13843.87
599.972	13818.11
600.33	13820.15
600.688	13885.23
601.046	13926.36
601.404	14050.65
601.762	13994.15
602.12	14134.04
602.478	14222.85
602.836	14174.49
603.194	14171.77
603.552	14306.46
603.91	14273.69
604.268	14336.52
604.625	14321.6
604.983	14421.26
605.341	14409.96
605.698	14568.15
606.056	14625.55
606.413	14579.9
606.771	14661.03
607.128	14646.11
607.485	14581.93
607.843	14740.12
608.2	14804.07
608.557	14837.97
608.914	14838.42
609.272	15016.27
609.629	14990.51
609.986	15025.09
610.343	15019.44
610.7	15091.75
611.057	15075.25
611.414	15117.06
611.771	15170.17
612.127	15229.37
612.484	15260.56
612.841	15249.71
613.198	15299.88
613.554	15300.33
613.911	15381.46
614.267	15459.2
614.624	15391.63
614.98	15496.03
615.337	15472.53
615.693	15524.73
616.05	15494.23
616.406	15604.05
616.762	15566.54
617.118	15578.29
617.475	15615.8
617.831	15638.18
618.187	15768.34
618.543	15765.18
618.899	15737.61
619.255	15719.98
619.611	15712.52
619.967	15761.11
620.323	15875.68
620.678	15797.72
621.034	15662.58
621.39	15763.82
621.746	15774.44
622.101	15921.78
622.457	15785.97
622.812	15870.26
623.168	15954.33
623.523	15954.33
623.879	15922.46
624.234	15853.76
624.589	15913.2
624.945	15946.87
625.3	15929.69
625.655	16018.96
626.01	16047.43
626.365	15991.39
626.72	16099.63
627.075	16003.82
627.43	15952.07
627.785	16039.07
628.14	16072.29
628.495	16074.55
628.85	15954.55
629.205	15856.7
629.559	16041.1
629.914	15953.42
630.269	16011.5
630.623	15889.02
630.978	15964.04
631.332	15966.53
631.687	15966.08
632.041	15850.37
632.396	15951.39
632.75	15751.17
633.104	15852.41
633.459	15847.89
633.813	15892.41
634.167	15755.46
634.521	15784.84
634.875	15791.62
635.229	15768.34
635.583	15785.52
635.937	15687.21
636.291	15681.57
636.645	15641.34
636.999	15781
637.352	15728.12
637.706	15555.24
638.06	15699.42
638.413	15719.76
638.767	15644.28
639.121	15570.16
639.474	15590.95
639.828	15537.16
640.181	15577.39
640.534	15614
640.888	15656.48
641.241	15509.37
641.594	15490.16
641.947	15633.88
642.301	15506.88
642.654	15512.08
643.007	15533.55
643.36	15493.32
643.713	15392.76
644.066	15526.99
644.419	15404.51
644.771	15299.43
645.124	15079.55
645.477	15135.82
645.83	14960.91
646.182	14971.75
646.535	14984.63
646.888	15005.42
647.24	14862.6
647.593	14927.23
647.945	14938.53
648.298	14923.17
648.65	14938.08
649.002	14895.37
649.355	15003.62
649.707	14954.35
650.059	15066.67
650.411	15227.57
650.763	15168.58
651.115	15399.09
651.467	15362.03
651.819	15441.35
652.171	15387.11
652.523	15262.37
652.875	15287.45
653.227	15254.68
653.578	15387.79
653.93	15355.02
654.282	15304.4
654.633	15209.04
654.985	15311.63
655.337	15348.01
655.688	15361.57
656.039	15371.97
656.391	15238.64
656.742	15270.05
657.094	15294.68
657.445	15289.26
657.796	15357.51
658.147	15240.22
658.498	15278.86
658.849	15332.87
659.2	15349.6
659.551	15178.75
659.902	15301.24
660.253	15275.02
660.604	15275.02
660.955	15282.93
661.306	15319.77
661.656	15202.71
662.007	15350.27
662.358	15385.3
662.708	15369.71
663.059	15362.25
663.409	15348.24
663.76	15449.48
664.11	15400.44
664.461	15322.03
664.811	15402.25
665.161	15379.65
665.511	15336.94
665.862	15312.99
666.212	15448.8
666.562	15307.11
666.912	15426.2
667.262	15348.24
667.612	15435.7
667.962	15391.4
668.312	15371.06
668.662	15476.6
669.011	15391.86
669.361	15287.9
669.711	15354.34
670.06	15324.51
670.41	15353.21
670.76	15293.1
671.109	15355.25
671.459	15282.71
671.808	15303.04
672.157	15242.71
672.507	15256.49
672.856	15242.71
673.205	15241.35
673.554	15345.08
673.904	15190.28
674.253	15377.39
674.602	15195.48
674.951	15019.66
675.3	15043.16
675.649	15165.87
675.998	15127.23
676.346	15204.97
676.695	15181.69
677.044	15069.15
677.393	15171.52
677.741	15103.5
678.09	15134.46
678.438	15129.94
678.787	15070.96
679.135	15133.78
679.484	14990.51
679.832	14998.19
680.181	14904.18
680.529	15008.36
680.877	14938.08
681.225	14901.92
681.573	15009.04
681.922	14902.83
682.27	14816.5
682.618	14856.05
682.966	14797.29
683.314	14837.97
683.661	14781.7
684.009	14638.43
684.357	14794.81
684.705	14658.99
685.053	14646.56
685.4	14606.79
685.748	14546
686.095	14624.42
686.443	14511.88
686.79	14425.78
687.138	14444.31
687.485	14476.63
687.832	14459.45
688.18	14412.67
688.527	14288.61
688.874	14311.66
689.221	14226.91
689.568	14189.17
689.915	14162.96
690.262	14133.36
690.609	14037.09
690.956	13981.04
691.303	14036.18
691.65	14010.42
691.997	13918.22
692.344	13857.66
692.69	13800.94
693.037	13805
693.383	13709.64
693.73	13767.94
694.077	13669.41
694.423	13664.89
694.769	13644.78
695.116	13480.04
695.462	13543.99
695.808	13488.63
696.155	13566.82
696.501	13352.13
696.847	13305.13
697.193	13226.94
697.539	13235.08
697.885	13144.23
698.231	13087.06
698.577	13152.59
698.923	13041.63
699.269	13023.1
699.614	12938.13
699.96	12798.93
700.306	12750.34
700.651	12847.52
700.997	12728.65
701.342	12752.38
701.688	12670.12
702.033	12634.87
702.379	12649.1
702.724	12572.04
703.069	12674.86
703.415	12469.67
703.76	12453.18
704.105	12412.27
704.45	12397.13
704.795	12218.61
705.14	12198.72
705.485	12186.97
705.83	12217.02
706.175	12167.31
706.52	12078.04
706.865	12098.16
707.209	12148.32
707.554	12022.9
707.899	11910.59
708.243	11921.89
708.588	11943.58
708.932	11841.89
709.277	11814.32
709.621	11787.2
709.966	11751.95
710.31	11886.41
710.654	11648
710.998	11680.31
711.342	11706.08
711.687	11618.85
712.031	11641.22
712.375	11476.93
712.719	11541.33
713.063	11509.47
713.407	11615.46
713.75	11547.21
714.094	11491.39
714.438	11427.67
714.782	11448.91
715.125	11400.1
715.469	11365.29
715.812	11346.31
716.156	11316.26
716.499	11372.53
716.843	11286.2
717.186	11225.64
717.53	11342.24
717.873	11328.01
718.216	11280.32
718.559	11228.12
718.902	11130.72
719.246	11062.7
719.589	11086.66
719.932	11080.56
720.275	11069.93
720.617	11044.17
720.96	11083.04
721.303	10949.94
721.646	11009.6
721.989	10983.61
722.331	11031.52
722.674	10937.28
723.016	10964.85
723.359	10915.14
723.701	10965.53
724.044	10899.32
724.386	10891.63
724.729	10870.62
725.071	10858.64
725.413	10896.38
725.755	10894.8
726.097	10831.3
726.439	10813.67
726.782	10794.69
727.124	10860
727.465	10827.91
727.807	10824.74
728.149	10762.37
728.491	10843.95
728.833	10813.22
729.175	10716.95
729.516	10697.74
729.858	10759.89
730.199	10788.13
730.541	10701.13
730.882	10763.05
731.224	10745.88
731.565	10705.88
731.906	10811.18
732.248	10803.5
732.589	10721.24
732.93	10673.11
733.271	10741.81
733.612	10817.29
733.953	10789.04
734.294	10696.61
734.635	10636.5
734.976	10760.79
735.317	10694.35
735.658	10752.88
735.999	10740.45
736.339	10644.18
736.68	10722.83
737.021	10707.01
737.361	10698.65
737.702	10731.41
738.042	10734.12
738.383	10678.31
738.723	10754.46
739.063	10692.54
739.404	10774.35
739.744	10725.54
740.084	10753.79
740.424	10776.16
740.764	10726.44
741.104	10879.21
741.444	10768.47
741.784	10780.45
742.124	10839.66
742.464	10851.64
742.804	10861.35
743.143	10820
743.483	10858.64
743.823	10880.34
744.162	10914.91
744.502	11071.52
744.841	10942.48
745.181	11057.96
745.52	10992.42
745.86	11051.63
746.199	11123.94
746.538	11183.15
746.877	11318.06
747.216	11362.58
747.556	11341.57
747.895	11401.9
748.234	11449.81
748.573	11459.53
748.911	11585.4
749.25	11585.63
749.589	11623.59
749.928	11746.75
750.267	11881.89
750.605	11888.44
750.944	11913.3
751.283	11995.33
751.621	12068.55
751.96	12247.98
752.298	12292.05
752.636	12377.92
752.975	12469.45
753.313	12493.63
753.651	12747.86
753.989	12807.52
754.327	12864.69
754.666	12945.37
755.004	13100.16
755.342	13237.11
755.679	13431.23
756.017	13419.03
756.355	13612.47
756.693	13753.25
757.031	13915.74
757.368	13958.22
757.706	14172.68
758.044	14258.33
758.381	14368.38
758.719	14532.67
759.056	14706.9
759.394	14789.61
759.731	14868.71
760.068	15025.54
760.405	15250.84
760.743	15301.91
761.08	15542.13
761.417	15562.7
761.754	15756.59
762.091	15965.4
762.428	16049.24
762.765	16166.98
763.102	16363.58
763.438	16422.56
763.775	16618.26
764.112	16752.5
764.449	16971.02
764.785	16930.35
765.122	16968.31
765.458	17143.67
765.795	17324.69
766.131	17408.3
766.467	17549.31
766.804	17649.87
767.14	17663.21
767.476	17914.73
767.812	17901.85
768.148	18093.03
768.485	18232.46
768.821	18133.93
769.157	18345.45
769.492	18423.87
769.828	18469.51
770.164	18573.69
770.5	18633.35
770.836	18716.51
771.171	18691.88
771.507	18886.23
771.842	18840.58
772.178	18970.29
772.513	19006.45
772.849	19068.59
773.184	19116.73
773.519	19182.72
773.855	19106.33
774.19	19162.83
774.525	19176.61
774.86	19315.14
775.195	19390.62
775.53	19337.06
775.865	19258.42
776.2	19250.06
776.535	19213.45
776.87	19258.19
777.205	19375.71
777.539	19361.02
777.874	19428.59
778.209	19248.25
778.543	19438.08
778.878	19264.97
779.212	19278.08
779.547	19283.73
779.881	19370.06
780.215	19313.79
780.55	19483.5
780.884	19333.45
781.218	19226.1
781.552	19366.44
781.886	19348.14
782.22	19181.13
782.554	19176.16
782.888	19166.22
783.222	19118.08
783.556	19144.52
783.889	19081.02
784.223	18968.94
784.557	18976.39
784.89	19093.68
785.224	18954.25
785.557	18797.87
785.891	18915.6
786.224	18853.91
786.558	18888.26
786.891	18729.85
787.224	18834.25
787.557	18652.79
787.891	18725.55
788.224	18757.64
788.557	18696.18
788.89	18641.94
789.223	18636.29
789.556	18563.07
789.888	18596.74
790.221	18364.21
790.554	18371.44
790.887	18352.68
791.219	18469.97
791.552	18222.06
791.884	18270.88
792.217	18214.83
792.549	18160.82
792.882	18079.24
793.214	17993.82
793.546	18053.48
793.879	17892.58
794.211	17918.34
794.543	17885.57
794.875	17855.97
795.207	17984.56
795.539	17841.28
795.871	17796.31
796.203	17718.12
796.535	17629.31
796.867	17654.17
797.198	17561.29
797.53	17578.01
797.862	17481.29
798.193	17511.57
798.525	17419.37
798.856	17393.84
799.188	17281.52
799.519	17259.15
799.85	17186.84
800.182	17096.67
800.513	17156.33
800.844	17005.15
801.175	17147.29
801.506	17013.06
801.837	16954.53
802.168	16921.31
802.499	16886.28
802.83	16797.02
803.161	16806.96
803.491	16756.57
803.822	16734.19
804.153	16589.34
804.483	16551.15
804.814	16553.63
805.145	16540.98
805.475	16533.07
805.805	16446.74
806.136	16429.79
806.466	16399.29
806.796	16319.97
807.126	16231.16
807.457	16212.17
807.787	16241.78
808.117	16136.24
808.447	16133.53
808.777	16049.01
809.107	16111.84
809.436	15988.45
809.766	15982.8
810.096	15975.12
810.426	15832.52
810.755	15879.07
811.085	15893.54
811.414	15794.78
811.744	15712.98
812.073	15693.09
812.403	15807.21
812.732	15670.27
813.061	15717.04
813.39	15588.01
813.719	15561.79
814.049	15599.99
814.378	15535.35
814.707	15499.87
815.036	15463.27
815.365	15400.44
815.693	15269.82
816.022	15343.72
816.351	15438.86
816.68	15167.68
817.008	15199.09
817.337	15137.62
817.665	15107.12
817.994	15104.18
818.322	15089.72
818.651	15020.11
818.979	14992.54
819.307	14946.9
819.636	14998.87
819.964	14866.45
820.292	14996.84
820.62	14946.67
820.948	14878.42
821.276	14865.32
821.604	14807.24
821.932	15017.18
822.259	14918.87
822.587	14828.03
822.915	14802.94
823.243	14871.42
823.57	14774.02
823.898	14926.78
824.225	14726.11
824.553	14833.45
824.88	14839.55
825.207	14894.24
825.535	14888.82
825.862	14936.05
826.189	14803.85
826.516	14850.4
826.843	14873.45
827.17	14908.7
827.497	14871.42
827.824	14787.35
828.151	14929.27
828.478	14849.95
828.805	14856.05
829.131	14846.78
829.458	14786.9
829.785	14764.53
830.111	14793
830.438	14868.03
830.764	14750.29
831.09	14863.06
831.417	14734.47
831.743	14861.47
832.069	14801.59
832.395	14756.84
832.722	14838.88
833.048	14668.03
833.374	14816.5
833.7	14659.67
834.026	14736.28
834.351	14725.66
834.677	14676.62
835.003	14679.78
835.329	14645.43
835.654	14583.97
835.98	14610.41
836.306	14577.64
836.631	14637.75
836.956	14629.62
837.282	14688.6
837.607	14476.85
837.932	14554.14
838.258	14564.76
838.583	14433.46
838.908	14348.27
839.233	14510.97
839.558	14381.94
839.883	14341.49
840.208	14328.61
840.533	14331.54
840.858	14343.97
841.182	14333.35
841.507	14230.3
841.832	14184.43
842.156	14217.2
842.481	14158.67
842.805	14099.23
843.13	14106.69
843.454	14073.92
843.778	14064.43
844.103	14016.3
844.427	14001.38
844.751	13981.72
845.075	13943.31
845.399	13907.15
845.723	13769.3
846.047	13738.79
846.371	13655.4
846.695	13684.78
847.019	13589.87
847.343	13572.92
847.666	13474.84
847.99	13363.21
848.313	13400.27
848.637	13313.72
848.96	13268.52
849.284	13212.93
849.607	13050
849.931	13112.37
850.254	13044.57
850.577	12968.64
850.9	12952.15
851.223	12925.03
851.546	12766.61
851.869	12725.26
852.192	12783.34
852.515	12683.9
852.838	12659.27
853.161	12683.45
853.483	12585.15
853.806	12547.18
854.129	12510.35
854.451	12556.9
854.774	12503.57
855.096	12406.85
855.419	12317.59
855.741	12349
856.063	12259.06
856.385	12179.06
856.708	12128.89
857.03	12143.35
857.352	12131.6
857.674	12018.84
857.996	12068.33
858.318	11935.9
858.64	11944.71
858.961	11914.43
859.283	11909.69
859.605	11810.48
859.926	11925.73
860.248	11808.22
860.57	11775.45
860.891	11849.35
861.212	11682.12
861.534	11723.03
861.855	11614.1
862.176	11622.46
862.498	11685.51
862.819	11602.12
863.14	11535.23
863.461	11525.97
863.782	11519.41
864.103	11528.45
864.424	11428.57
864.745	11567.1
865.065	11459.3
865.386	11337.27
865.707	11386.54
866.027	11377.27
866.348	11329.59
866.668	11425.41
866.989	11312.87
867.309	11231.29
867.63	11350.15
867.95	11237.39
868.27	11108.13
868.59	11236.03
868.91	11206.88
869.23	11099.99
869.55	11146.09
869.87	11151.74
870.19	11151.06
870.51	11211.63
870.83	11219.76
871.15	10996.94
871.469	11045.53
871.789	11135.92
872.109	11050.73
872.428	10974.34
872.748	11038.3
873.067	11017.96
873.386	10995.59
873.706	10941.8
874.025	10873.33
874.344	10842.6
874.663	10950.16
874.982	10788.59
875.301	10827.23
875.62	10722.83
875.939	10791.98
876.258	10788.13
876.577	10745.2
876.896	10788.59
877.214	10753.79
877.533	10752.88
877.852	10788.81
878.17	10714.46
878.489	10624.3
878.807	10667.23
879.125	10653.9
879.444	10655.03
879.762	10570.29
880.08	10602.15
880.398	10578.42
880.716	10605.31
881.034	10553.11
881.352	10566.9
881.67	10399.67
881.988	10457.97
882.306	10456.39
882.624	10393.12
882.941	10361.7
883.259	10316.06
883.577	10311.99
883.894	10328.71
884.212	10300.92
884.529	10266.57
884.846	10228.38
885.164	10184.31
885.481	10151.54
885.798	10197.87
886.115	10083.52
886.432	10121.49
886.75	10067.48
887.067	10083.29
887.383	10041.71
887.7	9949.96
888.017	10024.99
888.334	9986.57
888.651	9881.49
888.967	9881.27
889.284	9897.99
889.6	9864.09
889.917	9762.17
890.233	9774.15
890.55	9789.52
890.866	9796.97
891.182	9694.6
891.498	9689.63
891.815	9632.46
892.131	9611.67
892.447	9615.06
892.763	9588.84
893.079	9522.18
893.395	9565.79
893.71	9465.01
894.026	9425.68
894.342	9399.47
894.657	9383.43
894.973	9423.65
895.289	9332.35
895.604	9345.69
895.92	9298.91
896.235	9290.77
896.55	9235.41
896.865	9302.3
897.181	9142.98
897.496	9179.59
897.811	9149.31
898.126	9051.23
898.441	9010.55
898.756	8984.79
899.071	8971.01
899.386	8971.23
899.7	8791.58
900.015	8855.53
900.33	8778.7
900.644	8814.85
900.959	8800.16
901.273	8707.74
901.588	8732.82
901.902	8674.07
902.216	8598.59
902.531	8552.49
902.845	8534.18
903.159	8530.11
903.473	8528.31
903.787	8408.31
904.101	8386.39
904.415	8432.72
904.729	8401.53
905.042	8334.87
905.356	8297.8
905.67	8271.14
905.984	8217.58
906.297	8240.4
906.611	8186.85
906.924	8193.63
907.237	8125.15
907.551	8151.14
907.864	8017.36
908.177	8097.13
908.491	8028.66
908.804	8021.2
909.117	7929.68
909.43	7930.81
909.743	7889.91
910.056	7904.82
910.368	7834.77
910.681	7736.24
910.994	7788.89
911.307	7755.22
911.619	7646.97
911.932	7684.04
912.244	7611.95
912.557	7610.59
912.869	7507.99
913.181	7516.36
913.494	7526.53
913.806	7433.19
914.118	7392.52
914.43	7366.76
914.742	7358.62
915.054	7311.16
915.366	7286.76
915.678	7306.42
915.99	7289.24
916.302	7195.23
916.613	7167.66
916.925	7203.6
917.236	7104.84
917.548	7089.7
917.859	7121.11
918.171	7005.64
918.482	6993.21
918.794	7044.05
919.105	6992.53
919.416	6911.85
919.727	6864.85
920.038	6851.29
920.349	6811.74
920.66	6806.09
920.971	6838.86
921.282	6761.35
921.593	6708.24
921.903	6691.07
922.214	6705.53
922.525	6614.91
922.835	6569.26
923.146	6576.04
923.456	6556.83
923.767	6536.72
924.077	6541.92
924.387	6483.84
924.697	6407.91
925.008	6436.38
925.318	6326.56
925.628	6401.13
925.938	6330.85
926.248	6305.99
926.558	6261.47
926.867	6251.98
927.177	6208.14
927.487	6259.89
927.796	6138.09
928.106	6155.26
928.416	6105.09
928.725	6108.48
929.034	6125.88
929.344	6073.91
929.653	6060.8
929.962	5972.22
930.271	5959.56
930.581	5933.57
930.89	5934.7
931.199	5871.88
931.508	5816.97
931.817	5923.4
932.125	5841.37
932.434	5881.14
932.743	5762.05
933.051	5748.49
933.36	5727.48
933.669	5698.78
933.977	5664.88
934.286	5652.22
934.594	5704.88
934.902	5610.42
935.21	5599.8
935.519	5604.77
935.827	5513.7
936.135	5558.44
936.443	5481.38
936.751	5422.85
937.059	5496.52
937.367	5403.19
937.674	5433.7
937.982	5368.62
938.29	5402.97
938.597	5346.02
938.905	5340.37
939.213	5270.99
939.52	5273.7
939.827	5244.1
940.135	5247.04
940.442	5245.68
940.749	5208.62
941.056	5153.71
941.363	5136.08
941.67	5128.4
941.977	5126.36
942.284	5120.71
942.591	5015.18
942.898	5051.11
943.205	5014.27
943.511	4973.6
943.818	5007.5
944.125	4959.59
944.431	4962.75
944.738	4886.37
945.044	4915.07
945.35	4849.31
945.657	4824.68
945.963	4833.94
946.269	4760.72
946.575	4824
946.881	4741.74
947.187	4737.67
947.493	4693.61
947.799	4659.26
948.105	4618.58
948.41	4593.72
948.716	4627.17
949.022	4543.33
949.327	4576.09
949.633	4570.22
949.938	4534.51
950.244	4545.13
950.549	4506.04
950.854	4524.8
951.16	4499.49
951.465	4437.11
951.77	4421.52
952.075	4436.66
952.38	4406.16
952.685	4395.31
952.99	4383.78
953.294	4360.51
953.599	4338.13
953.904	4318.7
954.209	4242.09
954.513	4268.76
954.818	4232.6
955.122	4207.97
955.426	4226.95
955.731	4206.84
956.035	4175.88
956.339	4154.64
956.643	4134.52
956.948	4103.79
957.252	4070.57
957.556	4061.76
957.86	4054.75
958.163	4059.95
958.467	4008.43
958.771	4055.2
959.075	3969.56
959.378	3971.59
959.682	3976.56
959.985	3917.35
960.289	3911.71
960.592	3934.98
960.896	3893.85
961.199	3902.67
961.502	3798.71
961.805	3809.56
962.108	3802.78
962.411	3827.87
962.714	3774.53
963.017	3751.03
963.32	3744.7
963.623	3770.24
963.926	3764.59
964.228	3683.24
964.531	3716.46
964.833	3697.93
965.136	3633.07
965.438	3624.48
965.741	3613.63
966.043	3595.33
966.345	3592.84
966.648	3584.03
966.95	3551.94
967.252	3547.19
967.554	3563.47
967.856	3514.2
968.158	3469.23
968.46	3508.55
968.761	3456.35
969.063	3419.97
969.365	3432.17
969.666	3447.54
969.968	3425.62
970.269	3387.88
970.571	3354.66
970.872	3403.02
971.174	3344.71
971.475	3349.46
971.776	3310.82
972.077	3314.21
972.378	3322.34
972.679	3303.36
972.98	3264.26
973.281	3259.07
973.582	3259.29
973.883	3256.58
974.183	3220.2
974.484	3183.14
974.785	3203.48
975.085	3199.86
975.386	3167.09
975.686	3172.52
975.986	3133.19
976.287	3118.51
976.587	3103.59
976.887	3081.22
977.187	3072.41
977.487	3045.51
977.787	3071.5
978.087	3033.99
978.387	3027.89
978.687	3010.49
978.987	3014.33
979.286	2975.23
979.586	2980.2
979.885	2964.16
980.185	2946.76
980.484	2931.17
980.784	2932.97
981.083	2898.4
981.382	2891.62
981.682	2876.48
981.981	2884.39
982.28	2859.53
982.579	2842.35
982.878	2838.74
983.177	2814.33
983.475	2800.1
983.774	2796.03
984.073	2731.17
984.372	2733.88
984.67	2737.72
984.969	2744.96
985.267	2720.1
985.566	2671.96
985.864	2689.59
986.162	2705.18
986.461	2697.95
986.759	2671.29
987.057	2615.92
987.355	2613.89
987.653	2605.75
987.951	2596.49
988.249	2615.24
988.547	2595.81
988.844	2531.18
989.142	2542.25
989.44	2533.89
989.737	2528.92
990.035	2537.73
990.332	2507.45
990.63	2528.01
990.927	2489.37
991.224	2494.12
991.521	2481.69
991.819	2434.23
992.116	2446.88
992.413	2405.3
992.71	2414.12
993.006	2412.99
993.303	2417.06
993.6	2399.43
993.897	2393.78
994.193	2365.31
994.49	2370.28
994.787	2383.84
995.083	2316.49
995.379	2309.04
995.676	2312.65
995.972	2284.4
996.268	2286.66
996.565	2250.51
996.861	2257.51
997.157	2266.32
997.453	2234.24
997.749	2205.54
998.044	2177.06
998.34	2175.03
998.636	2215.93
998.932	2185.42
999.227	2166.67
999.523	2143.39
999.818	2165.08
1000.114	2113.33
1000.409	2089.83
1000.704	2082.15
1001	2094.35
1001.295	2111.75
1001.59	2126.22
1001.885	2062.26
1002.18	2090.74
1002.475	2058.42
1002.77	2052.32
1003.065	2016.16
1003.359	2034.24
1003.654	2008.7
1003.949	1994.24
1004.243	1998.31
1004.538	1963.73
1004.832	1925.99
1005.127	1936.39
1005.421	1926.67
1005.715	1914.92
1006.009	1909.95
1006.304	1921.93
1006.598	1900.68
1006.892	1862.04
1007.186	1887.35
1007.48	1843.74
1007.773	1848.93
1008.067	1866.11
1008.361	1828.37
1008.655	1836.28
1008.948	1812.1
1009.242	1792.66
1009.535	1802.61
1009.829	1819.1
1010.122	1771.65
1010.415	1773.46
1010.708	1744.08
1011.001	1771.2
1011.295	1738.88
1011.588	1747.92
1011.881	1733.91
1012.173	1717.86
1012.466	1686.68
1012.759	1698.88
1013.052	1672.67
1013.344	1654.36
1013.637	1660.46
1013.93	1651.65
1014.222	1615.95
1014.514	1636.74
1014.807	1646.68
1015.099	1591.54
1015.391	1589.51
1015.683	1569.39
1015.976	1549.73
1016.268	1583.18
1016.56	1544.31
1016.851	1530.3
1017.143	1540.47
1017.435	1540.92
1017.727	1521.26
1018.018	1491.43
1018.31	1497.31
1018.602	1494.59
1018.893	1476.97
1019.185	1462.96
1019.476	1460.02
1019.767	1451.66
1020.058	1449.17
1020.35	1395.61
1020.641	1423.86
1020.932	1417.31
1021.223	1371.43
1021.514	1395.39
1021.804	1381.6
1022.095	1384.99
1022.386	1353.58
1022.677	1389.51
1022.967	1331.89
1023.258	1349.29
1023.548	1311.1
1023.839	1335.5
1024.129	1321.72
1024.419	1301.6
1024.709	1271.77
1025	1281.94
1025.29	1276.07
1025.58	1283.3
1025.87	1265.45
1026.16	1255.28
1026.449	1250.53
1026.739	1230.19
1027.029	1227.93
1027.319	1229.74
1027.608	1198.1
1027.898	1194.26
1028.187	1177.54
1028.477	1198.78
1028.766	1197.65
1029.055	1178.22
1029.344	1182.74
1029.634	1145.22
1029.923	1182.74
1030.212	1117.43
1030.501	1129.63
1030.79	1132.34
1031.078	1117.88
1031.367	1095.73
1031.656	1111.33
1031.945	1108.16
1032.233	1116.75
1032.522	1100.25
1032.81	1071.1
1033.099	1077.2
1033.387	1079.69
1033.675	1050.54
1033.963	1077.2
1034.251	1086.02
1034.54	1047.15
1034.828	1029.97
1035.116	1041.27
1035.403	1010.99
1035.691	1029.52
1035.979	1021.61
1036.267	980.93
1036.554	1004.21
1036.842	992.46
1037.129	991.56
1037.417	1000.82
1037.704	941.16
1037.992	985.23
1038.279	955.4
1038.566	948.62
1038.853	948.62
1039.14	948.62
