Data from hue_00_FLMS001491_95.txt Node
Date: Mon Feb 06 15:30:41 GMT 2017
User: dcchb
Spectrometer: FLMS00149
Trigger mode: 0
Integration Time (sec): 2.000000E-2
Scans to average: 10
Electric dark correction enabled: true
Nonlinearity correction enabled: false
Boxcar width: 0
XAxis mode: Wavelengths
Number of Pixels in Spectrum: 2048
>>>>>Begin Spectral Data<<<<<
341.393	-5.79
341.776	-5.79
342.16	-5.79
342.543	-81.72
342.927	-31.55
343.31	-86.24
343.693	-74.04
344.077	-75.85
344.46	-57.54
344.843	-65.9
345.226	-63.42
345.61	-14.38
345.993	-2.63
346.376	17.26
346.759	22.01
347.142	19.29
347.525	41.67
347.908	56.58
348.291	77.37
348.674	79.86
349.057	125.96
349.44	123.92
349.823	126.64
350.206	164.83
350.588	163.24
350.971	189.01
351.354	221.55
351.737	237.82
352.119	251.38
352.502	246.86
352.884	285.5
353.267	283.92
353.65	294.54
354.032	295.44
354.414	312.84
354.797	290.47
355.179	314.43
355.562	318.95
355.944	329.57
356.326	327.08
356.709	352.39
357.091	333.41
357.473	333.86
357.855	324.14
358.238	331.15
358.62	331.83
359.002	314.2
359.384	355.78
359.766	337.93
360.148	317.82
360.53	322.79
360.912	325.95
361.294	335.67
361.676	356.69
362.057	329.34
362.439	338.61
362.821	329.12
363.203	322.34
363.584	339.51
363.966	303.58
364.348	317.14
364.729	317.36
365.111	307.42
365.493	313.07
365.874	311.49
366.256	318.04
366.637	330.02
367.019	317.59
367.4	285.73
367.781	326.18
368.163	319.4
368.544	312.84
368.925	325.95
369.306	323.47
369.688	326.63
370.069	335.44
370.45	310.81
370.831	313.52
371.212	306.97
371.593	296.35
371.974	311.04
372.355	319.4
372.736	333.41
373.117	324.14
373.498	323.92
373.879	321.43
374.26	300.64
374.641	318.49
375.021	314.88
375.402	345.16
375.783	310.36
376.163	329.34
376.544	323.69
376.925	334.99
377.305	325.73
377.686	327.76
378.066	305.84
378.447	320.08
378.827	329.12
379.208	316.46
379.588	316.46
379.968	320.08
380.349	335.22
380.729	314.43
381.109	322.34
381.489	334.09
381.87	332.28
382.25	330.25
382.63	333.64
383.01	318.27
383.39	346.06
383.77	358.27
384.15	322.79
384.53	345.39
384.91	352.84
385.29	335.67
385.67	328.21
386.049	326.86
386.429	339.28
386.809	338.38
387.189	372.05
387.568	344.26
387.948	349.45
388.328	378.83
388.707	357.36
389.087	344.71
389.466	335.9
389.846	348.78
390.225	351.49
390.605	352.84
390.984	365.27
391.363	343.13
391.743	337.25
392.122	364.59
392.501	370.7
392.881	365.05
393.26	377.02
393.639	375.89
394.018	352.17
394.397	363.24
394.776	375.22
395.155	360.98
395.534	354.88
395.913	365.72
396.292	371.37
396.671	373.41
397.05	390.13
397.429	360.53
397.808	374.76
398.186	392.84
398.565	365.72
398.944	379.51
399.323	385.84
399.701	377.25
400.08	372.28
400.458	393.52
400.837	397.81
401.215	404.37
401.594	394.42
401.972	396.23
402.351	395.33
402.729	408.89
403.107	403.46
403.486	402.11
403.864	402.56
404.242	367.53
404.62	409.57
404.999	406.85
405.377	394.2
405.755	411.83
406.133	410.92
406.511	411.83
406.889	397.14
407.267	422.45
407.645	413.86
408.023	415.22
408.401	428.1
408.779	420.86
409.156	408.44
409.534	432.62
409.912	407.31
410.29	424.71
410.667	439.85
411.045	438.94
411.422	451.15
411.8	434.88
412.178	429.9
412.555	448.21
412.933	445.95
413.31	437.36
413.687	447.53
414.065	478.72
414.442	483.69
414.819	471.48
415.197	473.97
415.574	457.25
415.951	468.1
416.328	468.32
416.705	500.18
417.082	477.13
417.46	471.48
417.837	478.72
418.214	471.48
418.591	485.04
418.967	498.6
419.344	494.99
419.721	496.12
420.098	481.43
420.475	504.03
420.852	488.43
421.228	492.05
421.605	517.81
421.982	518.72
422.358	514.65
422.735	517.81
423.111	531.14
423.488	531.82
423.864	550.8
424.241	517.81
424.617	523.23
424.994	562.78
425.37	532.95
425.746	543.35
426.123	550.8
426.499	553.06
426.875	535.66
427.251	572.73
427.627	575.89
428.003	581.09
428.379	577.7
428.756	593.97
429.132	587.64
429.507	586.06
429.883	583.8
430.259	594.42
430.635	607.07
431.011	595.32
431.387	589.22
431.763	622.44
432.138	616.11
432.514	609.11
432.89	631.48
433.265	620.41
433.641	624.48
434.016	654.3
434.392	656.11
434.767	647.07
435.143	660.86
435.518	676.45
435.894	651.14
436.269	661.54
436.644	677.13
437.02	700.63
437.395	683.23
437.77	699.05
438.145	686.85
438.52	708.77
438.895	695.89
439.271	699.5
439.646	695.43
440.021	728.2
440.395	721.87
440.77	723.68
441.145	723.23
441.52	751.93
441.895	726.39
442.27	736.11
442.645	748.54
443.019	750.35
443.394	756.45
443.769	779.73
444.143	762.55
444.518	767.75
444.892	774.98
445.267	765.49
445.641	792.38
446.016	787.18
446.39	778.14
446.764	788.54
447.139	821.76
447.513	800.06
447.887	766.39
448.262	784.47
448.636	811.14
449.01	802.1
449.384	803.23
449.758	840.06
450.132	839.38
450.506	851.36
450.88	818.82
451.254	824.92
451.628	826.73
452.002	829.89
452.376	870.57
452.75	873.73
453.123	858.59
453.497	867.18
453.871	907.86
454.244	888.2
454.618	897.69
454.992	908.31
455.365	923.68
455.739	919.16
456.112	939.27
456.486	919.16
456.859	946.73
457.232	946.5
457.606	936.33
457.979	959.16
458.352	961.64
458.725	1006.84
459.099	1006.61
459.472	962.77
459.845	997.8
460.218	989.21
460.591	1032.37
460.964	1028.31
461.337	1039.83
461.71	1078.25
462.083	1066.95
462.456	1051.13
462.829	1045.71
463.201	1059.94
463.574	1083.67
463.947	1104.01
464.32	1121.64
464.692	1133.61
465.065	1156.21
465.438	1174.29
465.81	1153.95
466.183	1161.41
466.555	1205.25
466.928	1224.01
467.3	1195.53
467.672	1216.1
468.045	1222.65
468.417	1245.02
468.789	1257.45
469.161	1268.98
469.534	1294.51
469.906	1303.78
470.278	1323.67
470.65	1315.76
471.022	1367.28
471.394	1375.19
471.766	1411.57
472.138	1437.34
472.51	1444.79
472.882	1471.01
473.253	1503.1
473.625	1494.06
473.997	1508.29
474.369	1555.52
474.74	1568.63
475.112	1560.27
475.484	1585.81
475.855	1608.63
476.227	1665.58
476.598	1673.49
476.97	1696.54
477.341	1743.09
477.713	1760.72
478.084	1778.34
478.455	1827.83
478.827	1837.78
479.198	1873.71
479.569	1897.89
479.94	1943.54
480.311	1950.77
480.682	1995.51
481.053	2030.99
481.424	2086.13
481.795	2078.67
482.166	2149.86
482.537	2185.34
482.908	2201.16
483.279	2223.76
483.65	2276.64
484.021	2317.54
484.391	2344.88
484.762	2380.59
485.133	2409.74
485.503	2433.69
485.874	2480.47
486.244	2484.99
486.615	2560.7
486.985	2590.53
487.356	2659.9
487.726	2650.86
488.097	2728.6
488.467	2782.16
488.837	2808.6
489.207	2821.03
489.578	2859.9
489.948	2889.5
490.318	2933.34
490.688	3001.36
491.058	2974.47
491.428	3065.54
491.798	3076.61
492.168	3131.08
492.538	3140.34
492.908	3190.96
493.278	3280.9
493.648	3291.07
494.017	3320.68
494.387	3326.78
494.757	3353.67
495.126	3406.32
495.496	3434.57
495.866	3399.54
496.235	3466.89
496.605	3511.18
496.974	3549.82
497.344	3547.34
497.713	3600.89
498.082	3611.74
498.452	3690.16
498.821	3687.22
499.19	3669.14
499.559	3726.77
499.928	3764.28
500.298	3812.19
500.667	3774.67
501.036	3833.66
501.405	3816.26
501.774	3844.28
502.143	3870.27
502.512	3867.33
502.88	3931.05
503.249	3958.17
503.618	3952.75
503.987	3971.73
504.356	3972.41
504.724	3978.96
505.093	4049.02
505.462	4079.98
505.83	4070.26
506.199	4087.21
506.567	4150.94
506.936	4199.3
507.304	4176.25
507.672	4244.94
508.041	4250.14
508.409	4205.4
508.777	4260.76
509.145	4275.9
509.514	4282.01
509.882	4277.94
510.25	4337.15
510.618	4375.56
510.986	4373.76
511.354	4448.56
511.722	4448.78
512.09	4496.24
512.458	4425.51
512.826	4493.98
513.193	4504.37
513.561	4504.83
513.929	4570.36
514.297	4548.44
514.664	4578.04
515.032	4565.61
515.4	4612.39
515.767	4587.53
516.135	4652.84
516.502	4647.42
516.869	4690.13
517.237	4734.88
517.604	4662.79
517.972	4724.48
518.339	4758.6
518.706	4799.51
519.073	4727.19
519.44	4749.56
519.808	4790.02
520.175	4827.98
520.542	4888.54
520.909	4914.76
521.276	4859.62
521.643	4909.11
522.009	4935.55
522.376	4985.04
522.743	4949.11
523.11	5005.83
523.477	5060.06
523.843	5106.84
524.21	5180.51
524.577	5175.32
524.943	5176.9
525.31	5206.95
525.676	5286.73
526.043	5270
526.409	5296.89
526.776	5329.44
527.142	5299.38
527.508	5316.56
527.874	5377.12
528.241	5439.04
528.607	5376.44
528.973	5439.49
529.339	5461.64
529.705	5507.51
530.071	5575.08
530.437	5564.01
530.803	5636.32
531.169	5621.41
531.535	5634.29
531.901	5720.61
532.267	5706.38
532.632	5748.63
532.998	5754.51
533.364	5804
533.73	5801.74
534.095	5884.68
534.461	5886.94
534.826	5857.78
535.192	5924.9
535.557	5932.36
535.923	5945.01
536.288	5971.45
536.653	5978.46
537.019	5970.1
537.384	6068.17
537.749	6020.27
538.114	6064.56
538.479	6078.79
538.845	6131.45
539.21	6034.05
539.575	6127.16
539.94	6159.24
540.305	6215.51
540.67	6176.19
541.034	6254.38
541.399	6238.56
541.764	6301.61
542.129	6347.49
542.494	6379.35
542.858	6372.8
543.223	6420.25
543.587	6383.42
543.952	6422.97
544.316	6482.63
544.681	6449.63
545.045	6519.91
545.41	6511.55
545.774	6576.41
546.138	6585.22
546.503	6586.8
546.867	6573.02
547.231	6666.8
547.595	6694.15
547.959	6700.7
548.324	6782.51
548.688	6733.69
549.052	6793.35
549.416	6828.83
549.779	6818.66
550.143	6798.55
550.507	6885.55
550.871	6891.88
551.235	6917.87
551.599	6917.42
551.962	6967.59
552.326	6985.66
552.689	7009.84
553.053	6959.68
553.417	6985.21
553.78	7121.93
554.143	7049.16
554.507	7106.56
554.87	7078.54
555.234	7211.87
555.597	7162.16
555.96	7192.89
556.323	7204.42
556.686	7266.11
557.05	7227.01
557.413	7265.66
557.776	7274.02
558.139	7335.26
558.502	7396.27
558.865	7377.07
559.228	7392.88
559.59	7462.71
559.953	7446.44
560.316	7453
560.679	7477.18
561.041	7501.58
561.404	7593.56
561.767	7633.33
562.129	7643.73
562.492	7664.74
562.854	7660.9
563.217	7677.17
563.579	7699.32
563.941	7777.51
564.304	7774.57
564.666	7871.06
565.028	7811.63
565.39	7811.18
565.753	7914.68
566.115	7903.83
566.477	7923.49
566.839	7945.19
567.201	8021.34
567.563	7989.03
567.925	8078.29
568.287	8079.42
568.648	8077.16
569.01	8233.54
569.372	8211.39
569.734	8137.5
570.095	8274.9
570.457	8311.5
570.819	8282.35
571.18	8335.23
571.542	8389.69
571.903	8376.81
572.265	8498.62
572.626	8524.15
572.987	8545.62
573.349	8576.58
573.71	8626.07
574.071	8617.71
574.432	8732.74
574.794	8786.97
575.155	8868.55
575.516	8882.11
575.877	8919.85
576.238	8952.39
576.599	9032.16
576.96	9104.7
577.32	9118.49
577.681	9228.99
578.042	9317.58
578.403	9434.64
578.763	9476.22
579.124	9506.5
579.485	9580.85
579.845	9718.25
580.206	9827.4
580.566	9877.57
580.927	10024.45
581.287	10089.99
581.648	10210.66
582.008	10358.46
582.368	10456.53
582.728	10557.55
583.089	10733.36
583.449	10819.46
583.809	10962.06
584.169	11099.23
584.529	11218.32
584.889	11463.74
585.249	11506.45
585.609	11667.35
585.969	11917.96
586.329	12110.73
586.688	12275.92
587.048	12463.03
587.408	12619.64
587.768	12799.07
588.127	12985.51
588.487	13203.13
588.846	13571.03
589.206	13689.22
589.565	13807.63
589.925	14085.59
590.284	14320.61
590.643	14544.56
591.003	14743.88
591.362	15177.54
591.721	15330.76
592.08	15474.25
592.44	15858.88
592.799	15984.3
593.158	16262.26
593.517	16522.81
593.876	16744.5
594.235	17076.25
594.593	17277.14
594.952	17616.8
595.311	17756
595.67	18026.05
596.029	18333.61
596.387	18651.35
596.746	18901.73
597.104	19110.54
597.463	19404.55
597.822	19725.44
598.18	19887.47
598.538	20077.97
598.897	20601.8
599.255	20663.04
599.613	21193.88
599.972	21314.78
600.33	21567.2
600.688	21767.65
601.046	22213.06
601.404	22490.79
601.762	22679.71
602.12	23033.15
602.478	23123.54
602.836	23420.03
603.194	23624.32
603.552	23923.07
603.91	24056.4
604.268	24307.24
604.625	24607.57
604.983	24897.51
605.341	24957.39
605.698	25301.34
606.056	25667.21
606.413	25687.54
606.771	26021.55
607.128	26267.42
607.485	26407.98
607.843	26606.16
608.2	27064.91
608.557	27310.78
608.914	27289.99
609.272	27641.62
609.629	27834.83
609.986	28061.04
610.343	28116.86
610.7	28605.89
611.057	28626.68
611.414	28834.58
611.771	28994.58
612.127	29253.55
612.484	29424.17
612.841	29564.51
613.198	29639.31
613.554	29809.02
613.911	30110.03
614.267	30244.94
614.624	30342.56
614.98	30617.13
615.337	30796.56
615.693	30909.78
616.05	30981.19
616.406	31161.07
616.762	31270.22
617.118	31432.48
617.475	31504.57
617.831	31724.9
618.187	31795.18
618.543	32026.36
618.899	32414.83
619.255	32296.64
619.611	32456.18
619.967	32697.98
620.323	32784.53
620.678	32695.72
621.034	32836.06
621.39	33000.57
621.746	33025.21
622.101	33488.47
622.457	33276.72
622.812	33397.17
623.168	33547.9
623.523	33681.91
623.879	33721.46
624.234	33679.43
624.589	33975.46
624.945	33937.95
625.3	34082.35
625.655	34105.85
626.01	34190.15
626.365	34207.77
626.72	34256.13
627.075	34364.6
627.43	34284.83
627.785	34454.09
628.14	34530.93
628.495	34530.7
628.85	34770.02
629.205	34408.67
629.559	34748.55
629.914	34676.46
630.269	34734.09
630.623	34667.65
630.978	34732.96
631.332	34850.47
631.687	34808.89
632.041	34899.05
632.396	34899.73
632.75	34808.66
633.104	34993.74
633.459	34750.58
633.813	34862.44
634.167	35014.53
634.521	35000.97
634.875	35153.51
635.229	34912.84
635.583	34776.57
635.937	34948.77
636.291	34861.99
636.645	35048.2
636.999	34889.79
637.352	35116
637.706	35023.34
638.06	34983.12
638.413	34984.93
638.767	34844.82
639.121	35001.88
639.474	34793.97
639.828	34812.05
640.181	34950.13
640.534	34934.99
640.888	34776.35
641.241	34673.52
641.594	34758.04
641.947	34944.7
642.301	34824.03
642.654	34804.14
643.007	34936.57
643.36	34788.1
643.713	34792.84
644.066	34991.48
644.419	34777.93
644.771	34487.99
645.124	34407.77
645.477	34227.89
645.83	33886.88
646.182	33876.26
646.535	33809.37
646.888	33860.66
647.24	33679.43
647.593	33932.07
647.945	33884.62
648.298	33616.38
648.65	33628.58
649.002	33527.34
649.355	33801.91
649.707	33564.17
650.059	33798.07
650.411	33996.03
650.763	34143.37
651.115	34540.87
651.467	34392.4
651.819	34370.03
652.171	34344.72
652.523	34230.37
652.875	34299.97
653.227	34087.78
653.578	34397.82
653.93	34279.41
654.282	34158.28
654.633	34114.44
654.985	34213.2
655.337	34145.85
655.688	34288.9
656.039	34398.5
656.391	33976.82
656.742	34157.6
657.094	34219.98
657.445	34276.47
657.796	34163.71
658.147	34235.34
658.498	34137.27
658.849	34206.87
659.2	34210.71
659.551	33980.43
659.902	34132.07
660.253	34008.91
660.604	34176.81
660.955	33963.26
661.306	34068.57
661.656	34095.23
662.007	34175.46
662.358	33972.98
662.708	34111.5
663.059	34049.58
663.409	33906.99
663.76	34154.21
664.11	34062.92
664.461	34072.64
664.811	34064.73
665.161	34092.3
665.511	34003.94
665.862	33987.89
666.212	33979.76
666.562	34060.43
666.912	33963.71
667.262	33949.47
667.612	33968.68
667.962	34083.93
668.312	33821.79
668.662	34017.5
669.011	33949.47
669.361	33892.3
669.711	33855.24
670.06	33686.2
670.41	33795.35
670.76	33729.14
671.109	33871.74
671.459	33834
671.808	33850.72
672.157	33887.78
672.507	33571.18
672.856	33603.72
673.205	33715.36
673.554	33865.41
673.904	33680.56
674.253	33811.17
674.602	33664.96
674.951	33312.2
675.3	32976.39
675.649	33631.29
675.998	33773.43
676.346	33640.33
676.695	33664.96
677.044	33488.47
677.393	33568.92
677.741	33767.11
678.09	33556.49
678.438	33446.89
678.787	33599.88
679.135	33546.55
679.484	33339.32
679.832	33482.82
680.181	33274.92
680.529	33193.11
680.877	33191.3
681.225	33121.93
681.573	33315.37
681.922	33097.97
682.27	33009.61
682.618	33060.91
682.966	32908.6
683.314	33029.05
683.661	32897.98
684.009	32807.36
684.357	32708.15
684.705	32609.62
685.053	32802.39
685.4	32690.3
685.748	32554.93
686.095	32458.89
686.443	32374.37
686.79	32418.67
687.138	32461.6
687.485	32365.34
687.832	32249.63
688.18	32300.48
688.527	32137.09
688.874	32216.41
689.221	31989.53
689.568	31962.86
689.915	31985.91
690.262	31982.52
690.609	31832.92
690.956	31691.91
691.303	31564.23
691.65	31568.97
691.997	31519.71
692.344	31411.69
692.69	31316.32
693.037	31166.5
693.383	31098.02
693.73	31264.8
694.077	31057.35
694.423	31071.58
694.769	30779.84
695.116	30784.81
695.462	30802.89
695.808	30664.82
696.155	30697.13
696.501	30488.1
696.847	30598.15
697.193	30363.35
697.539	30302.56
697.885	30122
698.231	30078.16
698.577	30098.95
698.923	30182.57
699.269	29926.08
699.614	29680.66
699.96	29773.54
700.306	29822.58
700.651	29642.02
700.997	29545.52
701.342	29586.65
701.688	29514.56
702.033	29372.19
702.379	29423.49
702.724	29241.8
703.069	29329.71
703.415	28993.9
703.76	28968.81
704.105	29027.34
704.45	28950.06
704.795	28965.88
705.14	28812.21
705.485	28799.1
705.83	28611.31
706.175	28595.27
706.52	28557.53
706.865	28383.29
707.209	28386.91
707.554	28325.22
707.899	28452.22
708.243	28291.09
708.588	28219.68
708.932	28101.49
709.277	27960.03
709.621	27943.53
709.966	27803.2
710.31	27894.27
710.654	27574.05
710.998	27638.91
711.342	27588.06
711.687	27615.18
712.031	27466.93
712.375	27272.81
712.719	27445.24
713.063	27231.91
713.407	27446.82
713.75	27306.49
714.094	27368.63
714.438	27017.91
714.782	27104.46
715.125	27018.58
715.469	27021.07
715.812	26934.52
716.156	26631.02
716.499	26820.62
716.843	26877.34
717.186	26783.56
717.53	26746.95
717.873	26681.64
718.216	26636.45
718.559	26503.12
718.902	26472.38
719.246	26471.71
719.589	26377.02
719.932	26253.63
720.275	26331.6
720.617	26230.81
720.96	26214.54
721.303	26179.28
721.646	26135.22
721.989	25999.4
722.331	26175.22
722.674	26034.88
723.016	25953.3
723.359	25986.29
723.701	26107.19
724.044	25910.59
724.386	25670.14
724.729	25762.8
725.071	25745.4
725.413	25768.9
725.755	25650.26
726.097	25657.04
726.439	25490.94
726.782	25524.16
727.124	25478.28
727.465	25413.65
727.807	25419.98
728.149	25306.76
728.491	25381.34
728.833	25389.7
729.175	25199.2
729.516	25082.36
729.858	25087.33
730.199	25215.24
730.541	25029.48
730.882	25065.19
731.224	25051.18
731.565	24950.16
731.906	24860.67
732.248	25001.46
732.589	24861.58
732.93	24735.48
733.271	24771.86
733.612	24776.61
733.953	24810.28
734.294	24573.45
734.635	24714.69
734.976	24687.8
735.317	24523.06
735.658	24480.57
735.999	24506.79
736.339	24383.17
736.68	24399.9
737.021	24379.33
737.361	24328.94
737.702	24465.2
738.042	24394.47
738.383	24231.76
738.723	24399.9
739.063	24253.68
739.404	24203.52
739.744	24165.78
740.084	24063.63
740.424	24206
740.764	24023.86
741.104	24172.56
741.444	24075.61
741.784	23901.38
742.124	24030.64
742.464	23970.53
742.804	23902.51
743.143	23838.55
743.483	23882.17
743.823	23693.25
744.162	23683.76
744.502	23671.33
744.841	23668.16
745.181	23780.02
745.52	23535.51
745.86	23622.51
746.199	23587.94
746.538	23549.52
746.877	23549.97
747.216	23590.42
747.556	23501.16
747.895	23448.73
748.234	23245.12
748.573	23312.01
748.911	23285.57
749.25	23358.11
749.589	23185.46
749.928	23233.15
750.267	23243.99
750.605	23011.01
750.944	23148.18
751.283	23035.41
751.621	23028.86
751.96	22893.27
752.298	22831.8
752.636	22893.95
752.975	22697.57
753.313	22752.03
753.651	22747.51
753.989	22602.43
754.327	22597.68
754.666	22524.92
755.004	22576.21
755.342	22545.48
755.679	22484.47
756.017	22340.06
756.355	22467.29
756.693	22306.39
757.031	22389.1
757.368	22200.63
757.706	22109.56
758.044	22173.96
758.381	22099.39
758.719	22009.68
759.056	22121.76
759.394	21978.72
759.731	21840.19
760.068	21842.45
760.405	21620.31
760.743	21746.63
761.08	21670.02
761.417	21608.33
761.754	21520.2
762.091	21498.95
762.428	21431.84
762.765	21231.84
763.102	21433.42
763.438	21233.65
763.775	21131.28
764.112	21124.95
764.449	21112.98
764.785	21013.32
765.122	20777.62
765.458	20772.87
765.795	20741.69
766.131	20772.87
766.467	20686.77
766.804	20639.99
767.14	20565.87
767.476	20502.6
767.812	20404.52
768.148	20381.92
768.485	20290.85
768.821	20188.25
769.157	20193.9
769.492	20111.42
769.828	20140.35
770.164	19869.84
770.5	19880.69
770.836	19797.3
771.171	19686.57
771.507	19717.76
771.842	19576.52
772.178	19585.56
772.513	19431.21
772.849	19399.57
773.184	19383.98
773.519	19368.39
773.855	19228.73
774.19	19216.75
774.525	19161.61
774.86	19104.89
775.195	18997.1
775.53	18971.79
775.865	18929.53
776.2	18705.81
776.535	18626.49
776.87	18586.71
777.205	18664
777.539	18479.6
777.874	18444.12
778.209	18278.02
778.543	18323.9
778.878	18178.36
779.212	18280.06
779.547	18046.84
779.881	18108.99
780.215	17964.58
780.55	17933.62
780.884	17840.07
781.218	17856.79
781.552	17813.4
781.886	17721.43
782.22	17634.42
782.554	17595.1
782.888	17431.49
783.222	17384.94
783.556	17217.49
783.889	17318.5
784.223	17073.76
784.557	17072.4
784.89	17177.49
785.224	16972.97
785.557	16953.76
785.891	16829.25
786.224	16866.53
786.558	16880.32
786.891	16709.7
787.224	16680.55
787.557	16578.18
787.891	16519.2
788.224	16445.75
788.557	16497.05
788.89	16510.84
789.223	16368.24
789.556	16280.33
789.888	16239.66
790.221	16194.24
790.554	16055.26
790.887	16073.56
791.219	16020.91
791.552	15942.49
791.884	15889.38
792.217	15888.93
792.549	15770.07
792.882	15648.71
793.214	15643.74
793.546	15615.72
793.879	15503.63
794.211	15448.49
794.543	15433.13
794.875	15358.55
795.207	15458.44
795.539	15416.4
795.871	15293.47
796.203	15180.93
796.535	15142.51
796.867	15095.06
797.198	15128.73
797.53	15044.66
797.862	14886.02
798.193	15000.14
798.525	14817.55
798.856	14803.99
799.188	14752.01
799.519	14753.6
799.85	14639.47
800.182	14705.46
800.513	14604.67
800.844	14483.09
801.175	14561.06
801.506	14541.62
801.837	14421.4
802.168	14390.67
802.499	14341.4
802.83	14258.69
803.161	14200.39
803.491	14224.34
803.822	14172.82
804.153	14182.31
804.483	13997.23
804.814	13945.25
805.145	13961.53
805.475	13886.05
805.805	13855.77
806.136	13854.41
806.466	13879.04
806.796	13777.58
807.126	13700.97
807.457	13638.14
807.787	13711.59
808.117	13587.52
808.447	13560.18
808.777	13617.58
809.107	13538.49
809.436	13508.88
809.766	13422.56
810.096	13418.94
810.426	13402.22
810.755	13341.2
811.085	13399.05
811.414	13362.45
811.744	13163.81
812.073	13128.55
812.403	13149.8
812.732	13090.81
813.061	13121.55
813.39	12993.19
813.719	13000.65
814.049	13089.01
814.378	12997.48
814.707	12933.08
815.036	12912.74
815.365	12854.44
815.693	12758.39
816.022	12821.89
816.351	12742.57
816.68	12635.01
817.008	12775.12
817.337	12573.99
817.665	12481.56
817.994	12574.22
818.322	12494.22
818.651	12494.67
818.979	12374.67
819.307	12535.12
819.636	12388.23
819.964	12420.32
820.292	12357.95
820.62	12380.55
820.948	12376.48
821.276	12326.54
821.604	12301.91
821.932	12305.52
822.259	12392.08
822.587	12375.58
822.915	12307.78
823.243	12348.69
823.57	12288.8
823.898	12326.09
824.225	12194.34
824.553	12241.12
824.88	12188.01
825.207	12274.34
825.535	12215.13
825.862	12361.79
826.189	12215.13
826.516	12314.56
826.843	12268.91
827.17	12262.81
827.497	12350.49
827.824	12253.32
828.151	12310.27
828.478	12242.7
828.805	12319.31
829.131	12175.58
829.458	12231.63
829.785	12245.64
830.111	12321.12
830.438	12243.83
830.764	12228.46
831.09	12228.69
831.417	12223.72
831.743	12154.57
832.069	12230.05
832.395	12178.75
832.722	12185.75
833.048	12205.64
833.374	12198.63
833.7	12101.01
834.026	12150.05
834.351	12160.44
834.677	12113.89
835.003	12096.26
835.329	12117.73
835.654	12003.16
835.98	12030.05
836.306	12038.64
836.631	11951.63
836.956	12017.4
837.282	12082.48
837.607	11925.19
837.932	11927
838.258	11962.48
838.583	11942.6
838.908	11817.4
839.233	11851.07
839.558	11766.33
839.883	11781.47
840.208	11694.69
840.533	11810.4
840.858	11770.85
841.182	11721.36
841.507	11717.52
841.832	11642.04
842.156	11691.08
842.481	11647.46
842.805	11569.5
843.13	11571.08
843.454	11595.71
843.778	11529.27
844.103	11491.76
844.427	11437.52
844.751	11477.52
845.075	11437.07
845.399	11331.54
845.723	11297.19
846.047	11328.83
846.371	11138.1
846.695	11270.75
847.019	11169.73
847.343	11153.24
847.666	11082.51
847.99	11003.41
848.313	11102.62
848.637	10899.91
848.96	10956.18
849.284	10892.45
849.607	10817.88
849.931	10771.1
850.254	10703.31
850.577	10701.95
850.9	10615.85
851.223	10553.25
851.546	10523.65
851.869	10456.08
852.192	10501.5
852.515	10490.88
852.838	10401.62
853.161	10358.91
853.483	10242.53
853.806	10314.62
854.129	10307.16
854.451	10192.59
854.774	10173.15
855.096	10144.9
855.419	10042.76
855.741	10062.65
856.063	10068.75
856.385	10009.31
856.708	10003.66
857.03	9892.03
857.352	9948.98
857.674	9934.51
857.996	9902.42
858.318	9797.34
858.64	9784.46
858.961	9732.03
859.283	9753.27
859.605	9716.21
859.926	9732.03
860.248	9641.19
860.57	9666.95
860.891	9623.11
861.212	9624.92
861.534	9547.63
861.855	9548.31
862.176	9546.95
862.498	9531.36
862.819	9470.34
863.14	9422.89
863.461	9467.86
863.782	9467.63
864.103	9436.22
864.424	9378.14
864.745	9409.55
865.065	9341.31
865.386	9359.16
865.707	9297.02
866.027	9356.67
866.348	9346.05
866.668	9263.12
866.989	9239.62
867.309	9247.3
867.63	9266.28
867.95	9215.66
868.27	9184.02
868.59	9268.09
868.91	9134.99
869.23	9234.42
869.55	9191.71
869.87	9148.54
870.19	9158.94
870.51	9129.11
870.83	9143.8
871.15	9005.27
871.469	9099.73
871.789	9099.28
872.109	9123.01
872.428	8987.87
872.748	9067.87
873.067	8991.94
873.386	9026.29
873.706	8945.84
874.025	8937.25
874.344	8913.52
874.663	8971.6
874.982	8892.51
875.301	8957.14
875.62	8855.9
875.939	8835.33
876.258	8824.49
876.577	8837.82
876.896	8850.47
877.214	8827.42
877.533	8813.64
877.852	8736.35
878.17	8771.38
878.489	8724.38
878.807	8741.32
879.125	8702.45
879.444	8647.32
879.762	8598.95
880.08	8643.93
880.398	8660.2
880.716	8659.74
881.034	8537.71
881.352	8585.4
881.67	8555.34
881.988	8565.74
882.306	8563.7
882.624	8535.45
882.941	8448.45
883.259	8449.35
883.577	8436.02
883.894	8388.34
884.212	8419.52
884.529	8397.38
884.846	8384.72
885.164	8378.17
885.481	8349.47
885.798	8343.37
886.115	8325.06
886.432	8251.39
886.75	8248.46
887.067	8237.38
887.383	8252.75
887.7	8136.14
888.017	8135.92
888.334	8215.69
888.651	8094.79
888.967	8152.19
889.284	8032.42
889.6	7998.07
889.917	8005.98
890.233	8068.12
890.55	7951.51
890.866	7963.72
891.182	8007.11
891.498	7963.49
891.815	7896.83
892.131	7909.71
892.447	7869.71
892.763	7848.24
893.079	7800.78
893.395	7805.98
893.71	7798.75
894.026	7799.2
894.342	7756.26
894.657	7731.63
894.973	7698.19
895.289	7690.28
895.604	7650.28
895.92	7612.09
896.235	7589.72
896.55	7603.5
896.865	7522.82
897.181	7539.77
897.496	7512.2
897.811	7410.74
898.126	7478.31
898.441	7441.47
898.756	7419.1
899.071	7327.58
899.386	7297.75
899.7	7228.6
900.015	7241.93
900.33	7202.61
900.644	7192.44
900.959	7235.37
901.273	7207.58
901.588	7152.67
901.902	7110.18
902.216	7109.5
902.531	7083.29
902.845	7076.28
903.159	7046.91
903.473	6938.43
903.787	6941.15
904.101	6919.9
904.415	6905.21
904.729	6867.25
905.042	6850.07
905.356	6840.36
905.67	6890.53
905.984	6815.5
906.297	6779.12
906.611	6715.61
906.924	6757.2
907.237	6722.85
907.551	6719
907.864	6665.45
908.177	6629.51
908.491	6596.07
908.804	6559.46
909.117	6545.9
909.43	6519.01
909.743	6500.7
910.056	6473.36
910.368	6418.67
910.681	6411.67
910.994	6391.33
911.307	6375.28
911.619	6296.64
911.932	6327.38
912.244	6215.74
912.557	6307.94
912.869	6263.65
913.181	6270.88
913.494	6225.46
913.806	6115.18
914.118	6164.22
914.43	6108.17
914.742	6055.97
915.054	6042.19
915.366	6031.11
915.678	5987.5
915.99	6000.38
916.302	5956.76
916.613	5953.37
916.925	5905.24
917.236	5910.44
917.548	5863.89
917.859	5864.11
918.171	5813.27
918.482	5811.23
918.794	5782.31
919.105	5780.72
919.416	5750.89
919.727	5709.31
920.038	5704.34
920.349	5706.38
920.66	5607.85
920.971	5572.37
921.282	5601.52
921.593	5588.19
921.903	5552.93
922.214	5502.09
922.525	5472.71
922.835	5461.41
923.146	5418.47
923.456	5436.55
923.767	5380.06
924.077	5399.04
924.387	5373.05
924.697	5340.06
925.008	5310.23
925.318	5290.12
925.628	5315.2
925.938	5287.63
926.248	5210.12
926.558	5225.94
926.867	5175.99
927.177	5150.01
927.487	5118.82
927.796	5095.09
928.106	5127.63
928.416	5085.37
928.725	5079.73
929.034	5026.85
929.344	5025.72
929.653	5017.58
929.962	4974.42
930.271	4940.52
930.581	4920.63
930.89	4866.4
931.199	4896.91
931.508	4872.5
931.817	4784.82
932.125	4850.8
932.434	4818.04
932.743	4800.86
933.051	4740.75
933.36	4794.76
933.669	4716.8
933.977	4711.83
934.286	4682.9
934.594	4709.57
934.902	4665.95
935.21	4645.39
935.519	4608.78
935.827	4599.29
936.135	4575.33
936.443	4525.39
936.751	4478.61
937.059	4543.02
937.367	4454.43
937.674	4503.02
937.982	4425.05
938.29	4469.8
938.597	4437.71
938.905	4406.75
939.213	4402.91
939.52	4369.01
939.827	4391.61
940.135	4313.87
940.442	4310.03
940.749	4240.43
941.056	4276.81
941.363	4229.58
941.67	4269.58
941.977	4229.58
942.284	4170.82
942.591	4207.21
942.898	4155.91
943.205	4164.72
943.511	4143.7
943.818	4162.01
944.125	4127.89
944.431	4079.53
944.738	4055.12
945.044	4064.61
945.35	4029.13
945.657	4013.31
945.963	3966.99
946.269	3966.53
946.575	3970.83
946.881	3915.46
947.187	3882.69
947.493	3928.34
947.799	3923.6
948.105	3871.17
948.41	3786.88
948.716	3875.46
949.022	3831.4
949.327	3833.66
949.633	3782.13
949.938	3800.89
950.244	3742.13
950.549	3744.85
950.854	3726.31
951.16	3734.22
951.465	3691.97
951.77	3687.22
952.075	3674.79
952.38	3649.48
952.685	3619.42
952.99	3600.22
953.294	3565.19
953.599	3577.39
953.904	3538.3
954.209	3556.15
954.513	3561.12
954.818	3525.19
955.122	3525.42
955.426	3459.65
955.731	3512.31
956.035	3485.42
956.339	3476.38
956.643	3487.22
956.948	3422.59
957.252	3418.53
957.556	3435.47
957.86	3379.66
958.163	3380.79
958.467	3381.01
958.771	3357.96
959.075	3372.65
959.378	3265.08
959.682	3339.66
959.985	3298.3
960.289	3288.13
960.592	3242.94
960.896	3256.04
961.199	3205.42
961.502	3234.35
961.805	3200.9
962.108	3171.3
962.411	3172.2
962.714	3160.45
963.017	3142.6
963.32	3164.07
963.623	3170.62
963.926	3074.35
964.228	3112.09
964.531	3072.55
964.833	3097.63
965.136	3063.73
965.438	3042.72
965.741	3040.91
966.043	2998.2
966.345	2989.61
966.648	2987.35
966.95	2993.9
967.252	2966.33
967.554	2933.11
967.856	2946.45
968.158	2907.13
968.46	2913.91
968.761	2901.93
969.063	2903.74
969.365	2868.03
969.666	2881.14
969.968	2867.35
970.269	2823.29
970.571	2833
970.872	2875.04
971.174	2800.46
971.475	2814.25
971.776	2806.34
972.077	2790.07
972.378	2715.72
972.679	2724.98
972.98	2735.15
973.281	2745.1
973.582	2716.62
973.883	2703.97
974.183	2697.41
974.484	2716.85
974.785	2652.67
975.085	2662.39
975.386	2625.78
975.686	2645.21
975.986	2637.53
976.287	2608.38
976.587	2585.55
976.887	2579.9
977.187	2600.47
977.487	2566.8
977.787	2557.53
978.087	2531.32
978.387	2553.69
978.687	2550.07
978.987	2503.07
979.286	2517.53
979.586	2477.99
979.885	2456.97
980.185	2446.8
980.484	2449.74
980.784	2434.15
981.083	2437.31
981.382	2426.46
981.682	2444.54
981.981	2406.12
982.28	2379.46
982.579	2367.48
982.878	2372.23
983.177	2375.16
983.475	2368.16
983.774	2338.78
984.073	2331.1
984.372	2327.93
984.67	2303.75
984.969	2293.81
985.267	2310.76
985.566	2285.45
985.864	2273.02
986.162	2276.41
986.461	2258.1
986.759	2252.91
987.057	2234.38
987.355	2219.01
987.653	2207.03
987.951	2200.93
988.249	2204.77
988.547	2194.38
988.844	2169.07
989.142	2158.45
989.44	2165.9
989.737	2128.62
990.035	2154.83
990.332	2154.6
990.63	2111.44
990.927	2094.04
991.224	2096.98
991.521	2101.95
991.819	2089.07
992.116	2096.98
992.413	2076.87
992.71	2037.55
993.006	2037.32
993.303	2041.39
993.6	1979.69
993.897	2035.06
994.193	2016.08
994.49	2014.04
994.787	2009.3
995.083	1945.8
995.379	1970.43
995.676	1967.26
995.972	1962.97
996.268	1960.03
996.565	1926.81
996.861	1909.64
997.157	1944.44
997.453	1889.98
997.749	1884.55
998.044	1899.24
998.34	1853.6
998.636	1869.41
998.932	1863.76
999.227	1828.29
999.523	1843.65
999.818	1812.69
1000.114	1810.21
1000.409	1825.12
1000.704	1796.2
1001	1795.29
1001.295	1784.9
1001.59	1743.54
1001.885	1789.19
1002.18	1726.59
1002.475	1733.82
1002.77	1759.13
1003.065	1713.71
1003.359	1736.08
1003.654	1755.74
1003.949	1714.16
1004.243	1692.02
1004.538	1703.99
1004.832	1688.4
1005.127	1687.95
1005.421	1658.57
1005.715	1654.73
1006.009	1635.3
1006.304	1635.75
1006.598	1648.85
1006.892	1623.54
1007.186	1591.68
1007.48	1616.31
1007.773	1581.96
1008.067	1584.45
1008.361	1568.18
1008.655	1591.91
1008.948	1580.38
1009.242	1577.67
1009.535	1563.21
1009.829	1526.82
1010.122	1530.21
1010.415	1508.29
1010.708	1512.59
1011.001	1487.28
1011.295	1484.34
1011.588	1488.41
1011.881	1449.31
1012.173	1486.37
1012.466	1452.48
1012.759	1466.94
1013.052	1426.94
1013.344	1453.61
1013.637	1437.56
1013.93	1423.78
1014.222	1397.11
1014.514	1416.09
1014.807	1396.43
1015.099	1375.87
1015.391	1381.29
1015.683	1392.14
1015.976	1343.55
1016.268	1354.4
1016.56	1358.24
1016.851	1367.96
1017.143	1323.21
1017.435	1340.61
1017.727	1348.75
1018.018	1335.42
1018.31	1291.35
1018.602	1297
1018.893	1279.37
1019.185	1258.81
1019.476	1277.57
1019.767	1265.36
1020.058	1268.75
1020.35	1248.41
1020.641	1232.59
1020.932	1246.38
1021.223	1236.44
1021.514	1220.84
1021.804	1197.79
1022.095	1190.34
1022.386	1176.78
1022.677	1182.65
1022.967	1197.34
1023.258	1162.54
1023.548	1171.58
1023.839	1186.95
1024.129	1152.37
1024.419	1135.42
1024.709	1155.31
1025	1131.13
1025.29	1113.28
1025.58	1136.78
1025.87	1124.12
1026.16	1111.92
1026.449	1099.72
1026.739	1082.32
1027.029	1091.81
1027.319	1070.11
1027.608	1075.08
1027.898	1058.59
1028.187	1035.76
1028.477	1036.44
1028.766	1055.2
1029.055	1025.82
1029.344	1040.28
1029.634	1005.03
1029.923	1018.14
1030.212	1018.82
1030.501	1005.48
1030.79	972.71
1031.078	1018.36
1031.367	990.79
1031.656	998.02
1031.945	958.7
1032.233	978.36
1032.522	958.25
1032.81	972.71
1033.099	951.25
1033.387	947.18
1033.675	933.62
1033.963	946.5
1034.251	941.75
1034.54	885.94
1034.828	925.48
1035.116	918.7
1035.403	902.21
1035.691	898.82
1035.979	907.63
1036.267	876.45
1036.554	874.86
1036.842	866.95
1037.129	866.28
1037.417	880.97
1037.704	836.45
1037.992	857.92
1038.279	850.68
1038.566	851.81
1038.853	851.81
1039.14	851.81
