Data from hue_160_FLMS001491_00074.txt Node
Date: Tue Feb 07 16:51:40 GMT 2017
User: dcchb
Spectrometer: FLMS00149
Trigger mode: 0
Integration Time (sec): 2.000000E-2
Scans to average: 10
Electric dark correction enabled: true
Nonlinearity correction enabled: false
Boxcar width: 0
XAxis mode: Wavelengths
Number of Pixels in Spectrum: 2048
>>>>>Begin Spectral Data<<<<<
341.393	4.03
341.776	4.03
342.16	4.03
342.543	-37.1
342.927	-58.8
343.31	-71.9
343.693	-68.52
344.077	-65.35
344.46	-64
344.843	-59.7
345.226	-44.33
345.61	-44.11
345.993	-0.95
346.376	-14.28
346.759	5.38
347.142	47.19
347.525	36.57
347.908	54.65
348.291	83.12
348.674	96.9
349.057	109.33
349.44	134.42
349.823	127.41
350.206	179.84
350.588	187.52
350.971	199.27
351.354	218.93
351.737	235.21
352.119	258.71
352.502	273.62
352.884	267.3
353.267	285.37
353.65	298.93
354.032	298.71
354.414	294.64
354.797	320.18
355.179	319.27
355.562	338.71
355.944	344.13
356.326	339.38
356.709	346.39
357.091	343.68
357.473	301.87
357.855	345.03
358.238	355.88
358.62	328.08
359.002	356.33
359.384	347.52
359.766	351.81
360.148	357.69
360.53	341.87
360.912	342.55
361.294	320.4
361.676	340.74
362.057	341.64
362.439	334.64
362.821	335.99
363.203	332.6
363.584	334.19
363.966	337.35
364.348	316.33
364.729	328.31
365.111	328.08
365.493	319.5
365.874	316.79
366.256	314.53
366.637	319.95
367.019	298.71
367.4	323.11
367.781	316.11
368.163	300.74
368.544	330.34
368.925	324.24
369.306	309.33
369.688	314.3
370.069	311.59
370.45	300.06
370.831	306.16
371.212	342.32
371.593	323.56
371.974	325.82
372.355	323.56
372.736	312.72
373.117	328.99
373.498	336.45
373.879	328.54
374.26	343.23
374.641	316.79
375.021	322.21
375.402	324.92
375.783	329.89
376.163	330.12
376.544	328.31
376.925	334.41
377.305	337.58
377.686	326.28
378.066	316.11
378.447	335.77
378.827	314.3
379.208	346.62
379.588	328.54
379.968	334.41
380.349	313.4
380.729	315.66
381.109	333.96
381.489	347.52
381.87	335.09
382.25	341.19
382.63	325.15
383.01	340.97
383.39	343.9
383.77	368.08
384.15	368.76
384.53	348.2
384.91	367.18
385.29	362.89
385.67	346.84
386.049	365.82
386.429	333.73
386.809	354.3
387.189	364.92
387.568	336.45
387.948	337.12
388.328	345.49
388.707	358.14
389.087	355.43
389.466	385.03
389.846	363.56
390.225	366.95
390.605	373.73
390.984	383.9
391.363	371.47
391.743	397.24
392.122	369.21
392.501	374.86
392.881	369.44
393.26	382.32
393.639	380.96
394.018	352.04
394.397	377.8
394.776	377.57
395.155	390.23
395.534	393.62
395.913	376.44
396.292	372.38
396.671	393.62
397.05	379.16
397.429	392.94
397.808	400.63
398.186	408.99
398.565	394.3
398.944	391.36
399.323	388.65
399.701	377.8
400.08	388.2
400.458	406.5
400.837	412.38
401.215	431.36
401.594	408.53
401.972	395.2
402.351	411.47
402.729	413.05
403.107	407.86
403.486	428.19
403.864	431.58
404.242	434.07
404.62	406.5
404.999	435.65
405.377	435.65
405.755	421.87
406.133	409.21
406.511	433.84
406.889	449.66
407.267	432.71
407.645	442.88
408.023	445.37
408.401	455.54
408.779	445.37
409.156	452.6
409.534	454.86
409.912	454.41
410.29	463.22
410.667	458.7
411.045	480.4
411.422	482.2
411.8	478.14
412.178	475.43
412.555	465.93
412.933	482.2
413.31	481.3
413.687	499.61
414.065	511.13
414.442	492.37
414.819	514.75
415.197	474.75
415.574	490.34
415.951	508.87
416.328	521.3
416.705	490.57
417.082	504.58
417.46	513.84
417.837	529.89
418.214	526.05
418.591	528.08
418.967	515.88
419.344	528.08
419.721	543.67
420.098	515.65
420.475	534.18
420.852	543.22
421.228	546.84
421.605	554.07
421.982	550.23
422.358	560.39
422.735	584.58
423.111	587.74
423.488	595.87
423.864	569.66
424.241	571.69
424.617	576.21
424.994	595.42
425.37	607.63
425.746	578.7
426.123	614.63
426.499	589.55
426.875	603.56
427.251	623.67
427.627	659.6
428.003	645.14
428.379	602.65
428.756	626.61
429.132	635.87
429.507	650.79
429.883	652.6
430.259	650.56
430.635	667.51
431.011	667.74
431.387	690.11
431.763	691.69
432.138	668.87
432.514	713.39
432.89	691.24
433.265	708.64
433.641	711.58
434.016	743.21
434.392	727.85
434.767	713.16
435.143	741.63
435.518	775.08
435.894	737.57
436.269	746.15
436.644	768.98
437.02	761.97
437.395	765.36
437.77	791.58
438.145	795.64
438.52	803.78
438.895	803.55
439.271	815.08
439.646	827.28
440.021	844.46
440.395	849.88
440.77	838.13
441.145	851.46
441.52	869.54
441.895	847.84
442.27	853.72
442.645	871.12
443.019	865.25
443.394	891.91
443.769	873.83
444.143	877.22
444.518	890.78
444.892	901.85
445.267	899.37
445.641	902.31
446.016	926.49
446.39	914.51
446.764	919.71
447.139	927.16
447.513	935.53
447.887	947.28
448.262	952.02
448.636	984.79
449.01	956.77
449.384	960.61
449.758	1008.52
450.132	990.44
450.506	990.21
450.88	1030.66
451.254	995.41
451.628	1022.98
452.002	1043.09
452.376	1037.9
452.75	1036.09
453.123	1037.67
453.497	1055.3
453.871	1096.65
454.244	1125.58
454.618	1087.16
454.992	1112.02
455.365	1137.33
455.739	1131
456.112	1161.51
456.486	1171.9
456.859	1172.36
457.232	1200.83
457.606	1189.53
457.979	1225.91
458.352	1217.78
458.725	1244.9
459.099	1261.39
459.472	1289.87
459.845	1292.8
460.218	1334.84
460.591	1307.95
460.964	1333.26
461.337	1368.06
461.71	1379.58
462.083	1394.72
462.456	1385.91
462.829	1406.7
463.201	1433.59
463.574	1451.22
463.947	1465.68
464.32	1493.03
464.692	1511.56
465.065	1536.87
465.438	1538.45
465.81	1556.98
466.183	1618.67
466.555	1658.9
466.928	1621.38
467.3	1662.96
467.672	1676.52
468.045	1768.95
468.417	1760.14
468.789	1753.58
469.161	1800.36
469.534	1827.03
469.906	1859.57
470.278	1877.42
470.65	1912.9
471.022	1973.69
471.394	1979.57
471.766	2034.03
472.138	2089.62
472.51	2126.23
472.882	2158.77
473.253	2212.1
473.625	2270.41
473.997	2296.17
474.369	2336.17
474.74	2372.55
475.112	2403.28
475.484	2460.91
475.855	2563.51
476.227	2575.94
476.598	2679.21
476.97	2743.16
477.341	2810.51
477.713	2872.65
478.084	2935.25
478.455	2995.81
478.827	3045.75
479.198	3207.78
479.569	3216.14
479.94	3324.62
480.311	3381.79
480.682	3476.7
481.053	3600.77
481.424	3701.56
481.795	3739.07
482.166	3896.35
482.537	3959.4
482.908	4055.44
483.279	4119.17
483.65	4255.66
484.021	4373.85
484.391	4504.7
484.762	4516.9
485.133	4706.05
485.503	4760.06
485.874	4932.71
486.244	4981.97
486.615	5183.1
486.985	5261.29
487.356	5399.14
487.726	5489.76
488.097	5671.67
488.467	5718.23
488.837	5904.21
489.207	6056.3
489.578	6152.34
489.948	6247.25
490.318	6428.26
490.688	6467.36
491.058	6629.39
491.428	6788.03
491.798	6983.5
492.168	7121.35
492.538	7193.44
492.908	7341.23
493.278	7481.34
493.648	7584.39
494.017	7742.13
494.387	7803.37
494.757	7978.96
495.126	8037.71
495.496	8165.17
495.866	8308.21
496.235	8374.43
496.605	8512.73
496.974	8632.5
497.344	8680.86
497.713	8847.41
498.082	8904.13
498.452	9075.88
498.821	9138.25
499.19	9222.54
499.559	9399.48
499.928	9402.2
500.298	9471.12
500.667	9580.72
501.036	9692.58
501.405	9802.41
501.774	9832.92
502.143	9980.26
502.512	10106.13
502.88	10101.84
503.249	10176.87
503.618	10214.15
503.987	10318.1
504.356	10359.91
504.724	10504.54
505.093	10525.1
505.462	10545.22
505.83	10651.2
506.199	10684.87
506.567	10861.14
506.936	10851.42
507.304	10961.25
507.672	11070.85
508.041	11101.59
508.409	11125.09
508.777	11314.01
509.145	11376.16
509.514	11306.78
509.882	11476.72
510.25	11437.62
510.618	11594.68
510.986	11543.61
511.354	11648.46
511.722	11722.14
512.09	11779.76
512.458	11797.61
512.826	11850.72
513.193	11969.81
513.561	11894.79
513.929	12009.36
514.297	12000.77
514.664	12118.51
515.032	12134.78
515.4	12162.12
515.767	12281.67
516.135	12257.04
516.502	12250.71
516.869	12334.55
517.237	12412.51
517.604	12346.3
517.972	12507.65
518.339	12438.95
518.706	12446.64
519.073	12407.32
519.44	12568.89
519.808	12616.12
520.175	12605.95
520.542	12662.68
520.909	12749.68
521.276	12707.65
521.643	12734.54
522.009	12819.51
522.376	12867.19
522.743	12817.25
523.11	12929.56
523.477	13014.76
523.843	12986.28
524.21	13122.55
524.577	13085.72
524.943	13164.36
525.31	13243.9
525.676	13257.69
526.043	13238.93
526.409	13264.47
526.776	13325.26
527.142	13294.07
527.508	13366.16
527.874	13395.31
528.241	13295.65
528.607	13283.45
528.973	13424.92
529.339	13419.27
529.705	13374.97
530.071	13442.99
530.437	13424.69
530.803	13478.93
531.169	13508.08
531.535	13392.83
531.901	13395.76
532.267	13490.22
532.632	13396.22
532.998	13427.4
533.364	13406.38
533.73	13410.45
534.095	13459.94
534.461	13330
534.826	13373.84
535.192	13318.03
535.557	13441.41
535.923	13345.14
536.288	13325.48
536.653	13342.43
537.019	13238.71
537.384	13217.01
537.749	13303.34
538.114	13240.74
538.479	13220.4
538.845	13239.84
539.21	13199.16
539.575	13115.77
539.94	13093.4
540.305	13174.07
540.67	13052.95
541.034	13020.63
541.399	12962.1
541.764	12999.62
542.129	12914.87
542.494	12808.21
542.858	12905.83
543.223	12844.37
543.587	12828.32
543.952	12800.3
544.316	12790.36
544.681	12718.27
545.045	12661.55
545.41	12723.24
545.774	12629.46
546.138	12580.19
546.503	12617.25
546.867	12551.72
547.231	12586.75
547.595	12541.77
547.959	12530.25
548.324	12469.01
548.688	12375.68
549.052	12375.23
549.416	12373.87
549.779	12234.66
550.143	12326.41
550.507	12300.88
550.871	12272.4
551.235	12242.8
551.599	12322.12
551.962	12135.01
552.326	12179.3
552.689	12229.92
553.053	12032.64
553.417	12075.8
553.78	12149.92
554.143	12058.85
554.507	12091.17
554.87	11997.38
555.234	12078.51
555.597	12043.48
555.96	11930.27
556.323	11926.65
556.686	11908.57
557.05	11991.05
557.413	11932.53
557.776	11907.44
558.139	12002.81
558.502	11941.56
558.865	12039.64
559.228	11927.33
559.59	11845.97
559.953	11890.72
560.316	11999.87
560.679	11941.79
561.041	12009.36
561.404	11927.78
561.767	12015.46
562.129	11883.49
562.492	11951.73
562.854	11926.2
563.217	12008.91
563.579	11957.38
563.941	11893.66
564.304	11962.58
564.666	11974.11
565.028	11941.11
565.39	11962.13
565.753	12016.14
566.115	11990.15
566.477	12059.3
566.839	11981.34
567.201	12068.34
567.563	11932.53
567.925	12093.42
568.287	12058.62
568.648	12032.64
569.01	12119.64
569.372	12129.58
569.734	12038.51
570.095	12127.77
570.457	12168.23
570.819	12178.39
571.18	12257.49
571.542	12195.57
571.903	12175.91
572.265	12191.5
572.626	12301.1
572.987	12223.82
573.349	12334.55
573.71	12210.26
574.071	12200.09
574.432	12267.21
574.794	12287.09
575.155	12359.41
575.516	12185.17
575.877	12292.06
576.238	12310.82
576.599	12350.59
576.96	12248.22
577.32	12316.92
577.681	12335.9
578.042	12405.51
578.403	12293.19
578.763	12297.71
579.124	12366.19
579.485	12361.89
579.845	12352.4
580.206	12325.06
580.566	12319.86
580.927	12302.91
581.287	12369.58
581.648	12240.09
582.008	12331.16
582.368	12335.45
582.728	12275.34
583.089	12285.06
583.449	12356.47
583.809	12304.72
584.169	12297.71
584.529	12315.11
584.889	12378.84
585.249	12199.18
585.609	12172.07
585.969	12261.33
586.329	12272.4
586.688	12259.3
587.048	12205.74
587.408	12189.92
587.768	12239.18
588.127	12115.8
588.487	12233.76
588.846	12205.51
589.206	12077.61
589.565	12130.94
589.925	12149.92
590.284	12198.28
590.643	12153.76
591.003	12150.6
591.362	12251.61
591.721	12202.12
592.08	12086.42
592.44	12084.39
592.799	12115.35
593.158	12161.9
593.517	12131.39
593.876	12179.07
594.235	12112.18
594.593	12164.61
594.952	12171.39
595.311	12012.98
595.67	12078.96
596.029	12127.1
596.387	12057.95
596.746	12171.61
597.104	12064.95
597.463	12056.36
597.822	12040.32
598.18	11935.01
598.538	11996.7
598.897	12006.2
599.255	11907.89
599.613	12113.54
599.972	12036.7
600.33	12051.62
600.688	11949.93
601.046	12048
601.404	12090.49
601.762	12080.09
602.12	12088.23
602.478	12122.8
602.836	12036.25
603.194	11985.86
603.552	12020.21
603.91	11995.57
604.268	12026.99
604.625	12033.54
604.983	12039.19
605.341	12025.63
605.698	11994.9
606.056	12062.69
606.413	12069.7
606.771	12001.22
607.128	12044.84
607.485	12084.39
607.843	12033.77
608.2	12070.15
608.557	12069.24
608.914	12004.61
609.272	12152.41
609.629	12090.49
609.986	12175.46
610.343	12038.74
610.7	12196.7
611.057	12125.51
611.414	12133.42
611.771	12155.12
612.127	12155.12
612.484	12151.73
612.841	12189.24
613.198	12107.21
613.554	12141.33
613.911	12246.87
614.267	12197.38
614.624	12261.33
614.98	12206.87
615.337	12303.59
615.693	12296.13
616.05	12267.66
616.406	12354.21
616.762	12231.27
617.118	12231.95
617.475	12287.54
617.831	12385.62
618.187	12346.07
618.543	12223.82
618.899	12356.47
619.255	12391.72
619.611	12334.55
619.967	12403.02
620.323	12423.36
620.678	12325.74
621.034	12268.56
621.39	12362.12
621.746	12270.6
622.101	12470.82
622.457	12320.76
622.812	12390.82
623.168	12338.16
623.523	12501.32
623.879	12381.33
624.234	12379.29
624.589	12407.99
624.945	12325.06
625.3	12388.56
625.655	12450.03
626.01	12349.24
626.365	12369.35
626.72	12308.56
627.075	12331.38
627.43	12366.64
627.785	12286.64
628.14	12401.44
628.495	12428.33
628.85	12329.8
629.205	12351.5
629.559	12331.38
629.914	12258.84
630.269	12282.8
630.623	12244.16
630.978	12282.8
631.332	12303.14
631.687	12359.86
632.041	12233.31
632.396	12275.57
632.75	12248.9
633.104	12212.29
633.459	12170.03
633.813	12129.13
634.167	12151.73
634.521	12142.01
634.875	12126.87
635.229	12179.98
635.583	12050.94
635.937	12101.79
636.291	12029.25
636.645	12143.14
636.999	12103.37
637.352	12105.18
637.706	11982.02
638.06	12016.36
638.413	12019.53
638.767	11954.45
639.121	11972.52
639.474	11949.02
639.828	11874.67
640.181	11920.55
640.534	11880.1
640.888	11905.41
641.241	11882.36
641.594	11889.36
641.947	11887.55
642.301	11805.75
642.654	11880.32
643.007	11920.32
643.36	11926.2
643.713	11841.68
644.066	11862.02
644.419	11765.52
644.771	11796.48
645.124	11611.86
645.477	11567.79
645.83	11484.18
646.182	11516.72
646.535	11435.59
646.888	11532.76
647.24	11361.92
647.593	11499.09
647.945	11436.04
648.298	11411.41
648.65	11386.78
649.002	11285.76
649.355	11465.19
649.707	11423.16
650.059	11436.27
650.411	11569.82
650.763	11619.31
651.115	11737.28
651.467	11698.86
651.819	11713.1
652.171	11628.35
652.523	11699.09
652.875	11655.47
653.227	11642.36
653.578	11725.75
653.93	11679.88
654.282	11681.23
654.633	11616.6
654.985	11606.21
655.337	11662.25
655.688	11667.9
656.039	11680.78
656.391	11591.29
656.742	11718.75
657.094	11616.38
657.445	11686.66
657.796	11694.11
658.147	11617.51
658.498	11603.72
658.849	11701.34
659.2	11593.55
659.551	11624.28
659.902	11653.89
660.253	11641.91
660.604	11713.77
660.955	11596.94
661.306	11717.62
661.656	11679.2
662.007	11695.02
662.358	11668.13
662.708	11704.51
663.059	11700.89
663.409	11650.05
663.76	11753.32
664.11	11737.05
664.461	11725.98
664.811	11773.43
665.161	11703.15
665.511	11688.46
665.862	11619.77
666.212	11695.24
666.562	11779.08
666.912	11712.64
667.262	11719.65
667.612	11659.76
667.962	11722.14
668.312	11631.74
668.662	11675.13
669.011	11693.44
669.361	11643.27
669.711	11571.63
670.06	11632.42
670.41	11557.62
670.76	11610.05
671.109	11697.73
671.459	11657.96
671.808	11566.21
672.157	11678.29
672.507	11598.97
672.856	11644.4
673.205	11581.12
673.554	11643.49
673.904	11575.02
674.253	11633.32
674.602	11673.1
674.951	11400.34
675.3	11358.3
675.649	11615.92
675.998	11568.69
676.346	11509.71
676.695	11630.61
677.044	11498.19
677.393	11502.03
677.741	11456.83
678.09	11493.67
678.438	11404.4
678.787	11546.55
679.135	11453.67
679.484	11393.1
679.832	11427.45
680.181	11381.58
680.529	11391.3
680.877	11368.25
681.225	11333.22
681.573	11469.71
681.922	11329.6
682.27	11276.72
682.618	11302.94
682.966	11288.93
683.314	11278.98
683.661	11157.86
684.009	11089.38
684.357	11138.42
684.705	11206.89
685.053	11164.86
685.4	11016.39
685.748	10991.31
686.095	11050.06
686.443	10925.55
686.79	10959.9
687.138	10933.91
687.485	11025.43
687.832	10893.46
688.18	10999.44
688.527	10847.13
688.874	10822.72
689.221	10789.5
689.568	10786.79
689.915	10722.39
690.262	10757.64
690.609	10650.53
690.956	10650.98
691.303	10660.47
691.65	10594.71
691.997	10617.08
692.344	10558.1
692.69	10440.36
693.037	10474.26
693.383	10431.77
693.73	10441.72
694.077	10360.36
694.423	10350.65
694.769	10363.07
695.116	10255.96
695.462	10265
695.808	10215.73
696.155	10220.48
696.501	10097.55
696.847	10080.82
697.193	10072.24
697.539	10073.37
697.885	9999.02
698.231	9971.9
698.577	9970.77
698.923	9926.93
699.269	9881.96
699.614	9832.92
699.96	9771.23
700.306	9840.83
700.651	9730.78
700.997	9738.23
701.342	9649.87
701.688	9634.05
702.033	9561.51
702.379	9601.06
702.724	9491.69
703.069	9556.09
703.415	9400.39
703.76	9470.67
704.105	9475.19
704.45	9424.12
704.795	9316.32
705.14	9291.24
705.485	9311.8
705.83	9250.34
706.175	9284.23
706.52	9257.34
706.865	9215.08
707.209	9184.8
707.554	9110.9
707.899	9069.55
708.243	9023.9
708.588	9052.37
708.932	9039.49
709.277	9069.1
709.621	8991.81
709.966	8917.24
710.31	8927.63
710.654	8873.4
710.998	8827.3
711.342	8870.01
711.687	8863.91
712.031	8774.19
712.375	8743.91
712.719	8850.35
713.063	8792.72
713.407	8787.98
713.75	8794.53
714.094	8697.81
714.438	8717.92
714.782	8684.48
715.125	8627.08
715.469	8663.23
715.812	8595.44
716.156	8617.81
716.499	8563.12
716.843	8589.11
717.186	8515.44
717.53	8570.35
717.873	8567.42
718.216	8594.08
718.559	8479.28
718.902	8398.61
719.246	8534.42
719.589	8452.39
719.932	8444.93
720.275	8435.44
720.617	8453.52
720.96	8441.09
721.303	8433.41
721.646	8422.34
721.989	8364.48
722.331	8372.39
722.674	8347.53
723.016	8393.41
723.359	8350.47
723.701	8316.35
724.044	8333.52
724.386	8264.15
724.729	8320.87
725.071	8295.78
725.413	8296.24
725.755	8231.61
726.097	8258.95
726.439	8202.45
726.782	8237.48
727.124	8296.01
727.465	8229.57
727.807	8218.5
728.149	8249.01
728.491	8145.05
728.833	8231.38
729.175	8175.56
729.516	8182.12
729.858	8178.73
730.199	8202.91
730.541	8209.91
730.882	8168.56
731.224	8172.85
731.565	8136.01
731.906	8142.12
732.248	8183.25
732.589	8099.86
732.93	8183.25
733.271	8186.64
733.612	8178.5
733.953	8111.16
734.294	8083.36
734.635	8156.58
734.976	8191.83
735.317	8090.59
735.658	8114.09
735.999	8140.76
736.339	8118.39
736.68	8187.54
737.021	8149.35
737.361	8111.16
737.702	8276.12
738.042	8169.91
738.383	8173.98
738.723	8191.15
739.063	8219.63
739.404	8196.13
739.744	8227.09
740.084	8229.8
740.424	8271.83
740.764	8228.22
741.104	8288.55
741.444	8287.88
741.784	8233.19
742.124	8291.04
742.464	8347.53
742.804	8348.21
743.143	8365.39
743.483	8371.71
743.823	8404.03
744.162	8345.27
744.502	8452.16
744.841	8434.09
745.181	8461.2
745.52	8434.31
745.86	8520.86
746.199	8576
746.538	8542.56
746.877	8646.96
747.216	8683.8
747.556	8779.61
747.895	8824.81
748.234	8758.37
748.573	8784.36
748.911	8870.91
749.25	8862.55
749.589	8957.24
749.928	9088.53
750.267	9157.91
750.605	9237
750.944	9236.55
751.283	9357.68
751.621	9421.86
751.96	9452.82
752.298	9542.53
752.636	9644.68
752.975	9697.56
753.313	9739.81
753.651	9878.57
753.989	9970.09
754.327	10158.33
754.666	10120.6
755.004	10302.74
755.342	10408.05
755.679	10554.26
756.017	10634.48
756.355	10877.41
756.693	10825.66
757.031	11044.41
757.368	11146.11
757.706	11311.98
758.044	11416.61
758.381	11567.34
758.719	11664.28
759.056	11915.12
759.394	11949.7
759.731	12128.9
760.068	12319.18
760.405	12418.84
760.743	12556.69
761.08	12813.41
761.417	12876
761.754	13118.26
762.091	13182.66
762.428	13365.03
762.765	13398.25
763.102	13698.35
763.438	13787.17
763.775	13881.85
764.112	14092.92
764.449	14400.48
764.785	14390.77
765.122	14456.98
765.458	14566.58
765.795	14837.08
766.131	14966.12
766.467	15113.23
766.804	15221.7
767.14	15280.46
767.476	15477.52
767.812	15557.51
768.148	15790.95
768.485	15780.56
768.821	15865.08
769.157	16008.8
769.492	16226.88
769.828	16221.45
770.164	16217.61
770.5	16374.67
770.836	16584.38
771.171	16512.52
771.507	16666.64
771.842	16700.54
772.178	16834.32
772.513	16987.31
772.849	17015.33
773.184	17051.49
773.519	17257.58
773.855	17192.5
774.19	17193.63
774.525	17356.56
774.86	17534.41
775.195	17439.05
775.53	17636.78
775.865	17587.97
776.2	17510.23
776.535	17437.69
776.87	17625.93
777.205	17639.95
777.539	17640.17
777.874	17754.52
778.209	17689.89
778.543	17766.04
778.878	17790.22
779.212	17820.05
779.547	17699.83
779.881	17903.89
780.215	17695.09
780.55	17826.16
780.884	17778.02
781.218	17845.82
781.552	17901.18
781.886	17906.38
782.22	17818.92
782.554	17894.18
782.888	17759.49
783.222	17736.21
783.556	17715.42
783.889	17728.08
784.223	17678.14
784.557	17655.54
784.89	17722.88
785.224	17645.82
785.557	17603.34
785.891	17642.21
786.224	17627.97
786.558	17745.48
786.891	17571.25
787.224	17542.32
787.557	17611.02
787.891	17564.47
788.224	17531.47
788.557	17616.44
788.89	17563.79
789.223	17593.17
789.556	17413.06
789.888	17493.51
790.221	17345.94
790.554	17227.98
790.887	17333.97
791.219	17290.58
791.552	17161.31
791.884	17304.59
792.217	17167.64
792.549	17147.76
792.882	17107.53
793.214	17060.07
793.546	17176.23
793.879	16972.39
794.211	16867.31
794.543	17034.76
794.875	16917.7
795.207	16967.65
795.539	16874.54
795.871	16942.34
796.203	16831.38
796.535	16759.52
796.867	16657.6
797.198	16637.94
797.53	16594.78
797.862	16549.35
798.193	16596.58
798.525	16509.58
798.856	16533.53
799.188	16303.71
799.519	16332.64
799.85	16346.65
800.182	16280.66
800.513	16272.07
800.844	16227.78
801.175	16256.25
801.506	16298.51
801.837	16156.37
802.168	16050.61
802.499	16018.07
802.83	15967.22
803.161	16007.9
803.491	15972.19
803.822	15948.24
804.153	15969.26
804.483	15778.07
804.814	15833.44
805.145	15825.76
805.475	15772.88
805.805	15580.79
806.136	15705.31
806.466	15681.81
806.796	15599.77
807.126	15543.28
807.457	15550.74
807.787	15479.78
808.117	15503.28
808.447	15365.43
808.777	15484.52
809.107	15383.06
809.436	15338.76
809.766	15377.86
810.096	15292.89
810.426	15164.98
810.755	15221.93
811.085	15224.87
811.414	15182.16
811.744	14993.24
812.073	15167.02
812.403	15118.43
812.732	15013.12
813.061	15055.38
813.39	14882.96
813.719	14895.61
814.049	14990.3
814.378	14847.25
814.707	14935.61
815.036	14863.52
815.365	14722.96
815.693	14676.63
816.022	14699.46
816.351	14666.69
816.68	14542.85
817.008	14612
817.337	14482.51
817.665	14432.8
817.994	14424.44
818.322	14455.85
818.651	14438.9
818.979	14380.14
819.307	14424.44
819.636	14455.17
819.964	14323.65
820.292	14329.98
820.62	14418.11
820.948	14275.74
821.276	14365.23
821.604	14287.49
821.932	14248.85
822.259	14390.77
822.587	14268.96
822.915	14270.77
823.243	14280.71
823.57	14238.45
823.898	14249.98
824.225	14254.72
824.553	14148.96
824.88	14302.18
825.207	14312.35
825.535	14204.78
825.862	14292.24
826.189	14220.6
826.516	14309.86
826.843	14353.03
827.17	14256.76
827.497	14337.21
827.824	14240.94
828.151	14324.1
828.478	14324.55
828.805	14363.87
829.131	14279.13
829.458	14307.6
829.785	14264.44
830.111	14256.98
830.438	14386.25
830.764	14208.62
831.09	14382.86
831.417	14244.33
831.743	14261.28
832.069	14294.95
832.395	14239.81
832.722	14239.36
833.048	14190.32
833.374	14300.6
833.7	14151.22
834.026	14225.8
834.351	14244.1
834.677	14162.07
835.003	14163.2
835.329	14287.49
835.654	14132.47
835.98	14095.41
836.306	14111.45
836.631	14074.84
836.956	14082.75
837.282	14118
837.607	14013.6
837.932	13984.9
838.258	13959.14
838.583	13966.14
838.908	13974.96
839.233	13902.64
839.558	13882.53
839.883	13859.25
840.208	13781.97
840.533	13871.46
840.858	13751.91
841.182	13707.85
841.507	13834.62
841.832	13633.5
842.156	13697
842.481	13643.89
842.805	13692.03
843.13	13660.62
843.454	13570
843.778	13575.87
844.103	13523.22
844.427	13466.95
844.751	13480.06
845.075	13417.23
845.399	13385.59
845.723	13353.28
846.047	13307.18
846.371	13293.62
846.695	13207.75
847.019	13066.28
847.343	13042.33
847.666	13081.87
847.99	12921.43
848.313	12960.07
848.637	12907.41
848.96	12856.12
849.284	12810.92
849.607	12709.23
849.931	12734.31
850.254	12579.74
850.577	12533.64
850.9	12532.06
851.223	12490.93
851.546	12450.25
851.869	12396.02
852.192	12469.91
852.515	12278.5
852.838	12211.39
853.161	12319.41
853.483	12239.86
853.806	12076.02
854.129	12091.39
854.451	12001
854.774	11980.89
855.096	11978.63
855.419	11892.07
855.741	11865.86
856.063	11787.44
856.385	11789.93
856.708	11761.68
857.03	11672.65
857.352	11759.87
857.674	11599.88
857.996	11588.13
858.318	11580.9
858.64	11528.47
858.961	11529.6
859.283	11445.31
859.605	11410.28
859.926	11486.44
860.248	11410.73
860.57	11348.13
860.891	11383.84
861.212	11292.54
861.534	11231.98
861.855	11208.02
862.176	11285.31
862.498	11298.64
862.819	11219.32
863.14	11223.17
863.461	11194.69
863.782	11118.08
864.103	11141.81
864.424	11084.19
864.745	11115.15
865.065	11033.34
865.386	11050.97
865.707	11035.6
866.027	11047.12
866.348	10940.23
866.668	10883.97
866.989	10971.19
867.309	10876.73
867.63	10933.23
867.95	10865.66
868.27	10849.62
868.59	10834.02
868.91	10733.23
869.23	10772.1
869.55	10768.26
869.87	10798.32
870.19	10757.87
870.51	10772.56
870.83	10762.16
871.15	10683.52
871.469	10690.07
871.789	10686
872.109	10713.35
872.428	10626.8
872.748	10664.08
873.067	10657.98
873.386	10640.58
873.706	10644.42
874.025	10497.31
874.344	10501.15
874.663	10524.88
874.982	10481.72
875.301	10469.29
875.62	10500.25
875.939	10479.68
876.258	10476.29
876.577	10458.21
876.896	10419.57
877.214	10296.41
877.533	10360.14
877.852	10303.87
878.17	10335.73
878.489	10286.47
878.807	10300.03
879.125	10335.96
879.444	10230.2
879.762	10253.47
880.08	10250.31
880.398	10158.56
880.716	10203.31
881.034	10130.54
881.352	10132.35
881.67	10101.16
881.988	10076.3
882.306	10086.25
882.624	10002.63
882.941	10016.64
883.259	9930.32
883.577	9947.72
883.894	9997.89
884.212	9902.97
884.529	10015.06
884.846	9819.81
885.164	9855.52
885.481	9834.28
885.798	9811.9
886.115	9784.33
886.432	9774.39
886.75	9776.42
887.067	9766.71
887.383	9752.24
887.7	9766.48
888.017	9666.14
888.334	9711.34
888.651	9634.51
888.967	9637.67
889.284	9597.9
889.6	9494.4
889.917	9520.16
890.233	9570.33
890.55	9441.29
890.866	9493.72
891.182	9406.94
891.498	9432.03
891.815	9407.17
892.131	9304.57
892.447	9351.58
892.763	9293.95
893.079	9192.71
893.395	9161.07
893.71	9185.93
894.026	9126.5
894.342	9078.59
894.657	9069.1
894.973	9051.7
895.289	9031.36
895.604	9060.06
895.92	9027.06
896.235	8934.41
896.55	8881.08
896.865	8916.33
897.181	8811.03
897.496	8836.56
897.811	8806.28
898.126	8794.53
898.441	8665.27
898.756	8683.8
899.071	8625.04
899.386	8670.01
899.7	8573.52
900.015	8554.99
900.33	8488.1
900.644	8565.61
900.959	8497.59
901.273	8483.58
901.588	8443.35
901.902	8375.1
902.216	8355.22
902.531	8323.35
902.845	8307.31
903.159	8293.75
903.473	8258.72
903.787	8200.87
904.101	8161.1
904.415	8139.63
904.729	8107.09
905.042	8055.11
905.356	8050.37
905.67	8067.09
905.984	7988.45
906.297	7962.46
906.611	7954.1
906.924	7971.73
907.237	7866.64
907.551	7816.48
907.864	7792.3
908.177	7732.64
908.491	7793.43
908.804	7716.82
909.117	7688.8
909.43	7644.28
909.743	7608.8
910.056	7535.58
910.368	7523.38
910.681	7503.72
910.994	7464.39
911.307	7466.2
911.619	7418.29
911.932	7421.46
912.244	7331.52
912.557	7360.44
912.869	7281.35
913.181	7237.96
913.494	7286.55
913.806	7227.34
914.118	7186.21
914.43	7169.26
914.742	7158.19
915.054	7143.05
915.366	7079.55
915.678	7034.35
915.99	6999.1
916.302	7014.46
916.613	6909.61
916.925	6967.91
917.236	6960.9
917.548	6872.32
917.859	6901.25
918.171	6818.08
918.482	6813.79
918.794	6788.03
919.105	6760.91
919.416	6686.34
919.727	6716.17
920.038	6650.18
920.349	6640.91
920.66	6646.34
920.971	6599.33
921.282	6573.57
921.593	6512.78
921.903	6502.16
922.214	6471.43
922.525	6443.63
922.835	6420.35
923.146	6414.7
923.456	6390.3
923.767	6358.21
924.077	6320.02
924.387	6301.49
924.697	6242.73
925.008	6221.26
925.318	6246.35
925.628	6158.67
925.938	6217.87
926.248	6122.73
926.558	6134.49
926.867	6068.95
927.177	6010.42
927.487	6071.89
927.796	6030.31
928.106	5979.91
928.416	5905.57
928.725	5897.2
929.034	5918.9
929.344	5899.01
929.653	5865.57
929.962	5852.23
930.271	5834.38
930.581	5827.38
930.89	5745.12
931.199	5757.32
931.508	5677.77
931.817	5680.49
932.125	5684.33
932.434	5686.59
932.743	5651.56
933.051	5609.08
933.36	5527.27
933.669	5554.84
933.977	5539.92
934.286	5496.08
934.594	5469.87
934.902	5479.36
935.21	5403.21
935.519	5435.97
935.827	5375.18
936.135	5364.56
936.443	5339.03
936.751	5312.59
937.059	5325.02
937.367	5245.24
937.674	5257.67
937.982	5246.6
938.29	5247.28
938.597	5253.6
938.905	5159.37
939.213	5157.56
939.52	5123.44
939.827	5147.62
940.135	5065.81
940.442	5061.97
940.749	5035.76
941.056	5062.88
941.363	4994.18
941.67	4982.43
941.977	4979.49
942.284	4942.2
942.591	4940.17
942.898	4857.91
943.205	4869.66
943.511	4845.25
943.818	4861.07
944.125	4782.43
944.431	4819.49
944.738	4807.29
945.044	4753.05
945.35	4720.29
945.657	4680.06
945.963	4683.9
946.269	4635.77
946.575	4702.66
946.881	4608.2
947.187	4600.51
947.493	4565.04
947.799	4552.83
948.105	4546.73
948.41	4524.13
948.716	4534.75
949.022	4488.43
949.327	4499.5
949.633	4460.41
949.938	4453.4
950.244	4469.44
950.549	4405.27
950.854	4401.65
951.16	4370.01
951.465	4335.66
951.77	4332.95
952.075	4323.23
952.38	4309.67
952.685	4285.95
952.99	4235.33
953.294	4243.46
953.599	4206.63
953.904	4211.82
954.209	4142
954.513	4181.77
954.818	4157.59
955.122	4117.14
955.426	4184.25
955.731	4101.09
956.035	4072.39
956.339	4071.04
956.643	4069.23
956.948	4011.38
957.252	4018.38
957.556	4007.31
957.86	3956.92
958.163	3967.31
958.467	4004.82
958.771	3944.94
959.075	3878.5
959.378	3856.58
959.682	3915.11
959.985	3839.63
960.289	3823.36
960.592	3843.02
960.896	3783.59
961.199	3816.81
961.502	3798.28
961.805	3753.08
962.108	3724.38
962.411	3765.73
962.714	3706.07
963.017	3656.13
963.32	3711.72
963.623	3663.14
963.926	3642.12
964.228	3629.24
964.531	3636.25
964.833	3572.75
965.136	3596.47
965.438	3566.64
965.741	3529.13
966.043	3531.16
966.345	3534.33
966.648	3506.76
966.95	3514.67
967.252	3441.45
967.554	3449.81
967.856	3443.26
968.158	3424.95
968.46	3392.64
968.761	3427.89
969.063	3378.85
969.365	3408.68
969.666	3335.46
969.968	3342.47
970.269	3359.87
970.571	3310.15
970.872	3306.76
971.174	3295.92
971.475	3296.82
971.776	3267.89
972.077	3220.21
972.378	3248.91
972.679	3228.57
972.98	3267.89
973.281	3204.62
973.582	3213.66
973.883	3163.04
974.183	3191.29
974.484	3161.91
974.785	3153.1
975.085	3110.61
975.386	3099.54
975.686	3099.99
975.986	3077.16
976.287	3057.28
976.587	3016.6
976.887	3041.23
977.187	3018.64
977.487	3020.44
977.787	2981.35
978.087	2976.38
978.387	2926.89
978.687	2990.84
978.987	2943.61
979.286	2896.15
979.586	2872.42
979.885	2889.37
980.185	2844.63
980.484	2872.2
980.784	2857.96
981.083	2860.67
981.382	2864.97
981.682	2826.78
981.981	2816.15
982.28	2805.08
982.579	2790.84
982.878	2781.13
983.177	2719.21
983.475	2742.71
983.774	2726.44
984.073	2693.45
984.372	2710.62
984.67	2706.55
984.969	2686.89
985.267	2660.68
985.566	2661.81
985.864	2639.89
986.162	2609.61
986.461	2631.3
986.759	2591.53
987.057	2586.78
987.355	2584.52
987.653	2566.9
987.951	2521.93
988.249	2548.14
988.547	2519.44
988.844	2494.13
989.142	2539.33
989.44	2485.54
989.737	2472.66
990.035	2503.17
990.332	2462.27
990.63	2472.21
990.927	2481.25
991.224	2453.68
991.521	2426.33
991.819	2407.8
992.116	2413
992.413	2402.61
992.71	2380.46
993.006	2397.86
993.303	2365.09
993.6	2334.59
993.897	2345.88
994.193	2347.69
994.49	2340.46
994.787	2280.8
995.083	2300.01
995.379	2293
995.676	2289.84
995.972	2249.84
996.268	2248.71
996.565	2217.75
996.861	2241.93
997.157	2233.57
997.453	2208.49
997.749	2220.92
998.044	2221.14
998.34	2175.95
998.636	2215.04
998.932	2161.93
999.227	2154.7
999.523	2145.66
999.818	2109.73
1000.114	2132.1
1000.409	2090.75
1000.704	2104.08
1001	2111.54
1001.295	2073.58
1001.59	2071.54
1001.885	2058.66
1002.18	2031.09
1002.475	2023.86
1002.77	2019.79
1003.065	1981.6
1003.359	1987.48
1003.654	1970.3
1003.949	1959
1004.243	1977.08
1004.538	1951.32
1004.832	1962.84
1005.127	1944.77
1005.421	1914.03
1005.715	1904.54
1006.009	1899.79
1006.304	1868.16
1006.598	1882.85
1006.892	1865.45
1007.186	1869.51
1007.48	1852.34
1007.773	1842.17
1008.067	1835.39
1008.361	1796.52
1008.655	1796.52
1008.948	1809.85
1009.242	1786.13
1009.535	1757.88
1009.829	1767.37
1010.122	1747.48
1010.415	1724.21
1010.708	1725.56
1011.001	1730.53
1011.295	1702.74
1011.588	1719.91
1011.881	1715.84
1012.173	1680.37
1012.466	1684.66
1012.759	1647.15
1013.052	1648.28
1013.344	1665.9
1013.637	1599.92
1013.93	1603.76
1014.222	1608.73
1014.514	1596.07
1014.807	1603.76
1015.099	1594.04
1015.391	1543.65
1015.683	1575.06
1015.976	1554.04
1016.268	1558.79
1016.56	1547.71
1016.851	1549.52
1017.143	1561.72
1017.435	1500.26
1017.727	1490.77
1018.018	1509.3
1018.31	1496.19
1018.602	1483.08
1018.893	1472.46
1019.185	1472.91
1019.476	1452.12
1019.767	1460.94
1020.058	1422.07
1020.35	1437.43
1020.641	1431.56
1020.932	1389.98
1021.223	1399.69
1021.514	1384.1
1021.804	1393.37
1022.095	1399.02
1022.386	1335.74
1022.677	1356.53
1022.967	1320.37
1023.258	1331.9
1023.548	1326.7
1023.839	1330.54
1024.129	1321.05
1024.419	1322.86
1024.709	1301.62
1025	1287.16
1025.29	1267.49
1025.58	1272.47
1025.87	1230.43
1026.16	1284.22
1026.449	1273.37
1026.739	1243.99
1027.029	1230.66
1027.319	1247.83
1027.608	1179.81
1027.898	1200.38
1028.187	1205.12
1028.477	1207.38
1028.766	1161.51
1029.055	1175.29
1029.344	1175.07
1029.634	1154.05
1029.923	1154.28
1030.212	1135.52
1030.501	1141.62
1030.79	1155.86
1031.078	1134.84
1031.367	1133.04
1031.656	1101.62
1031.945	1101.17
1032.233	1112.92
1032.522	1074.73
1032.81	1078.35
1033.099	1061.17
1033.387	1076.77
1033.675	1061.4
1033.963	1062.98
1034.251	1074.28
1034.54	1033.83
1034.828	1031.79
1035.116	1031.34
1035.403	1042.64
1035.691	1020.72
1035.979	1009.87
1036.267	1000.38
1036.554	1007.61
1036.842	1008.97
1037.129	993.6
1037.417	974.17
1037.704	975.3
1037.992	987.05
1038.279	947.05
1038.566	924.45
1038.853	924.45
1039.14	924.45
