Data from hue_110_FLMS001491_00079.txt Node
Date: Tue Feb 07 17:01:49 GMT 2017
User: dcchb
Spectrometer: FLMS00149
Trigger mode: 0
Integration Time (sec): 2.000000E-2
Scans to average: 10
Electric dark correction enabled: true
Nonlinearity correction enabled: false
Boxcar width: 0
XAxis mode: Wavelengths
Number of Pixels in Spectrum: 2048
>>>>>Begin Spectral Data<<<<<
341.393	4.87
341.776	4.87
342.16	4.87
342.543	-67.89
342.927	-65.86
343.31	-87.1
343.693	-60.89
344.077	-67.22
344.46	-44.39
344.843	-50.49
345.226	-54.79
345.61	-27.44
345.993	-8.23
346.376	-7.78
346.759	5.78
347.142	22.95
347.525	39.22
347.908	61.59
348.291	66.11
348.674	105.44
349.057	107.24
349.44	130.07
349.823	158.54
350.206	156.73
350.588	221.59
350.971	224.08
351.354	229.05
351.737	252.55
352.119	263.62
352.502	268.82
352.884	268.14
353.267	288.71
353.65	291.64
354.032	300.68
354.414	322.38
354.797	319.89
355.179	326.45
355.562	313.57
355.944	339.78
356.326	324.19
356.709	332.77
357.091	353.56
357.473	363.28
357.855	346.78
358.238	338.65
358.62	342.72
359.002	340.46
359.384	339.33
359.766	343.85
360.148	339.55
360.53	362.6
360.912	341.59
361.294	322.83
361.676	320.12
362.057	362.15
362.439	332.55
362.821	322.38
363.203	336.84
363.584	330.29
363.966	343.17
364.348	334.81
364.729	323.51
365.111	346.33
365.493	328.71
365.874	343.62
366.256	327.58
366.637	332.55
367.019	309.27
367.4	308.59
367.781	325.99
368.163	343.17
368.544	300.91
368.925	320.12
369.306	297.75
369.688	326.67
370.069	352.89
370.45	333.68
370.831	299.33
371.212	325.32
371.593	301.81
371.974	310.85
372.355	314.92
372.736	329.16
373.117	324.41
373.498	309.5
373.879	320.57
374.26	336.39
374.641	336.39
375.021	320.12
375.402	318.99
375.783	326.22
376.163	345.88
376.544	347.46
376.925	330.74
377.305	339.33
377.686	342.72
378.066	322.6
378.447	348.14
378.827	349.5
379.208	336.39
379.588	337.52
379.968	312.89
380.349	353.56
380.729	346.56
381.109	352.66
381.489	353.79
381.87	364.19
382.25	361.93
382.63	353.56
383.01	351.3
383.39	338.88
383.77	356.73
384.15	361.7
384.53	378.65
384.91	356.95
385.29	393.11
385.67	368.48
386.049	358.08
386.429	371.87
386.809	391.53
387.189	370.96
387.568	372.09
387.948	351.76
388.328	380.46
388.707	368.25
389.087	366.45
389.466	368.25
389.846	375.71
390.225	371.87
390.605	394.69
390.984	396.05
391.363	380.68
391.743	394.47
392.122	402.15
392.501	401.25
392.881	403.05
393.26	404.64
393.639	386.56
394.018	406.44
394.397	418.2
394.776	427.01
395.155	404.41
395.534	406.44
395.913	402.38
396.292	402.15
396.671	394.92
397.05	393.79
397.429	410.96
397.808	441.02
398.186	398.76
398.565	411.19
398.944	430.4
399.323	408.93
399.701	418.2
400.08	436.27
400.458	453
400.837	434.47
401.215	438.76
401.594	433.11
401.972	445.77
402.351	442.6
402.729	434.69
403.107	440.79
403.486	422.26
403.864	445.09
404.242	447.57
404.62	455.03
404.999	473.79
405.377	449.61
405.755	469.72
406.133	474.92
406.511	468.14
406.889	474.69
407.267	467.01
407.645	483.28
408.023	487.35
408.401	468.59
408.779	469.72
409.156	477.63
409.534	505.42
409.912	500.23
410.29	476.72
410.667	512.66
411.045	495.93
411.422	504.29
411.8	504.29
412.178	511.98
412.555	517.85
412.933	511.75
413.31	520.79
413.687	526.21
414.065	532.99
414.442	545.65
414.819	550.4
415.197	550.4
415.574	556.95
415.951	542.03
416.328	564.86
416.705	588.59
417.082	574.35
417.46	545.65
417.837	583.61
418.214	576.38
418.591	569.38
418.967	586.55
419.344	555.14
419.721	585.2
420.098	588.13
420.475	612.09
420.852	591.52
421.228	607.12
421.605	602.15
421.982	617.96
422.358	646.21
422.735	608.7
423.111	613.9
423.488	645.53
423.864	652.09
424.241	626.55
424.617	636.27
424.994	639.43
425.37	659.54
425.746	663.16
426.123	668.36
426.499	644.18
426.875	678.08
427.251	662.71
427.627	674.23
428.003	677.85
428.379	685.31
428.756	684.18
429.132	723.95
429.507	712.65
429.883	709.94
430.259	714.68
430.635	728.7
431.011	752.2
431.387	737.51
431.763	750.39
432.138	756.49
432.514	771.41
432.89	780.22
433.265	764.63
433.641	787.68
434.016	793.78
434.392	804.85
434.767	813.44
435.143	797.62
435.518	820.9
435.894	830.84
436.269	803.72
436.644	828.35
437.02	822.93
437.395	896.15
437.77	871.06
438.145	895.7
438.52	861.12
438.895	879.2
439.271	889.14
439.646	912.65
440.021	902.48
440.395	899.99
440.77	907
441.145	911.52
441.52	935.92
441.895	944.96
442.27	952.19
442.645	935.02
443.019	956.71
443.394	925.75
443.769	950.61
444.143	990.38
444.518	965.53
444.892	976.37
445.267	990.38
445.641	993.1
446.016	1010.72
446.39	998.74
446.764	1019.31
447.139	1023.15
447.513	1010.27
447.887	1026.77
448.262	1010.72
448.636	1024.05
449.01	1055.01
449.384	1067.9
449.758	1069.03
450.132	1050.27
450.506	1103.15
450.88	1091.85
451.254	1109.93
451.628	1109.7
452.002	1107.89
452.376	1121
452.75	1124.39
453.123	1111.74
453.497	1161.45
453.871	1170.94
454.244	1193.99
454.618	1191.06
454.992	1197.16
455.365	1204.16
455.739	1232.19
456.112	1267.44
456.486	1253.88
456.859	1258.4
457.232	1276.48
457.606	1290.94
457.979	1314.89
458.352	1336.59
458.725	1342.24
459.099	1351.05
459.472	1374.33
459.845	1413.42
460.218	1405.29
460.591	1400.32
460.964	1431.05
461.337	1455.46
461.71	1497.49
462.083	1532.06
462.456	1512.63
462.829	1544.95
463.201	1579.97
463.574	1566.64
463.947	1579.52
464.32	1625.4
464.692	1658.61
465.065	1675.34
465.438	1679.86
465.81	1726.41
466.183	1749.46
466.555	1790.59
466.928	1801.66
467.3	1819.06
467.672	1823.81
468.045	1869.91
468.417	1872.85
468.789	1917.82
469.161	1932.96
469.534	1969.57
469.906	2035.1
470.278	2050.24
470.65	2082.33
471.022	2125.95
471.394	2176.57
471.766	2216.57
472.138	2215.66
472.51	2269.45
472.882	2327.75
473.253	2360.07
473.625	2377.01
473.997	2495.2
474.369	2504.24
474.74	2555.31
475.112	2622.88
475.484	2677.34
475.855	2765.25
476.227	2800.28
476.598	2884.35
476.97	2944
477.341	3014.74
477.713	3100.38
478.084	3125.47
478.455	3262.41
478.827	3322.53
479.198	3447.49
479.569	3438.23
479.94	3565.46
480.311	3665.57
480.682	3779.91
481.053	3880.48
481.424	4037.54
481.795	4078.44
482.166	4234.59
482.537	4291.31
482.908	4440.24
483.279	4555.04
483.65	4637.97
484.021	4752.09
484.391	4858.76
484.762	4955.25
485.133	5044.51
485.503	5266.88
485.874	5421.23
486.244	5407.89
486.615	5630.49
486.985	5755.91
487.356	5887.88
487.726	6020.99
488.097	6242.67
488.467	6259.85
488.837	6537.58
489.207	6641.53
489.578	6732.38
489.948	6932.37
490.318	7070.22
490.688	7201.29
491.058	7406.94
491.428	7553.15
491.798	7730.77
492.168	7870.88
492.538	8043.98
492.908	8196.75
493.278	8358.55
493.648	8448.49
494.017	8561.48
494.387	8721.48
494.757	8912.89
495.126	9093.67
495.496	9177.51
495.866	9311.75
496.235	9488.01
496.605	9594.68
496.974	9770.94
497.344	9894.56
497.713	10021.11
498.082	10059.52
498.452	10278.73
498.821	10386.29
499.19	10556.01
499.559	10647.53
499.928	10739.28
500.298	10911.03
500.667	10973.17
501.036	11107.86
501.405	11279.15
501.774	11319.83
502.143	11460.39
502.512	11572.03
502.88	11674.4
503.249	11778.35
503.618	11903.32
503.987	11851.11
504.356	12031.45
504.724	12107.15
505.093	12250.88
505.462	12317.54
505.83	12454.04
506.199	12541.27
506.567	12743.52
506.936	12680.7
507.304	12908.26
507.672	12951.88
508.041	13099.67
508.409	13148.26
508.777	13287.01
509.145	13371.53
509.514	13309.16
509.882	13448.59
510.25	13520.9
510.618	13610.84
510.986	13604.29
511.354	13767.45
511.722	13807
512.09	13971.96
512.458	13910.04
512.826	14004.05
513.193	14119.08
513.561	14183.48
513.929	14189.58
514.297	14355.91
514.664	14377.15
515.032	14404.72
515.4	14500.31
515.767	14589.35
516.135	14654.88
516.502	14487.66
516.869	14804.26
517.237	14806.07
517.604	14731.72
517.972	14861.66
518.339	14978.72
518.706	14959.73
519.073	14959.28
519.44	15072.27
519.808	15156.56
520.175	15233.62
520.542	15230.91
520.909	15378.03
521.276	15341.19
521.643	15347.29
522.009	15482.21
522.376	15596.33
522.743	15619.15
523.11	15699.38
523.477	15836.09
523.843	15844.23
524.21	15884.91
524.577	15968.75
524.943	15921.97
525.31	16047.16
525.676	16046.94
526.043	16108.86
526.409	16204.22
526.776	16277.21
527.142	16259.36
527.508	16303.65
527.874	16398.79
528.241	16334.39
528.607	16424.33
528.973	16448.73
529.339	16383.2
529.705	16539.81
530.071	16538.45
530.437	16550.65
530.803	16598.56
531.169	16608.5
531.535	16564.21
531.901	16543.19
532.267	16495.51
532.632	16615.74
532.998	16659.35
533.364	16591.1
533.73	16626.36
534.095	16694.38
534.461	16718.33
534.826	16693.47
535.192	16741.16
535.557	16790.87
535.923	16651.67
536.288	16635.85
536.653	16635.85
537.019	16527.15
537.384	16639.46
537.749	16687.15
538.114	16636.07
538.479	16540.71
538.845	16477.66
539.21	16506.13
539.575	16393.59
539.94	16430.88
540.305	16478.56
540.67	16410.32
541.034	16524.66
541.399	16361.28
541.764	16408.28
542.129	16482.86
542.494	16417.32
542.858	16329.19
543.223	16274.05
543.587	16333.71
543.952	16247.38
544.316	16228.17
544.681	16229.53
545.045	16166.93
545.41	16205.12
545.774	16161.96
546.138	16107.05
546.503	16207.16
546.867	16064.34
547.231	16188.18
547.595	16024.56
547.959	16051.68
548.324	15984.11
548.688	16008.07
549.052	15930.56
549.416	15933.72
549.779	15906.15
550.143	15927.39
550.507	15882.87
550.871	15893.27
551.235	15746.83
551.599	15871.57
551.962	15843.1
552.326	15806.27
552.689	15770.56
553.053	15711.13
553.417	15666.38
553.78	15855.08
554.143	15683.78
554.507	15691.92
554.87	15692.6
555.234	15792.25
555.597	15681.75
555.96	15676.33
556.323	15653.95
556.686	15551.36
557.05	15608.98
557.413	15642.2
557.776	15699.15
558.139	15795.64
558.502	15687.4
558.865	15562.66
559.228	15719.04
559.59	15682.2
559.953	15660.96
560.316	15772.82
560.679	15728.08
561.041	15705.25
561.404	15786.38
561.767	15774.4
562.129	15679.26
562.492	15890.78
562.854	15652.6
563.217	15745.02
563.579	15763.78
563.941	15794.29
564.304	15880.61
564.666	15980.72
565.028	15867.51
565.39	15914.06
565.753	16031.12
566.115	15973.72
566.477	16028.86
566.839	15997.67
567.201	16024.56
567.563	16004.68
567.925	16049.42
568.287	16035.64
568.648	16185.92
569.01	16064.56
569.372	16136.43
569.734	16109.08
570.095	16139.36
570.457	16256.2
570.819	16150.21
571.18	16151.57
571.542	16294.61
571.903	16279.93
572.265	16267.95
572.626	16308.62
572.987	16300.04
573.349	16367.38
573.71	16325.57
574.071	16310.43
574.432	16403.54
574.794	16402.63
575.155	16490.09
575.516	16378.45
575.877	16434.5
576.238	16512.69
576.599	16478.56
576.96	16500.03
577.32	16500.26
577.681	16544.1
578.042	16558.34
578.403	16425.68
578.763	16476.76
579.124	16439.24
579.485	16611.44
579.845	16543.65
580.206	16566.02
580.566	16504.33
580.927	16490.09
581.287	16554.04
581.648	16440.37
582.008	16602.85
582.368	16475.4
582.728	16589.52
583.089	16516.3
583.449	16552.46
583.809	16496.42
584.169	16490.77
584.529	16415.06
584.889	16539.58
585.249	16464.33
585.609	16359.24
585.969	16462.75
586.329	16414.38
586.688	16446.02
587.048	16353.14
587.408	16329.42
587.768	16311.34
588.127	16414.16
588.487	16352.92
588.846	16453.48
589.206	16345.91
589.565	16361.73
589.925	16340.49
590.284	16382.3
590.643	16294.61
591.003	16334.61
591.362	16357.21
591.721	16280.15
592.08	16275.86
592.44	16286.93
592.799	16250.55
593.158	16266.82
593.517	16218.46
593.876	16234.95
594.235	16212.58
594.593	16171.23
594.952	16247.84
595.311	16291.9
595.67	16309.53
596.029	16369.19
596.387	16279.25
596.746	16321.51
597.104	16262.07
597.463	16207.16
597.822	16257.55
598.18	16211.23
598.538	16141.17
598.897	16280.6
599.255	16074.73
599.613	16446.93
599.972	16196.09
600.33	16242.86
600.688	16133.04
601.046	16274.28
601.404	16303.43
601.762	16192.24
602.12	16311.79
602.478	16232.02
602.836	16309.75
603.194	16176.42
603.552	16144.56
603.91	16050.78
604.268	16291.9
604.625	16075.18
604.983	16200.61
605.341	16076.09
605.698	16156.09
606.056	16268.17
606.413	16238.12
606.771	16204.67
607.128	16320.38
607.485	16192.7
607.843	16231.34
608.2	16246.71
608.557	16356.76
608.914	16259.36
609.272	16375.52
609.629	16347.95
609.986	16425.68
610.343	16272.02
610.7	16388.17
611.057	16390.2
611.414	16334.61
611.771	16364.22
612.127	16397.89
612.484	16397.89
612.841	16388.4
613.198	16368.96
613.554	16432.01
613.911	16539.81
614.267	16511.78
614.624	16545.68
614.98	16521.73
615.337	16522.18
615.693	16483.99
616.05	16566.25
616.406	16564.89
616.762	16562.63
617.118	16520.14
617.475	16681.72
617.831	16621.38
618.187	16622.74
618.543	16559.92
618.899	16732.34
619.255	16707.48
619.611	16627.26
619.967	16765.11
620.323	16756.52
620.678	16662.74
621.034	16719.01
621.39	16641.5
621.746	16615.96
622.101	16822.51
622.457	16709.74
622.812	16694.15
623.168	16745.68
623.523	16724.66
623.879	16906.8
624.234	16614.83
624.589	16710.42
624.945	16730.76
625.3	16810.53
625.655	16733.47
626.01	16818.89
626.365	16807.37
626.72	16701.16
627.075	16691.21
627.43	16647.15
627.785	16681.72
628.14	16672.23
628.495	16727.37
628.85	16615.96
629.205	16601.27
629.559	16718.78
629.914	16634.94
630.269	16631.33
630.623	16525.57
630.978	16465.46
631.332	16544.55
631.687	16625.23
632.041	16517.66
632.396	16540.26
632.75	16393.37
633.104	16502.97
633.459	16390.43
633.813	16414.84
634.167	16447.83
634.521	16345.01
634.875	16415.51
635.229	16368.51
635.583	16366.02
635.937	16297.33
636.291	16309.3
636.645	16230.21
636.999	16243.54
637.352	16249.87
637.706	16215.07
638.06	16280.38
638.413	16180.94
638.767	16135.52
639.121	16174.84
639.474	16055.75
639.828	16021.4
640.181	16083.77
640.534	16181.17
640.888	16013.27
641.241	15953.61
641.594	15975.75
641.947	15999.93
642.301	15909.77
642.654	15992.47
643.007	16042.19
643.36	16068.86
643.713	15918.8
644.066	15999.93
644.419	15959.93
644.771	15867.05
645.124	15633.61
645.477	15702.31
645.83	15526.05
646.182	15458.25
646.535	15393.39
646.888	15382.32
647.24	15313.85
647.593	15495.76
647.945	15502.09
648.298	15357.46
648.65	15348.2
649.002	15346.39
649.355	15460.06
649.707	15380.97
650.059	15463.45
650.411	15706.61
650.763	15645.82
651.115	15857.56
651.467	15788.86
651.819	15830.67
652.171	15705.7
652.523	15791.8
652.875	15771.01
653.227	15669.09
653.578	15733.95
653.93	15734.63
654.282	15688.75
654.633	15647.85
654.985	15634.07
655.337	15713.16
655.688	15768.07
656.039	15804.01
656.391	15696.44
656.742	15731.24
657.094	15709.32
657.445	15733.05
657.796	15672.26
658.147	15625.03
658.498	15659.6
658.849	15804.68
659.2	15741.41
659.551	15699.38
659.902	15778.02
660.253	15711.8
660.604	15834.51
660.955	15738.7
661.306	15686.72
661.656	15725.36
662.007	15714.52
662.358	15862.31
662.708	15718.58
663.059	15806.49
663.409	15640.62
663.76	15808.75
664.11	15805.14
664.461	15789.54
664.811	15850.11
665.161	15804.23
665.511	15810.33
665.862	15775.98
666.212	15794.51
666.562	15720.17
666.912	15721.3
667.262	15859.82
667.612	15764.91
667.962	15724.01
668.312	15735.98
668.662	15838.58
669.011	15827.96
669.361	15785.02
669.711	15739.37
670.06	15744.35
670.41	15691.24
670.76	15677.46
671.109	15737.11
671.459	15700.51
671.808	15645.14
672.157	15762.88
672.507	15614.63
672.856	15609.43
673.205	15596.78
673.554	15652.37
673.904	15648.08
674.253	15719.49
674.602	15599.94
674.951	15396.78
675.3	15378.48
675.649	15604.91
675.998	15505.48
676.346	15626.61
676.695	15597.68
677.044	15401.76
677.393	15513.84
677.741	15481.53
678.09	15407.63
678.438	15417.35
678.787	15514.52
679.135	15529.21
679.484	15341.19
679.832	15311.59
680.181	15241.53
680.529	15348.2
680.877	15331.7
681.225	15273.4
681.573	15345.71
681.922	15237.24
682.27	15157.02
682.618	15182.33
682.966	15103.91
683.314	15176
683.661	15107.07
684.009	14983.46
684.357	15032.73
684.705	14976.46
685.053	15004.48
685.4	14932.84
685.748	14888.1
686.095	14775.33
686.443	14741.21
686.79	14757.93
687.138	14770.81
687.485	14809.46
687.832	14758.16
688.18	14708.89
688.527	14581.89
688.874	14570.59
689.221	14526.75
689.568	14475
689.915	14469.8
690.262	14430.93
690.609	14367.43
690.956	14364.27
691.303	14228
691.65	14188.68
691.997	14254.89
692.344	14119.3
692.69	14195.46
693.037	14110.72
693.383	13976.26
693.73	14041.11
694.077	13976.03
694.423	13884.73
694.769	13886.09
695.116	13882.93
695.462	13853.77
695.808	13755.47
696.155	13799.54
696.501	13650.62
696.847	13651.52
697.193	13532.88
697.539	13551.64
697.885	13463.5
698.231	13485.65
698.577	13444.29
698.923	13388.48
699.269	13268.48
699.614	13130.4
699.96	13240.46
700.306	13215.82
700.651	13034.59
700.997	13048.37
701.342	12951.65
701.688	13053.57
702.033	13002.27
702.379	12893.12
702.724	12806.8
703.069	12941.26
703.415	12639.12
703.76	12693.13
704.105	12688.61
704.45	12729.96
704.795	12577.65
705.14	12575.84
705.485	12496.75
705.83	12536.29
706.175	12443.19
706.52	12437.99
706.865	12371.78
707.209	12352.34
707.554	12346.47
707.899	12336.98
708.243	12224.21
708.588	12246.81
708.932	12162.07
709.277	12192.12
709.621	12077.32
709.966	11936.54
710.31	11990.09
710.654	11906.93
710.998	11901.51
711.342	11852.47
711.687	11850.89
712.031	11813.38
712.375	11885.01
712.719	11807.27
713.063	11767.28
713.407	11833.04
713.75	11667.62
714.094	11731.57
714.438	11642.53
714.782	11624
715.125	11572.7
715.469	11608.64
715.812	11558.24
716.156	11546.04
716.499	11552.59
716.843	11459.49
717.186	11481.18
717.53	11504.23
717.873	11561.18
718.216	11466.27
718.559	11412.26
718.902	11359.83
719.246	11349.66
719.589	11381.75
719.932	11296.33
720.275	11297.46
720.617	11258.36
720.96	11331.13
721.303	11283.67
721.646	11209.1
721.989	11206.61
722.331	11250.9
722.674	11169.1
723.016	11290.45
723.359	11184.01
723.701	11225.37
724.044	11119.61
724.386	11113.96
724.729	11199.38
725.071	11096.56
725.413	11152.15
725.755	11128.2
726.097	11058.37
726.439	11021.76
726.782	11047.29
727.124	11146.5
727.465	11000.97
727.807	10984.25
728.149	10927.07
728.491	10985.83
728.833	10960.74
729.175	10947.86
729.516	10928.2
729.858	10934.53
730.199	10908.77
730.541	10964.81
730.882	10885.94
731.224	10902.89
731.565	10890.91
731.906	10938.82
732.248	10924.13
732.589	10872.38
732.93	10793.97
733.271	10829.22
733.612	10883.46
733.953	10888.88
734.294	10843.01
734.635	10819.05
734.976	10901.31
735.317	10890.69
735.658	10851.82
735.999	10863.12
736.339	10809.11
736.68	10899.05
737.021	10937.24
737.361	10772.95
737.702	10954.42
738.042	10774.31
738.383	10883
738.723	10933.4
739.063	10869.9
739.404	10937.47
739.744	10911.25
740.084	10900.41
740.424	10967.97
740.764	10903.12
741.104	11029.89
741.444	11006.62
741.784	10925.49
742.124	10963
742.464	11063.34
742.804	10991.48
743.143	11086.84
743.483	11087.29
743.823	11076.45
744.162	11099.04
744.502	11169.32
744.841	11087.52
745.181	11259.04
745.52	11180.85
745.86	11285.71
746.199	11363.9
746.538	11314.63
746.877	11447.51
747.216	11481.18
747.556	11482.76
747.895	11626.49
748.234	11605.02
748.573	11670.78
748.911	11669.42
749.25	11769.31
749.589	11825.13
749.928	11951.45
750.267	12027.16
750.605	11983.77
750.944	12104.89
751.283	12205.23
751.621	12315.06
751.96	12341.5
752.298	12512.34
752.636	12638.21
752.975	12597.31
753.313	12768.15
753.651	12951.88
753.989	12947.36
754.327	13060.8
754.666	13200.68
755.004	13363.17
755.342	13543.5
755.679	13605.87
756.017	13702.59
756.355	13832.31
756.693	13901.23
757.031	14171.05
757.368	14169.47
757.706	14385.74
758.044	14451.95
758.381	14698.05
758.719	14826.18
759.056	15068.43
759.394	15141.42
759.731	15209.67
760.068	15431.81
760.405	15536.22
760.743	15575.08
761.08	15940.72
761.417	15925.13
761.754	16124.45
762.091	16279.47
762.428	16566.7
762.765	16608.73
763.102	16853.92
763.438	16854.6
763.775	16999.68
764.112	17290.07
764.449	17387.69
764.785	17552.89
765.122	17641.47
765.458	17830.62
765.795	17910.62
766.131	18103.61
766.467	18232.64
766.804	18350.61
767.14	18449.36
767.476	18532.3
767.812	18657.72
768.148	18880.08
768.485	18822.46
768.821	18941.1
769.157	19022.9
769.492	19247.53
769.828	19426.51
770.164	19288.66
770.5	19316.46
770.836	19645.49
771.171	19535.21
771.507	19656.33
771.842	19655.2
772.178	19884.12
772.513	19879.83
772.849	19974.52
773.184	19905.59
773.519	20083.21
773.855	20107.62
774.19	20170.44
774.525	20190.56
774.86	20399.82
775.195	20294.73
775.53	20346.48
775.865	20343.32
776.2	20310.33
776.535	20334.73
776.87	20372.92
777.205	20339.71
777.539	20380.83
777.874	20430.32
778.209	20429.87
778.543	20399.59
778.878	20398.01
779.212	20486.37
779.547	20386.26
779.881	20593.94
780.215	20381.51
780.55	20514.84
780.884	20441.85
781.218	20450.66
781.552	20523.2
781.886	20460.15
782.22	20441.17
782.554	20474.39
782.888	20319.37
783.222	20384.9
783.556	20232.82
783.889	20287.28
784.223	20276.2
784.557	20113.72
784.89	20168.86
785.224	20198.24
785.557	20146.49
785.891	20177.22
786.224	20079.6
786.558	20057.23
786.891	19920.06
787.224	19972.48
787.557	19915.76
787.891	19902.88
788.224	19837.35
788.557	19909.89
788.89	19792.15
789.223	19898.36
789.556	19827.63
789.888	19777.01
790.221	19692.26
790.554	19635.32
790.887	19627.18
791.219	19599.39
791.552	19609.1
791.884	19451.82
792.217	19381.54
792.549	19426.96
792.882	19323.91
793.214	19296.34
793.546	19397.58
793.879	19216.8
794.211	19147.42
794.543	19234.2
794.875	19083.69
795.207	19291.6
795.539	19043.92
795.871	19124.82
796.203	18963.02
796.535	18875.79
796.867	18818.84
797.198	18791.05
797.53	18881.21
797.862	18729.58
798.193	18772.06
798.525	18640.09
798.856	18670.14
799.188	18482.58
799.519	18441.9
799.85	18285.07
800.182	18328.01
800.513	18364.84
800.844	18208.69
801.175	18299.98
801.506	18262.7
801.837	18150.16
802.168	18102.25
802.499	18099.31
802.83	17985.42
803.161	18058.18
803.491	17965.08
803.822	18022.48
804.153	17989.48
804.483	17738.42
804.814	17712.43
805.145	17644.41
805.475	17616.16
805.805	17677.4
806.136	17582.94
806.466	17611.87
806.796	17629.04
807.126	17509.95
807.457	17356.28
807.787	17386.34
808.117	17340.91
808.447	17350.86
808.777	17347.24
809.107	17248.94
809.436	17138.66
809.766	17221.82
810.096	17131.43
810.426	17104.76
810.755	17039.91
811.085	17068.38
811.414	16883.07
811.744	16997.19
812.073	16919.23
812.403	16855.28
812.732	16748.16
813.061	16812.34
813.39	16669.75
813.719	16713.81
814.049	16746.58
814.378	16731.89
814.707	16593.14
815.036	16547.71
815.365	16503.42
815.693	16352.01
816.022	16392.92
816.351	16346.36
816.68	16272.24
817.008	16402.86
817.337	16177.1
817.665	16094.39
817.994	16162.87
818.322	16176.42
818.651	16137.1
818.979	16103.21
819.307	16169.87
819.636	16211.23
819.964	15939.37
820.292	16175.52
820.62	16022.3
820.948	15914.51
821.276	16072.92
821.604	15916.54
821.932	15952.93
822.259	15933.49
822.587	15935.53
822.915	15907.96
823.243	15944.57
823.57	15931.46
823.898	15902.08
824.225	15885.13
824.553	15913.83
824.88	15850.11
825.207	15978.24
825.535	15874.06
825.862	15968.07
826.189	15929.88
826.516	15987.05
826.843	16023.43
827.17	15946.83
827.497	16003.32
827.824	15961.97
828.151	15947.96
828.478	16060.04
828.805	16080.83
829.131	15969.65
829.458	15892.59
829.785	15855.3
830.111	15827.96
830.438	15967.16
830.764	15863.44
831.09	15848.07
831.417	15869.09
831.743	15866.6
832.069	15979.14
832.395	15936.21
832.722	15897.34
833.048	15868.41
833.374	15921.74
833.7	15817.34
834.026	15798.13
834.351	15811.24
834.677	15801.07
835.003	15805.14
835.329	15853.27
835.654	15780.5
835.98	15732.82
836.306	15784.8
836.631	15660.73
836.956	15700.28
837.282	15775.08
837.607	15702.54
837.932	15553.84
838.258	15566.27
838.583	15593.16
838.908	15396.56
839.233	15537.12
839.558	15500.28
839.883	15380.74
840.208	15347.75
840.533	15418.7
840.858	15340.97
841.182	15338.03
841.507	15307.75
841.832	15170.12
842.156	15275.66
842.481	15198.6
842.805	15098.49
843.13	15122.22
843.454	15255.32
843.778	15069.79
844.103	14994.31
844.427	15029.79
844.751	15021.65
845.075	14940.07
845.399	14917.47
845.723	14816.69
846.047	14796.35
846.371	14669.12
846.695	14741.43
847.019	14631.38
847.343	14590.25
847.666	14472.06
847.99	14498.95
848.313	14385.74
848.637	14315.23
848.96	14300.54
849.284	14217.83
849.607	14207.21
849.931	14135.35
850.254	14058.06
850.577	13919.76
850.9	13849.25
851.223	13866.66
851.546	13745.08
851.869	13717.73
852.192	13772.19
852.515	13624.18
852.838	13647.23
853.161	13614.01
853.483	13503.5
853.806	13452.43
854.129	13450.39
854.451	13446.1
854.774	13304.41
855.096	13327.91
855.419	13319.55
855.741	13156.62
856.063	13191.42
856.385	13144.19
856.708	13136.28
857.03	13065.09
857.352	13040.24
857.674	13022.38
857.996	12976.74
858.318	12910.07
858.64	12861.26
858.961	12851.99
859.283	12814.48
859.605	12741.04
859.926	12735.84
860.248	12731.77
860.57	12668.95
860.891	12751.2
861.212	12604.32
861.534	12631.89
861.855	12541.27
862.176	12540.14
862.498	12555.96
862.819	12470.53
863.14	12422.17
863.461	12406.81
863.782	12398.22
864.103	12399.35
864.424	12335.4
864.745	12346.24
865.065	12256.98
865.386	12180.37
865.707	12263.31
866.027	12287.49
866.348	12206.81
866.668	12188.06
866.989	12095.85
867.309	12037.1
867.63	12069.41
867.95	12132.92
868.27	12050.21
868.59	11995.97
868.91	12018.79
869.23	11979.25
869.55	11942.64
869.87	11963.2
870.19	12036.65
870.51	11964.78
870.83	11995.97
871.15	11818.12
871.469	11893.37
871.789	11911
872.109	11893.83
872.428	11832.81
872.748	11780.16
873.067	11765.24
873.386	11732.7
873.706	11733.15
874.025	11660.61
874.344	11621.52
874.663	11691.12
874.982	11634.85
875.301	11642.53
875.62	11588.52
875.939	11577.68
876.258	11622.19
876.577	11608.64
876.896	11489.32
877.214	11483.44
877.533	11498.36
877.852	11431.69
878.17	11463.78
878.489	11498.81
878.807	11426.95
879.125	11465.14
879.444	11454.52
879.762	11371.58
880.08	11389.21
880.398	11353.5
880.716	11339.26
881.034	11314.63
881.352	11293.16
881.67	11248.87
881.988	11230.34
882.306	11177.69
882.624	11220.85
882.941	11137.91
883.259	11032.38
883.577	11140.17
883.894	11143.79
884.212	11053.62
884.529	11005.26
884.846	11059.27
885.164	10961.65
885.481	10870.12
885.798	11008.65
886.115	10836.23
886.432	10913.06
886.75	10745.61
887.067	10802.33
887.383	10790.35
887.7	10877.13
888.017	10784.25
888.334	10760.07
888.651	10635.1
888.967	10633.97
889.284	10616.35
889.6	10575.44
889.917	10513.75
890.233	10562.11
890.55	10523.69
890.866	10529.34
891.182	10494.99
891.498	10486.18
891.815	10389.68
892.131	10328.9
892.447	10299.29
892.763	10301.55
893.079	10288.67
893.395	10238.73
893.71	10228.33
894.026	10217.49
894.342	10039.19
894.657	10092.29
894.973	10066.53
895.289	9999.64
895.604	10014.33
895.92	9990.82
896.235	9845.52
896.55	9876.7
896.865	9826.08
897.181	9813.43
897.496	9827.21
897.811	9701.57
898.126	9727.78
898.441	9745.18
898.756	9706.31
899.071	9520.33
899.386	9614.79
899.7	9536.83
900.015	9482.59
900.33	9468.13
900.644	9347.45
900.959	9406.43
901.273	9394.68
901.588	9337.06
901.902	9295.48
902.216	9250.05
902.531	9233.78
902.845	9182.71
903.159	9138.19
903.473	9198.53
903.787	9070.17
904.101	9045.99
904.415	9060.68
904.729	8992.43
905.042	8924.64
905.356	8944.07
905.67	8863.17
905.984	8843.51
906.297	8945.43
906.611	8826.79
906.924	8826.11
907.237	8683.29
907.551	8749.95
907.864	8654.36
908.177	8671.99
908.491	8623.86
908.804	8588.83
909.117	8556.96
909.43	8501.6
909.743	8448.27
910.056	8442.39
910.368	8329.17
910.681	8327.37
910.994	8349.06
911.307	8301.6
911.619	8209.4
911.932	8282.85
912.244	8168.73
912.557	8112.68
912.869	8101.16
913.181	8071.55
913.494	8102.06
913.806	7950.65
914.118	7968.05
914.43	7920.14
914.742	7961.73
915.054	7864.1
915.366	7810.77
915.678	7808.06
915.99	7793.82
916.302	7761.28
916.613	7673.82
916.925	7717.89
917.236	7683.09
917.548	7586.37
917.859	7647.84
918.171	7578.46
918.482	7514.73
918.794	7499.14
919.105	7500.72
919.416	7413.94
919.727	7355.64
920.038	7386.37
920.349	7281.29
920.66	7289.2
920.971	7347.05
921.282	7289.43
921.593	7204.46
921.903	7158.58
922.214	7150.45
922.525	7115.19
922.835	7095.08
923.146	7031.81
923.456	7105.7
923.767	6943.45
924.077	7008.08
924.387	6947.74
924.697	6952.94
925.008	6864.13
925.318	6824.35
925.628	6801.98
925.938	6834.52
926.248	6772.15
926.558	6711.36
926.867	6727.41
927.177	6715.43
927.487	6634.75
927.796	6633.4
928.106	6641.08
928.416	6585.72
928.725	6609.9
929.034	6549.11
929.344	6521.99
929.653	6520.18
929.962	6420.75
930.271	6402.44
930.581	6361.09
930.89	6354.76
931.199	6322.67
931.508	6274.09
931.817	6294.2
932.125	6319.73
932.434	6272.73
932.743	6200.64
933.051	6126.97
933.36	6134.66
933.669	6129.46
933.977	6089.91
934.286	6075
934.594	6028.67
934.902	6063.7
935.21	6010.36
935.519	5997.03
935.827	5997.71
936.135	5902.57
936.443	5904.15
936.751	5877.26
937.059	5908.22
937.367	5828.9
937.674	5860.54
937.982	5787.09
938.29	5749.58
938.597	5739.41
938.905	5736.02
939.213	5649.47
939.52	5666.19
939.827	5673.65
940.135	5591.84
940.442	5603.14
940.749	5580.77
941.056	5588.45
941.363	5525.63
941.67	5521.56
941.977	5491.28
942.284	5431.17
942.591	5438.4
942.898	5421
943.205	5449.02
943.511	5337.84
943.818	5337.84
944.125	5319.31
944.431	5269.37
944.738	5289.71
945.044	5237.05
945.35	5205.19
945.657	5188.01
945.963	5169.71
946.269	5165.87
946.575	5108.47
946.881	5060.79
947.187	5065.76
947.493	5045.87
947.799	5040.9
948.105	5002.48
948.41	5015.36
948.716	4959.32
949.022	4947.12
949.327	4934.91
949.633	4885.87
949.938	4892.2
950.244	4834.8
950.549	4789.83
950.854	4816.05
951.16	4790.51
951.465	4796.39
951.77	4697.63
952.075	4716.16
952.38	4690.4
952.685	4670.51
952.99	4669.61
953.294	4679.55
953.599	4630.74
953.904	4619.67
954.209	4596.16
954.513	4587.8
954.818	4548.93
955.122	4521.14
955.426	4524.75
955.731	4489.05
956.035	4481.14
956.339	4463.74
956.643	4442.95
956.948	4376.51
957.252	4438.43
957.556	4385.55
957.86	4363.18
958.163	4357.07
958.467	4302.16
958.771	4292.9
959.075	4309.17
959.378	4243.41
959.682	4305.78
959.985	4220.81
960.289	4241.15
960.592	4190.3
960.896	4197.98
961.199	4149.4
961.502	4175.84
961.805	4094.26
962.108	4112.56
962.411	4138.32
962.714	4082.73
963.017	4070.75
963.32	4042.73
963.623	4016.29
963.926	4003.86
964.228	3969.97
964.531	3984.2
964.833	3974.94
965.136	3958.44
965.438	3945.33
965.741	3870.99
966.043	3933.81
966.345	3881.61
966.648	3881.16
966.95	3828.5
967.252	3801.61
967.554	3777.65
967.856	3800.93
968.158	3792.34
968.46	3734.72
968.761	3740.59
969.063	3728.62
969.365	3717.09
969.666	3680.93
969.968	3678.22
970.269	3667.15
970.571	3645.45
970.872	3672.57
971.174	3604.33
971.475	3576.3
971.776	3571.56
972.077	3563.65
972.378	3558.23
972.679	3567.94
972.98	3547.38
973.281	3523.65
973.582	3493.59
973.883	3474.16
974.183	3420.38
974.484	3487.27
974.785	3413.37
975.085	3436.19
975.386	3415.18
975.686	3394.16
975.986	3376.54
976.287	3352.58
976.587	3341.51
976.887	3331.11
977.187	3291.34
977.487	3290.44
977.787	3245.92
978.087	3244.11
978.387	3261.06
978.687	3245.47
978.987	3218.8
979.286	3220.16
979.586	3201.62
979.885	3184.68
980.185	3164.34
980.484	3143.77
980.784	3119.59
981.083	3131.12
981.382	3143.55
981.682	3076.43
981.981	3066.71
982.28	3079.37
982.579	3035.75
982.878	3052.7
983.177	2993.49
983.475	3027.39
983.774	2986.72
984.073	2990.1
984.372	2933.84
984.67	2946.49
984.969	2925.02
985.267	2927.28
985.566	2934.06
985.864	2910.79
986.162	2872.59
986.461	2857.45
986.759	2873.72
987.057	2814.74
987.355	2811.13
987.653	2804.12
987.951	2830.79
988.249	2791.47
988.547	2739.04
988.844	2768.64
989.142	2741.07
989.44	2779.49
989.737	2737.91
990.035	2692.03
990.332	2697.68
990.63	2692.03
990.927	2688.19
991.224	2627.63
991.521	2657.91
991.819	2626.05
992.116	2620.62
992.413	2613.39
992.71	2600.06
993.006	2578.14
993.303	2562.09
993.6	2580.62
993.897	2565.94
994.193	2564.81
994.49	2524.35
994.787	2500.85
995.083	2527.74
995.379	2487.75
995.676	2456.56
995.972	2466.5
996.268	2471.25
996.565	2437.58
996.861	2428.76
997.157	2386.05
997.453	2409.56
997.749	2396.22
998.044	2405.94
998.34	2365.71
998.636	2392.38
998.932	2351.7
999.227	2294.3
999.523	2313.96
999.818	2334.08
1000.114	2290.01
1000.409	2282.33
1000.704	2279.62
1001	2239.62
1001.295	2256.56
1001.59	2231.71
1001.885	2245.27
1002.18	2224.48
1002.475	2204.81
1002.77	2171.82
1003.065	2176.12
1003.359	2185.83
1003.654	2152.84
1003.949	2155.32
1004.243	2142.22
1004.538	2099.28
1004.832	2105.16
1005.127	2125.27
1005.421	2090.24
1005.715	2079.85
1006.009	2089.56
1006.304	2036.01
1006.598	2061.09
1006.892	2007.53
1007.186	1968.89
1007.48	2021.32
1007.773	2032.84
1008.067	2014.76
1008.361	1978.38
1008.655	1952.84
1008.948	1966.63
1009.242	1947.19
1009.535	1917.59
1009.829	1873.3
1010.122	1909.46
1010.415	1894.09
1010.708	1855.45
1011.001	1869.91
1011.295	1866.07
1011.588	1811.15
1011.881	1828.1
1012.173	1844.82
1012.466	1820.42
1012.759	1809.57
1013.052	1817.48
1013.344	1784.49
1013.637	1800.76
1013.93	1774.32
1014.222	1750.82
1014.514	1757.37
1014.807	1738.16
1015.099	1702.46
1015.391	1722.12
1015.683	1699.74
1015.976	1678.05
1016.268	1700.42
1016.56	1657.03
1016.851	1652.29
1017.143	1653.87
1017.435	1628.56
1017.727	1615.68
1018.018	1613.42
1018.31	1589.69
1018.602	1600.31
1018.893	1592.85
1019.185	1575
1019.476	1575.23
1019.767	1563.48
1020.058	1550.37
1020.35	1525.06
1020.641	1542.23
1020.932	1485.51
1021.223	1467.43
1021.514	1496.81
1021.804	1485.06
1022.095	1463.82
1022.386	1463.37
1022.677	1463.82
1022.967	1466.76
1023.258	1449.35
1023.548	1435.8
1023.839	1426.76
1024.129	1396.02
1024.419	1405.29
1024.709	1375.23
1025	1386.08
1025.29	1365.97
1025.58	1376.81
1025.87	1334.78
1026.16	1370.26
1026.449	1340.66
1026.739	1338.17
1027.029	1332.3
1027.319	1314.44
1027.608	1300.43
1027.898	1311.73
1028.187	1305.18
1028.477	1283.94
1028.766	1262.69
1029.055	1256.37
1029.344	1235.8
1029.634	1260.43
1029.923	1239.19
1030.212	1241.22
1030.501	1223.37
1030.79	1214.11
1031.078	1222.47
1031.367	1198.97
1031.656	1197.16
1031.945	1180.21
1032.233	1171.62
1032.522	1171.62
1032.81	1178.18
1033.099	1182.47
1033.387	1143.83
1033.675	1160.55
1033.963	1119.65
1034.251	1134.56
1034.54	1107.44
1034.828	1103.37
1035.116	1121
1035.403	1096.37
1035.691	1090.72
1035.979	1075.58
1036.267	1080.1
1036.554	1081.45
1036.842	1072.42
1037.129	1044.62
1037.417	1041
1037.704	1057.05
1037.992	1047.78
1038.279	1016.15
1038.566	1011.63
1038.853	1011.63
1039.14	1011.63
