Data from hue_160_FLMS001491_00093.txt Node
Date: Tue Feb 07 16:51:57 GMT 2017
User: dcchb
Spectrometer: FLMS00149
Trigger mode: 0
Integration Time (sec): 2.000000E-2
Scans to average: 10
Electric dark correction enabled: true
Nonlinearity correction enabled: false
Boxcar width: 0
XAxis mode: Wavelengths
Number of Pixels in Spectrum: 2048
>>>>>Begin Spectral Data<<<<<
341.393	-14.77
341.776	-14.77
342.16	-14.77
342.543	-66.3
342.927	-63.81
343.31	-70.37
343.693	-72.17
344.077	-62.68
344.46	-64.04
344.843	-70.59
345.226	-25.85
345.61	-41.21
345.993	-16.81
346.376	-7.54
346.759	8.95
347.142	18.22
347.525	40.82
347.908	62.29
348.291	89.18
348.674	121.27
349.057	90.53
349.44	131.44
349.823	133.02
350.206	172.11
350.588	183.19
350.971	208.05
351.354	217.08
351.737	262.28
352.119	251.89
352.502	282.85
352.884	243.75
353.267	282.39
353.65	290.08
354.032	294.6
354.414	286.69
354.797	318.1
355.179	311.09
355.562	319
355.944	303.41
356.326	338.66
356.709	330.98
357.091	358.55
357.473	348.38
357.855	338.89
358.238	321.04
358.62	332.11
359.002	325.33
359.384	336.86
359.766	336.18
360.148	333.69
360.53	353.58
360.912	350.19
361.294	339.57
361.676	353.35
362.057	332.34
362.439	323.52
362.821	321.71
363.203	307.03
363.584	317.65
363.966	323.52
364.348	298.66
364.729	312
365.111	327.14
365.493	343.18
365.874	324.88
366.256	332.56
366.637	321.49
367.019	326.01
367.4	312
367.781	337.31
368.163	335.5
368.544	323.07
368.925	303.86
369.306	310.19
369.688	302.96
370.069	323.52
370.45	297.76
370.831	307.25
371.212	306.57
371.593	301.15
371.974	316.97
372.355	328.27
372.736	319
373.117	301.38
373.498	325.1
373.879	306.35
374.26	296.86
374.641	310.19
375.021	328.27
375.402	339.79
375.783	304.99
376.163	313.35
376.544	324.65
376.925	324.43
377.305	307.93
377.686	314.71
378.066	313.13
378.447	324.88
378.827	312.22
379.208	336.63
379.588	311.77
379.968	333.47
380.349	315.39
380.729	330.08
381.109	334.37
381.489	313.58
381.87	320.13
382.25	318.32
382.63	332.34
383.01	336.86
383.39	351.09
383.77	335.5
384.15	341.15
384.53	341.38
384.91	354.71
385.29	346.8
385.67	324.65
386.049	357.65
386.429	335.95
386.809	341.15
387.189	319.45
387.568	340.47
387.948	353.58
388.328	362.17
388.707	340.92
389.087	324.88
389.466	355.39
389.846	373.01
390.225	369.85
390.605	354.26
390.984	330.3
391.363	374.82
391.743	362.84
392.122	363.97
392.501	371.88
392.881	358.32
393.26	364.2
393.639	351.09
394.018	374.82
394.397	370.08
394.776	370.75
395.155	385.44
395.534	378.66
395.913	380.7
396.292	383.63
396.671	361.94
397.05	381.6
397.429	392.22
397.808	375.27
398.186	359.45
398.565	388.61
398.944	369.17
399.323	405.33
399.701	393.8
400.08	401.03
400.458	396.74
400.837	394.93
401.215	385.67
401.594	380.92
401.972	412.79
402.351	415.72
402.729	391.54
403.107	405.78
403.486	428.83
403.864	395.61
404.242	416.4
404.62	415.5
404.999	425.89
405.377	414.14
405.755	447.59
406.133	433.35
406.511	434.03
406.889	420.47
407.267	439.23
407.645	431.54
408.023	464.08
408.401	427.93
408.779	446.23
409.156	427.02
409.534	439
409.912	465.21
410.29	460.92
410.667	450.98
411.045	444.2
411.422	453.24
411.8	481.94
412.178	474.25
412.555	466.8
412.933	467.25
413.31	487.36
413.687	479.68
414.065	477.42
414.442	468.6
414.819	495.04
415.197	478.77
415.574	496.85
415.951	493.91
416.328	506.57
416.705	487.36
417.082	497.08
417.46	513.12
417.837	515.61
418.214	511.77
418.591	528.49
418.967	535.04
419.344	527.81
419.721	529.84
420.098	511.09
420.475	526.46
420.852	529.84
421.228	545.44
421.605	554.25
421.982	558.54
422.358	543.63
422.735	558.54
423.111	560.13
423.488	561.93
423.864	557.19
424.241	574.36
424.617	579.79
424.994	566
425.37	575.04
425.746	599.67
426.123	575.72
426.499	570.75
426.875	589.05
427.251	600.8
427.627	626.79
428.003	631.09
428.379	597.19
428.756	603.06
429.132	627.02
429.507	633.8
429.883	622.27
430.259	624.98
430.635	661.37
431.011	653.91
431.387	648.49
431.763	684.19
432.138	672.67
432.514	691.42
432.89	698.2
433.265	720.35
433.641	692.33
434.016	705.21
434.392	698.2
434.767	722.61
435.143	734.36
435.518	739.33
435.894	733.23
436.269	747.24
436.644	765.32
437.02	757.41
437.395	760.8
437.77	782.49
438.145	783.62
438.52	770.97
438.895	801.48
439.271	781.14
439.646	808.26
440.021	816.62
440.395	834.24
440.77	817.29
441.145	830.85
441.52	852.32
441.895	849.38
442.27	867.69
442.645	875.15
443.019	879.21
443.394	845.99
443.769	881.93
444.143	876.73
444.518	874.92
444.892	882.6
445.267	874.02
445.641	901.81
446.016	916.73
446.39	884.19
446.764	926.44
447.139	910.85
447.513	940.91
447.887	941.36
448.262	932.32
448.636	923.73
449.01	961.47
449.384	968.48
449.758	954.69
450.132	965.99
450.506	996.95
450.88	983.39
451.254	986.33
451.628	1007.57
452.002	1009.38
452.376	1001.02
452.75	1065.88
453.123	1053.9
453.497	1048.7
453.871	1064.29
454.244	1078.76
454.618	1067.01
454.992	1099.1
455.365	1131.41
455.739	1141.13
456.112	1124.63
456.486	1131.18
456.859	1187
457.232	1161.01
457.606	1153.56
457.979	1207.57
458.352	1212.31
458.725	1238.98
459.099	1239.2
459.472	1251.63
459.845	1261.8
460.218	1274.46
460.591	1301.58
460.964	1304.51
461.337	1343.16
461.71	1363.95
462.083	1382.48
462.456	1359.65
462.829	1369.37
463.201	1421.12
463.574	1395.58
463.947	1456.83
464.32	1477.39
464.692	1481.01
465.065	1497.73
465.438	1559.2
465.81	1562.81
466.183	1569.14
466.555	1620.21
466.928	1605.97
467.3	1625.41
467.672	1638.97
468.045	1677.61
468.417	1713.99
468.789	1733.2
469.161	1751.28
469.534	1814.33
469.906	1842.35
470.278	1847.1
470.65	1906.31
471.022	1902.46
471.394	1963.25
471.766	1995.34
472.138	2052.74
472.51	2064.95
472.882	2123.93
473.253	2163.47
473.625	2214.32
473.997	2264.49
474.369	2286.63
474.74	2339.06
475.112	2409.34
475.484	2438.27
475.855	2505.16
476.227	2543.58
476.598	2614.31
476.97	2665.61
477.341	2739.5
477.713	2782.44
478.084	2813.85
478.455	2968.65
478.827	2999.61
479.198	3131.81
479.569	3125.93
479.94	3222.2
480.311	3341.3
480.682	3447.73
481.053	3579.03
481.424	3614.06
481.795	3684.34
482.166	3762.3
482.537	3852.02
482.908	3955.74
483.279	4062.18
483.65	4176.08
484.021	4282.29
484.391	4395.96
484.762	4518.67
485.133	4586.69
485.503	4690.41
485.874	4837.08
486.244	4924.31
486.615	5034.13
486.985	5141.02
487.356	5341.7
487.726	5391.19
488.097	5552.31
488.467	5638.64
488.837	5782.59
489.207	5931.51
489.578	6050.83
489.948	6207.21
490.318	6338.28
490.688	6362.69
491.058	6531.72
491.428	6673.64
491.798	6815.78
492.168	7004.02
492.538	7076.79
492.908	7161.08
493.278	7347.97
493.648	7377.8
494.017	7562.2
494.387	7629.77
494.757	7786.38
495.126	7984.79
495.496	8011.46
495.866	8088.06
496.235	8262.97
496.605	8389.07
496.974	8505.68
497.344	8579.35
497.713	8713.13
498.082	8788.84
498.452	8969.85
498.821	9009.17
499.19	9073.8
499.559	9202.16
499.928	9305.89
500.298	9400.57
500.667	9555.14
501.036	9533
501.405	9658.19
501.774	9674.92
502.143	9821.13
502.512	9812.99
502.88	9979.54
503.249	10003.04
503.618	10063.83
503.987	10159.65
504.356	10222.02
504.724	10349.93
505.093	10373.65
505.462	10432.41
505.83	10524.61
506.199	10601.22
506.567	10675.57
506.936	10758.28
507.304	10839.86
507.672	10898.39
508.041	10962.79
508.409	11033.98
508.777	11115.78
509.145	11150.81
509.514	11137.48
509.882	11235.1
510.25	11313.52
510.618	11280.52
510.986	11346.28
511.354	11431.03
511.722	11518.48
512.09	11558.93
512.458	11586.05
512.826	11731.36
513.193	11742.88
513.561	11743.79
513.929	11797.57
514.297	11799.83
514.664	11922.54
515.032	11977.23
515.4	11964.12
515.767	12045.47
516.135	12024.01
516.502	12014.06
516.869	12142.19
517.237	12172.93
517.604	12118.24
517.972	12170.22
518.339	12280.95
518.706	12194.4
519.073	12265.13
519.44	12323.88
519.808	12373.83
520.175	12342.19
520.542	12482.07
520.909	12461.28
521.276	12428.29
521.643	12499.7
522.009	12623.76
522.376	12600.04
522.743	12622.86
523.11	12683.42
523.477	12703.76
523.843	12742.41
524.21	12834.83
524.577	12877.32
524.943	12788.51
525.31	12934.26
525.676	12933.81
526.043	12976.52
526.409	12951.21
526.776	13040.48
527.142	12920.48
527.508	13111.66
527.874	13130.19
528.241	13141.72
528.607	13077.31
528.973	13101.49
529.339	13062.62
529.705	13153.24
530.071	13192.79
530.437	13212
530.803	13218.1
531.169	13249.06
531.535	13146.69
531.901	13179.23
532.267	13056.52
532.632	13136.97
532.998	13114.82
533.364	13132
533.73	13089.97
534.095	13137.87
534.461	13200.92
534.826	13112.11
535.192	13076.86
535.557	13122.06
535.923	13017.43
536.288	12959.57
536.653	13041.15
537.019	12991.66
537.384	12927.26
537.749	12905.56
538.114	12916.86
538.479	12882.74
538.845	12873.7
539.21	12813.59
539.575	12814.49
539.94	12718.9
540.305	12841.39
540.67	12752.57
541.034	12795.06
541.399	12728.39
541.764	12681.39
542.129	12596.87
542.494	12625.57
542.858	12581.05
543.223	12451.79
543.587	12542.86
543.952	12520.26
544.316	12484.56
544.681	12445.01
545.045	12435.97
545.41	12375.18
545.774	12457.67
546.138	12339.03
546.503	12373.83
546.867	12280.27
547.231	12287.95
547.595	12210.89
547.959	12253.6
548.324	12145.58
548.688	12148.07
549.052	12150.56
549.416	12127.28
549.779	12085.93
550.143	11998.24
550.507	12037.56
550.871	12021.52
551.235	11931.13
551.599	11989.43
551.962	11940.84
552.326	11895.2
552.689	11986.04
553.053	11798.93
553.417	11822.2
553.78	11976.78
554.143	11730.68
554.507	11748.08
554.87	11774.07
555.234	11874.18
555.597	11732.49
555.96	11703.34
556.323	11746.73
556.686	11673.51
557.05	11708.31
557.413	11696.78
557.776	11701.3
558.139	11718.7
558.502	11669.21
558.865	11646.61
559.228	11693.62
559.59	11714.41
559.953	11613.17
560.316	11719.38
560.679	11669.21
561.041	11718.25
561.404	11687.29
561.767	11684.13
562.129	11698.36
562.492	11696.56
562.854	11709.89
563.217	11699.49
563.579	11716.22
563.941	11743.34
564.304	11820.4
564.666	11801.19
565.028	11699.72
565.39	11817.46
565.753	11838.25
566.115	11820.4
566.477	11790.11
566.839	11814.07
567.201	11903.33
567.563	11845.71
567.925	11926.61
568.287	11812.71
568.648	11904.91
569.01	11857.23
569.372	11939.71
569.734	11876.89
570.095	11873.73
570.457	11906.95
570.819	11945.14
571.18	11992.82
571.542	11889.32
571.903	11984.91
572.265	12034.85
572.626	12002.54
572.987	11956.66
573.349	12025.81
573.71	12029.66
574.071	11992.14
574.432	12058.36
574.794	12146.94
575.155	12067.39
575.516	12035.08
575.877	12068.52
576.238	12122.08
576.599	12116.43
576.96	12140.16
577.32	12101.52
577.681	12125.92
578.042	12143.78
578.403	12158.24
578.763	12101.52
579.124	12132.93
579.485	12154.4
579.845	12186.49
580.206	12153.04
580.566	12162.76
580.927	12167.73
581.287	12209.99
581.648	12153.95
582.008	12165.92
582.368	12112.82
582.728	12130.22
583.089	12168.63
583.449	12171.35
583.809	12124.34
584.169	12103.78
584.529	12090.22
584.889	12110.33
585.249	12076.89
585.609	12002.54
585.969	12192.81
586.329	12041.18
586.688	12064.91
587.048	12043.67
587.408	12001.86
587.768	12081.18
588.127	12020.84
588.487	11950.79
588.846	11944.01
589.206	12022.42
589.565	11952.14
589.925	12075.76
590.284	11876.89
590.643	11972.03
591.003	12050.9
591.362	12043.44
591.721	11951.47
592.08	11993.27
592.44	12037.11
592.799	11962.31
593.158	11953.05
593.517	11928.87
593.876	11855.87
594.235	11860.62
594.593	11845.25
594.952	11954.18
595.311	11933.39
595.67	11868.3
596.029	11909.21
596.387	11979.04
596.746	11948.53
597.104	11880.28
597.463	11875.99
597.822	11922.31
598.18	11862.43
598.538	11780.17
598.897	11955.99
599.255	11806.16
599.613	11941.75
599.972	11847.74
600.33	11810
600.688	11889.09
601.046	11847.06
601.404	11835.54
601.762	11859.49
602.12	11912.37
602.478	11872.82
602.836	11797.57
603.194	11781.53
603.552	11834.41
603.91	11879.38
604.268	11872.37
604.625	11803.45
604.983	11863.78
605.341	11860.17
605.698	11926.16
606.056	11920.05
606.413	11871.02
606.771	11938.58
607.128	11894.74
607.485	11860.39
607.843	11912.82
608.2	11946.27
608.557	11971.58
608.914	11915.53
609.272	11967.96
609.629	11975.19
609.986	12034.4
610.343	11983.33
610.7	12145.36
611.057	11995.53
611.414	12038.24
611.771	11979.94
612.127	12036.89
612.484	12062.42
612.841	12094.96
613.198	12052.25
613.554	12043.89
613.911	12083.67
614.267	11976.78
614.624	12079.15
614.98	12035.53
615.337	12143.32
615.693	12177.9
616.05	12057.23
616.406	12114.62
616.762	12106.04
617.118	12089.31
617.475	12095.64
617.831	12217.67
618.187	12226.71
618.543	12234.62
618.899	12258.35
619.255	12252.25
619.611	12207.73
619.967	12244.57
620.323	12309.2
620.678	12274.39
621.034	12208.18
621.39	12136.77
621.746	12173.38
622.101	12356.88
622.457	12224.45
622.812	12219.71
623.168	12178.13
623.523	12288.41
623.879	12292.7
624.234	12143.32
624.589	12264.23
624.945	12227.16
625.3	12236.66
625.655	12225.36
626.01	12247.5
626.365	12217.9
626.72	12261.51
627.075	12274.85
627.43	12243.66
627.785	12077.79
628.14	12201.85
628.495	12242.76
628.85	12263.55
629.205	12094.51
629.559	12225.13
629.914	12130.44
630.269	12203.66
630.623	12035.31
630.978	12105.81
631.332	12164.12
631.687	12166.38
632.041	12071.24
632.396	12129.77
632.75	12087.96
633.104	12103.55
633.459	11986.27
633.813	11993.5
634.167	11971.58
634.521	12005.7
634.875	11960.73
635.229	12036.89
635.583	11930.45
635.937	11944.91
636.291	11948.3
636.645	11940.17
636.999	11790.34
637.352	11908.98
637.706	11841.41
638.06	11925.03
638.413	11847.06
638.767	11820.17
639.121	11831.92
639.474	11815.42
639.828	11749.66
640.181	11838.47
640.534	11803.45
640.888	11787.18
641.241	11762.77
641.594	11685.26
641.947	11707.4
642.301	11774.29
642.654	11690.91
643.007	11730.23
643.36	11650.68
643.713	11633.28
644.066	11743.56
644.419	11669.66
644.771	11631.02
645.124	11469.22
645.477	11436.45
645.83	11372.95
646.182	11301.99
646.535	11286.62
646.888	11367.07
647.24	11258.15
647.593	11316
647.945	11323.46
648.298	11280.52
648.65	11234.2
649.002	11239.39
649.355	11297.25
649.707	11269.68
650.059	11382.21
650.411	11457.69
650.763	11448.65
651.115	11541.31
651.467	11553.96
651.819	11558.03
652.171	11495.43
652.523	11480.97
652.875	11499.5
653.227	11461.53
653.578	11567.29
653.93	11541.53
654.282	11404.81
654.633	11558.26
654.985	11522.55
655.337	11509.9
655.688	11504.7
656.039	11528.2
656.391	11446.17
656.742	11501.76
657.094	11476.9
657.445	11563
657.796	11508.99
658.147	11569.1
658.498	11545.6
658.849	11628.76
659.2	11572.72
659.551	11540.63
659.902	11565.71
660.253	11572.94
660.604	11560.74
660.955	11586.73
661.306	11529.78
661.656	11560.06
662.007	11550.35
662.358	11574.53
662.708	11481.87
663.059	11558.03
663.409	11512.38
663.76	11610.01
664.11	11539.27
664.461	11547.63
664.811	11528.65
665.161	11571.59
665.511	11518.48
665.862	11578.59
666.212	11642.55
666.562	11594.41
666.912	11585.83
667.262	11524.36
667.612	11544.02
667.962	11618.59
668.312	11552.15
668.662	11553.06
669.011	11532.72
669.361	11523.68
669.711	11556.22
670.06	11540.18
670.41	11462.89
670.76	11592.15
671.109	11558.93
671.459	11520.97
671.808	11417.92
672.157	11509.44
672.507	11457.47
672.856	11449.11
673.205	11540.85
673.554	11553.06
673.904	11454.76
674.253	11593.06
674.602	11476
674.951	11280.97
675.3	11315.78
675.649	11391.71
675.998	11416.11
676.346	11379.28
676.695	11432.61
677.044	11386.96
677.393	11345.38
677.741	11333.4
678.09	11364.59
678.438	11322.56
678.787	11324.36
679.135	11327.98
679.484	11228.09
679.832	11262.44
680.181	11196.91
680.529	11224.25
680.877	11224.48
681.225	11224.03
681.573	11218.6
681.922	11148.55
682.27	11156.23
682.618	11169.79
682.966	11072.17
683.314	11180.19
683.661	11050.7
684.009	11018.83
684.357	11014.77
684.705	11016.57
685.053	11009.12
685.4	10984.94
685.748	10872.85
686.095	10902.68
686.443	10822.46
686.79	10864.94
687.138	10950.36
687.485	10900.65
687.832	10920.08
688.18	10860.19
688.527	10688.67
688.874	10719.86
689.221	10732.74
689.568	10672.4
689.915	10677.37
690.262	10608.22
690.609	10598.28
690.956	10488
691.303	10488.23
691.65	10471.73
691.997	10407.55
692.344	10359.87
692.69	10354.45
693.037	10366.87
693.383	10230.83
693.73	10260.89
694.077	10254.56
694.423	10256.82
694.769	10147.45
695.116	10105.64
695.462	10092.98
695.808	10065.64
696.155	10115.13
696.501	10007.56
696.847	9995.81
697.193	9911.29
697.539	9994.45
697.885	9892.08
698.231	9836.27
698.577	9868.36
698.923	9881.24
699.269	9733.22
699.614	9671.75
699.96	9641.47
700.306	9634.46
700.651	9623.39
700.997	9536.39
701.342	9562.83
701.688	9555.37
702.033	9458.2
702.379	9452.1
702.724	9449.61
703.069	9461.36
703.415	9341.82
703.76	9324.19
704.105	9337.75
704.45	9319.9
704.795	9237.86
705.14	9172.33
705.485	9275.6
705.83	9210.75
706.175	9186.79
706.52	9147.47
706.865	9166.91
707.209	9102.73
707.554	9057.3
707.899	9082.61
708.243	8940.92
708.588	8989.06
708.932	8904.09
709.277	8927.59
709.621	8888.95
709.966	8843.75
710.31	8861.83
710.654	8803.07
710.998	8823.41
711.342	8813.24
711.687	8759.46
712.031	8631.55
712.375	8704.09
712.719	8721.72
713.063	8652.57
713.407	8737.09
713.75	8660.25
714.094	8648.73
714.438	8577.99
714.782	8674.72
715.125	8603.98
715.469	8597.66
715.812	8529.18
716.156	8483.53
716.499	8482.18
716.843	8526.7
717.186	8479.69
717.53	8512.69
717.873	8512.23
718.216	8455.51
718.559	8406.25
718.902	8389.3
719.246	8402.86
719.589	8397.43
719.932	8293.48
720.275	8362.18
720.617	8308.4
720.96	8303.65
721.303	8268.85
721.646	8352.24
721.989	8266.14
722.331	8299.58
722.674	8225.01
723.016	8278.12
723.359	8288.28
723.701	8257.33
724.044	8255.97
724.386	8231.11
724.729	8252.81
725.071	8251.9
725.413	8247.16
725.755	8186.82
726.097	8213.03
726.439	8170.77
726.782	8172.81
727.124	8259.13
727.465	8253.03
727.807	8145.46
728.149	8217.33
728.491	8133.94
728.833	8212.58
729.175	8109.31
729.516	8147.72
729.858	8166.71
730.199	8081.51
730.541	8191.34
730.882	8100.72
731.224	8137.55
731.565	8126.48
731.906	8066.14
732.248	8118.35
732.589	8106.14
732.93	8179.14
733.271	8087.61
733.612	8144.56
733.953	8153.6
734.294	8074.96
734.635	8105.69
734.976	8135.52
735.317	8072.92
735.658	8076.09
735.999	8075.64
736.339	8038.12
736.68	8149.08
737.021	8105.01
737.361	8065.69
737.702	8134.84
738.042	8089.19
738.383	8115.63
738.723	8190.21
739.063	8147.95
739.404	8146.59
739.744	8135.75
740.084	8173.03
740.424	8112.02
740.764	8119.25
741.104	8193.82
741.444	8202.64
741.784	8250.77
742.124	8231.79
742.464	8247.16
742.804	8251.9
743.143	8284.9
743.483	8279.02
743.823	8271.56
744.162	8274.5
744.502	8380.94
744.841	8394.95
745.181	8422.74
745.52	8457.77
745.86	8443.99
746.199	8508.17
746.538	8540.48
746.877	8584.55
747.216	8614.83
747.556	8675.85
747.895	8735.96
748.234	8723.75
748.573	8729.4
748.911	8770.31
749.25	8858.21
749.589	8905.22
749.928	9008.94
750.267	9044.65
750.605	9097.53
750.944	9159
751.283	9176.62
751.621	9273.57
751.96	9444.19
752.298	9489.61
752.636	9560.57
752.975	9597.18
753.313	9666.1
753.651	9841.24
753.989	9956.04
754.327	10024.28
754.666	10135.47
755.004	10271.28
755.342	10356.03
755.679	10486.65
756.017	10523.48
756.355	10750.59
756.693	10799.63
757.031	11023.13
757.368	11058.38
757.706	11149.45
758.044	11318.04
758.381	11500.86
758.719	11560.52
759.056	11842.77
759.394	11875.08
759.731	12027.62
760.068	12207.73
760.405	12280.72
760.743	12509.42
761.08	12687.72
761.417	12736.98
761.754	12919.8
762.091	13106.24
762.428	13209.06
762.765	13352.56
763.102	13540.12
763.438	13773.34
763.775	13830.29
764.112	14062.37
764.449	14153.22
764.785	14223.5
765.122	14389.82
765.458	14499.42
765.795	14699.87
766.131	14853.76
766.467	14994.1
766.804	15073.64
767.14	15171.49
767.476	15309.34
767.812	15513.18
768.148	15596.12
768.485	15733.51
768.821	15732.83
769.157	15907.97
769.492	15996.1
769.828	16145.03
770.164	16180.28
770.5	16365.81
770.836	16439.26
771.171	16540.27
771.507	16626.82
771.842	16658.91
772.178	16651
772.513	16817.55
772.849	16975.97
773.184	16998.56
773.519	17101.84
773.855	17247.37
774.19	17178.45
774.525	17314.04
774.86	17387.03
775.195	17552.9
775.53	17471.55
775.865	17508.61
776.2	17426.12
776.535	17521.04
776.87	17604.2
777.205	17633.58
777.539	17694.82
777.874	17854.14
778.209	17715.83
778.543	17796.96
778.878	17676.29
779.212	17770.97
779.547	17764.65
779.881	17847.36
780.215	17813.68
780.55	17867.69
780.884	17791.31
781.218	17929.84
781.552	17821.59
781.886	17903.63
782.22	17800.35
782.554	17852.55
782.888	17688.49
783.222	17755.15
783.556	17822.27
783.889	17688.49
784.223	17585.44
784.557	17726.68
784.89	17821.82
785.224	17723.52
785.557	17667.02
785.891	17655.72
786.224	17650.07
786.558	17690.98
786.891	17520.36
787.224	17602.62
787.557	17490.98
787.891	17534.14
788.224	17527.36
788.557	17590.64
788.89	17581.6
789.223	17523.52
789.556	17523.07
789.888	17467.48
790.221	17433.36
790.554	17364.2
790.887	17401.27
791.219	17329.86
791.552	17339.12
791.884	17276.75
792.217	17203.3
792.549	17233.36
792.882	17150.88
793.214	17081.95
793.546	17139.35
793.879	17031.56
794.211	17002.41
794.543	17091.22
794.875	16968.06
795.207	17046.25
795.539	16985.23
795.871	16873.14
796.203	16787.95
796.535	16765.12
796.867	16703.66
797.198	16672.92
797.53	16686.03
797.862	16564
798.193	16592.93
798.525	16561.97
798.856	16617.33
799.188	16311.35
799.519	16365.36
799.85	16304.35
800.182	16344.34
800.513	16291.01
800.844	16161.52
801.175	16232.03
801.506	16302.54
801.837	16229.09
802.168	16189.32
802.499	16151.58
802.83	16082.66
803.161	16059.38
803.491	15969.21
803.822	16140.73
804.153	15980.74
804.483	15794.3
804.814	15838.37
805.145	15785.94
805.475	15784.13
805.805	15784.81
806.136	15702.33
806.466	15763.34
806.796	15707.75
807.126	15599.51
807.457	15574.87
807.787	15534.87
808.117	15514.76
808.447	15462.11
808.777	15531.26
809.107	15287.65
809.436	15289.91
809.766	15387.31
810.096	15319.06
810.426	15225.73
810.755	15211.27
811.085	15203.13
811.414	15192.96
811.744	15045.62
812.073	15046.53
812.403	15092.17
812.732	14969.01
813.061	15009.24
813.39	15038.39
813.719	14889.69
814.049	14952.29
814.378	14850.15
814.707	14888.79
815.036	14773.76
815.365	14826.19
815.693	14668
816.022	14708.46
816.351	14654.9
816.68	14534
817.008	14644.95
817.337	14558.63
817.665	14493.77
817.994	14512.98
818.322	14541
818.651	14523.83
818.979	14451.51
819.307	14440.21
819.636	14450.83
819.964	14463.26
820.292	14424.39
820.62	14413.77
820.948	14374.68
821.276	14483.38
821.604	14264.85
821.932	14388.01
822.259	14378.07
822.587	14415.13
822.915	14250.84
823.243	14419.42
823.57	14277.73
823.898	14388.24
824.225	14337.17
824.553	14269.14
824.88	14327
825.207	14324.28
825.535	14286.77
825.862	14443.83
826.189	14322.48
826.516	14367.22
826.843	14329.48
827.17	14386.2
827.497	14446.77
827.824	14322.93
828.151	14408.35
828.478	14304.17
828.805	14480.89
829.131	14366.54
829.458	14295.36
829.785	14291.06
830.111	14333.1
830.438	14418.07
830.764	14363.61
831.09	14375.36
831.417	14331.06
831.743	14284.96
832.069	14327.67
832.395	14275.7
832.722	14314.34
833.048	14307.34
833.374	14289.03
833.7	14199.99
834.026	14224.85
834.351	14228.92
834.677	14218.52
835.003	14297.84
835.329	14190.5
835.654	14199.77
835.98	14158.19
836.306	14140.11
836.631	14152.76
836.956	14181.46
837.282	14145.31
837.607	14066.89
837.932	14028.02
838.258	14032.99
838.583	14091.3
838.908	13930.17
839.233	14018.53
839.558	13870.74
839.883	13905.76
840.208	13789.16
840.533	13930.85
840.858	13848.82
841.182	13847.69
841.507	13824.86
841.832	13786.9
842.156	13720.68
842.481	13629.16
842.805	13687.69
843.13	13669.84
843.454	13605.89
843.778	13545.55
844.103	13601.37
844.427	13505.1
844.751	13524.76
845.075	13449.05
845.399	13335.16
845.723	13356.17
846.047	13366.34
846.371	13248.15
846.695	13318.66
847.019	13203.41
847.343	13138.55
847.666	13050.65
847.99	13102.62
848.313	12960.93
848.637	12932
848.96	12950.31
849.284	12916.86
849.607	12768.17
849.931	12762.97
850.254	12626.02
850.577	12603.43
850.9	12504.9
851.223	12551
851.546	12513.26
851.869	12399.82
852.192	12426.03
852.515	12332.02
852.838	12309.87
853.161	12281.85
853.483	12226.03
853.806	12125.92
854.129	12195.75
854.451	12106.26
854.774	12000.73
855.096	11988.07
855.419	11964.57
855.741	11988.3
856.063	11838.02
856.385	11868.53
856.708	11810.23
857.03	11809.77
857.352	11747.4
857.674	11629.89
857.996	11687.97
858.318	11599.38
858.64	11627.18
858.961	11603.68
859.283	11549.44
859.605	11464.25
859.926	11504.47
860.248	11473.74
860.57	11369.11
860.891	11400.52
861.212	11379.05
861.534	11334.98
861.855	11282.56
862.176	11334.31
862.498	11287.3
862.819	11197.36
863.14	11234.2
863.461	11216.34
863.782	11104.93
864.103	11180.19
864.424	11169.57
864.745	11117.59
865.065	11038.27
865.386	11008.44
865.707	11012.28
866.027	11032.85
866.348	11067.19
866.668	10982.23
866.989	10999.85
867.309	10931.15
867.63	10925.73
867.95	10946.75
868.27	10968.67
868.59	10918.95
868.91	10835.56
869.23	10812.06
869.55	10789.69
869.87	10831.72
870.19	10795.11
870.51	10782.68
870.83	10796.47
871.15	10746.75
871.469	10700.2
871.789	10760.54
872.109	10716.24
872.428	10703.36
872.748	10723.02
873.067	10645.74
873.386	10631.73
873.706	10653.19
874.025	10565.29
874.344	10540.88
874.663	10595.12
874.982	10537.49
875.301	10511.5
875.62	10547.21
875.939	10437.83
876.258	10488.68
876.577	10445.52
876.896	10494.1
877.214	10436.25
877.533	10452.97
877.852	10320.77
878.17	10396.25
878.489	10364.39
878.807	10341.79
879.125	10334.11
879.444	10401.22
879.762	10255.69
880.08	10331.62
880.398	10206.65
880.716	10246.43
881.034	10192.87
881.352	10197.39
881.67	10230.61
881.988	10222.47
882.306	10154.45
882.624	10209.59
882.941	10097.28
883.259	10052.98
883.577	10008.92
883.894	9983.38
884.212	10029.71
884.529	9982.03
884.846	9997.84
885.164	9927.79
885.481	9844.4
885.798	9942.7
886.115	9809.37
886.432	9882.59
886.75	9894.34
887.067	9787.68
887.383	9789.49
887.7	9758.75
888.017	9725.08
888.334	9718.53
888.651	9686.67
888.967	9639.89
889.284	9600.79
889.6	9635.37
889.917	9502.72
890.233	9593.79
890.55	9425.88
890.866	9499.55
891.182	9463.62
891.498	9447.35
891.815	9380.69
892.131	9355.15
892.447	9353.79
892.763	9348.6
893.079	9321.48
893.395	9288.71
893.71	9245.55
894.026	9180.46
894.342	9186.34
894.657	9159.67
894.973	9063.63
895.289	9103.63
895.604	9097.98
895.92	8975.05
896.235	8900.92
896.55	8979.11
896.865	8946.57
897.181	8848.95
897.496	8902.73
897.811	8801.72
898.126	8747.48
898.441	8763.53
898.756	8786.8
899.071	8679.69
899.386	8697.77
899.7	8644.89
900.015	8587.26
900.33	8526.47
900.644	8526.02
900.959	8529.63
901.273	8505.91
901.588	8481.73
901.902	8375.29
902.216	8408.06
902.531	8389.75
902.845	8346.14
903.159	8308.85
903.473	8281.51
903.787	8170.77
904.101	8145.92
904.415	8202.41
904.729	8153.37
905.042	8098.69
905.356	8101.17
905.67	8041.51
905.984	8086.26
906.297	8044.45
906.611	7922.19
906.924	7907.96
907.237	7881.97
907.551	7874.28
907.864	7897.11
908.177	7827.05
908.491	7797.45
908.804	7784.12
909.117	7704.57
909.43	7681.52
909.743	7668.87
910.056	7653.05
910.368	7571.69
910.681	7537.12
910.994	7518.81
911.307	7483.33
911.619	7409.89
911.932	7436.56
912.244	7410.57
912.557	7378.7
912.869	7291.02
913.181	7269.78
913.494	7257.8
913.806	7197.01
914.118	7248.09
914.43	7184.13
914.742	7193.62
915.054	7194.75
915.366	7049
915.678	7091.03
915.99	7036.34
916.302	7027.08
916.613	6980.75
916.925	6914.31
917.236	6929.22
917.548	6894.2
917.859	6901.65
918.171	6796.57
918.482	6806.97
918.794	6755.67
919.105	6766.97
919.416	6728.1
919.727	6728.55
920.038	6666.41
920.349	6688.1
920.66	6644.49
920.971	6625.96
921.282	6602.45
921.593	6529.01
921.903	6547.77
922.214	6484.49
922.525	6443.36
922.835	6428.22
923.146	6383.48
923.456	6380.54
923.767	6321.78
924.077	6341.9
924.387	6306.19
924.697	6234.55
925.008	6275
925.318	6212.86
925.628	6193.88
925.938	6216.7
926.248	6169.7
926.558	6178.51
926.867	6070.26
927.177	6061.22
927.487	6103.03
927.796	5969.48
928.106	5978.97
928.416	5969.93
928.725	5983.26
929.034	5962.92
929.344	5948.69
929.653	5870.95
929.962	5850.16
930.271	5777.62
930.581	5801.8
930.89	5747.79
931.199	5759.31
931.508	5765.87
931.817	5759.54
932.125	5696.94
932.434	5731.97
932.743	5633.89
933.051	5643.61
933.36	5602.25
933.669	5579.2
933.977	5555.7
934.286	5559.77
934.594	5540.33
934.902	5487
935.21	5437.06
935.519	5508.02
935.827	5418.98
936.135	5417.85
936.443	5348.93
936.751	5319.55
937.059	5296.5
937.367	5333.79
937.674	5273
937.982	5307.35
938.29	5257.63
938.597	5271.87
938.905	5218.54
939.213	5124.07
939.52	5157.52
939.827	5145.32
940.135	5119.55
940.442	5096.05
940.749	5112.1
941.056	5079.78
941.363	4991.2
941.67	4992.1
941.977	4941.25
942.284	4952.55
942.591	4960.69
942.898	4887.92
943.205	4899
943.511	4839.34
943.818	4830.52
944.125	4864.87
944.431	4776.06
944.738	4812.67
945.044	4787.59
945.35	4698.1
945.657	4730.19
945.963	4681.83
946.269	4660.36
946.575	4681.15
946.881	4672.56
947.187	4622.39
947.493	4637.99
947.799	4546.46
948.105	4572.22
948.41	4525.9
948.716	4541.26
949.022	4507.82
949.327	4512.79
949.633	4470.53
949.938	4438.22
950.244	4427.37
950.549	4398.67
950.854	4386.69
951.16	4371.1
951.465	4337.88
951.77	4365.68
952.075	4313.93
952.38	4288.62
952.685	4286.58
952.99	4234.38
953.294	4252.46
953.599	4201.39
953.904	4207.94
954.209	4158.45
954.513	4193.93
954.818	4147.83
955.122	4135.63
955.426	4126.81
955.731	4133.14
956.035	4075.97
956.339	4076.19
956.643	4062.86
956.948	3991.9
957.252	4021.28
957.556	4017.21
957.86	3988.51
958.163	3987.61
958.467	3950.55
958.771	3948.29
959.075	3902.86
959.378	3897.44
959.682	3836.42
959.985	3872.13
960.289	3831.68
960.592	3846.59
960.896	3808.85
961.199	3793.26
961.502	3828.74
961.805	3764.79
962.108	3718.69
962.411	3714.17
962.714	3696.77
963.017	3722.53
963.32	3703.77
963.623	3665.58
963.926	3689.76
964.228	3624
964.531	3648.63
964.833	3617.9
965.136	3590.78
965.438	3585.13
965.741	3553.72
966.043	3561.4
966.345	3528.86
966.648	3532.25
966.95	3525.7
967.252	3471.91
967.554	3468.52
967.856	3472.59
968.158	3400.5
968.46	3421.75
968.761	3410.22
969.063	3436.21
969.365	3400.5
969.666	3384.23
969.968	3375.87
970.269	3347.85
970.571	3294.74
970.872	3295.65
971.174	3300.17
971.475	3302.2
971.776	3275.76
972.077	3258.13
972.378	3231.24
972.679	3264.69
972.98	3225.59
973.281	3202.09
973.582	3191.92
973.883	3184.24
974.183	3141.3
974.484	3165.48
974.785	3118.7
975.085	3083.22
975.386	3108.31
975.686	3109.21
975.986	3054.52
976.287	3107.18
976.587	3048.87
976.887	3038.93
977.187	3046.39
977.487	2991.02
977.787	2981.53
978.087	2962.1
978.387	2974.07
978.687	2928.43
978.987	2893.62
979.286	2942.21
979.586	2910.8
979.885	2893.4
980.185	2866.05
980.484	2848.2
980.784	2880.74
981.083	2838.71
981.382	2825.83
981.682	2814.76
981.981	2788.99
982.28	2753.52
982.579	2793.97
982.878	2782.21
983.177	2741.99
983.475	2741.54
983.774	2736.57
984.073	2697.92
984.372	2738.6
984.67	2723.01
984.969	2698.6
985.267	2642.11
985.566	2657.92
985.864	2665.16
986.162	2628.77
986.461	2613.63
986.759	2657.47
987.057	2603.69
987.355	2621.09
987.653	2597.36
987.951	2582.45
988.249	2570.02
988.547	2555.55
988.844	2536.57
989.142	2540.64
989.44	2501.32
989.737	2476.69
990.035	2480.98
990.332	2481.43
990.63	2445.5
990.927	2473.97
991.224	2443.92
991.521	2430.13
991.819	2445.05
992.116	2410.02
992.413	2422.22
992.71	2415.67
993.006	2380.19
993.303	2364.82
993.6	2368.21
993.897	2337.03
994.193	2359.4
994.49	2330.93
994.787	2316.46
995.083	2317.59
995.379	2283.7
995.676	2255.9
995.972	2257.26
996.268	2269.69
996.565	2238.73
996.861	2236.47
997.157	2245.51
997.453	2197.82
997.749	2198.95
998.044	2194.43
998.34	2158.73
998.636	2185.39
998.932	2168.45
999.227	2173.64
999.523	2156.92
999.818	2113.53
1000.114	2095
1000.409	2090.71
1000.704	2053.87
1001	2066.3
1001.295	2067.66
1001.59	2011.16
1001.885	2059.07
1002.18	2024.49
1002.475	2053.65
1002.77	2010.03
1003.065	1996.47
1003.359	1990.6
1003.654	2012.07
1003.949	1973.2
1004.243	1965.29
1004.538	1952.18
1004.832	1935.23
1005.127	1928.23
1005.421	1899.98
1005.715	1928.68
1006.009	1896.59
1006.304	1874.67
1006.598	1865.85
1006.892	1892.29
1007.186	1865.85
1007.48	1836.25
1007.773	1805.74
1008.067	1833.99
1008.361	1799.87
1008.655	1808.68
1008.948	1774.56
1009.242	1758.06
1009.535	1747.89
1009.829	1757.16
1010.122	1763.03
1010.415	1756.25
1010.708	1700.44
1011.001	1708.34
1011.295	1710.83
1011.588	1707.67
1011.881	1704.73
1012.173	1669.02
1012.466	1658.4
1012.759	1644.84
1013.052	1643.04
1013.344	1623.83
1013.637	1625.64
1013.93	1648.69
1014.222	1633.32
1014.514	1589.48
1014.807	1586.31
1015.099	1580.89
1015.391	1589.03
1015.683	1560.1
1015.976	1547.9
1016.268	1569.59
1016.56	1525.07
1016.851	1518.52
1017.143	1520.78
1017.435	1500.21
1017.727	1498.18
1018.018	1497.95
1018.31	1497.95
1018.602	1498.18
1018.893	1459.54
1019.185	1434.45
1019.476	1442.14
1019.767	1452.98
1020.058	1446.2
1020.35	1420.89
1020.641	1408.92
1020.932	1399.43
1021.223	1379.09
1021.514	1397.17
1021.804	1348.81
1022.095	1349.26
1022.386	1384.51
1022.677	1328.92
1022.967	1353.55
1023.258	1352.42
1023.548	1318.98
1023.839	1318.07
1024.129	1331.63
1024.419	1311.07
1024.709	1296.83
1025	1284.18
1025.29	1254.8
1025.58	1279.88
1025.87	1254.35
1026.16	1245.08
1026.449	1258.41
1026.739	1234.91
1027.029	1229.71
1027.319	1191.75
1027.608	1221.13
1027.898	1218.19
1028.187	1178.42
1028.477	1209.6
1028.766	1166.66
1029.055	1172.99
1029.344	1178.64
1029.634	1141.35
1029.923	1166.66
1030.212	1140.68
1030.501	1141.35
1030.79	1124.86
1031.078	1111.07
1031.367	1072.2
1031.656	1094.12
1031.945	1080.11
1032.233	1098.42
1032.522	1056.61
1032.81	1062.94
1033.099	1067.23
1033.387	1072.2
1033.675	1040.34
1033.963	1057.06
1034.251	1046.22
1034.54	1053.9
1034.828	1053.9
1035.116	1008.02
1035.403	1024.3
1035.691	1024.07
1035.979	986.33
1036.267	974.58
1036.554	973.67
1036.842	983.62
1037.129	988.36
1037.417	936.39
1037.704	934.35
1037.992	954.24
1038.279	933.68
1038.566	947.46
1038.853	947.46
1039.14	947.46
