Data from hue_310_FLMS001491_92.txt Node
Date: Mon Feb 06 15:50:28 GMT 2017
User: dcchb
Spectrometer: FLMS00149
Trigger mode: 0
Integration Time (sec): 2.000000E-2
Scans to average: 10
Electric dark correction enabled: true
Nonlinearity correction enabled: false
Boxcar width: 0
XAxis mode: Wavelengths
Number of Pixels in Spectrum: 2048
>>>>>Begin Spectral Data<<<<<
341.393	-6.16
341.776	-6.16
342.16	-6.16
342.543	-68.76
342.927	-70.11
343.31	-68.53
343.693	-64.91
344.077	-72.37
344.46	-60.39
344.843	-54.52
345.226	-33.5
345.61	-32.37
345.993	-3.22
346.376	-14.07
346.759	7.4
347.142	16.89
347.525	36.33
347.908	45.82
348.291	92.6
348.674	83.78
349.057	121.07
349.44	125.59
349.823	142.99
350.206	159.71
350.588	203.1
350.971	211.69
351.354	237.9
351.737	252.59
352.119	259.6
352.502	262.54
352.884	273.38
353.267	295.08
353.65	310.44
354.032	307.28
354.414	316.09
354.797	326.26
355.179	327.62
355.562	322.87
355.944	340.5
356.326	332.59
356.709	337.34
357.091	341.18
357.473	349.99
357.855	341.18
358.238	345.7
358.62	330.56
359.002	330.56
359.384	356.54
359.766	361.97
360.148	343.21
360.53	330.78
360.912	353.61
361.294	325.36
361.676	321.52
362.057	340.73
362.439	329.43
362.821	345.92
363.203	330.33
363.584	341.18
363.966	305.47
364.348	318.35
364.729	323.55
365.111	323.1
365.493	320.61
365.874	321.52
366.256	309.31
366.637	309.54
367.019	296.88
367.4	340.5
367.781	325.36
368.163	311.57
368.544	289.65
368.925	309.54
369.306	312.93
369.688	307.05
370.069	312.03
370.45	311.12
370.831	308.18
371.212	297.34
371.593	324.91
371.974	309.99
372.355	304.79
372.736	326.94
373.117	324.45
373.498	302.76
373.879	299.6
374.26	309.77
374.641	317.45
375.021	318.35
375.402	323.32
375.783	335.75
376.163	322.19
376.544	322.42
376.925	331.01
377.305	343.44
377.686	338.47
378.066	327.39
378.447	335.53
378.827	353.83
379.208	328.75
379.588	340.5
379.968	349.09
380.349	339.37
380.729	320.16
381.109	359.48
381.489	328.52
381.87	344.12
382.25	344.57
382.63	341.4
383.01	336.88
383.39	336.43
383.77	324.91
384.15	356.32
384.53	350.44
384.91	333.95
385.29	331.91
385.67	319.03
386.049	356.32
386.429	361.52
386.809	348.18
387.189	367.39
387.568	328.52
387.948	360.61
388.328	353.61
388.707	372.14
389.087	352.93
389.466	361.06
389.846	343.44
390.225	376.43
390.605	370.56
390.984	357.67
391.363	364.23
391.743	388.63
392.122	376.2
392.501	377.33
392.881	361.52
393.26	370.56
393.639	407.62
394.018	388.41
394.397	399.71
394.776	390.67
395.155	388.86
395.534	382.98
395.913	394.51
396.292	382.08
396.671	379.37
397.05	400.61
397.429	394.06
397.808	398.8
398.186	408.75
398.565	408.52
398.944	414.4
399.323	405.13
399.701	401.29
400.08	417.11
400.458	394.51
400.837	412.14
401.215	425.24
401.594	427.73
401.972	403.1
402.351	409.2
402.729	448.07
403.107	447.62
403.486	431.57
403.864	432.47
404.242	437.67
404.62	463.66
404.999	452.81
405.377	446.26
405.755	445.36
406.133	445.13
406.511	451.01
406.889	446.49
407.267	473.38
407.645	477.67
408.023	474.96
408.401	472.7
408.779	484.68
409.156	501.17
409.534	501.17
409.912	498.24
410.29	495.3
410.667	505.47
411.045	530.1
411.422	529.87
411.8	530.78
412.178	534.84
412.555	548.63
412.933	537.33
413.31	536.88
413.687	554.96
414.065	578.69
414.442	603.32
414.819	595.41
415.197	612.13
415.574	615.75
415.951	605.13
416.328	603.32
416.705	612.58
417.082	640.6
417.46	644.9
417.837	646.71
418.214	641.28
418.591	655.75
418.967	686.25
419.344	666.82
419.721	682.64
420.098	668.4
420.475	726.93
420.852	683.54
421.228	713.37
421.605	715.18
421.982	720.38
422.358	748.62
422.735	756.53
423.111	741.39
423.488	765.12
423.864	786.14
424.241	768.06
424.617	761.28
424.994	794.95
425.37	782.52
425.746	802.18
426.123	817.32
426.499	824.1
426.875	825.23
427.251	854.84
427.627	867.04
428.003	873.82
428.379	868.4
428.756	870.43
429.132	891.67
429.507	899.58
429.883	904.78
430.259	909.98
430.635	930.54
431.011	913.14
431.387	952.01
431.763	947.04
432.138	969.18
432.514	1006.02
432.89	998.56
433.265	997.21
433.641	1003.76
434.016	1008.05
434.392	1038.79
434.767	1034.49
435.143	1050.76
435.518	1064.32
435.894	1087.82
436.269	1064.55
436.644	1111.78
437.02	1130.08
437.395	1115.17
437.77	1136.64
438.145	1133.92
438.52	1178.9
438.895	1179.8
439.271	1174.83
439.646	1185.9
440.021	1215.05
440.395	1161.49
440.77	1206.92
441.145	1180.93
441.52	1223.41
441.895	1224.32
442.27	1230.65
442.645	1231.1
443.019	1254.15
443.394	1259.8
443.769	1258.44
444.143	1271.32
444.518	1270.19
444.892	1268.16
445.267	1285.11
445.641	1284.43
446.016	1309.29
446.39	1292.79
446.764	1299.34
447.139	1282.4
447.513	1298.67
447.887	1324.88
448.262	1297.54
448.636	1290.08
449.01	1323.52
449.384	1332.11
449.758	1360.81
450.132	1339.34
450.506	1354.03
450.88	1350.87
451.254	1372.56
451.628	1398.55
452.002	1379.57
452.376	1387.03
452.75	1382.96
453.123	1374.6
453.497	1426.57
453.871	1417.99
454.244	1418.21
454.618	1457.98
454.992	1434.48
455.365	1470.41
455.739	1492.79
456.112	1472.22
456.486	1488.04
456.859	1509.96
457.232	1550.64
457.606	1500.7
457.979	1520.13
458.352	1532.56
458.725	1554.03
459.099	1519.45
459.472	1558.09
459.845	1591.09
460.218	1597.87
460.591	1604.87
460.964	1607.36
461.337	1629.28
461.71	1662.95
462.083	1671.54
462.456	1681.93
462.829	1695.04
463.201	1704.98
463.574	1679.67
463.947	1731.88
464.32	1736.17
464.692	1733.23
465.065	1755.83
465.438	1777.3
465.81	1770.29
466.183	1811.65
466.555	1860.23
466.928	1841.25
467.3	1820.69
467.672	1827.01
468.045	1853
468.417	1887.58
468.789	1890.29
469.161	1920.8
469.534	1937.75
469.906	1965.32
470.278	1947.01
470.65	1995.15
471.022	2008.48
471.394	2058.19
471.766	2050.06
472.138	2057.06
472.51	2099.32
472.882	2087.8
473.253	2116.05
473.625	2141.81
473.997	2164.86
474.369	2158.76
474.74	2169.15
475.112	2176.61
475.484	2262.48
475.855	2259.55
476.227	2280.11
476.598	2323.95
476.97	2337.06
477.341	2388.13
477.713	2407.56
478.084	2379.99
478.455	2447.34
478.827	2471.74
479.198	2498.18
479.569	2507.45
479.94	2568.24
480.311	2584.06
480.682	2630.83
481.053	2664.05
481.424	2668.12
481.795	2673.32
482.166	2697.5
482.537	2759.42
482.908	2788.34
483.279	2815.69
483.65	2848.91
484.021	2887.1
484.391	2865.86
484.762	2941.34
485.133	2911.73
485.503	2930.94
485.874	3000.54
486.244	3012.29
486.615	3053.42
486.985	3088.68
487.356	3131.84
487.726	3161.44
488.097	3190.59
488.467	3176.81
488.837	3243.25
489.207	3263.59
489.578	3334.55
489.948	3337.71
490.318	3353.98
490.688	3353.98
491.058	3400.31
491.428	3422
491.798	3430.36
492.168	3514.65
492.538	3510.81
492.908	3531.38
493.278	3566.63
493.648	3578.61
494.017	3611.15
494.387	3652.95
494.757	3598.04
495.126	3679.39
495.496	3676.91
495.866	3687.53
496.235	3750.13
496.605	3768.66
496.974	3796.45
497.344	3775.44
497.713	3815.44
498.082	3824.48
498.452	3849.33
498.821	3880.07
499.19	3838.26
499.559	3890.24
499.928	3896.79
500.298	3896.34
500.667	3959.39
501.036	3925.49
501.405	3969.1
501.774	3930.69
502.143	3980.18
502.512	4034.19
502.88	4043.23
503.249	4040.52
503.618	4040.06
503.987	4103.79
504.356	4118.03
504.724	4097.46
505.093	4111.93
505.462	4125.94
505.83	4177.69
506.199	4199.16
506.567	4193.51
506.936	4214.07
507.304	4282.09
507.672	4269.89
508.041	4261.53
508.409	4255.88
508.777	4287.74
509.145	4331.81
509.514	4320.28
509.882	4308.76
510.25	4321.19
510.618	4361.86
510.986	4335.65
511.354	4376.55
511.722	4351.47
512.09	4421.52
512.458	4428.53
512.826	4436.89
513.193	4452.26
513.561	4483.22
513.929	4428.53
514.297	4504.23
514.664	4508.07
515.032	4530.22
515.4	4531.58
515.767	4547.62
516.135	4591.46
516.502	4534.97
516.869	4615.64
517.237	4611.57
517.604	4593.5
517.972	4630.56
518.339	4654.96
518.706	4653.83
519.073	4631.91
519.44	4618.81
519.808	4714.4
520.175	4724.34
520.542	4725.24
520.909	4750.1
521.276	4734.73
521.643	4734.73
522.009	4789.65
522.376	4785.35
522.743	4817.44
523.11	4853.6
523.477	4880.04
523.843	4885.46
524.21	4981.28
524.577	4952.36
524.943	4932.47
525.31	4954.62
525.676	4988.96
526.043	4998.23
526.409	5056.08
526.776	5069.87
527.142	5071.9
527.508	5088.17
527.874	5107.61
528.241	5185.12
528.607	5162.07
528.973	5265.79
529.339	5194.38
529.705	5292.01
530.071	5332.91
530.437	5322.29
530.803	5346.24
531.169	5357.77
531.535	5371.33
531.901	5401.16
532.267	5379.01
532.632	5362.97
532.998	5484.09
533.364	5448.84
533.73	5488.16
534.095	5517.76
534.461	5515.05
534.826	5546.92
535.192	5562.74
535.557	5618.78
535.923	5594.15
536.288	5661.04
536.653	5694.48
537.019	5697.87
537.384	5665.11
537.749	5701.71
538.114	5771.32
538.479	5750.75
538.845	5797.31
539.21	5784.2
539.575	5845.89
539.94	5849.96
540.305	5898.09
540.67	5868.04
541.034	5900.58
541.399	5963.4
541.764	5936.06
542.129	5989.16
542.494	6065.55
542.858	6055.38
543.223	6046.11
543.587	6109.84
543.952	6115.26
544.316	6127.01
544.681	6106.68
545.045	6148.71
545.41	6213.57
545.774	6221.25
546.138	6251.76
546.503	6284.3
546.867	6284.75
547.231	6342.15
547.595	6334.01
547.959	6419.44
548.324	6389.38
548.688	6409.72
549.052	6402.49
549.416	6460.56
549.779	6536.04
550.143	6495.59
550.507	6567
550.871	6598.64
551.235	6568.81
551.599	6631.18
551.962	6608.36
552.326	6575.14
552.689	6655.59
553.053	6634.8
553.417	6698.75
553.78	6747.56
554.143	6764.06
554.507	6746.21
554.87	6806.32
555.234	6795.25
555.597	6744.17
555.96	6825.07
556.323	6769.71
556.686	6883.15
557.05	6937.39
557.413	6876.37
557.776	6925.19
558.139	6934
558.502	6889.03
558.865	7032.3
559.228	7015.8
559.59	7039.76
559.953	7043.15
560.316	7128.34
560.679	7119.3
561.041	7143.94
561.404	7217.61
561.767	7239.75
562.129	7214.22
562.492	7249.92
562.854	7264.84
563.217	7225.97
563.579	7299.41
563.941	7234.78
564.304	7321.56
564.666	7380.77
565.028	7381.67
565.39	7441.1
565.753	7432.06
566.115	7479.75
566.477	7541.89
566.839	7472.74
567.201	7556.81
567.563	7549.8
567.925	7580.31
568.287	7647.2
568.648	7620.53
569.01	7696.46
569.372	7746.41
569.734	7659.63
570.095	7731.49
570.457	7828.21
570.819	7820.98
571.18	7772.85
571.542	7910.47
571.903	7988.21
572.265	7978.26
572.626	7952.28
572.987	8015.1
573.349	8112.95
573.71	8130.13
574.071	8176.9
574.432	8267.75
574.794	8331.02
575.155	8450.12
575.516	8357.01
575.877	8473.84
576.238	8526.72
576.599	8622.77
576.96	8716.55
577.32	8706.38
577.681	8865.02
578.042	8969.43
578.403	8980.95
578.763	9052.36
579.124	9138.91
579.485	9324.9
579.845	9409.87
580.206	9444.44
580.566	9578.22
580.927	9701.16
581.287	9862.74
581.648	9968.27
582.008	10085.55
582.368	10249.39
582.728	10435.15
583.089	10566.22
583.449	10711.75
583.809	10836.72
584.169	11065.19
584.529	11266.54
584.889	11542.69
585.249	11673.53
585.609	11896.13
585.969	12176.12
586.329	12266.97
586.688	12565.26
587.048	12749.89
587.408	13001.64
587.768	13211.8
588.127	13454.5
588.487	13667.15
588.846	14040.48
589.206	14136.75
589.565	14453.8
589.925	14800.68
590.284	14998.65
590.643	15274.12
591.003	15639.08
591.362	15925.4
591.721	16179.63
592.08	16464.14
592.44	16826.85
592.799	17123.11
593.158	17339.15
593.517	17693.94
593.876	17996.98
594.235	18260.25
594.593	18646.91
594.952	18971.42
595.311	19164.86
595.67	19625.87
596.029	19939.76
596.387	20169.13
596.746	20562.34
597.104	20826.74
597.463	21106.96
597.822	21389.21
598.18	21729.09
598.538	22018.35
598.897	22395.29
599.255	22560.48
599.613	23235.26
599.972	23321.14
600.33	23578.31
600.688	23912.31
601.046	24247.44
601.404	24646.75
601.762	24803.13
602.12	25192.5
602.478	25428.2
602.836	25770.57
603.194	25881.52
603.552	26304.34
603.91	26417.1
604.268	26937.99
604.625	26964.66
604.983	27433.12
605.341	27362.84
605.698	27867.01
606.056	28192.42
606.413	28414.34
606.771	28746.76
607.128	28896.13
607.485	29062.46
607.843	29329.12
608.2	29827.86
608.557	30000.06
608.914	30094.75
609.272	30467.39
609.629	30788.29
609.986	31052.69
610.343	31112.8
610.7	31565.44
611.057	31545.1
611.414	31872.78
611.771	32077.07
612.127	32230.73
612.484	32385.53
612.841	32690.61
613.198	32721.34
613.554	32953.88
613.911	33390.7
614.267	33426.64
614.624	33521.55
614.98	33787.53
615.337	34023.91
615.693	34224.81
616.05	34327.85
616.406	34626.6
616.762	34556.77
617.118	34685.59
617.475	34846.48
617.831	35057.33
618.187	35244.21
618.543	35342.07
618.899	35699.57
619.255	35771.43
619.611	35829.96
619.967	36043.74
620.323	36285.77
620.678	36147.92
621.034	36308.82
621.39	36369.83
621.746	36519.21
622.101	37041
622.457	36727.57
622.812	36895.24
623.168	37164.84
623.523	37243.71
623.879	37388.11
624.234	37262.92
624.589	37409.81
624.945	37622.68
625.3	37634.89
625.655	37742
626.01	37876.01
626.365	37939.06
626.72	38074.42
627.075	38149.22
627.43	38038.49
627.785	38198.04
628.14	38156.68
628.495	38335.43
628.85	38388.31
629.205	38186.96
629.559	38535.65
629.914	38373.17
630.269	38443
630.623	38542.21
630.978	38404.36
631.332	38637.57
631.687	38641.41
632.041	38548.08
632.396	38694.29
632.75	38554.86
633.104	38643.9
633.459	38651.13
633.813	38672.15
634.167	38661.07
634.521	38725.93
634.875	38727.29
635.229	38715.31
635.583	38547.4
635.937	38570.45
636.291	38691.81
636.645	38767.29
636.999	38606.39
637.352	38727.96
637.706	38525.71
638.06	38711.47
638.413	38567.29
638.767	38567.07
639.121	38718.25
639.474	38464.69
639.828	38570.68
640.181	38729.55
640.534	38539.27
640.888	38568.42
641.241	38575.43
641.594	38548.31
641.947	38734.29
642.301	38609.32
642.654	38632.6
643.007	38677.8
643.36	38675.54
643.713	38451.36
644.066	38644.8
644.419	38555.54
644.771	38176.79
645.124	37899.51
645.477	37747.43
645.83	37693.64
646.182	37619.97
646.535	37310.83
646.888	37537.49
647.24	37260.88
647.593	37523.93
647.945	37404.16
648.298	37273.54
648.65	37277.16
649.002	37187.21
649.355	37384.27
649.707	37228.8
650.059	37379.75
650.411	37892.51
650.763	37945.61
651.115	38223.8
651.467	38074.42
651.819	38119.17
652.171	38099.96
652.523	37977.48
652.875	38165.27
653.227	37976.8
653.578	38147.64
653.93	38189
654.282	37901.32
654.633	37812.96
654.985	37946.74
655.337	37942.22
655.688	37913.07
656.039	38237.13
656.391	37769.35
656.742	37755.79
657.094	37888.21
657.445	38034.65
657.796	37898.61
658.147	37798.5
658.498	37807.31
658.849	37932.73
659.2	37742.45
659.551	37838.5
659.902	37918.04
660.253	37779.06
660.604	37878.27
660.955	37730.25
661.306	37810.7
661.656	37756.01
662.007	37766.63
662.358	37800.31
662.708	37712.85
663.059	37717.14
663.409	37649.35
663.76	37859.96
664.11	37858.61
664.461	37862
664.811	37815.9
665.161	37735
665.511	37739.52
665.862	37703.58
666.212	37768.44
666.562	37836.01
666.912	37656.35
667.262	37645.96
667.612	37723.92
667.962	37505.4
668.312	37615.68
668.662	37613.64
669.011	37603.93
669.361	37483.93
669.711	37558.05
670.06	37561.44
670.41	37434.21
670.76	37502.91
671.109	37661.33
671.459	37574.32
671.808	37434.89
672.157	37577.03
672.507	37359.64
672.856	37269.25
673.205	37482.35
673.554	37593.76
673.904	37386.08
674.253	37519.63
674.602	37392.18
674.951	37015.02
675.3	36681.01
675.649	37376.14
675.998	37273.09
676.346	37292.07
676.695	37399.19
677.044	37052.3
677.393	37328.23
677.741	37382.46
678.09	37288.45
678.438	37077.84
678.787	37200.77
679.135	37162.81
679.484	36970.04
679.832	37075.8
680.181	36852.31
680.529	36909.93
680.877	36916.26
681.225	36843.72
681.573	37038.74
681.922	36850.27
682.27	36810.28
682.618	36748.81
682.966	36622.03
683.314	36732.76
683.661	36546.78
684.009	36287.35
684.357	36298.65
684.705	36359.89
685.053	36352.43
685.4	36250.74
685.748	36137.52
686.095	36133.68
686.443	35997.64
686.79	35883.75
687.138	36061.59
687.485	35996.96
687.832	35864.76
688.18	35882.39
688.527	35768.95
688.874	35696.18
689.221	35667.71
689.568	35561.04
689.915	35404.66
690.262	35457.32
690.609	35388.84
690.956	35356.08
691.303	35213.93
691.65	35118.79
691.997	35022.07
692.344	34911.79
692.69	34797.22
693.037	34894.39
693.383	34625.93
693.73	34745.7
694.077	34618.24
694.423	34511.8
694.769	34433.61
695.116	34438.13
695.462	34226.84
695.808	34248.31
696.155	34244.69
696.501	33877.02
696.847	33996.34
697.193	33750.92
697.539	33850.8
697.885	33645.84
698.231	33576.01
698.577	33503.02
698.923	33576.24
699.269	33329.01
699.614	33263.25
699.96	33126.53
700.306	33184.83
700.651	32986.87
700.997	32818.29
701.342	32896.25
701.688	32903.03
702.033	32694
702.379	32716.6
702.724	32611.74
703.069	32627.11
703.415	32373.33
703.76	32362.93
704.105	32245.42
704.45	32249.72
704.795	32011.98
705.14	31982.83
705.485	32030.06
705.83	31837.75
706.175	31918.88
706.52	31848.6
706.865	31679.79
707.209	31583.97
707.554	31570.19
707.899	31545.33
708.243	31438.89
708.588	31431.43
708.932	31230.08
709.277	31231.44
709.621	31244.32
709.966	31022.18
710.31	31014.5
710.654	30803.2
710.998	30938.57
711.342	30913.25
711.687	30804.78
712.031	30541.29
712.375	30538.58
712.719	30478.24
713.063	30572.25
713.407	30587.84
713.75	30402.08
714.094	30408.86
714.438	30325.25
714.782	30302.88
715.125	30136.1
715.469	30111.02
715.812	29992.38
716.156	29886.16
716.499	29871.02
716.843	29940.4
717.186	29687.3
717.53	29819.72
717.873	29908.31
718.216	29767.75
718.559	29565.72
718.902	29424.25
719.246	29525.72
719.589	29429.68
719.932	29199.63
720.275	29204.83
720.617	29251.38
720.96	29221.77
721.303	29214.32
721.646	29160.98
721.989	29056.35
722.331	29014.1
722.674	29038.5
723.016	29012.06
723.359	29000.31
723.701	28893.65
724.044	28748.57
724.386	28635.57
724.729	28732.75
725.071	28647.1
725.413	28688.91
725.755	28642.35
726.097	28532.98
726.439	28299.31
726.782	28428.8
727.124	28537.05
727.465	28357.16
727.807	28360.33
728.149	28311.74
728.491	28266.77
728.833	28294.79
729.175	27993.78
729.516	28283.95
729.858	28159.66
730.199	28125.76
730.541	27967.57
730.882	28003.5
731.224	28043.73
731.565	27822.94
731.906	27893.9
732.248	27843.73
732.589	27714.7
732.93	27664.75
733.271	27601.48
733.612	27666.33
733.953	27607.35
734.294	27512.21
734.635	27543.63
734.976	27549.05
735.317	27495.49
735.658	27387.02
735.999	27436.06
736.339	27304.08
736.68	27385.21
737.021	27089.4
737.361	27156.74
737.702	27159.91
738.042	26984.09
738.383	27029.06
738.723	27156.97
739.063	26936.18
739.404	27099.57
739.744	26897.09
740.084	26781.84
740.424	26913.59
740.764	26834.04
741.104	26901.84
741.444	26670.43
741.784	26541.39
742.124	26794.04
742.464	26674.95
742.804	26660.94
743.143	26474.95
743.483	26641.05
743.823	26306.82
744.162	26392.02
744.502	26461.62
744.841	26187.28
745.181	26327.61
745.52	26321.96
745.86	26265.69
746.199	26192.48
746.538	26169.2
746.877	26197.67
747.216	26272.7
747.556	26048.3
747.895	25955.19
748.234	25944.8
748.573	25855.76
748.911	25915.65
749.25	25926.72
749.589	25683.11
749.928	25745.71
750.267	25807.85
750.605	25606.05
750.944	25642.21
751.283	25566.95
751.621	25655.54
751.96	25408.09
752.298	25421.87
752.636	25425.49
752.975	25261.65
753.313	25161.99
753.651	25321.76
753.989	25156.34
754.327	25102.79
754.666	24978.5
755.004	24997.48
755.342	25039.06
755.679	24855.11
756.017	24818.27
756.355	24846.97
756.693	24677.26
757.031	24725.17
757.368	24626.19
757.706	24545.74
758.044	24531.95
758.381	24521.78
758.719	24405.18
759.056	24410.83
759.394	24305.29
759.731	24183.26
760.068	24131.74
760.405	24024.17
760.743	23977.17
761.08	23979.65
761.417	23858.3
761.754	23894
762.091	23788.47
762.428	23680.45
762.765	23517.97
763.102	23564.52
763.438	23510.06
763.775	23367.92
764.112	23363.62
764.449	23460.12
764.785	23343.28
765.122	23064.65
765.458	23030.98
765.795	23063.74
766.131	22915.95
766.467	22866.23
766.804	22714.37
767.14	22679.12
767.476	22666.24
767.812	22496.98
768.148	22564.32
768.485	22394.16
768.821	22288.62
769.157	22242.97
769.492	22188.74
769.828	22132.47
770.164	22023.32
770.5	22017.67
770.836	21879.14
771.171	21744.46
771.507	21688.64
771.842	21707.17
772.178	21649.77
772.513	21605.93
772.849	21466.72
773.184	21333.39
773.519	21427.18
773.855	21286.84
774.19	21210.23
774.525	21123.46
774.86	21036
775.195	21049.79
775.53	20988.77
775.865	20794.88
776.2	20742.9
776.535	20523.25
776.87	20622
777.205	20536.58
777.539	20462.68
777.874	20378.39
778.209	20237.83
778.543	20164.39
778.878	20037.38
779.212	20016.82
779.547	19882.13
779.881	20002.58
780.215	19852.98
780.55	19874.22
780.884	19779.54
781.218	19702.48
781.552	19707.22
781.886	19656.83
782.22	19489.15
782.554	19418.19
782.888	19204.86
783.222	19089.84
783.556	19115.37
783.889	19040.35
784.223	18853.91
784.557	18779.79
784.89	18893.01
785.224	18719.45
785.557	18720.81
785.891	18595.61
786.224	18530.3
786.558	18630.87
786.891	18435.84
787.224	18319.46
787.557	18274.94
787.891	18265
788.224	18228.39
788.557	18172.12
788.89	18119.92
789.223	18127.15
789.556	17890.55
789.888	17934.61
790.221	17876.54
790.554	17697.78
790.887	17794.28
791.219	17633.83
791.552	17563.78
791.884	17575.3
792.217	17490.11
792.549	17405.36
792.882	17292.82
793.214	17300.73
793.546	17288.3
793.879	17137.57
794.211	17075.88
794.543	17047.4
794.875	16994.07
795.207	17022.32
795.539	16951.14
795.871	16992.72
796.203	16793.63
796.535	16624.59
796.867	16659.39
797.198	16565.84
797.53	16610.35
797.862	16487.87
798.193	16518.15
798.525	16365.16
798.856	16387.54
799.188	16260.53
799.519	16241.32
799.85	16126.3
800.182	16122.01
800.513	16147.77
800.844	15986.87
801.175	16090.59
801.506	15906.64
801.837	15854.89
802.168	15874.1
802.499	15815.35
802.83	15758.17
803.161	15717.04
803.491	15688.12
803.822	15717.72
804.153	15557.73
804.483	15435.02
804.814	15346.66
805.145	15427.11
805.475	15436.6
805.805	15392.76
806.136	15373.55
806.466	15322.93
806.796	15225.76
807.126	15146.66
807.457	15058.3
807.787	15124.07
808.117	15001.36
808.447	14936.73
808.777	15014.92
809.107	14997.06
809.436	14869.61
809.766	14824.86
810.096	14859.21
810.426	14780.8
810.755	14802.04
811.085	14760.46
811.414	14736.96
811.744	14571.76
812.073	14474.59
812.403	14456.51
812.732	14491.99
813.061	14402.73
813.39	14428.72
813.719	14372.22
814.049	14358.21
814.378	14337.19
814.707	14266.01
815.036	14195.28
815.365	14175.16
815.693	14066.01
816.022	14158.44
816.351	13946.47
816.68	13949.63
817.008	13934.72
817.337	13807.04
817.665	13821.28
817.994	13799.58
818.322	13795.06
818.651	13807.94
818.979	13756.19
819.307	13772.01
819.636	13708.28
819.964	13635.52
820.292	13647.04
820.62	13624.67
820.948	13683.2
821.276	13587.16
821.604	13633.71
821.932	13610.43
822.259	13635.52
822.587	13603.43
822.915	13520.72
823.243	13644.56
823.57	13466.71
823.898	13552.81
824.225	13482.53
824.553	13534.73
824.88	13369.54
825.207	13565.69
825.535	13492.7
825.862	13489.08
826.189	13492.92
826.516	13481.62
826.843	13577.21
827.17	13517.78
827.497	13517.1
827.824	13515.07
828.151	13542.86
828.478	13475.07
828.805	13576.08
829.131	13464.45
829.458	13488.85
829.785	13376.31
830.111	13438.01
830.438	13481.62
830.764	13468.74
831.09	13452.25
831.417	13463.32
831.743	13461.96
832.069	13399.59
832.395	13424.22
832.722	13379.03
833.048	13375.19
833.374	13371.8
833.7	13300.16
834.026	13292.25
834.351	13336.09
834.677	13274.85
835.003	13338.12
835.329	13342.19
835.654	13333.83
835.98	13337.9
836.306	13253.61
836.631	13215.19
836.956	13251.12
837.282	13192.14
837.607	13172.93
837.932	13132.48
838.258	13144.68
838.583	13186.72
838.908	13009.77
839.233	13124.34
839.558	13081.86
839.883	13010.45
840.208	12978.13
840.533	12945.59
840.858	13010
841.182	12947.63
841.507	12950.56
841.832	12880.51
842.156	12841.87
842.481	12845.48
842.805	12828.31
843.13	12808.42
843.454	12789.66
843.778	12729.78
844.103	12627.41
844.427	12651.81
844.751	12685.49
845.075	12604.58
845.399	12568.65
845.723	12560.29
846.047	12486.17
846.371	12430.35
846.695	12392.39
847.019	12349.22
847.343	12343.8
847.666	12195.1
847.99	12150.13
848.313	12124.14
848.637	12025.84
848.96	11983.13
849.284	11986.52
849.607	11904.49
849.931	11847.09
850.254	11798.05
850.577	11772.97
850.9	11740.65
851.223	11659.52
851.546	11594.21
851.869	11526.42
852.192	11559.64
852.515	11478.06
852.838	11436.48
853.161	11394.45
853.483	11343.37
853.806	11334.56
854.129	11328.91
854.451	11269.03
854.774	11246.43
855.096	11172.31
855.419	11145.87
855.741	11177.28
856.063	11038.07
856.385	11043.04
856.708	10958.07
857.03	10977.28
857.352	10973.21
857.674	10910.84
857.996	10845.99
858.318	10767.34
858.64	10909.71
858.961	10721.02
859.283	10756.72
859.605	10766.67
859.926	10685.31
860.248	10671.98
860.57	10624.75
860.891	10664.75
861.212	10520.8
861.534	10507.92
861.855	10443.06
862.176	10497.97
862.498	10552.66
862.819	10507.24
863.14	10381.59
863.461	10437.41
863.782	10394.25
864.103	10422.49
864.424	10366
864.745	10334.36
865.065	10369.61
865.386	10230.86
865.707	10304.53
866.027	10266.11
866.348	10257.07
866.668	10242.61
866.989	10213.46
867.309	10140.92
867.63	10137.53
867.95	10166.68
868.27	10087.14
868.59	10062.28
868.91	10039.68
869.23	10091.66
869.55	10034.48
869.87	10062.5
870.19	10062.28
870.51	10049.4
870.83	9970.75
871.15	9966.46
871.469	10005.1
871.789	9943.41
872.109	9968.95
872.428	9965.33
872.748	9949.06
873.067	9918.33
873.386	9875.39
873.706	9903.86
874.025	9820.93
874.344	9775.05
874.663	9850.31
874.982	9810.08
875.301	9764.21
875.62	9737.31
875.939	9737.54
876.258	9733.47
876.577	9687.15
876.896	9727.37
877.214	9659.35
877.533	9672.01
877.852	9640.82
878.17	9695.06
878.489	9678.79
878.807	9619.8
879.125	9528.51
879.444	9549.52
879.762	9500.03
880.08	9561.27
880.398	9490.32
880.716	9432.46
881.034	9495.97
881.352	9503.87
881.67	9449.41
881.988	9441.5
882.306	9384.1
882.624	9327.61
882.941	9354.95
883.259	9338
883.577	9308.17
883.894	9263.65
884.212	9244.9
884.529	9293.03
884.846	9189.98
885.164	9186.14
885.481	9192.02
885.798	9151.57
886.115	9104.56
886.432	9107.95
886.75	9097.56
887.067	9075.19
887.383	9056.88
887.7	9059.37
888.017	9025.92
888.334	9053.72
888.651	8952.7
888.967	8909.31
889.284	8844.46
889.6	8854.17
889.917	8777.34
890.233	8835.87
890.55	8771.24
890.866	8759.04
891.182	8748.19
891.498	8757
891.815	8672.71
892.131	8680.39
892.447	8587.51
892.763	8636.55
893.079	8587.06
893.395	8558.81
893.71	8547.29
894.026	8588.19
894.342	8547.52
894.657	8448.31
894.973	8453.05
895.289	8456.67
895.604	8484.24
895.92	8354.98
896.235	8335.54
896.55	8358.14
896.865	8320.63
897.181	8262.78
897.496	8306.84
897.811	8208.77
898.126	8206.73
898.441	8129.67
898.756	8165.15
899.071	8076.57
899.386	8119.96
899.7	8081.09
900.015	8009
900.33	7952.5
900.644	7916.8
900.959	7928.1
901.273	7955.44
901.588	7905.72
901.902	7851.49
902.216	7813.98
902.531	7754.09
902.845	7754.77
903.159	7733.98
903.473	7690.14
903.787	7663.92
904.101	7636.35
904.415	7618.5
904.729	7559.29
905.042	7571.72
905.356	7530.14
905.67	7524.49
905.984	7467.32
906.297	7401.56
906.611	7413.99
906.924	7358.17
907.237	7381.67
907.551	7310.26
907.864	7334.89
908.177	7336.93
908.491	7269.58
908.804	7207.21
909.117	7205.63
909.43	7122.24
909.743	7126.08
910.056	7120.66
910.368	7098.29
910.681	7039.76
910.994	6998.18
911.307	7009.25
911.619	6941.91
911.932	6930.83
912.244	6933.77
912.557	6853.1
912.869	6865.75
913.181	6851.51
913.494	6819.43
913.806	6747.56
914.118	6722.48
914.43	6700.56
914.742	6741.24
915.054	6695.36
915.366	6623.05
915.678	6638.19
915.99	6554.12
916.302	6556.16
916.613	6508.47
916.925	6522.71
917.236	6502.37
917.548	6400.23
917.859	6444.97
918.171	6354.13
918.482	6353
918.794	6322.04
919.105	6358.19
919.416	6318.2
919.727	6284.52
920.038	6237.97
920.349	6198.88
920.66	6158.65
920.971	6129.73
921.282	6153.45
921.593	6084.76
921.903	6059.45
922.214	6037.52
922.525	6025.1
922.835	6004.98
923.146	5962.72
923.456	5940.58
923.767	5926.79
924.077	5911.65
924.387	5901.48
924.697	5872.78
925.008	5841.15
925.318	5831.88
925.628	5799.11
925.938	5784.2
926.248	5721.37
926.558	5697.42
926.867	5699.23
927.177	5698.78
927.487	5639.34
927.796	5588.72
928.106	5588.27
928.416	5565.22
928.725	5567.48
929.034	5512.34
929.344	5516.18
929.653	5479.8
929.962	5429.63
930.271	5416.75
930.581	5392.8
930.89	5370.65
931.199	5329.29
931.508	5327.49
931.817	5329.07
932.125	5322.74
932.434	5265.34
932.743	5244.1
933.051	5213.59
933.36	5140.15
933.669	5187.15
933.977	5161.39
934.286	5157.1
934.594	5085.23
934.902	5102.41
935.21	5051.56
935.519	5046.59
935.827	5040.26
936.135	5059.47
936.443	4987.38
936.751	4934.05
937.059	4993.71
937.367	4927.95
937.674	4875.07
937.982	4895.86
938.29	4828.52
938.597	4827.84
938.905	4797.78
939.213	4779.25
939.52	4735.64
939.827	4803.21
940.135	4743.32
940.442	4741.06
940.749	4698.8
941.056	4683.89
941.363	4655.41
941.67	4623.32
941.977	4615.64
942.284	4605.7
942.591	4606.6
942.898	4589.43
943.205	4527.73
943.511	4503.78
943.818	4438.47
944.125	4448.87
944.431	4443.44
944.738	4440.28
945.044	4406.61
945.35	4433.5
945.657	4343.78
945.963	4369.09
946.269	4355.54
946.575	4320.28
946.881	4301.53
947.187	4267.4
947.493	4278.7
947.799	4245.48
948.105	4212.94
948.41	4218.14
948.716	4249.78
949.022	4220.4
949.327	4177.91
949.633	4148.99
949.938	4176.78
950.244	4077.8
950.549	4076.67
950.854	4079.16
951.16	4038.93
951.465	4064.92
951.77	3999.16
952.075	4020.18
952.38	3977.47
952.685	3949.22
952.99	3923.23
953.294	3913.96
953.599	3929.56
953.904	3887.75
954.209	3836.23
954.513	3885.49
954.818	3837.81
955.122	3832.61
955.426	3808.88
955.731	3786.28
956.035	3765.27
956.339	3773.4
956.643	3800.3
956.948	3741.54
957.252	3727.76
957.556	3682.11
957.86	3675.78
958.163	3697.93
958.467	3686.63
958.771	3668.77
959.075	3659.73
959.378	3581.09
959.682	3590.58
959.985	3601.43
960.289	3585.61
960.592	3540.42
960.896	3553.3
961.199	3525.5
961.502	3513.3
961.805	3497.7
962.108	3464.94
962.411	3477.37
962.714	3414.09
963.017	3434.66
963.32	3393.75
963.623	3395.33
963.926	3392.4
964.228	3380.87
964.531	3393.07
964.833	3344.04
965.136	3332.29
965.438	3315.34
965.741	3282.8
966.043	3292.29
966.345	3265.39
966.648	3255.45
966.95	3274.89
967.252	3220.2
967.554	3226.75
967.856	3215.23
968.158	3178.62
968.46	3172.29
968.761	3157.83
969.063	3153.98
969.365	3130.71
969.666	3112.63
969.968	3112.18
970.269	3117.38
970.571	3073.99
970.872	3085.74
971.174	3086.42
971.475	3058.85
971.776	3029.24
972.077	2984.72
972.378	2990.83
972.679	3018.85
972.98	2971.84
973.281	2938.85
973.582	2939.75
973.883	2956.7
974.183	2948.79
974.484	2895.23
974.785	2900.66
975.085	2906.31
975.386	2884.84
975.686	2857.5
975.986	2852.75
976.287	2832.86
976.587	2802.81
976.887	2794.67
977.187	2780.66
977.487	2794.22
977.787	2780.21
978.087	2777.5
978.387	2760.1
978.687	2723.04
978.987	2722.81
979.286	2723.94
979.586	2723.26
979.885	2686.43
980.185	2688.23
980.484	2633.77
980.784	2611.85
981.083	2657.73
981.382	2641.68
981.682	2625.86
981.981	2622.25
982.28	2566.88
982.579	2558.29
982.878	2575.24
983.177	2591.97
983.475	2569.59
983.774	2523.49
984.073	2542.25
984.372	2527.79
984.67	2518.75
984.969	2540.22
985.267	2499.54
985.566	2465.42
985.864	2473.55
986.162	2434
986.461	2472.87
986.759	2435.59
987.057	2446.88
987.355	2412.08
987.653	2434.46
987.951	2396.04
988.249	2386.32
988.547	2358.98
988.844	2335.93
989.142	2372.08
989.44	2347
989.737	2357.17
990.035	2302.26
990.332	2329.6
990.63	2285.08
990.927	2261.35
991.224	2261.8
991.521	2261.8
991.819	2264.52
992.116	2230.85
992.413	2225.2
992.71	2261.58
993.006	2195.37
993.303	2202.82
993.6	2198.08
993.897	2172.77
994.193	2175.03
994.49	2171.86
994.787	2173.45
995.083	2146.33
995.379	2137.74
995.676	2129.38
995.972	2136.61
996.268	2126.44
996.565	2081.02
996.861	2084.18
997.157	2074.24
997.453	2030.4
997.749	2066.33
998.044	2046.22
998.34	2036.5
998.636	2031.3
998.932	2022.49
999.227	2002.38
999.523	1979.33
999.818	1995.15
1000.114	1963.96
1000.409	1954.24
1000.704	1973.9
1001	1918.99
1001.295	1932.77
1001.59	1922.38
1001.885	1909.27
1002.18	1888.48
1002.475	1859.1
1002.77	1855.71
1003.065	1872.44
1003.359	1857.52
1003.654	1846.9
1003.949	1835.83
1004.243	1852.78
1004.538	1817.3
1004.832	1811.65
1005.127	1806.68
1005.421	1802.61
1005.715	1768.26
1006.009	1775.72
1006.304	1772.33
1006.598	1742.72
1006.892	1746.11
1007.186	1749.95
1007.48	1733.91
1007.773	1693.68
1008.067	1725.55
1008.361	1682.84
1008.655	1711.99
1008.948	1663.63
1009.242	1670.18
1009.535	1648.49
1009.829	1677.87
1010.122	1643.97
1010.415	1604.87
1010.708	1640.35
1011.001	1620.92
1011.295	1621.82
1011.588	1615.72
1011.881	1554.03
1012.173	1570.52
1012.466	1567.13
1012.759	1578.21
1013.052	1548.6
1013.344	1551.32
1013.637	1544.54
1013.93	1553.12
1014.222	1506.34
1014.514	1502.73
1014.807	1523.07
1015.099	1501.15
1015.391	1506.8
1015.683	1484.65
1015.976	1462.73
1016.268	1454.14
1016.56	1463.41
1016.851	1454.14
1017.143	1449.4
1017.435	1478.77
1017.727	1384.99
1018.018	1418.89
1018.31	1405.56
1018.602	1407.14
1018.893	1379.57
1019.185	1393.13
1019.476	1375.5
1019.767	1358.55
1020.058	1343.86
1020.35	1354.03
1020.641	1318.1
1020.932	1306.35
1021.223	1307.25
1021.514	1307.25
1021.804	1286.24
1022.095	1257.76
1022.386	1271.77
1022.677	1281.94
1022.967	1266.35
1023.258	1260.93
1023.548	1262.06
1023.839	1227.03
1024.129	1251.44
1024.419	1224.09
1024.709	1201.72
1025	1228.39
1025.29	1190.87
1025.58	1173.92
1025.87	1170.99
1026.16	1176.64
1026.449	1170.08
1026.739	1184.77
1027.029	1151.78
1027.319	1163.75
1027.608	1121.5
1027.898	1095.06
1028.187	1125.56
1028.477	1110.65
1028.766	1126.02
1029.055	1094.38
1029.344	1126.24
1029.634	1103.19
1029.923	1090.54
1030.212	1074.27
1030.501	1091.89
1030.79	1047.6
1031.078	1061.16
1031.367	1041.27
1031.656	1037.43
1031.945	1060.93
1032.233	1036.75
1032.522	1047.83
1032.81	1022.06
1033.099	1022.52
1033.387	1018.22
1033.675	1002.85
1033.963	1001.5
1034.251	1007.6
1034.54	970.99
1034.828	979.8
1035.116	983.65
1035.403	955.85
1035.691	932.57
1035.979	937.09
1036.267	942.07
1036.554	951.78
1036.842	940.94
1037.129	916.53
1037.417	925.57
1037.704	921.95
1037.992	913.59
1038.279	909.98
1038.566	898.9
1038.853	898.9
1039.14	898.9
