Data from hue_40_FLMS001491_1.txt Node
Date: Mon Feb 06 15:07:20 GMT 2017
User: dcchb
Spectrometer: FLMS00149
Trigger mode: 0
Integration Time (sec): 2.000000E-2
Scans to average: 10
Electric dark correction enabled: true
Nonlinearity correction enabled: false
Boxcar width: 0
XAxis mode: Wavelengths
Number of Pixels in Spectrum: 2048
>>>>>Begin Spectral Data<<<<<
341.393	-16.95
341.776	-16.95
342.16	-16.95
342.543	-45.65
342.927	-59.66
343.31	-75.48
343.693	-70.51
344.077	-76.83
344.46	-50.39
344.843	-77.06
345.226	-40.9
345.61	-21.69
345.993	-10.62
346.376	8.14
346.759	27.57
347.142	29.15
347.525	22.15
347.908	58.53
348.291	71.41
348.674	98.98
349.057	107.57
349.44	125.87
349.823	143.27
350.206	174.23
350.588	199.77
350.971	213.33
351.354	217.4
351.737	247.45
352.119	244.29
352.502	248.36
352.884	280.67
353.267	286.55
353.65	283.83
354.032	314.57
354.414	302.59
354.797	330.84
355.179	320.67
355.562	308.47
355.944	346.43
356.326	331.74
356.709	341.69
357.091	338.3
357.473	344.4
357.855	341.23
358.238	331.52
358.62	340.78
359.002	340.33
359.384	329.71
359.766	334.45
360.148	349.37
360.53	353.89
360.912	337.62
361.294	315.47
361.676	349.37
362.057	334
362.439	331.52
362.821	337.62
363.203	324.29
363.584	328.58
363.966	334.68
364.348	338.07
364.729	326.32
365.111	312.31
365.493	310.27
365.874	322.48
366.256	327
366.637	339.65
367.019	308.47
367.4	322.48
367.781	316.6
368.163	314.34
368.544	323.38
368.925	313.66
369.306	327
369.688	297.62
370.069	322.48
370.45	299.43
370.831	315.02
371.212	332.42
371.593	326.77
371.974	307.79
372.355	316.38
372.736	320.9
373.117	316.15
373.498	321.8
373.879	314.57
374.26	319.99
374.641	311.4
375.021	295.81
375.402	328.35
375.783	322.03
376.163	350.5
376.544	362.7
376.925	351.4
377.305	321.8
377.686	317.05
378.066	320.22
378.447	319.09
378.827	332.42
379.208	357.05
379.588	317.96
379.968	328.13
380.349	331.06
380.729	334.91
381.109	306.66
381.489	342.59
381.87	360.44
382.25	350.05
382.63	329.03
383.01	363.61
383.39	346.66
383.77	355.7
384.15	335.81
384.53	358.63
384.91	369.48
385.29	359.09
385.67	357.05
386.049	362.25
386.429	357.28
386.809	346.88
387.189	360.89
387.568	375.13
387.948	348.47
388.328	371.97
388.707	361.57
389.087	345.3
389.466	370.61
389.846	363.83
390.225	360.22
390.605	350.05
390.984	368.13
391.363	369.93
391.743	357.05
392.122	381.68
392.501	374.23
392.881	389.14
393.26	381.01
393.639	390.5
394.018	373.78
394.397	364.51
394.776	379.88
395.155	389.59
395.534	387.56
395.913	375.13
396.292	400.44
396.671	389.59
397.05	392.98
397.429	382.14
397.808	376.71
398.186	381.68
398.565	398.41
398.944	376.04
399.323	406.77
399.701	408.12
400.08	382.36
400.458	411.51
400.837	391.85
401.215	421.91
401.594	404.51
401.972	412.87
402.351	404.28
402.729	414
403.107	407.22
403.486	419.65
403.864	430.05
404.242	422.14
404.62	409.71
404.999	416.71
405.377	405.87
405.755	427.11
406.133	416.26
406.511	424.17
406.889	426.88
407.267	417.62
407.645	452.42
408.023	436.15
408.401	455.36
408.779	446.54
409.156	456.26
409.534	460.55
409.912	459.2
410.29	475.02
410.667	450.38
411.045	481.12
411.422	454.68
411.8	449.48
412.178	482.7
412.555	466.65
412.933	470.27
413.31	466.88
413.687	463.94
414.065	478.18
414.442	486.54
414.819	499.42
415.197	500.33
415.574	502.81
415.951	489.48
416.328	509.37
416.705	491.74
417.082	505.52
417.46	498.52
417.837	495.81
418.214	500.1
418.591	514.34
418.967	497.16
419.344	522.47
419.721	511.85
420.098	506.43
420.475	522.47
420.852	527.9
421.228	531.74
421.605	534
421.982	535.35
422.358	545.97
422.735	548.23
423.111	555.01
423.488	556.6
423.864	565.63
424.241	562.92
424.617	568.35
424.994	564.5
425.37	561.79
425.746	557.95
426.123	577.84
426.499	585.07
426.875	592.3
427.251	605.86
427.627	579.42
428.003	587.56
428.379	592.98
428.756	617.16
429.132	603.83
429.507	629.81
429.883	625.07
430.259	622.36
430.635	618.74
431.011	629.14
431.387	646.31
431.763	642.24
432.138	638.18
432.514	674.33
432.89	650.15
433.265	680.21
433.641	686.99
434.016	656.93
434.392	679.76
434.767	695.57
435.143	697.16
435.518	691.73
435.894	699.64
436.269	693.77
436.644	707.78
437.02	730.83
437.395	739.19
437.77	740.77
438.145	734.44
438.52	751.84
438.895	747.55
439.271	735.57
439.646	743.26
440.021	764.95
440.395	769.02
440.77	769.02
441.145	747.55
441.52	795.23
441.895	806.08
442.27	783.48
442.645	758.17
443.019	789.81
443.394	808.79
443.769	801.79
444.143	806.98
444.518	814.89
444.892	821.67
445.267	830.03
445.641	823.93
446.016	803.82
446.39	849.02
446.764	831.39
447.139	833.2
447.513	850.6
447.887	845.85
448.262	845.18
448.636	868
449.01	895.12
449.384	885.85
449.758	852.18
450.132	885.17
450.506	903.03
450.88	892.41
451.254	893.31
451.628	882.01
452.002	888.11
452.376	917.26
452.75	915.68
453.123	935.34
453.497	952.97
453.871	933.99
454.244	949.58
454.618	981.9
454.992	985.74
455.365	990.93
455.739	980.31
456.112	1027.09
456.486	1025.96
456.859	1030.48
457.232	1059.18
457.606	1053.31
457.979	1048.33
458.352	1081.78
458.725	1088.11
459.099	1071.84
459.472	1099.86
459.845	1093.76
460.218	1129.01
460.591	1156.81
460.964	1151.61
461.337	1169.23
461.71	1174.43
462.083	1191.38
462.456	1209.91
462.829	1231.83
463.201	1210.36
463.574	1247.42
463.947	1247.88
464.32	1255.11
464.692	1239.74
465.065	1320.42
465.438	1316.35
465.81	1319.74
466.183	1342.79
466.555	1377.36
466.928	1412.62
467.3	1399.51
467.672	1406.29
468.045	1438.61
468.417	1461.66
468.789	1472.28
469.161	1474.54
469.534	1499.4
469.906	1571.26
470.278	1571.71
470.65	1587.98
471.022	1625.04
471.394	1654.42
471.766	1658.94
472.138	1665.04
472.51	1731.25
472.882	1762.44
473.253	1790.69
473.625	1820.52
473.997	1866.84
474.369	1932.6
474.74	1920.63
475.112	1947.52
475.484	2011.7
475.855	2081.53
476.227	2075.43
476.598	2152.26
476.97	2162.88
477.341	2237.68
477.713	2268.87
478.084	2319.26
478.455	2410.56
478.827	2407.85
479.198	2499.6
479.569	2526.71
479.94	2613.94
480.311	2652.13
480.682	2712.02
481.053	2837.21
481.424	2838.57
481.795	2970.32
482.166	3002.18
482.537	3073.59
482.908	3189.52
483.279	3228.39
483.65	3334.38
484.021	3410.31
484.391	3481.72
484.762	3572.56
485.133	3611.88
485.503	3679.68
485.874	3817.98
486.244	3870.86
486.615	3972.78
486.985	4064.07
487.356	4143.85
487.726	4209.38
488.097	4383.84
488.467	4435.14
488.837	4576.38
489.207	4637.84
489.578	4739.76
489.948	4877.16
490.318	4936.59
490.688	5022.01
491.058	5127.32
491.428	5264.95
491.798	5392.63
492.168	5464.26
492.538	5544.71
492.908	5681.43
493.278	5741.54
493.648	5886.17
494.017	5968.88
494.387	6102.66
494.757	6195.09
495.126	6278.7
495.496	6319.16
495.866	6450.45
496.235	6521.41
496.605	6647.96
496.974	6767.96
497.344	6894.96
497.713	6915.3
498.082	7018.57
498.452	7134.95
498.821	7217.44
499.19	7303.31
499.559	7347.6
499.928	7493.36
500.298	7585.79
500.667	7678.67
501.036	7750.08
501.405	7871.88
501.774	7945.55
502.143	7984.2
502.512	8094.02
502.88	8218.99
503.249	8230.29
503.618	8351.19
503.987	8360.68
504.356	8404.52
504.724	8517.29
505.093	8596.84
505.462	8741.47
505.83	8788.92
506.199	8902.36
506.567	8947.34
506.936	8963.38
507.304	9143.49
507.672	9185.75
508.041	9285.63
508.409	9315.24
508.777	9405.4
509.145	9529.92
509.514	9559.3
509.882	9687.88
510.25	9713.42
510.618	9731.72
510.986	9841.78
511.354	9931.49
511.722	10117.93
512.09	10173.74
512.458	10182.33
512.826	10281.76
513.193	10415.09
513.561	10380.29
513.929	10510.23
514.297	10510.23
514.664	10682.2
515.032	10708.64
515.4	10773.05
515.767	10812.37
516.135	10923.33
516.502	10875.42
516.869	11140.72
517.237	11131.46
517.604	11078.8
517.972	11262.75
518.339	11297.1
518.706	11266.6
519.073	11371.9
519.44	11455.07
519.808	11601.05
520.175	11621.84
520.542	11782.52
520.909	11794.49
521.276	11838.56
521.643	11980.48
522.009	12032.23
522.376	12098.66
522.743	12190.19
523.11	12281.48
523.477	12370.3
523.843	12454.14
524.21	12593.79
524.577	12613.45
524.943	12687.12
525.31	12809.61
525.676	12915.14
526.043	13020.9
526.409	13020.22
526.776	13135.93
527.142	13206.88
527.508	13267.45
527.874	13340.44
528.241	13405.98
528.607	13530.04
528.973	13625.18
529.339	13604.16
529.705	13782.46
530.071	13806.87
530.437	13930.03
530.803	14003.02
531.169	14075.56
531.535	14088.44
531.901	14100.65
532.267	14104.26
532.632	14302.67
532.998	14327.76
533.364	14456.57
533.73	14550.13
534.095	14674.42
534.461	14666.06
534.826	14761.19
535.192	14822.66
535.557	14888.42
535.923	14924.35
536.288	15020.17
536.653	15020.4
537.019	15040.28
537.384	15105.14
537.749	15223.1
538.114	15299.26
538.479	15301.07
538.845	15381.97
539.21	15426.94
539.575	15421.06
539.94	15592.58
540.305	15639.81
540.67	15607.05
541.034	15757.78
541.399	15856.76
541.764	15779.92
542.129	15887.27
542.494	15861.28
542.858	16024.21
543.223	16004.32
543.587	16176.98
543.952	16149.86
544.316	16288.61
544.681	16274.6
545.045	16358.44
545.41	16444.09
545.774	16579.45
546.138	16442.28
546.503	16587.13
546.867	16616.51
547.231	16715.04
547.595	16808.15
547.959	16987.8
548.324	16882.04
548.688	16883.62
549.052	16959.1
549.416	17014.47
549.779	17095.6
550.143	17093.34
550.507	17154.13
550.871	17281.81
551.235	17223.28
551.599	17379.43
551.962	17547.34
552.326	17508.47
552.689	17661.23
553.053	17571.52
553.417	17601.12
553.78	17813.32
554.143	17723.38
554.507	17902.81
554.87	17902.13
555.234	18127.88
555.597	18014.67
555.96	18156.81
556.323	18145.06
556.686	18165.17
557.05	18300.08
557.413	18406.07
557.776	18394.77
558.139	18564.71
558.502	18472.06
558.865	18580.98
559.228	18673.86
559.59	18759.28
559.953	18837.02
560.316	19017.58
560.679	18882.22
561.041	19091.48
561.404	19153.62
561.767	19259.61
562.129	19246.73
562.492	19458.92
562.854	19379.38
563.217	19464.12
563.579	19571.91
563.941	19566.94
564.304	19706.83
564.666	19869.08
565.028	19810.78
565.39	19944.79
565.753	20033.15
566.115	20033.37
566.477	20117.66
566.839	20146.59
567.201	20320.37
567.563	20366.47
567.925	20493.47
568.287	20457.32
568.648	20459.8
569.01	20710.19
569.372	20805.1
569.734	20731.43
570.095	20900.69
570.457	20994.7
570.819	21072.67
571.18	21085.32
571.542	21218.2
571.903	21343.85
572.265	21474.92
572.626	21526.21
572.987	21547.91
573.349	21561.01
573.71	21738.86
574.071	21852.98
574.432	21900.44
574.794	22104.5
575.155	22127.55
575.516	22102.02
575.877	22311.73
576.238	22353.99
576.599	22488
576.96	22546.75
577.32	22717.59
577.681	22772.96
578.042	22938.61
578.403	22944.48
578.763	23097.47
579.124	23367.07
579.485	23420.4
579.845	23669.21
580.206	23612.71
580.566	23819.49
580.927	23893.16
581.287	24158.01
581.648	24185.58
582.008	24484.55
582.368	24391.45
582.728	24657.2
583.089	24810.65
583.449	24904.88
583.809	25073.24
584.169	25263.29
584.529	25400.24
584.889	25799.32
585.249	25648.14
585.609	25933.78
585.969	26160.44
586.329	26225.07
586.688	26423.03
587.048	26620.54
587.408	26807.66
587.768	27009.23
588.127	27054.66
588.487	27212.17
588.846	27614.19
589.206	27580.29
589.565	27850.79
589.925	28066.61
590.284	28293.49
590.643	28404.22
591.003	28766.25
591.362	28932.35
591.721	29081.72
592.08	29206.46
592.44	29458.43
592.799	29598.32
593.158	29780.46
593.517	29837.86
593.876	30116.95
594.235	30250.05
594.593	30578.18
594.952	30837.38
595.311	30690.49
595.67	31017.72
596.029	31305.39
596.387	31432.17
596.746	31563.46
597.104	31828.99
597.463	31839.39
597.822	32220.85
598.18	32187.4
598.538	32377.91
598.897	32702.19
599.255	32595.3
599.613	33279.35
599.972	33083.65
600.33	33455.62
600.688	33342.17
601.046	33544.65
601.404	33978.32
601.762	33843.63
602.12	34252.88
602.478	34383.5
602.836	34507.79
603.194	34507.12
603.552	34696.49
603.91	34756.6
604.268	35084.95
604.625	34929.7
604.983	35276.36
605.341	35244.95
605.698	35467.54
606.056	35630.48
606.413	35641.55
606.771	35992.5
607.128	35974.2
607.485	36046.06
607.843	36016
608.2	36483.11
608.557	36632.03
608.914	36597.68
609.272	36951.34
609.629	37025.47
609.986	37251.22
610.343	37112.7
610.7	37461.16
611.057	37546.58
611.414	37558.33
611.771	37576.87
612.127	37825.9
612.484	37902.96
612.841	38054.37
613.198	38000.13
613.554	38144.31
613.911	38406.67
614.267	38494.36
614.624	38432.44
614.98	38546.78
615.337	38725.99
615.693	38794.23
616.05	38846.66
616.406	39095.92
616.762	38980.44
617.118	39047.79
617.475	39044.4
617.831	39239.87
618.187	39258.4
618.543	39516.02
618.899	39725.06
619.255	39682.8
619.611	39637.6
619.967	39865.39
620.323	39886.41
620.678	39925.28
621.034	39855.22
621.39	39930.93
621.746	39916.24
622.101	40369.56
622.457	40037.37
622.812	40270.35
623.168	40394.87
623.523	40432.38
623.879	40536.79
624.234	40375.44
624.589	40535.21
624.945	40656.33
625.3	40779.72
625.655	40557.8
626.01	40691.59
626.365	40673.28
626.72	40796.22
627.075	40812.71
627.43	40932.94
627.785	40778.59
628.14	40800.74
628.495	40913.73
628.85	40875.31
629.205	40710.34
629.559	41157.56
629.914	40913.5
630.269	40872.15
630.623	40809.32
630.978	40802.77
631.332	41170.67
631.687	41085.02
632.041	40866.5
632.396	40945.82
632.75	40642.1
633.104	40882.09
633.459	40801.41
633.813	40678.93
634.167	40864.46
634.521	40779.94
634.875	40795.99
635.229	41033.05
635.583	40709.66
635.937	40717.12
636.291	40765.48
636.645	40799.61
636.999	40641.42
637.352	40767.29
637.706	40599.61
638.06	40778.81
638.413	40627.18
638.767	40595.77
639.121	40588.76
639.474	40398.71
639.828	40423.57
640.181	40569.33
640.534	40430.8
640.888	40292.27
641.241	40383.12
641.594	40316.68
641.947	40480.52
642.301	40369.56
642.654	40357.13
643.007	40227.87
643.36	40298.6
643.713	40346.96
644.066	40462.89
644.419	40093.64
644.771	39908.1
645.124	39583.82
645.477	39573.65
645.83	39436.03
646.182	39121.91
646.535	39244.62
646.888	39256.37
647.24	39035.81
647.593	39233.09
647.945	39081.23
648.298	38889.6
648.65	38872.2
649.002	38838.07
649.355	38905.64
649.707	38967.11
650.059	39148.12
650.411	39508.11
650.763	39513.31
651.115	39795.79
651.467	39797.82
651.819	39777.71
652.171	39662.69
652.523	39712.18
652.875	39714.89
653.227	39306.54
653.578	39692.97
653.93	39699.07
654.282	39449.13
654.633	39422.69
654.985	39455.69
655.337	39402.35
655.688	39406.87
656.039	39480.09
656.391	39177.73
656.742	39302.24
657.094	39419.08
657.445	39531.39
657.796	39465.85
658.147	39148.12
658.498	39199.87
658.849	39367.78
659.2	39258.85
659.551	39104.73
659.902	39353.99
660.253	39226.99
660.604	39365.52
660.955	39136.82
661.306	39269.93
661.656	39185.64
662.007	39114
662.358	39199.2
662.708	39114.9
663.059	39159.65
663.409	39099.31
663.76	39248.46
664.11	39244.84
664.461	39272.64
664.811	39310.38
665.161	39109.48
665.511	39007.11
665.862	39112.64
666.212	39223.38
666.562	39164.85
666.912	39263.83
667.262	39056.6
667.612	39098.18
667.962	39072.87
668.312	39153.55
668.662	39191.29
669.011	39138.18
669.361	39049.59
669.711	38983.38
670.06	38858.19
670.41	38832.88
670.76	38850.28
671.109	39072.19
671.459	38972.53
671.808	38946.32
672.157	38881.24
672.507	38701.13
672.856	38693.22
673.205	38855.93
673.554	38885.31
673.904	38750.39
674.253	38892.31
674.602	38751.52
674.951	38212.1
675.3	37985.89
675.649	38720.79
675.998	38558.99
676.346	38724.63
676.695	38773.67
677.044	38439.89
677.393	38433.57
677.741	38544.98
678.09	38508.82
678.438	38435.15
678.787	38513.79
679.135	38429.95
679.484	38255.27
679.832	38374.58
680.181	38195.61
680.529	38180.47
680.877	38149.28
681.225	38094.82
681.573	38288.26
681.922	38073.12
682.27	37960.36
682.618	37977.08
682.966	37863.86
683.314	37935.95
683.661	37929.85
684.009	37679.01
684.357	37612.34
684.705	37593.14
685.053	37621.84
685.4	37559.01
685.748	37226.14
686.095	37483.76
686.443	37234.95
686.79	37192.24
687.138	37269.75
687.485	37116.09
687.832	37179.14
688.18	37140.72
688.527	36955.86
688.874	37018.46
689.221	36913.83
689.568	36774.17
689.915	36677
690.262	36657.57
690.609	36507.29
690.956	36386.16
691.303	36486.27
691.65	36177.35
691.997	36152.5
692.344	36010.58
692.69	36049.67
693.037	36077.02
693.383	35798.15
693.73	35813.3
694.077	35591.61
694.423	35631.83
694.769	35653.75
695.116	35446.53
695.462	35262.58
695.808	35231.16
696.155	35259.64
696.501	35127.21
696.847	35110.72
697.193	34840.89
697.539	35053.54
697.885	34749.59
698.231	34624.63
698.577	34769.71
698.923	34627.56
699.269	34469.83
699.614	34294.92
699.96	34322.71
700.306	34240.46
700.651	34235.71
700.997	33956.85
701.342	33977.64
701.688	34004.3
702.033	33689.28
702.379	33725.44
702.724	33566.8
703.069	33656.74
703.415	33206.13
703.76	33357.77
704.105	33478.89
704.45	33180.14
704.795	33041.39
705.14	32865.8
705.485	32838.23
705.83	32871
706.175	32892.92
706.52	32733.38
706.865	32520.27
707.209	32569.99
707.554	32522.08
707.899	32661.29
708.243	32400.73
708.588	32476.43
708.932	32186.27
709.277	32132.71
709.621	32239.83
709.966	31871.48
710.31	32076.22
710.654	31774.31
710.998	31887.3
711.342	31820.63
711.687	31728.88
712.031	31638.94
712.375	31559.62
712.719	31617.7
713.063	31492.05
713.407	31550.58
713.75	31418.16
714.094	31261.32
714.438	31302.91
714.782	31301.78
715.125	31092.97
715.469	31175
715.812	31040.99
716.156	30772.3
716.499	30830.6
716.843	30822.47
717.186	30608.46
717.53	30741.34
717.873	30684.16
718.216	30679.19
718.559	30585.18
718.902	30233.78
719.246	30331.86
719.589	30329.6
719.932	30194.01
720.275	30187.45
720.617	30212.31
720.96	30233.56
721.303	30104.07
721.646	30102.71
721.989	29694.81
722.331	29927.8
722.674	29849.61
723.016	29958.31
723.359	29716.51
723.701	29769.16
724.044	29707.47
724.386	29553.57
724.729	29659.33
725.071	29532.78
725.413	29564.19
725.755	29544.99
726.097	29447.81
726.439	29285.11
726.782	29284.2
727.124	29374.14
727.465	29165.56
727.807	29177.09
728.149	29097.09
728.491	29129.63
728.833	29063.64
729.175	28921.27
729.516	28861.84
729.858	28829.3
730.199	28935.96
730.541	28833.82
730.882	28675.4
731.224	28793.59
731.565	28550.89
731.906	28619.36
732.248	28641.28
732.589	28413.72
732.93	28411.91
733.271	28376.43
733.612	28473.15
733.953	28492.81
734.294	28305.02
734.635	28192.03
734.976	28258.24
735.317	28158.58
735.658	28135.98
735.999	28245.13
736.339	28061.86
736.68	28116.1
737.021	27963.56
737.361	27923.79
737.702	28019.15
738.042	27939.83
738.383	27870.45
738.723	27873.84
739.063	27878.36
739.404	27661.42
739.744	27648.76
740.084	27654.87
740.424	27753.62
740.764	27622.55
741.104	27639.05
741.444	27479.28
741.784	27375.33
742.124	27509.56
742.464	27362.22
742.804	27399.73
743.143	27240.19
743.483	27379.85
743.823	27124.48
744.162	27141.66
744.502	27254.2
744.841	27132.39
745.181	27169
745.52	27075.9
745.86	27004.26
746.199	26952.06
746.538	26972.62
746.877	26971.04
747.216	26936.01
747.556	26915.45
747.895	26820.76
748.234	26843.81
748.573	26763.82
748.911	26730.82
749.25	26643.14
749.589	26599.98
749.928	26434.33
750.267	26580.32
750.605	26447.44
750.944	26343.04
751.283	26259.87
751.621	26423.03
751.96	26118.86
752.298	26275.92
752.636	26177.84
752.975	26124.96
753.313	25945.08
753.651	26016.72
753.989	25956.83
754.327	25922.48
754.666	25734.92
755.004	25814.91
755.342	25795.48
755.679	25676.84
756.017	25637.74
756.355	25637.07
756.693	25521.81
757.031	25557.75
757.368	25327.02
757.706	25335.15
758.044	25195.72
758.381	25256.96
758.719	25104.65
759.056	25060.36
759.394	25051.32
759.731	25021.26
760.068	24819.23
760.405	24927.25
760.743	24720.48
761.08	24688.16
761.417	24612.46
761.754	24597.55
762.091	24525
762.428	24361.17
762.765	24278.46
763.102	24294.05
763.438	24206.6
763.775	24112.81
764.112	24059.25
764.449	24088.18
764.785	24021.74
765.122	23790.33
765.458	23712.6
765.795	23705.37
766.131	23699.94
766.467	23686.61
766.804	23459.04
767.14	23359.39
767.476	23358.03
767.812	23206.62
768.148	23319.16
768.485	23012.5
768.821	22979.28
769.157	22999.85
769.492	22972.73
769.828	22847.99
770.164	22709.69
770.5	22652.74
770.836	22721.89
771.171	22484.83
771.507	22446.42
771.842	22377.94
772.178	22276.02
772.513	22316.02
772.849	22200.32
773.184	22127.55
773.519	22113.09
773.855	22018.4
774.19	21792.65
774.525	21740.9
774.86	21734.8
775.195	21694.8
775.53	21631.75
775.865	21415.03
776.2	21265.66
776.535	21199.44
776.87	21129.16
777.205	21041.25
777.539	20947.47
777.874	20961.93
778.209	20866.57
778.543	20884.42
778.878	20801.26
779.212	20663.19
779.547	20588.16
779.881	20647.14
780.215	20435.39
780.55	20558.56
780.884	20327.83
781.218	20332.12
781.552	20206.25
781.886	20086.25
782.22	19961.06
782.554	19934.39
782.888	19729.2
783.222	19724.68
783.556	19501.41
783.889	19608.52
784.223	19516.77
784.557	19400.62
784.89	19424.12
785.224	19336.67
785.557	19305.26
785.891	19238.36
786.224	19150.68
786.558	19077.69
786.891	18992.95
787.224	18902.78
787.557	18876.11
787.891	18844.25
788.224	18829.79
788.557	18763.8
788.89	18713.18
789.223	18621.43
789.556	18544.82
789.888	18539.63
790.221	18389.8
790.554	18251.95
790.887	18270.03
791.219	18206.3
791.552	18246.07
791.884	18061.22
792.217	18061.22
792.549	17930.38
792.882	17801.34
793.214	17812.64
793.546	17746.43
793.879	17671.4
794.211	17602.93
794.543	17634.34
794.875	17548.69
795.207	17551.4
795.539	17539.88
795.871	17491.07
796.203	17332.65
796.535	17238.19
796.867	17065.77
797.198	17150.06
797.53	17098.31
797.862	17020.34
798.193	17049.95
798.525	16967.01
798.856	16953.45
799.188	16816.96
799.519	16683.18
799.85	16602.95
800.182	16648.38
800.513	16626.68
800.844	16468.95
801.175	16522.05
801.506	16540.36
801.837	16370.42
802.168	16311.89
802.499	16332.9
802.83	16231.21
803.161	16112.12
803.491	16172.46
803.822	16153.25
804.153	15988.96
804.483	15949.19
804.814	15906.47
805.145	15867.61
805.475	15795.74
805.805	15745.12
806.136	15750.77
806.466	15707.61
806.796	15646.37
807.126	15547.16
807.457	15526.15
807.787	15475.98
808.117	15520.5
808.447	15408.41
808.777	15399.14
809.107	15478.24
809.436	15302.87
809.766	15313.27
810.096	15344.46
810.426	15121.18
810.755	15193.95
811.085	15073.95
811.414	15092.94
811.744	15013.62
812.073	14982.88
812.403	15039.6
812.732	14814.53
813.061	14912.83
813.39	14814.07
813.719	14689.56
814.049	14797.35
814.378	14650.46
814.707	14640.97
815.036	14635.77
815.365	14554.87
815.693	14540.18
816.022	14475.33
816.351	14457.02
816.68	14299.74
817.008	14374.99
817.337	14284.6
817.665	14274.65
817.994	14282.34
818.322	14310.58
818.651	14267.2
818.979	14149.46
819.307	14204.37
819.636	14144.49
819.964	14036.69
820.292	14106.97
820.62	14086.64
820.948	13954.89
821.276	14106.3
821.604	14023.81
821.932	14000.54
822.259	14023.13
822.587	14010.48
822.915	13923.93
823.243	13958.28
823.57	13989.24
823.898	13961.89
824.225	13907.2
824.553	13909.69
824.88	13871.27
825.207	13921.22
825.535	13909.69
825.862	13986.52
826.189	13893.65
826.516	13924.83
826.843	13900.2
827.17	13976.13
827.497	13906.53
827.824	13935.23
828.151	13969.58
828.478	13954.89
828.805	13978.16
829.131	13851.61
829.458	13902.23
829.785	13736.14
830.111	13817.04
830.438	13957.6
830.764	13762.58
831.09	13878.73
831.417	13777.94
831.743	13876.47
832.069	13818.85
832.395	13749.47
832.722	13867.43
833.048	13783.37
833.374	13787.43
833.7	13807.09
834.026	13771.62
834.351	13775.46
834.677	13765.97
835.003	13843.25
835.329	13723.03
835.654	13732.75
835.98	13592.64
836.306	13593.09
836.631	13610.04
836.956	13716.7
837.282	13688.23
837.607	13656.59
837.932	13505.63
838.258	13532.75
838.583	13547.21
838.908	13428.57
839.233	13520.1
839.558	13454.34
839.883	13355.81
840.208	13271.97
840.533	13307.9
840.858	13309.03
841.182	13255.47
841.507	13296.83
841.832	13212.08
842.156	13236.26
842.481	13151.52
842.805	13143.61
843.13	13183.38
843.454	13196.04
843.778	13115.14
844.103	13045.08
844.427	12975.93
844.751	12993.33
845.075	12959.43
845.399	12913.78
845.723	12719.89
846.047	12857.52
846.371	12774.58
846.695	12777.07
847.019	12668.37
847.343	12593.34
847.666	12539.56
847.99	12486.45
848.313	12482.38
848.637	12334.14
848.96	12394.25
849.284	12289.85
849.607	12222.5
849.931	12248.27
850.254	12088.04
850.577	12070.64
850.9	12022.51
851.223	12027.93
851.546	11916.3
851.869	11851.89
852.192	11902.06
852.515	11729.86
852.838	11745.45
853.161	11729.41
853.483	11695.29
853.806	11680.14
854.129	11578.45
854.451	11553.37
854.774	11522.86
855.096	11462.3
855.419	11441.96
855.741	11453.26
856.063	11375.29
856.385	11384.33
856.708	11322.41
857.03	11330.1
857.352	11311.79
857.674	11218.46
857.996	11192.47
858.318	11101.85
858.64	11195.64
858.961	11092.59
859.283	11131.91
859.605	11075.87
859.926	11027.96
860.248	10993.38
860.57	10964.23
860.891	10937.11
861.212	10877.68
861.534	10840.62
861.855	10882.2
862.176	10925.14
862.498	10820.51
862.819	10831.13
863.14	10734.18
863.461	10707.06
863.782	10663.22
864.103	10679.72
864.424	10652.38
864.745	10752.49
865.065	10559.72
865.386	10560.63
865.707	10569.67
866.027	10524.24
866.348	10453.06
866.668	10461.87
866.989	10491.7
867.309	10390.69
867.63	10470.01
867.95	10429.33
868.27	10378.71
868.59	10359.5
868.91	10334.19
869.23	10328.09
869.55	10332.38
869.87	10340.75
870.19	10281.76
870.51	10409.44
870.83	10326.06
871.15	10198.15
871.469	10184.82
871.789	10265.49
872.109	10228.88
872.428	10155.44
872.748	10190.47
873.067	10209
873.386	10156.34
873.706	10107.76
874.025	10112.5
874.344	10056.46
874.663	10054.65
874.982	10079.06
875.301	9999.29
875.62	9969.46
875.939	9954.54
876.258	10019.4
876.577	9985.95
876.896	9917.03
877.214	9879.97
877.533	9924.26
877.852	9876.8
878.17	9872.06
878.489	9903.24
878.807	9847.2
879.125	9857.14
879.444	9833.19
879.762	9772.62
880.08	9807.88
880.398	9764.49
880.716	9734.21
881.034	9724.49
881.352	9747.31
881.67	9667.54
881.988	9664.6
882.306	9651.27
882.624	9648.56
882.941	9602.46
883.259	9561.78
883.577	9536.02
883.894	9553.42
884.212	9536.02
884.529	9547.32
884.846	9464.38
885.164	9481.78
885.481	9420.32
885.798	9418.06
886.115	9434.55
886.432	9472.97
886.75	9363.14
887.067	9328.34
887.383	9217.61
887.7	9272.3
888.017	9237.27
888.334	9285.41
888.651	9216.93
888.967	9170.83
889.284	9145.07
889.6	9191.4
889.917	9013.1
890.233	9118.18
890.55	9021.91
890.866	9032.98
891.182	9021.91
891.498	9057.61
891.815	8986.2
892.131	8954.11
892.447	8873.66
892.763	8848.58
893.079	8872.99
893.395	8899.65
893.71	8822.37
894.026	8825.3
894.342	8783.27
894.657	8704.63
894.973	8727
895.289	8742.14
895.604	8642.48
895.92	8601.13
896.235	8604.97
896.55	8518.65
896.865	8507.57
897.181	8499.66
897.496	8529.27
897.811	8478.65
898.126	8407.24
898.441	8403.62
898.756	8360.91
899.071	8329.5
899.386	8310.06
899.7	8255.15
900.015	8283.17
900.33	8152.55
900.644	8202.5
900.959	8173.34
901.273	8185.1
901.588	8056.74
901.902	8077.98
902.216	8081.37
902.531	8077.98
902.845	7965.89
903.159	7936.06
903.473	7920.47
903.787	7917.31
904.101	7885.22
904.415	7882.28
904.729	7793.47
905.042	7800.02
905.356	7772.23
905.67	7663.08
905.984	7747.37
906.297	7597.77
906.611	7629.4
906.924	7594.83
907.237	7564.09
907.551	7535.17
907.864	7503.31
908.177	7490.65
908.491	7538.33
908.804	7427.38
909.117	7416.3
909.43	7396.64
909.743	7336.08
910.056	7322.29
910.368	7310.09
910.681	7186.25
910.994	7195.74
911.307	7217.44
911.619	7128.17
911.932	7152.35
912.244	7076.88
912.557	7102.19
912.869	7031.68
913.181	7040.04
913.494	6956.65
913.806	6936.31
914.118	6984.68
914.43	6914.17
914.742	6913.26
915.054	6864
915.366	6833.49
915.678	6833.49
915.99	6756.88
916.302	6717.56
916.613	6710.11
916.925	6684.8
917.236	6657.9
917.548	6595.08
917.859	6613.39
918.171	6545.14
918.482	6503.78
918.794	6468.3
919.105	6493.61
919.416	6421.98
919.727	6453.39
920.038	6422.43
920.349	6357.57
920.66	6293.39
920.971	6305.82
921.282	6293.39
921.593	6265.82
921.903	6286.61
922.214	6224.02
922.525	6178.82
922.835	6145.15
923.146	6129.1
923.456	6115.77
923.767	6130.01
924.077	6054.3
924.387	6014.31
924.697	6021.76
925.008	5987.64
925.318	6031.71
925.628	5912.39
925.938	5993.29
926.248	5871.71
926.558	5916.91
926.867	5829.45
927.177	5801.43
927.487	5792.16
927.796	5736.57
928.106	5728.89
928.416	5713.07
928.725	5689.79
929.034	5692.05
929.344	5642.79
929.653	5645.28
929.962	5570.25
930.271	5613.86
930.581	5580.42
930.89	5520.76
931.199	5462.91
931.508	5477.37
931.817	5427.2
932.125	5428.56
932.434	5423.81
932.743	5374.32
933.051	5349.69
933.36	5347.43
933.669	5293.87
933.977	5277.6
934.286	5271.05
934.594	5283.02
934.902	5233.31
935.21	5208.22
935.519	5227.89
935.827	5178.17
936.135	5127.1
936.443	5158.73
936.751	5081
937.059	5050.94
937.367	5038.06
937.674	5070.15
937.982	5054.1
938.29	4998.06
938.597	5000.32
938.905	4918.97
939.213	4954.9
939.52	4898.18
939.827	4878.06
940.135	4853.43
940.442	4841.68
940.749	4834.68
941.056	4843.04
941.363	4781.57
941.67	4807.33
941.977	4724.17
942.284	4726.88
942.591	4674.91
942.898	4674.23
943.205	4683.94
943.511	4659.54
943.818	4614.57
944.125	4542.48
944.431	4583.61
944.738	4596.26
945.044	4526.43
945.35	4534.12
945.657	4510.84
945.963	4499.32
946.269	4510.39
946.575	4441.47
946.881	4417.06
947.187	4419.54
947.493	4392.88
947.799	4334.58
948.105	4381.13
948.41	4316.72
948.716	4321.02
949.022	4287.57
949.327	4275.82
949.633	4244.86
949.938	4293.9
950.244	4223.84
950.549	4154.24
950.854	4136.61
951.16	4177.74
951.465	4150.4
951.77	4131.42
952.075	4127.35
952.38	4047.13
952.685	4103.17
952.99	4015.71
953.294	4023.85
953.599	3971.2
953.904	3992.89
954.209	3995.83
954.513	3993.12
954.818	3988.37
955.122	3947.01
955.426	3912.44
955.731	3920.57
956.035	3884.19
956.339	3865.21
956.643	3841.03
956.948	3800.35
957.252	3837.64
957.556	3851.42
957.86	3795.83
958.163	3771.65
958.467	3735.04
958.771	3744.99
959.075	3768.04
959.378	3688.94
959.682	3667.02
959.985	3677.19
960.289	3638.1
960.592	3641.49
960.896	3641.71
961.199	3599
961.502	3616.4
961.805	3573.47
962.108	3562.84
962.411	3580.7
962.714	3551.32
963.017	3521.26
963.32	3549.51
963.623	3508.16
963.926	3477.65
964.228	3444.66
964.531	3447.82
964.833	3450.08
965.136	3419.12
965.438	3388.84
965.741	3409.85
966.043	3400.36
966.345	3402.85
966.648	3324.88
966.95	3318.78
967.252	3307.48
967.554	3271.33
967.856	3288.5
968.158	3264.09
968.46	3271.1
968.761	3252.12
969.063	3212.8
969.365	3254.83
969.666	3168.96
969.968	3145
970.269	3147.49
970.571	3146.58
970.872	3177.54
971.174	3133.93
971.475	3107.94
971.776	3130.77
972.077	3112.23
972.378	3095.74
972.679	3099.13
972.98	3070.43
973.281	3020.26
973.582	3035.85
973.883	2985.91
974.183	3021.84
974.484	2974.61
974.785	2971.45
975.085	2969.87
975.386	2978.9
975.686	2917.89
975.986	2956.08
976.287	2912.69
976.587	2900.04
976.887	2879.02
977.187	2893.94
977.487	2849.87
977.787	2848.06
978.087	2813.03
978.387	2808.97
978.687	2818.23
978.987	2792.47
979.286	2727.39
979.586	2770.55
979.885	2799.25
980.185	2778.91
980.484	2727.84
980.784	2738.46
981.083	2732.58
981.382	2699.82
981.682	2702.08
981.981	2656.65
982.28	2667.5
982.579	2644
982.878	2663.43
983.177	2643.55
983.475	2596.54
983.774	2625.02
984.073	2612.13
984.372	2572.14
984.67	2567.84
984.969	2538.24
985.267	2550.67
985.566	2554.06
985.864	2540.05
986.162	2519.71
986.461	2485.58
986.759	2466.15
987.057	2514.74
987.355	2465.47
987.653	2463.21
987.951	2418.24
988.249	2437
988.547	2453.49
988.844	2406.72
989.142	2399.48
989.44	2398.36
989.737	2377.11
990.035	2398.36
990.332	2370.33
990.63	2339.83
990.927	2349.09
991.224	2328.53
991.521	2334.4
991.819	2313.16
992.116	2305.48
992.413	2332.82
992.71	2251.69
993.006	2240.39
993.303	2263.44
993.6	2220.73
993.897	2257.12
994.193	2241.75
994.49	2234.52
994.787	2197.23
995.083	2208.76
995.379	2219.15
995.676	2193.61
995.972	2179.15
996.268	2171.24
996.565	2143.67
996.861	2143.45
997.157	2123.33
997.453	2115.88
997.749	2117.01
998.044	2078.82
998.34	2082.66
998.636	2091.47
998.932	2069.1
999.227	2065.26
999.523	2023.68
999.818	2037.46
1000.114	2020.74
1000.409	2039.49
1000.704	1992.94
1001	2020.74
1001.295	1957.01
1001.59	1964.92
1001.885	1948.2
1002.18	1943.68
1002.475	1928.54
1002.77	1924.24
1003.065	1900.97
1003.359	1921.98
1003.654	1895.77
1003.949	1878.37
1004.243	1849.89
1004.538	1855.32
1004.832	1870.23
1005.127	1833.17
1005.421	1838.6
1005.715	1801.08
1006.009	1800.86
1006.304	1787.3
1006.598	1801.53
1006.892	1798.14
1007.186	1759.5
1007.48	1776.9
1007.773	1731.93
1008.067	1752.5
1008.361	1729.67
1008.655	1715.21
1008.948	1699.39
1009.242	1693.74
1009.535	1698.03
1009.829	1698.94
1010.122	1654.87
1010.415	1677.47
1010.708	1670.01
1011.001	1653.74
1011.295	1623.23
1011.588	1611.03
1011.881	1618.71
1012.173	1611.03
1012.466	1621.65
1012.759	1567.87
1013.052	1593.86
1013.344	1566.29
1013.637	1538.94
1013.93	1568.32
1014.222	1545.27
1014.514	1558.38
1014.807	1548.43
1015.099	1516.57
1015.391	1547.98
1015.683	1511.37
1015.976	1487.19
1016.268	1484.03
1016.56	1484.48
1016.851	1475.67
1017.143	1466.4
1017.435	1466.18
1017.727	1429.34
1018.018	1461.66
1018.31	1419.17
1018.602	1431.15
1018.893	1427.31
1019.185	1411.94
1019.476	1404.93
1019.767	1424.6
1020.058	1369.68
1020.35	1359.96
1020.641	1353.64
1020.932	1344.82
1021.223	1331.72
1021.514	1340.98
1021.804	1325.39
1022.095	1325.39
1022.386	1318.61
1022.677	1298.04
1022.967	1284.49
1023.258	1295.33
1023.548	1266.63
1023.839	1270.48
1024.129	1261.89
1024.419	1251.04
1024.709	1263.92
1025	1233.19
1025.29	1223.7
1025.58	1219.18
1025.87	1208.33
1026.16	1220.53
1026.449	1209.91
1026.739	1199.97
1027.029	1170.82
1027.319	1197.03
1027.608	1203.58
1027.898	1154.09
1028.187	1138.28
1028.477	1129.24
1028.766	1130.37
1029.055	1119.07
1029.344	1148.9
1029.634	1106.86
1029.923	1132.63
1030.212	1113.87
1030.501	1069.12
1030.79	1102.8
1031.078	1063.02
1031.367	1105.96
1031.656	1065.73
1031.945	1073.19
1032.233	1065.96
1032.522	1079.97
1032.81	1031.39
1033.099	1026.41
1033.387	1048.33
1033.675	1033.65
1033.963	1013.98
1034.251	1012.63
1034.54	991.39
1034.828	1008.79
1035.116	976.7
1035.403	982.57
1035.691	996.13
1035.979	975.12
1036.267	976.02
1036.554	945.96
1036.842	965.4
1037.129	957.04
1037.417	955.46
1037.704	958.17
1037.992	936.25
1038.279	913.42
1038.566	931.05
1038.853	931.05
1039.14	931.05
