Data from hue_120_FLMS001491_00027.txt Node
Date: Tue Feb 07 16:59:08 GMT 2017
User: dcchb
Spectrometer: FLMS00149
Trigger mode: 0
Integration Time (sec): 2.000000E-2
Scans to average: 10
Electric dark correction enabled: true
Nonlinearity correction enabled: false
Boxcar width: 0
XAxis mode: Wavelengths
Number of Pixels in Spectrum: 2048
>>>>>Begin Spectral Data<<<<<
341.393	-29.28
341.776	-29.28
342.16	-29.28
342.543	-53.46
342.927	-67.92
343.31	-77.64
343.693	-43.29
344.077	-60.01
344.46	-63.85
344.843	-44.42
345.226	-46.68
345.61	-39.22
345.993	-11.88
346.376	-14.59
346.759	6.43
347.142	27.22
347.525	42.81
347.908	47.78
348.291	72.87
348.674	88.68
349.057	115.8
349.44	131.17
349.823	147.21
350.206	157.16
350.588	181.34
350.971	206.87
351.354	240.09
351.737	254.56
352.119	247.55
352.502	263.82
352.884	272.41
353.267	272.86
353.65	303.59
354.032	297.72
354.414	280.32
354.797	311.05
355.179	317.83
355.562	332.52
355.944	316.93
356.326	352.86
356.709	325.97
357.091	336.14
357.473	345.17
357.855	324.16
358.238	342.01
358.62	366.42
359.002	349.47
359.384	330.94
359.766	340.65
360.148	335.46
360.53	353.54
360.912	338.85
361.294	351.05
361.676	341.78
362.057	328.23
362.439	320.99
362.821	337.49
363.203	314.89
363.584	328
363.966	313.08
364.348	340.43
364.729	315.34
365.111	310.83
365.493	329.36
365.874	328.23
366.256	316.93
366.637	308.34
367.019	321.9
367.4	331.84
367.781	324.38
368.163	302.46
368.544	304.27
368.925	331.84
369.306	318.28
369.688	306.76
370.069	322.35
370.45	330.71
370.831	318.06
371.212	323.03
371.593	318.96
371.974	303.59
372.355	320.09
372.736	322.58
373.117	320.54
373.498	324.16
373.879	323.93
374.26	304.5
374.641	320.32
375.021	322.58
375.402	330.94
375.783	333.65
376.163	325.74
376.544	342.69
376.925	362.58
377.305	355.57
377.686	322.35
378.066	345.17
378.447	335.91
378.827	333.42
379.208	333.65
379.588	334.33
379.968	346.76
380.349	322.8
380.729	337.04
381.109	325.51
381.489	323.48
381.87	330.49
382.25	335.01
382.63	351.05
383.01	353.76
383.39	358.51
383.77	353.76
384.15	346.53
384.53	351.73
384.91	352.63
385.29	353.54
385.67	362.12
386.049	343.14
386.429	358.73
386.809	353.76
387.189	364.16
387.568	335.68
387.948	357.38
388.328	379.52
388.707	369.81
389.087	360.77
389.466	359.86
389.846	365.96
390.225	362.35
390.605	368
390.984	382.91
391.363	375.91
391.743	366.19
392.122	374.78
392.501	390.15
392.881	370.71
393.26	365.06
393.639	384.95
394.018	362.58
394.397	374.78
394.776	395.79
395.155	378.62
395.534	387.66
395.913	391.05
396.292	390.15
396.671	374.33
397.05	379.52
397.429	386.76
397.808	412.07
398.186	407.09
398.565	412.97
398.944	406.87
399.323	393.99
399.701	410.94
400.08	408.22
400.458	435.79
400.837	419.75
401.215	415
401.594	392.18
401.972	433.31
402.351	395.57
402.729	426.53
403.107	431.27
403.486	410.26
403.864	430.14
404.242	419.3
404.62	422.91
404.999	414.78
405.377	413.87
405.755	389.47
406.133	455.91
406.511	440.31
406.889	471.5
407.267	432.86
407.645	440.31
408.023	459.97
408.401	444.38
408.779	471.72
409.156	456.36
409.534	458.39
409.912	458.62
410.29	454.78
410.667	478.73
411.045	466.98
411.422	487.54
411.8	459.97
412.178	483.25
412.555	497.03
412.933	516.24
413.31	486.87
413.687	486.41
414.065	481.44
414.442	505.4
414.819	523.7
415.197	533.64
415.574	513.53
415.951	512.18
416.328	513.31
416.705	498.39
417.082	513.76
417.46	516.24
417.837	526.64
418.214	530.25
418.591	523.7
418.967	518.05
419.344	540.88
419.721	524.6
420.098	545.85
420.475	543.36
420.852	543.36
421.228	546.75
421.605	547.88
421.982	530.48
422.358	575
422.735	582.23
423.111	582.46
423.488	583.81
423.864	584.94
424.241	602.34
424.617	567.77
424.994	600.99
425.37	595.11
425.746	575.68
426.123	613.19
426.499	605.05
426.875	619.52
427.251	626.07
427.627	640.31
428.003	605.73
428.379	614.09
428.756	629.91
429.132	644.38
429.507	653.64
429.883	640.99
430.259	648.44
430.635	660.65
431.011	665.39
431.387	673.98
431.763	672.85
432.138	681.21
432.514	694.77
432.89	694.54
433.265	705.84
433.641	718.27
434.016	709.91
434.392	709.68
434.767	728.22
435.143	739.97
435.518	738.38
435.894	760.3
436.269	740.64
436.644	743.81
437.02	776.12
437.395	759.17
437.77	769.12
438.145	804.82
438.52	773.86
438.895	812.51
439.271	802.34
439.646	795.78
440.021	830.81
440.395	815.9
440.77	842.11
441.145	803.69
441.52	856.35
441.895	849.79
442.27	863.35
442.645	857.25
443.019	863.8
443.394	850.47
443.769	893.86
444.143	852.05
444.518	859.96
444.892	875.56
445.267	871.49
445.641	892.73
446.016	909
446.39	894.76
446.764	897.02
447.139	876.91
447.513	926.4
447.887	916.01
448.262	939.96
448.636	956.46
449.01	946.29
449.384	950.58
449.758	940.87
450.132	957.36
450.506	960.53
450.88	986.29
451.254	963.24
451.628	996.46
452.002	980.86
452.376	1024.7
452.75	1020.64
453.123	1011.82
453.497	1035.55
453.871	1062.9
454.244	1085.27
454.618	1077.81
454.992	1092.27
455.365	1098.83
455.739	1107.41
456.112	1113.29
456.486	1099.5
456.859	1151.93
457.232	1140.41
457.606	1167.3
457.979	1147.41
458.352	1212.04
458.725	1194.19
459.099	1187.64
459.472	1244.36
459.845	1247.75
460.218	1242.55
460.591	1268.31
460.964	1262.66
461.337	1333.62
461.71	1323.45
462.083	1352.15
462.456	1369.33
462.829	1353.51
463.201	1397.12
463.574	1377.24
463.947	1401.87
464.32	1421.3
464.692	1461.08
465.065	1472.38
465.438	1504.69
465.81	1510.57
466.183	1563.9
466.555	1571.81
466.928	1569.1
467.3	1584.24
467.672	1625.14
468.045	1675.31
468.417	1687.96
468.789	1674.63
469.161	1724.35
469.534	1754.4
469.906	1777.68
470.278	1802.09
470.65	1838.24
471.022	1877.34
471.394	1867.85
471.766	1922.99
472.138	1958.92
472.51	2034.62
472.882	2106.03
473.253	2105.81
473.625	2165.69
473.997	2199.14
474.369	2241.17
474.74	2270.55
475.112	2346.48
475.484	2368.4
475.855	2456.53
476.227	2490.88
476.598	2569.75
476.97	2629.86
477.341	2706.24
477.713	2744.89
478.084	2809.06
478.455	2907.59
478.827	2947.59
479.198	3096.29
479.569	3112.11
479.94	3177.19
480.311	3265.32
480.682	3363.17
481.053	3473
481.424	3623.05
481.795	3680.45
482.166	3750.06
482.537	3827.57
482.908	3978.3
483.279	4062.82
483.65	4170.16
484.021	4321.57
484.391	4447.21
484.762	4497.83
485.133	4600.43
485.503	4727.43
485.874	4917.26
486.244	4986.41
486.615	5158.61
486.985	5233.63
487.356	5425.72
487.726	5516.11
488.097	5682.66
488.467	5809.66
488.837	5909.77
489.207	6068.41
489.578	6219.82
489.948	6333.49
490.318	6498.46
490.688	6627.04
491.058	6761.5
491.428	6923.31
491.798	7073.36
492.168	7281.04
492.538	7385.89
492.908	7546.57
493.278	7731.87
493.648	7792.44
494.017	8029.72
494.387	8113.33
494.757	8279.2
495.126	8398.97
495.496	8489.82
495.866	8561.68
496.235	8749.93
496.605	8909.92
496.974	9066.08
497.344	9150.37
497.713	9213.19
498.082	9429.23
498.452	9537.7
498.821	9603.01
499.19	9760.29
499.559	9904.02
499.928	9974.75
500.298	10164.13
500.667	10287.51
501.036	10300.39
501.405	10438.02
501.774	10451.12
502.143	10653.83
502.512	10766.82
502.88	10863.09
503.249	10830.55
503.618	11066.93
503.987	11111.22
504.356	11177.88
504.724	11236.64
505.093	11270.76
505.462	11456.52
505.83	11442.51
506.199	11601.38
506.567	11730.41
506.936	11789.39
507.304	11826.91
507.672	12024.87
508.041	12076.84
508.409	12170.85
508.777	12264.41
509.145	12338.98
509.514	12359.55
509.882	12423.73
510.25	12457.17
510.618	12620.56
510.986	12485.87
511.354	12710.27
511.722	12787.11
512.09	12946.65
512.458	12847.44
512.826	13015.58
513.193	13040.66
513.561	13053.99
513.929	13146.19
514.297	13260.09
514.664	13307.32
515.032	13269.13
515.4	13397.26
515.767	13439.97
516.135	13509.8
516.502	13353.42
516.869	13615.11
517.237	13602
517.604	13559.29
517.972	13707.54
518.339	13746.86
518.706	13674.54
519.073	13749.57
519.44	13825.72
519.808	14003.12
520.175	13873.41
520.542	13926.74
520.909	14007.64
521.276	14086.96
521.643	14077.92
522.009	14192.27
522.376	14198.37
522.743	14233.62
523.11	14309.33
523.477	14352.49
523.843	14424.8
524.21	14492.6
524.577	14538.47
524.943	14544.12
525.31	14485.59
525.676	14634.52
526.043	14622.31
526.409	14686.94
526.776	14730.56
527.142	14731.46
527.508	14779.15
527.874	14818.24
528.241	14828.64
528.607	14861.85
528.973	14866.6
529.339	14814.85
529.705	14986.15
530.071	14959.93
530.437	14976.65
530.803	14924.68
531.169	15046.03
531.535	14975.52
531.901	14931.68
532.267	14945.92
532.632	14982.98
532.998	15009.87
533.364	15035.41
533.73	15029.99
534.095	15012.59
534.461	14962.19
534.826	15004.68
535.192	14866.37
535.557	15018.91
535.923	14925.81
536.288	14947.5
536.653	14897.33
537.019	14809.2
537.384	14860.05
537.749	14780.73
538.114	14779.15
538.479	14811.46
538.845	14820.05
539.21	14652.14
539.575	14729.88
539.94	14639.49
540.305	14736.66
540.67	14673.84
541.034	14580.51
541.399	14576.44
541.764	14571.02
542.129	14518.14
542.494	14486.95
542.858	14513.16
543.223	14423
543.587	14396.78
543.952	14399.04
544.316	14321.76
544.681	14320.17
545.045	14187.3
545.41	14251.25
545.774	14270.01
546.138	14291.02
546.503	14206.96
546.867	14181.42
547.231	14185.49
547.595	14176.22
547.959	14039.73
548.324	13979.84
548.688	14044.93
549.052	13958.38
549.416	13923.57
549.779	13915.44
550.143	13879.96
550.507	13952.27
550.871	13935.55
551.235	13797.93
551.599	13983.69
551.962	13811.94
552.326	13780.08
552.689	13853.97
553.053	13725.16
553.417	13724.94
553.78	13746.18
554.143	13600.42
554.507	13669.8
554.87	13670.7
555.234	13634.32
555.597	13601.1
555.96	13582.34
556.323	13578.05
556.686	13594.54
557.05	13659.85
557.413	13637.03
557.776	13484.72
558.139	13604.03
558.502	13545.28
558.865	13524.04
559.228	13570.14
559.59	13614.43
559.953	13444.49
560.316	13645.16
560.679	13595.22
561.041	13619.63
561.404	13733.07
561.767	13698.95
562.129	13618.27
562.492	13653.98
562.854	13587.99
563.217	13588.89
563.579	13625.05
563.941	13671.38
564.304	13643.81
564.666	13657.82
565.028	13636.12
565.39	13712.96
565.753	13681.55
566.115	13714.31
566.477	13752.51
566.839	13716.35
567.201	13813.07
567.563	13753.41
567.925	13709.12
568.287	13827.08
568.648	13816.46
569.01	13875.67
569.372	13957.02
569.734	13836.8
570.095	13815.78
570.457	13984.36
570.819	13819.17
571.18	13866.4
571.542	13973.97
571.903	13982.78
572.265	13973.74
572.626	13959.28
572.987	13939.62
573.349	13989.34
573.71	14099.84
574.071	13989.79
574.432	14046.96
574.794	14081.08
575.155	14090.8
575.516	14061.65
575.877	14019.62
576.238	14082.44
576.599	14079.95
576.96	14082.67
577.32	14119.73
577.681	14181.42
578.042	14209.22
578.403	14140.52
578.763	14157.01
579.124	14103.68
579.485	14142.55
579.845	14225.26
580.206	14167.64
580.566	14136
580.927	14162.66
581.287	14219.16
581.648	14141.2
582.008	14168.77
582.368	14201.08
582.728	14161.31
583.089	14145.94
583.449	14168.99
583.809	14096.9
584.169	14103.46
584.529	14131.93
584.889	14157.24
585.249	14008.09
585.609	14043.8
585.969	14029.11
586.329	13932.39
586.688	13933.74
587.048	14051.93
587.408	13929
587.768	14002.44
588.127	13964.25
588.487	13972.39
588.846	14034.76
589.206	13980.75
589.565	13941.2
589.925	14031.14
590.284	13959.51
590.643	13888.32
591.003	13982.78
591.362	13952.73
591.721	13924.48
592.08	13914.76
592.44	13869.11
592.799	14067.3
593.158	13930.13
593.517	13872.73
593.876	13943.01
594.235	13859.85
594.593	13857.59
594.952	13819.17
595.311	13819.62
595.67	13811.26
596.029	13940.07
596.387	13907.53
596.746	13892.39
597.104	13836.8
597.463	13829.79
597.822	13908.89
598.18	13803.13
598.538	13746.18
598.897	13912.5
599.255	13791.83
599.613	13981.2
599.972	13805.61
600.33	13818.04
600.688	13740.3
601.046	13826.18
601.404	13893.52
601.762	13920.64
602.12	13830.92
602.478	13857.59
602.836	13856.01
603.194	13838.38
603.552	13815.55
603.91	13786.18
604.268	13833.18
604.625	13785.73
604.983	13744.6
605.341	13771.49
605.698	13822.33
606.056	13901.88
606.413	13843.35
606.771	13919.28
607.128	13928.32
607.485	13863.69
607.843	13894.2
608.2	13936.46
608.557	13882.22
608.914	13834.99
609.272	13940.07
609.629	13919.28
609.986	13983.23
610.343	13932.16
610.7	14007.41
611.057	13931.71
611.414	13927.42
611.771	14009
612.127	14036.11
612.484	14023.23
612.841	14062.55
613.198	13995.89
613.554	14096.9
613.911	14065.72
614.267	14085.6
614.624	14055.1
614.98	14034.31
615.337	14118.6
615.693	14093.51
616.05	14156.56
616.406	14183.23
616.762	14105.49
617.118	14135.32
617.475	14108.65
617.831	14145.72
618.187	14237.24
618.543	14123.57
618.899	14279.05
619.255	14229.1
619.611	14231.82
619.967	14319.72
620.323	14293.96
620.678	14206.5
621.034	14130.8
621.39	14276.33
621.746	14081.54
622.101	14267.07
622.457	14157.69
622.812	14292.83
623.168	14300.29
623.523	14270.01
623.879	14309.1
624.234	14244.24
624.589	14307.29
624.945	14323.79
625.3	14290.8
625.655	14291.7
626.01	14317.69
626.365	14289.89
626.72	14223
627.075	14240.63
627.43	14311.36
627.785	14196.79
628.14	14205.6
628.495	14266.84
628.85	14280.4
629.205	14157.47
629.559	14230.46
629.914	14146.85
630.269	14197.92
630.623	14091.25
630.978	14064.59
631.332	14192.04
631.687	14203.57
632.041	14107.3
632.396	14149.11
632.75	14008.09
633.104	14074.31
633.459	14035.21
633.813	14039.28
634.167	13954.53
634.521	14008.77
634.875	14005.83
635.229	13990.01
635.583	13909.79
635.937	13970.13
636.291	13946.62
636.645	13957.25
636.999	13872.5
637.352	13907.3
637.706	13776.69
638.06	13932.16
638.413	13844.71
638.767	13765.16
639.121	13760.64
639.474	13691.26
639.828	13791.15
640.181	13794.09
640.534	13723.81
640.888	13751.6
641.241	13676.12
641.594	13695.11
641.947	13794.54
642.301	13722
642.654	13694.2
643.007	13702.11
643.36	13607.42
643.713	13614.66
644.066	13668.89
644.419	13615.56
644.771	13545.96
645.124	13380.54
645.477	13409.24
645.83	13237.26
646.182	13203.59
646.535	13233.42
646.888	13236.59
647.24	13085.63
647.593	13251.95
647.945	13126.99
648.298	13135.12
648.65	13034.56
649.002	13102.58
649.355	13114.1
649.707	13184.84
650.059	13147.55
650.411	13367.43
650.763	13381.22
651.115	13546.64
651.467	13431.16
651.819	13378.96
652.171	13404.49
652.523	13459.18
652.875	13366.98
653.227	13445.85
653.578	13455.56
653.93	13486.07
654.282	13390.48
654.633	13377.15
654.985	13388.67
655.337	13390.93
655.688	13317.04
656.039	13547.09
656.391	13360.65
656.742	13379.63
657.094	13401.1
657.445	13441.78
657.796	13493.3
658.147	13400.2
658.498	13434.55
658.849	13423.47
659.2	13373.76
659.551	13358.39
659.902	13570.59
660.253	13393.19
660.604	13448.11
660.955	13326.08
661.306	13505.28
661.656	13511.38
662.007	13522.23
662.358	13499.18
662.708	13465.28
663.059	13522.46
663.409	13343.93
663.76	13501.89
664.11	13450.14
664.461	13533.53
664.811	13508.44
665.161	13525.39
665.511	13486.98
665.862	13592.06
666.212	13459.18
666.562	13546.18
666.912	13483.81
667.262	13479.74
667.612	13591.83
667.962	13488.11
668.312	13448.56
668.662	13646.75
669.011	13475.45
669.361	13482.68
669.711	13473.64
670.06	13539.4
670.41	13449.69
670.76	13493.76
671.109	13557.03
671.459	13407.66
671.808	13477.26
672.157	13562
672.507	13411.95
672.856	13437.26
673.205	13360.65
673.554	13423.93
673.904	13361.33
674.253	13346.19
674.602	13436.81
674.951	13117.72
675.3	13125.18
675.649	13377.6
675.998	13321.78
676.346	13311.16
676.695	13327.66
677.044	13238.39
677.393	13272.97
677.741	13300.31
678.09	13247.21
678.438	13283.59
678.787	13260.32
679.135	13242.24
679.484	13126.31
679.832	13159.98
680.181	13039.98
680.529	13100.09
680.877	13047.21
681.225	12957.27
681.573	13051.51
681.922	12983.26
682.27	12939.65
682.618	12982.81
682.966	12890.16
683.314	12929.93
683.661	12897.16
684.009	12820.33
684.357	12859.2
684.705	12818.52
685.053	12729.03
685.4	12816.71
685.748	12746.2
686.095	12755.24
686.443	12685.64
686.79	12743.72
687.138	12701.23
687.485	12738.75
687.832	12572.65
688.18	12571.52
688.527	12557.28
688.874	12549.83
689.221	12434.8
689.568	12442.94
689.915	12360
690.262	12410.17
690.609	12327.91
690.956	12267.57
691.303	12251.3
691.65	12228.25
691.997	12209.27
692.344	12092.89
692.69	12004.75
693.037	11994.36
693.383	11894.48
693.73	12043.17
694.077	11868.71
694.423	11878.88
694.769	11844.99
695.116	11820.58
695.462	11739.68
695.808	11739.9
696.155	11691.32
696.501	11678.66
696.847	11670.53
697.193	11559.12
697.539	11582.17
697.885	11492.45
698.231	11468.05
698.577	11452.23
698.923	11407.48
699.269	11387.6
699.614	11290.65
699.96	11301.27
700.306	11245.68
700.651	11218.11
700.997	11178.56
701.342	11144.66
701.688	11104.44
702.033	11043.2
702.379	11020.6
702.724	10955.97
703.069	11002.75
703.415	10781.51
703.76	10820.61
704.105	10843.66
704.45	10728.18
704.795	10716.88
705.14	10692.93
705.485	10640.27
705.83	10639.59
706.175	10595.3
706.52	10627.62
706.865	10591.91
707.209	10525.7
707.554	10458.13
707.899	10575.64
708.243	10437.56
708.588	10464.68
708.932	10301.07
709.277	10354.4
709.621	10377.91
709.966	10252.26
710.31	10309.66
710.654	10234.18
710.998	10248.42
711.342	10289.77
711.687	10220.85
712.031	10198.7
712.375	10070.57
712.719	10155.54
713.063	10094.07
713.407	10123.67
713.75	10079.83
714.094	10050.91
714.438	10024.92
714.782	10045.03
715.125	9933.4
715.469	9954.19
715.812	9896.79
716.156	9817.02
716.499	9838.71
716.843	9852.04
717.186	9822.21
717.53	9896.79
717.873	9791.93
718.216	9796.45
718.559	9787.64
718.902	9729.11
719.246	9752.84
719.589	9704.7
719.932	9666.29
720.275	9705.38
720.617	9684.59
720.96	9607.3
721.303	9654.76
721.646	9642.56
721.989	9614.08
722.331	9670.81
722.674	9630.13
723.016	9626.74
723.359	9584.93
723.701	9571.15
724.044	9506.52
724.386	9471.04
724.729	9610.02
725.071	9534.99
725.413	9587.64
725.755	9528.89
726.097	9475.33
726.439	9439.85
726.782	9502
727.124	9526.4
727.465	9485.5
727.807	9516.23
728.149	9473.07
728.491	9462.67
728.833	9509
729.175	9445.27
729.516	9425.39
729.858	9464.03
730.199	9532.73
730.541	9396.46
730.882	9450.7
731.224	9443.69
731.565	9398.27
731.906	9370.25
732.248	9403.24
732.589	9392.39
732.93	9366.63
733.271	9444.6
733.612	9396.46
733.953	9393.75
734.294	9376.35
734.635	9407.31
734.976	9397.82
735.317	9323.02
735.658	9376.58
735.999	9403.47
736.339	9366.63
736.68	9350.59
737.021	9482.56
737.361	9401.21
737.702	9382.23
738.042	9368.44
738.383	9372.28
738.723	9397.82
739.063	9418.61
739.404	9440.3
739.744	9431.94
740.084	9433.98
740.424	9464.71
740.764	9472.62
741.104	9536.57
741.444	9393.75
741.784	9421.32
742.124	9441.66
742.464	9551.49
742.804	9564.14
743.143	9535.22
743.483	9581.54
743.823	9517.36
744.162	9572.05
744.502	9663.12
744.841	9596.91
745.181	9662.22
745.52	9742.89
745.86	9712.39
746.199	9833.29
746.538	9864.7
746.877	9951.25
747.216	9897.01
747.556	9976.79
747.895	9989.44
748.234	10016.11
748.573	10151.7
748.911	10142.66
749.25	10296.55
749.589	10249.32
749.928	10337.45
750.267	10474.4
750.605	10506.94
750.944	10565.02
751.283	10644.56
751.621	10719.14
751.96	10723.66
752.298	10947.61
752.636	11015.63
752.975	11110.54
753.313	11160.71
753.651	11341.95
753.989	11416.07
754.327	11493.81
754.666	11609.74
755.004	11679.34
755.342	11830.97
755.679	12043.85
756.017	12042.72
756.355	12261.47
756.693	12330.85
757.031	12522.71
757.368	12620.78
757.706	12866.88
758.044	12976.03
758.381	13078.4
758.719	13256.02
759.056	13401.55
759.394	13638.16
759.731	13675.9
760.068	13878.15
760.405	14054.87
760.743	14171.25
761.08	14337.35
761.417	14457.12
761.754	14709.32
762.091	14826.15
762.428	14966.26
762.765	15091.68
763.102	15322.41
763.438	15422.07
763.775	15597.65
764.112	15800.36
764.449	16062.05
764.785	16021.37
765.122	16198.54
765.458	16400.57
765.795	16468.59
766.131	16791.52
766.467	16848.24
766.804	16976.6
767.14	17076.71
767.476	17254.11
767.812	17368.23
768.148	17498.4
768.485	17574.78
768.821	17715.79
769.157	17889.57
769.492	17954.66
769.828	18054.09
770.164	18027.65
770.5	18189.45
770.836	18293.18
771.171	18265.61
771.507	18478.03
771.842	18532.49
772.178	18706.27
772.513	18785.59
772.849	18881.86
773.184	18923.67
773.519	18954.63
773.855	19093.61
774.19	19064.91
774.525	19161.63
774.86	19258.8
775.195	19395.52
775.53	19294.96
775.865	19282.98
776.2	19323.43
776.535	19166.37
776.87	19470.1
777.205	19384.22
777.539	19416.31
777.874	19577.21
778.209	19424.22
778.543	19608.85
778.878	19452.47
779.212	19593.93
779.547	19592.8
779.881	19610.2
780.215	19474.84
780.55	19686.36
780.884	19618.57
781.218	19662.63
781.552	19659.47
781.886	19694.95
782.22	19561.39
782.554	19645.46
782.888	19430.1
783.222	19460.15
783.556	19507.16
783.889	19453.37
784.223	19382.19
784.557	19461.51
784.89	19407.95
785.224	19457.67
785.557	19281.63
785.891	19375.41
786.224	19284.11
786.558	19446.59
786.891	19280.72
787.224	19169.76
787.557	19196.66
787.891	19290.44
788.224	19257.67
788.557	19291.12
788.89	19194.85
789.223	19223.55
789.556	19069.88
789.888	19115.53
790.221	19015.64
790.554	18778.36
790.887	18894.52
791.219	18972.93
791.552	18787.18
791.884	18760.74
792.217	18815.65
792.549	18724.58
792.882	18763.9
793.214	18603.9
793.546	18662.66
793.879	18551.93
794.211	18498.37
794.543	18563.23
794.875	18551.93
795.207	18531.81
795.539	18537.24
795.871	18457.01
796.203	18282.78
796.535	18204.59
796.867	18299.05
797.198	18195.1
797.53	18186.74
797.862	18146.51
798.193	18040.3
798.525	17996.24
798.856	18069.91
799.188	17823.81
799.519	17801.66
799.85	17820.87
800.182	17792.17
800.513	17797.82
800.844	17725.28
801.175	17780.87
801.506	17715.57
801.837	17624.95
802.168	17523.25
802.499	17579.3
802.83	17481.45
803.161	17488.45
803.491	17483.93
803.822	17457.72
804.153	17372.98
804.483	17225.86
804.814	17189.03
805.145	17141.57
805.475	17132.53
805.805	17105.86
806.136	17093.21
806.466	17151.29
806.796	17064.73
807.126	16817.74
807.457	16916.72
807.787	17048.01
808.117	16795.82
808.447	16786.1
808.777	16754.01
809.107	16781.13
809.436	16658.19
809.766	16682.82
810.096	16607.8
810.426	16531.19
810.755	16477.86
811.085	16502.94
811.414	16508.82
811.744	16374.36
812.073	16363.74
812.403	16288.03
812.732	16318.09
813.061	16279.44
813.39	16220.24
813.719	16183.4
814.049	16239.67
814.378	16194.7
814.707	16092.33
815.036	16095.04
815.365	15955.16
815.693	15848.72
816.022	15912.67
816.351	15839.46
816.68	15822.51
817.008	15900.92
817.337	15698.9
817.665	15725.34
817.994	15702.96
818.322	15750.65
818.651	15715.17
818.979	15640.82
819.307	15691.89
819.636	15564.21
819.964	15520.37
820.292	15485.57
820.62	15629.52
820.948	15555.85
821.276	15614.6
821.604	15523.08
821.932	15589.52
822.259	15610.54
822.587	15507.04
822.915	15538.22
823.243	15564.21
823.57	15455.06
823.898	15510.2
824.225	15458.22
824.553	15448.73
824.88	15478.11
825.207	15554.04
825.535	15502.74
825.862	15520.82
826.189	15458
826.516	15531.89
826.843	15602.85
827.17	15589.07
827.497	15522.18
827.824	15553.36
828.151	15623.42
828.478	15552.46
828.805	15588.16
829.131	15522.18
829.458	15537.77
829.785	15527.15
830.111	15527.6
830.438	15556.98
830.764	15587.03
831.09	15454.61
831.417	15498.22
831.743	15611.89
832.069	15494.83
832.395	15392.69
832.722	15468.39
833.048	15482.86
833.374	15462.52
833.7	15319.24
834.026	15442.63
834.351	15422.07
834.677	15369.86
835.003	15414.16
835.329	15334.84
835.654	15324.89
835.98	15282.41
836.306	15309.53
836.631	15221.17
836.956	15315.4
837.282	15331.67
837.607	15224.33
837.932	15175.97
838.258	15206.25
838.583	15133.26
838.908	15112.92
839.233	15205.57
839.558	15104.56
839.883	15005.13
840.208	14966.26
840.533	14954.06
840.858	15009.42
841.182	15006.26
841.507	14923.77
841.832	14903.66
842.156	14873.83
842.481	14853.49
842.805	14909.76
843.13	14794.96
843.454	14740.5
843.778	14721.75
844.103	14635.19
844.427	14539.83
844.751	14689.88
845.075	14578.02
845.399	14524.24
845.723	14520.62
846.047	14460.06
846.371	14389.1
846.695	14267.97
847.019	14179.39
847.343	14206.5
847.666	14119.5
847.99	14059.62
848.313	14043.8
848.637	13969.9
848.96	14027.75
849.284	13892.16
849.607	13753.18
849.931	13786.63
850.254	13669.12
850.577	13615.56
850.9	13495.34
851.223	13519.52
851.546	13448.78
851.869	13335.57
852.192	13432.74
852.515	13271.39
852.838	13237.94
853.161	13289.69
853.483	13233.65
853.806	13101.68
854.129	13104.84
854.451	13038.4
854.774	12988.46
855.096	12951.17
855.419	12836.37
855.741	12917.73
856.063	12856.94
856.385	12794.56
856.708	12734.91
857.03	12716.83
857.352	12715.92
857.674	12666.66
857.996	12645.87
858.318	12585.53
858.64	12510.5
858.961	12513.89
859.283	12518.19
859.605	12458.3
859.926	12447.23
860.248	12446.1
860.57	12421.24
860.891	12376.95
861.212	12308.93
861.534	12198.2
861.855	12144.64
862.176	12199.55
862.498	12161.59
862.819	12196.61
863.14	12131.53
863.461	12110.29
863.782	12084.53
864.103	12002.5
864.424	12038.2
864.745	12033.68
865.065	11959.11
865.386	11938.54
865.707	11899.22
866.027	11927.92
866.348	11942.84
866.668	11885.21
866.989	11783.97
867.309	11771.31
867.63	11797.3
867.95	11901.03
868.27	11708.49
868.59	11750.98
868.91	11675.27
869.23	11679.79
869.55	11626.46
869.87	11667.14
870.19	11651.09
870.51	11688.15
870.83	11669.4
871.15	11687.7
871.469	11670.07
871.789	11661.49
872.109	11571.32
872.428	11495.62
872.748	11562.51
873.067	11491.77
873.386	11541.72
873.706	11418.1
874.025	11393.02
874.344	11365
874.663	11438.22
874.982	11384.21
875.301	11326.81
875.62	11325.22
875.939	11319.8
876.258	11344.21
876.577	11244.32
876.896	11284.77
877.214	11182.4
877.533	11237.54
877.852	11170.88
878.17	11173.59
878.489	11215.17
878.807	11151.22
879.125	11167.94
879.444	11115.29
879.762	11082.29
880.08	11121.61
880.398	11011.79
880.716	11069.41
881.034	11063.08
881.352	11035.29
881.67	11028.74
881.988	11002.07
882.306	10936.99
882.624	10869.42
882.941	10842.98
883.259	10748.52
883.577	10891.56
883.894	10786.48
884.212	10802.07
884.529	10794.84
884.846	10724.79
885.164	10675.3
885.481	10661.29
885.798	10632.36
886.115	10624.23
886.432	10606.37
886.75	10548.75
887.067	10546.04
887.383	10575.19
887.7	10579.48
888.017	10484.12
888.334	10464
888.651	10418.36
888.967	10417.9
889.284	10415.87
889.6	10376.1
889.917	10322.09
890.233	10318.92
890.55	10256.1
890.866	10250.68
891.182	10163.67
891.498	10164.8
891.815	10143.79
892.131	10053.39
892.447	10083.68
892.763	10030.8
893.079	10003.45
893.395	10018.14
893.71	10079.38
894.026	9911.25
894.342	9821.31
894.657	9794.19
894.973	9833.06
895.289	9844.81
895.604	9748.32
895.92	9702.67
896.235	9636.68
896.55	9741.99
896.865	9710.58
897.181	9643.91
897.496	9634.87
897.811	9574.08
898.126	9569.79
898.441	9471.94
898.756	9430.13
899.071	9418.61
899.386	9349.23
899.7	9302.45
900.015	9276.92
900.33	9227.43
900.644	9238.05
900.959	9264.49
901.273	9164.38
901.588	9138.39
901.902	9070.14
902.216	9070.14
902.531	9011.16
902.845	8935.23
903.159	8963.25
903.473	8872.18
903.787	8916.7
904.101	8808.45
904.415	8773.2
904.729	8881.22
905.042	8722.13
905.356	8774.78
905.67	8699.31
905.984	8640.1
906.297	8636.48
906.611	8563.72
906.924	8571.85
907.237	8573.21
907.551	8474.68
907.864	8516.26
908.177	8401.91
908.491	8423.15
908.804	8391.29
909.117	8306.1
909.43	8260.9
909.743	8185.42
910.056	8269.94
910.368	8203.95
910.681	8091.19
910.994	8099.55
911.307	8114.24
911.619	8045.76
911.932	8068.59
912.244	8013.22
912.557	7978.87
912.869	7880.34
913.181	7889.61
913.494	7872.43
913.806	7816.84
914.118	7770.74
914.43	7738.2
914.742	7781.59
915.054	7615.27
915.366	7675.38
915.678	7641.71
915.99	7575.49
916.302	7511.77
916.613	7496.62
916.925	7480.13
917.236	7442.62
917.548	7412.56
917.859	7447.59
918.171	7394.48
918.482	7358.32
918.794	7314.93
919.105	7323.52
919.416	7242.39
919.727	7208.27
920.038	7217.31
920.349	7120.59
920.66	7115.62
920.971	7119.46
921.282	7090.53
921.593	7127.6
921.903	7030.87
922.214	6999.69
922.525	6942.06
922.835	6945.9
923.146	6870.43
923.456	6867.26
923.767	6866.36
924.077	6819.35
924.387	6788.17
924.697	6771.45
925.008	6740.03
925.318	6696.87
925.628	6698
925.938	6654.39
926.248	6576.88
926.558	6624.56
926.867	6591.11
927.177	6551.11
927.487	6510.66
927.796	6434.96
928.106	6448.97
928.416	6423.21
928.725	6478.57
929.034	6344.79
929.344	6316.54
929.653	6356.54
929.962	6300.5
930.271	6282.65
930.581	6245.81
930.89	6195.64
931.199	6200.61
931.508	6163.1
931.817	6158.36
932.125	6182.08
932.434	6106.83
932.743	5986.61
933.051	6034.97
933.36	5992.48
933.669	6025.25
933.977	5983.22
934.286	5965.59
934.594	5929.66
934.902	5870.23
935.21	5860.96
935.519	5874.52
935.827	5787.29
936.135	5819.61
936.443	5754.07
936.751	5695.77
937.059	5680.85
937.367	5690.34
937.674	5677.69
937.982	5675.66
938.29	5630.69
938.597	5649.44
938.905	5585.49
939.213	5585.26
939.52	5548.43
939.827	5551.37
940.135	5463.91
940.442	5438.37
940.749	5448.32
941.056	5469.56
941.363	5384.59
941.67	5377.58
941.977	5305.95
942.284	5270.92
942.591	5342.56
942.898	5263.92
943.205	5280.64
943.511	5250.36
943.818	5213.97
944.125	5163.35
944.431	5212.17
944.738	5167.65
945.044	5150.7
945.35	5113.41
945.657	5079.06
945.963	5023.02
946.269	5005.39
946.575	5044.26
946.881	4966.07
947.187	4944.38
947.493	4942.79
947.799	4974.66
948.105	4932.85
948.41	4875.22
948.716	4887.2
949.022	4844.49
949.327	4848.11
949.633	4782.8
949.938	4762.23
950.244	4763.36
950.549	4754.1
950.854	4708.9
951.16	4697.6
951.465	4704.38
951.77	4598.4
952.075	4613.54
952.38	4648.56
952.685	4594.55
952.99	4583.93
953.294	4561.79
953.599	4478.17
953.904	4507.55
954.209	4485.18
954.513	4475.91
954.818	4451.28
955.122	4451.73
955.426	4405.63
955.731	4396.14
956.035	4363.37
956.339	4395.46
956.643	4309.59
956.948	4269.14
957.252	4300.78
957.556	4299.19
957.86	4248.8
958.163	4239.54
958.467	4266.43
958.771	4211.51
959.075	4176.49
959.378	4197.73
959.682	4180.55
959.985	4189.82
960.289	4082.03
960.592	4108.01
960.896	4088.8
961.199	4094.45
961.502	4046.77
961.805	4030.73
962.108	4018.75
962.411	3960.22
962.714	3965.42
963.017	3985.76
963.32	3955.93
963.623	3933.33
963.926	3945.53
964.228	3901.47
964.531	3889.71
964.833	3880.9
965.136	3861.47
965.438	3844.74
965.741	3865.08
966.043	3792.09
966.345	3781.47
966.648	3814.01
966.95	3782.6
967.252	3767.01
967.554	3718.65
967.856	3682.49
968.158	3678.87
968.46	3641.81
968.761	3664.86
969.063	3690.17
969.365	3644.52
969.666	3603.17
969.968	3608.37
970.269	3544.41
970.571	3571.08
970.872	3538.76
971.174	3509.39
971.475	3507.35
971.776	3478.2
972.077	3495.83
972.378	3440.46
972.679	3494.92
972.98	3449.05
973.281	3429.16
973.582	3457.18
973.883	3444.53
974.183	3409.27
974.484	3351.2
974.785	3342.84
975.085	3356.39
975.386	3332.89
975.686	3326.57
975.986	3310.75
976.287	3286.57
976.587	3247.02
976.887	3242.27
977.187	3206.34
977.487	3250.63
977.787	3192.56
978.087	3173.35
978.387	3164.31
978.687	3173.8
978.987	3143.07
979.286	3131.77
979.586	3108.49
979.885	3138.55
980.185	3084.99
980.484	3065.78
980.784	3039.12
981.083	3056.52
981.382	3013.35
981.682	3024.65
981.981	3001.38
982.28	2980.81
982.579	2970.42
982.878	2990.98
983.177	2919.8
983.475	2971.09
983.774	2901.04
984.073	2886.35
984.372	2880.93
984.67	2905.33
984.969	2867.37
985.267	2853.58
985.566	2832.11
985.864	2856.97
986.162	2805.22
986.461	2788.27
986.759	2793.47
987.057	2750.99
987.355	2757.54
987.653	2761.61
987.951	2722.29
988.249	2731.33
988.547	2725.45
988.844	2713.25
989.142	2704.21
989.44	2673.02
989.737	2661.27
990.035	2649.29
990.332	2680.71
990.63	2632.8
990.927	2607.26
991.224	2590.54
991.521	2620.14
991.819	2564.78
992.116	2572.23
992.413	2584.44
992.71	2494.5
993.006	2573.59
993.303	2531.33
993.6	2532.01
993.897	2484.1
994.193	2492.01
994.49	2497.89
994.787	2441.62
995.083	2464.67
995.379	2475.06
995.676	2406.82
995.972	2401.84
996.268	2402.75
996.565	2394.84
996.861	2370.21
997.157	2383.77
997.453	2334.5
997.749	2325.69
998.044	2315.07
998.34	2329.98
998.636	2306.25
998.932	2299.25
999.227	2292.24
999.523	2264.45
999.818	2262.86
1000.114	2234.62
1000.409	2220.15
1000.704	2237.33
1001	2204.11
1001.295	2192.58
1001.59	2180.15
1001.885	2174.28
1002.18	2138.35
1002.475	2141.51
1002.77	2151.45
1003.065	2144.45
1003.359	2124.79
1003.654	2132.92
1003.949	2092.47
1004.243	2082.53
1004.538	2099.93
1004.832	2068.75
1005.127	2066.94
1005.421	2025.36
1005.715	2019.25
1006.009	2021.06
1006.304	1987.62
1006.598	1990.33
1006.892	1987.39
1007.186	1935.19
1007.48	1947.39
1007.773	1987.84
1008.067	1941.06
1008.361	1921.86
1008.655	1936.32
1008.948	1889.99
1009.242	1907.62
1009.535	1870.56
1009.829	1892.93
1010.122	1860.39
1010.415	1884.34
1010.708	1821.29
1011.001	1801.63
1011.295	1813.61
1011.588	1787.85
1011.881	1796.66
1012.173	1786.49
1012.466	1760.28
1012.759	1732.71
1013.052	1753.27
1013.344	1744.01
1013.637	1773.16
1013.93	1716.21
1014.222	1696.78
1014.514	1712.6
1014.807	1664.01
1015.099	1654.74
1015.391	1661.07
1015.683	1671.69
1015.976	1658.59
1016.268	1661.3
1016.56	1640.96
1016.851	1628.76
1017.143	1613.39
1017.435	1633.05
1017.727	1598.93
1018.018	1582.43
1018.31	1606.38
1018.602	1563.45
1018.893	1546.72
1019.185	1539.27
1019.476	1548.76
1019.767	1522.32
1020.058	1526.61
1020.35	1488.87
1020.641	1471.47
1020.932	1474.41
1021.223	1471.92
1021.514	1438.71
1021.804	1443.22
1022.095	1421.08
1022.386	1456.56
1022.677	1408.65
1022.967	1403.9
1023.258	1400.74
1023.548	1394.86
1023.839	1376.56
1024.129	1342.44
1024.419	1383.34
1024.709	1364.13
1025	1336.33
1025.29	1368.2
1025.58	1310.57
1025.87	1304.25
1026.16	1303.57
1026.449	1297.69
1026.739	1307.86
1027.029	1278.94
1027.319	1282.55
1027.608	1279.39
1027.898	1273.96
1028.187	1247.07
1028.477	1247.75
1028.766	1228.32
1029.055	1220.18
1029.344	1238.48
1029.634	1224.7
1029.923	1213.4
1030.212	1162.33
1030.501	1195.55
1030.79	1189.9
1031.078	1164.14
1031.367	1151.48
1031.656	1156
1031.945	1141.99
1032.233	1172.5
1032.522	1139.96
1032.81	1122.56
1033.099	1111.03
1033.387	1119.39
1033.675	1109.9
1033.963	1084.82
1034.251	1073.07
1034.54	1079.62
1034.828	1078.94
1035.116	1081.2
1035.403	1067.42
1035.691	1053.4
1035.979	1064.03
1036.267	1056.34
1036.554	1052.5
1036.842	1010.92
1037.129	1045.95
1037.417	1036.46
1037.704	979.28
1037.992	1029.22
1038.279	962.79
1038.566	991.49
1038.853	991.49
1039.14	991.49
