Data from hue_200_FLMS001491_00074.txt Node
Date: Tue Feb 07 16:43:55 GMT 2017
User: dcchb
Spectrometer: FLMS00149
Trigger mode: 0
Integration Time (sec): 2.000000E-2
Scans to average: 10
Electric dark correction enabled: true
Nonlinearity correction enabled: false
Boxcar width: 0
XAxis mode: Wavelengths
Number of Pixels in Spectrum: 2048
>>>>>Begin Spectral Data<<<<<
341.393	-21.04
341.776	-21.04
342.16	-21.04
342.543	-52.23
342.927	-76.18
343.31	-77.77
343.693	-72.34
344.077	-70.31
344.46	-82.06
344.843	-55.39
345.226	-31.89
345.61	-27.6
345.993	-20.14
346.376	-4.55
346.759	15.34
347.142	36.13
347.525	37.26
347.908	61.21
348.291	76.81
348.674	101.21
349.057	114.09
349.44	115.9
349.823	133.75
350.206	172.17
350.588	195.67
350.971	194.99
351.354	194.99
351.737	230.02
352.119	246.74
352.502	243.36
352.884	272.05
353.267	266.18
353.65	298.04
354.032	273.86
354.414	303.47
354.797	306.4
355.179	317.93
355.562	305.95
355.944	314.99
356.326	319.51
356.709	317.48
357.091	319.51
357.473	342.34
357.855	347.99
358.238	340.53
358.62	354.31
359.002	342.11
359.384	342.11
359.766	347.53
360.148	361.32
360.53	321.32
360.912	316.57
361.294	331.04
361.676	330.58
362.057	331.94
362.439	331.04
362.821	312.28
363.203	333.97
363.584	326.29
363.966	334.43
364.348	299.4
364.729	335.33
365.111	319.51
365.493	328.78
365.874	325.39
366.256	303.24
366.637	311.38
367.019	315.9
367.4	310.25
367.781	306.86
368.163	312.05
368.544	310.92
368.925	322.45
369.306	343.47
369.688	305.73
370.069	291.49
370.45	299.4
370.831	294.43
371.212	314.54
371.593	315.44
371.974	324.48
372.355	320.19
372.736	339.4
373.117	304.82
373.498	342.34
373.879	304.37
374.26	329.23
374.641	293.07
375.021	311.38
375.402	305.27
375.783	339.4
376.163	318.83
376.544	310.47
376.925	327.19
377.305	333.97
377.686	308.66
378.066	335.33
378.447	321.77
378.827	340.3
379.208	339.62
379.588	310.25
379.968	324.48
380.349	317.25
380.729	338.49
381.109	351.83
381.489	347.08
381.87	342.34
382.25	347.99
382.63	341.88
383.01	332.84
383.39	349.34
383.77	327.42
384.15	345.27
384.53	341.66
384.91	335.78
385.29	363.58
385.67	335.33
386.049	358.61
386.429	350.92
386.809	335.56
387.189	370.36
387.568	364.71
387.948	360.64
388.328	348.21
388.707	357.02
389.087	359.74
389.466	383.24
389.846	366.29
390.225	352.96
390.605	373.75
390.984	368.32
391.363	340.98
391.743	353.63
392.122	364.03
392.501	374.65
392.881	370.36
393.26	399.51
393.639	376.46
394.018	360.87
394.397	384.59
394.776	404.25
395.155	399.06
395.534	397.48
395.913	377.36
396.292	372.39
396.671	404.71
397.05	390.24
397.429	383.46
397.808	392.28
398.186	382.33
398.565	388.89
398.944	408.32
399.323	397.25
399.701	415.78
400.08	420.75
400.458	410.81
400.837	406.74
401.215	430.02
401.594	404.03
401.972	420.98
402.351	436.34
402.729	437.25
403.107	436.57
403.486	451.03
403.864	456.91
404.242	451.94
404.62	442.22
404.999	426.85
405.377	456.46
405.755	433.41
406.133	446.97
406.511	467.3
406.889	475.21
407.267	483.57
407.645	466.63
408.023	496.68
408.401	497.59
408.779	499.62
409.156	542.56
409.534	526.96
409.912	514.99
410.29	544.59
410.667	533.52
411.045	529.22
411.422	546.4
411.8	578.94
412.178	566.74
412.555	601.31
412.933	583.46
413.31	586.17
413.687	608.09
414.065	627.75
414.442	614.19
414.819	637.02
415.197	639.5
415.574	646.51
415.951	656.23
416.328	694.64
416.705	680.86
417.082	693.51
417.46	711.82
417.837	668.65
418.214	722.89
418.591	732.16
418.967	761.99
419.344	761.99
419.721	758.6
420.098	759.73
420.475	791.59
420.852	807.18
421.228	798.82
421.605	822.77
421.982	839.5
422.358	839.5
422.735	862.55
423.111	872.04
423.488	884.24
423.864	921.98
424.241	940.51
424.617	943
424.994	963.79
425.37	988.87
425.746	960.17
426.123	992.26
426.499	1014.41
426.875	1038.36
427.251	1052.15
427.627	1081.98
428.003	1059.83
428.379	1106.61
428.756	1108.19
429.132	1111.35
429.507	1162.88
429.883	1155.42
430.259	1151.58
430.635	1168.08
431.011	1168.98
431.387	1217.34
431.763	1239.94
432.138	1235.19
432.514	1259.15
432.89	1288.3
433.265	1308.86
433.641	1363.78
434.016	1351.12
434.392	1383.66
434.767	1416.88
435.143	1431.57
435.518	1475.19
435.894	1506.82
436.269	1527.62
436.644	1550.67
437.02	1577.11
437.395	1592.92
437.77	1604.9
438.145	1657.78
438.52	1686.48
438.895	1679.02
439.271	1714.05
439.646	1752.69
440.021	1773.71
440.395	1826.36
440.77	1799.25
441.145	1830.21
441.52	1881.28
441.895	1877.44
442.27	1928.73
442.645	1927.6
443.019	1983.65
443.394	2013.7
443.769	1996.76
444.143	1999.24
444.518	2063.65
444.892	2035.4
445.267	2051.9
445.641	2130.99
446.016	2112.68
446.39	2098
446.764	2139.35
447.139	2147.03
447.513	2191.55
447.887	2176.19
448.262	2211.89
448.636	2254.38
449.01	2298.89
449.384	2268.16
449.758	2261.16
450.132	2330.98
450.506	2349.97
450.88	2348.84
451.254	2355.39
451.628	2387.93
452.002	2426.35
452.376	2453.69
452.75	2458.66
453.123	2504.31
453.497	2536.4
453.871	2569.62
454.244	2617.98
454.618	2619.34
454.992	2671.99
455.365	2640.58
455.739	2717.41
456.112	2764.64
456.486	2747.92
456.859	2773.91
457.232	2841.48
457.606	2838.77
457.979	2870.63
458.352	2946.11
458.725	2983.17
459.099	3005.77
459.472	3013.9
459.845	3017.97
460.218	3084.18
460.591	3124.86
460.964	3142.49
461.337	3235.14
461.71	3273.33
462.083	3308.81
462.456	3315.59
462.829	3355.36
463.201	3394.68
463.574	3384.97
463.947	3468.13
464.32	3501.12
464.692	3556.04
465.065	3617.28
465.438	3632.64
465.81	3662.02
466.183	3699.54
466.555	3803.71
466.928	3772.53
467.3	3841.45
467.672	3845.52
468.045	3990.6
468.417	3965.07
468.789	4026.08
469.161	4093.88
469.534	4100.43
469.906	4186.08
470.278	4231.95
470.65	4269.46
471.022	4385.85
471.394	4411.38
471.766	4411.16
472.138	4499.29
472.51	4598.72
472.882	4671.94
473.253	4703.35
473.625	4771.6
473.997	4869
474.369	4866.51
474.74	4924.59
475.112	5008.2
475.484	5085.26
475.855	5207.07
476.227	5227.4
476.598	5316.44
476.97	5355.76
477.341	5498.58
477.713	5567.28
478.084	5620.39
478.455	5753.94
478.827	5780.84
479.198	5941.74
479.569	5902.87
479.94	6030.55
480.311	6114.84
480.682	6222.18
481.053	6412.23
481.424	6488.39
481.795	6485.68
482.166	6613.81
482.537	6693.36
482.908	6757.76
483.279	6876.85
483.65	6957.3
484.021	7078.88
484.391	7160.24
484.762	7188.48
485.133	7269.16
485.503	7385.77
485.874	7497.85
486.244	7553.67
486.615	7706.21
486.985	7800.44
487.356	7899.65
487.726	7969.93
488.097	8099.19
488.467	8186.65
488.837	8229.81
489.207	8303.93
489.578	8487.88
489.948	8525.62
490.318	8587.99
490.688	8611.27
491.058	8716.8
491.428	8835.67
491.798	8865.95
492.168	9000.41
492.538	9024.59
492.908	9241.76
493.278	9327.86
493.648	9250.58
494.017	9327.18
494.387	9478.59
494.757	9515.43
495.126	9566.27
495.496	9607.4
495.866	9604.69
496.235	9758.59
496.605	9826.38
496.974	9750.45
497.344	9937.11
497.713	9917
498.082	9976.66
498.452	10067.05
498.821	10037.45
499.19	10108.86
499.559	10125.13
499.928	10221.17
500.298	10228.4
500.667	10374.61
501.036	10297.55
501.405	10335.97
501.774	10439.7
502.143	10396.76
502.512	10432.24
502.88	10586.13
503.249	10481.28
503.618	10556.76
503.987	10602.18
504.356	10620.26
504.724	10579.58
505.093	10658.67
505.462	10649.41
505.83	10736.86
506.199	10800.59
506.567	10898.22
506.936	10773.02
507.304	10933.02
507.672	10932.57
508.041	10914.94
508.409	10954.26
508.777	10987.03
509.145	11055.27
509.514	11046.23
509.882	11109.51
510.25	11075.84
510.618	11183.63
510.986	11097.76
511.354	11180.02
511.722	11190.19
512.09	11250.75
512.458	11217.3
512.826	11311.31
513.193	11265.89
513.561	11309.05
513.929	11367.13
514.297	11443.06
514.664	11427.02
515.032	11428.15
515.4	11481.48
515.767	11478.31
516.135	11500.46
516.502	11322.39
516.869	11507.01
517.237	11469.95
517.604	11418.88
517.972	11518.54
518.339	11563.51
518.706	11476.05
519.073	11497.75
519.44	11543.17
519.808	11539.56
520.175	11507.47
520.542	11682.83
520.909	11594.02
521.276	11549.5
521.643	11718.76
522.009	11631.76
522.376	11675.82
522.743	11713.34
523.11	11747.69
523.477	11782.03
523.843	11746.1
524.21	11745.88
524.577	11850.28
524.943	11921.92
525.31	11779.55
525.676	11850.96
526.043	11912.88
526.409	11835.82
526.776	11834.24
527.142	11888.7
527.508	11862.48
527.874	11845.54
528.241	11872.2
528.607	11866.1
528.973	11843.28
529.339	11848.93
529.705	11864.52
530.071	11855.03
530.437	11809.38
530.803	11842.15
531.169	11803.5
531.535	11748.14
531.901	11647.58
532.267	11645.54
532.632	11690.29
532.998	11612.55
533.364	11667.91
533.73	11606.9
534.095	11667.24
534.461	11552.21
534.826	11597.63
535.192	11597.41
535.557	11557.41
535.923	11500.01
536.288	11439.22
536.653	11452.1
537.019	11354.48
537.384	11409.84
537.749	11290.07
538.114	11204.87
538.479	11168.49
538.845	11260.69
539.21	11102.73
539.575	11070.42
539.94	11013.92
540.305	11036.97
540.67	10981.15
541.034	10975.95
541.399	10935.28
541.764	10853.02
542.129	10815.73
542.494	10793.59
542.858	10794.26
543.223	10714.72
543.587	10671.33
543.952	10614.16
544.316	10504.78
544.681	10497.55
545.045	10473.59
545.41	10436.08
545.774	10468.85
546.138	10368.74
546.503	10303.66
546.867	10302.3
547.231	10240.83
547.595	10235.86
547.959	10161.74
548.324	10068.41
548.688	10055.75
549.052	9964.68
549.416	9982.76
549.779	9957.68
550.143	9939.6
550.507	9918.81
550.871	9887.4
551.235	9789.54
551.599	9819.83
551.962	9728.98
552.326	9711.35
552.689	9632.26
553.053	9551.13
553.417	9540.74
553.78	9568.08
554.143	9514.07
554.507	9474.3
554.87	9464.13
555.234	9482.43
555.597	9395.66
555.96	9412.38
556.323	9406.28
556.686	9252.16
557.05	9300.29
557.413	9263.01
557.776	9316.56
558.139	9276.56
558.502	9287.41
558.865	9155.44
559.228	9234.31
559.59	9145.27
559.953	9151.37
560.316	9179.17
560.679	9167.87
561.041	9149.11
561.404	9076.34
561.767	9115.44
562.129	9068.43
562.492	9064.82
562.854	9067.98
563.217	8983.46
563.579	9002.9
563.941	9027.08
564.304	9047.87
564.666	9032.95
565.028	9098.72
565.39	8974.43
565.753	8998.61
566.115	9025.27
566.477	9039.51
566.839	8976.46
567.201	9039.28
567.563	8959.74
567.925	9039.06
568.287	9000.19
568.648	8968.1
569.01	8968.55
569.372	9059.62
569.734	8993.41
570.095	9030.69
570.457	8957.02
570.819	9024.14
571.18	9048.1
571.542	9056.68
571.903	9032.05
572.265	9012.16
572.626	9020.75
572.987	8991.37
573.349	9012.16
573.71	9025.5
574.071	9006.74
574.432	9086.51
574.794	9024.59
575.155	9063.01
575.516	8969.68
575.877	8995.89
576.238	9015.78
576.599	9007.19
576.96	9068.43
577.32	9006.29
577.681	9049.45
578.042	9063.24
578.403	8987.53
578.763	9059.39
579.124	9027.98
579.485	8993.63
579.845	9028.89
580.206	9079.51
580.566	9065.5
580.927	9077.93
581.287	9030.47
581.648	9019.85
582.008	8987.98
582.368	9042.9
582.728	9036.8
583.089	8947.53
583.449	8986.85
583.809	8949.79
584.169	8971.94
584.529	8951.37
584.889	8947.53
585.249	8946.4
585.609	8921.77
585.969	9020.75
586.329	8913.64
586.688	8936.46
587.048	8922
587.408	8930.36
587.768	8915.44
588.127	8881.77
588.487	8903.01
588.846	8967.42
589.206	8825.05
589.565	8788.22
589.925	8936.91
590.284	8915.9
590.643	8887.87
591.003	8902.79
591.362	8890.81
591.721	8890.13
592.08	8804.03
592.44	8802.9
592.799	8879.96
593.158	8802
593.517	8784.83
593.876	8835.67
594.235	8788.44
594.593	8750.48
594.952	8806.52
595.311	8755.67
595.67	8764.04
596.029	8846.07
596.387	8797.03
596.746	8835.22
597.104	8740.53
597.463	8827.54
597.822	8830.02
598.18	8759.29
598.538	8737.82
598.897	8795.67
599.255	8690.82
599.613	8755.67
599.972	8733.75
600.33	8767.2
600.688	8723.81
601.046	8746.41
601.404	8782.79
601.762	8747.54
602.12	8810.81
602.478	8809.01
602.836	8730.59
603.194	8742.79
603.552	8700.08
603.91	8673.64
604.268	8768.55
604.625	8636.58
604.983	8684.04
605.341	8717.03
605.698	8695.34
606.056	8672.74
606.413	8637.48
606.771	8745.28
607.128	8690.82
607.485	8594.1
607.843	8695.56
608.2	8734.88
608.557	8725.62
608.914	8663.92
609.272	8733.75
609.629	8672.29
609.986	8726.97
610.343	8712.29
610.7	8820.08
611.057	8764.04
611.414	8748.44
611.771	8773.3
612.127	8828.89
612.484	8813.75
612.841	8789.57
613.198	8734.88
613.554	8739.85
613.911	8769.68
614.267	8803.58
614.624	8843.58
614.98	8823.47
615.337	8780.98
615.693	8853.3
616.05	8860.3
616.406	8831.6
616.762	8839.29
617.118	8824.6
617.475	8825.73
617.831	8910.02
618.187	8886.07
618.543	8807.2
618.899	8884.48
619.255	8922
619.611	8829.57
619.967	8889.23
620.323	8930.81
620.678	8916.57
621.034	8853.3
621.39	8892.39
621.746	8873.64
622.101	8929.23
622.457	8822.79
622.812	8855.11
623.168	8851.49
623.523	8888.78
623.879	8921.77
624.234	8862.79
624.589	8890.81
624.945	8840.19
625.3	8825.73
625.655	8819.63
626.01	8907.99
626.365	8910.7
626.72	8889.23
627.075	8776.24
627.43	8844.94
627.785	8794.32
628.14	8871.15
628.495	8790.7
628.85	8837.71
629.205	8779.18
629.559	8829.34
629.914	8807.65
630.269	8754.77
630.623	8789.12
630.978	8738.05
631.332	8830.7
631.687	8801.1
632.041	8774.2
632.396	8821.89
632.75	8724.26
633.104	8674.32
633.459	8698.05
633.813	8667.99
634.167	8703.25
634.521	8644.49
634.875	8655.11
635.229	8684.49
635.583	8619.18
635.937	8664.38
636.291	8622.34
636.645	8600.65
636.999	8589.58
637.352	8632.97
637.706	8507.32
638.06	8573.08
638.413	8593.42
638.767	8524.72
639.121	8645.85
639.474	8531.27
639.828	8554.1
640.181	8504.61
640.534	8478.17
640.888	8474.1
641.241	8480.43
641.594	8454.89
641.947	8431.16
642.301	8552.97
642.654	8484.72
643.007	8463.93
643.36	8505.74
643.713	8446.3
644.066	8444.04
644.419	8433.87
644.771	8402.46
645.124	8364.95
645.477	8314.78
645.83	8269.58
646.182	8251.51
646.535	8177.84
646.888	8164.5
647.24	8119.53
647.593	8183.03
647.945	8167.44
648.298	8109.59
648.65	8087.22
649.002	8096.48
649.355	8098.74
649.707	8130.15
650.059	8171.51
650.411	8272.97
650.763	8251.05
651.115	8355.01
651.467	8327.66
651.819	8388.23
652.171	8337.15
652.523	8298.74
652.875	8276.14
653.227	8272.3
653.578	8383.25
653.93	8334.89
654.282	8329.02
654.633	8347.77
654.985	8301.9
655.337	8315.69
655.688	8363.59
656.039	8339.41
656.391	8322.69
656.742	8340.32
657.094	8344.84
657.445	8382.8
657.796	8393.65
658.147	8369.92
658.498	8333.31
658.849	8392.29
659.2	8358.4
659.551	8383.93
659.902	8405.63
660.253	8346.64
660.604	8376.93
660.955	8373.99
661.306	8359.75
661.656	8370.6
662.007	8387.55
662.358	8389.36
662.708	8458.73
663.059	8392.52
663.409	8352.97
663.76	8439.75
664.11	8419.64
664.461	8441.33
664.811	8485.4
665.161	8483.14
665.511	8410.82
665.862	8413.31
666.212	8431.84
666.562	8455.12
666.912	8357.27
667.262	8442.01
667.612	8441.78
667.962	8444.72
668.312	8441.33
668.662	8464.61
669.011	8451.95
669.361	8449.24
669.711	8402.24
670.06	8374.89
670.41	8458.28
670.76	8376.02
671.109	8423.71
671.459	8383.25
671.808	8396.36
672.157	8399.3
672.507	8382.35
672.856	8406.08
673.205	8311.62
673.554	8439.07
673.904	8355.46
674.253	8372.86
674.602	8308.68
674.951	8245.63
675.3	8212.64
675.649	8288.12
675.998	8365.4
676.346	8280.88
676.695	8291.51
677.044	8300.77
677.393	8256.25
677.741	8263.71
678.09	8301
678.438	8232.3
678.787	8278.4
679.135	8188.91
679.484	8144.62
679.832	8197.04
680.181	8181.23
680.529	8148.01
680.877	8108.91
681.225	8202.24
681.573	8184.84
681.922	8132.19
682.27	8079.76
682.618	8044.28
682.966	8115.92
683.314	8104.17
683.661	8068.69
684.009	8010.83
684.357	7956.37
684.705	7976.49
685.053	8039.08
685.4	7974.9
685.748	7999.76
686.095	7938.97
686.443	7835.25
686.79	7824.17
687.138	7876.15
687.485	7823.72
687.832	7816.94
688.18	7836.15
688.527	7718.86
688.874	7807.22
689.221	7716.83
689.568	7654.91
689.915	7595.93
690.262	7684.97
690.609	7594.12
690.956	7608.13
691.303	7658.3
691.65	7595.7
691.997	7547.57
692.344	7513.22
692.69	7525.65
693.037	7457.18
693.383	7402.71
693.73	7428.93
694.077	7306.67
694.423	7397.74
694.769	7393.45
695.116	7283.4
695.462	7331.53
695.808	7259.44
696.155	7280.91
696.501	7194.36
696.847	7190.07
697.193	7124.3
697.539	7154.13
697.885	7141.93
698.231	7081.37
698.577	7043.18
698.923	7097.41
699.269	7003.18
699.614	6968.15
699.96	6920.24
700.306	6961.37
700.651	6872.79
700.997	6852.22
701.342	6887.25
701.688	6809.06
702.033	6800.02
702.379	6776.29
702.724	6768.61
703.069	6767.25
703.415	6679.12
703.76	6701.26
704.105	6671.43
704.45	6650.64
704.795	6582.85
705.14	6554.6
705.485	6574.71
705.83	6560.93
706.175	6507.82
706.52	6512.79
706.865	6541.95
707.209	6475.96
707.554	6469.18
707.899	6433.25
708.243	6385.11
708.588	6401.61
708.932	6391.89
709.277	6387.83
709.621	6346.92
709.966	6264.67
710.31	6317.55
710.654	6301.27
710.998	6280.26
711.342	6258.11
711.687	6231.45
712.031	6216.53
712.375	6187.15
712.719	6207.72
713.063	6207.04
713.407	6158.91
713.75	6115.97
714.094	6142.86
714.438	6115.74
714.782	6125.01
715.125	6078
715.469	6096.99
715.812	6058.8
716.156	6041.39
716.499	6047.72
716.843	6052.47
717.186	6036.65
717.53	6054.5
717.873	6017.89
718.216	6060.6
718.559	6016.08
718.902	5933.38
719.246	5941.96
719.589	5994.62
719.932	6015.41
720.275	5930.66
720.617	5941.74
720.96	5959.14
721.303	5932.7
721.646	5955.3
721.989	5935.18
722.331	5961.17
722.674	5901.74
723.016	5918.91
723.359	5910.32
723.701	5940.38
724.044	5913.71
724.386	5907.84
724.729	5879.14
725.071	5829.2
725.413	5894.51
725.755	5892.92
726.097	5822.42
726.439	5812.02
726.782	5851.57
727.124	5826.71
727.465	5809.99
727.807	5865.35
728.149	5811.12
728.491	5871.46
728.833	5862.87
729.175	5862.64
729.516	5805.24
729.858	5862.64
730.199	5806.82
730.541	5828.29
730.882	5863.77
731.224	5841.63
731.565	5785.58
731.906	5830.33
732.248	5849.31
732.589	5808.86
732.93	5823.1
733.271	5815.41
733.612	5820.61
733.953	5860.61
734.294	5891.79
734.635	5837.56
734.976	5867.84
735.317	5835.3
735.658	5861.96
735.999	5831.46
736.339	5868.29
736.68	5871.68
737.021	5863.32
737.361	5900.38
737.702	5889.99
738.042	5929.99
738.383	5891.79
738.723	5911.45
739.063	5955.07
739.404	5919.59
739.744	5938.12
740.084	5940.61
740.424	5953.49
740.764	5955.3
741.104	5978.8
741.444	6027.61
741.784	5961.62
742.124	6018.34
742.464	6036.65
742.804	6058.8
743.143	6089.98
743.483	6088.4
743.823	6106.25
744.162	6115.97
744.502	6231.67
744.841	6174.05
745.181	6247.04
745.52	6237.1
745.86	6277.09
746.199	6339.24
746.538	6373.14
746.877	6435.96
747.216	6429.41
747.556	6511.66
747.895	6540.14
748.234	6576.75
748.573	6665.56
748.911	6709.17
749.25	6701.49
749.589	6768.61
749.928	6833.46
750.267	6974.03
750.605	7011.31
750.944	7073.23
751.283	7166.56
751.621	7232.32
751.96	7311.19
752.298	7349.61
752.636	7506.44
752.975	7609.94
753.313	7734.23
753.651	7819.2
753.989	7887.45
754.327	7943.72
754.666	8171.96
755.004	8283.6
755.342	8397.94
755.679	8578.05
756.017	8673.19
756.355	8805.84
756.693	8907.53
757.031	9123.57
757.368	9134.87
757.706	9364.92
758.044	9514.07
758.381	9711.81
758.719	9895.53
759.056	9980.95
759.394	10175.98
759.731	10299.59
760.068	10484.22
760.405	10671.1
760.743	10840.14
761.08	10982.51
761.417	11143.86
761.754	11373.68
762.091	11515.6
762.428	11732.54
762.765	11811.41
763.102	12081.46
763.438	12276.03
763.775	12399.19
764.112	12650.71
764.449	12800.54
764.785	12942.68
765.122	13085.05
765.458	13203.92
765.795	13359.62
766.131	13627.86
766.467	13755.77
766.804	13858.82
767.14	13998.47
767.476	14253.16
767.812	14313.72
768.148	14571.57
768.485	14598.46
768.821	14762.3
769.157	14870.99
769.492	15043.19
769.828	15110.08
770.164	15249.74
770.5	15392.34
770.836	15544.42
771.171	15623.52
771.507	15694.02
771.842	15705.77
772.178	15941.25
772.513	16040
772.849	16101.24
773.184	16144.63
773.519	16239.32
773.855	16377.62
774.19	16436.6
774.525	16457.62
774.86	16738.97
775.195	16715.01
775.53	16764.95
775.865	16795.24
776.2	16865.52
776.535	16805.41
776.87	16942.58
777.205	17010.15
777.539	16977.83
777.874	17201.78
778.209	17101.67
778.543	17138.73
778.878	17162.01
779.212	17228.22
779.547	17157.26
779.881	17331.95
780.215	17275.68
780.55	17417.59
780.884	17278.39
781.218	17345.96
781.552	17405.39
781.886	17401.77
782.22	17459.4
782.554	17476.8
782.888	17332.17
783.222	17393.41
783.556	17416.24
783.889	17314.77
784.223	17300.99
784.557	17389.12
784.89	17463.02
785.224	17387.09
785.557	17290.82
785.891	17402.68
786.224	17344.37
786.558	17413.98
786.891	17220.54
787.224	17263.02
787.557	17203.36
787.891	17256.24
788.224	17223.93
788.557	17262.34
788.89	17181.67
789.223	17347.54
789.556	17297.82
789.888	17188.45
790.221	17206.98
790.554	17150.93
790.887	17075
791.219	17024.61
791.552	16963.59
791.884	16949.36
792.217	16869.81
792.549	16956.36
792.882	16837.95
793.214	16838.85
793.546	16950.94
793.879	16796.37
794.211	16809.25
794.543	16894.22
794.875	16675.01
795.207	16825.52
795.539	16709.59
795.871	16741.23
796.203	16659.65
796.535	16536.94
796.867	16474.57
797.198	16435.92
797.53	16541.23
797.862	16415.59
798.193	16441.35
798.525	16295.59
798.856	16325.42
799.188	16223.95
799.519	16164.52
799.85	16128.14
800.182	16113.9
800.513	16166.78
800.844	16063.96
801.175	16220.79
801.506	16095.37
801.837	16057.85
802.168	15959.33
802.499	16040.45
802.83	15929.5
803.161	15846.79
803.491	15879.1
803.822	15890.4
804.153	15759.33
804.483	15721.37
804.814	15679.56
805.145	15699.45
805.475	15679.33
805.805	15593.23
806.136	15662.38
806.466	15613.35
806.796	15563.18
807.126	15461.71
807.457	15360.92
807.787	15444.76
808.117	15324.09
808.447	15401.6
808.777	15375.61
809.107	15266.46
809.436	15363.64
809.766	15159.35
810.096	15184.88
810.426	15098.56
810.755	15142.4
811.085	15167.03
811.414	14982.18
811.744	14989.18
812.073	14948.28
812.403	14970.43
812.732	14916.87
813.061	15043.42
813.39	14858.56
813.719	14826.02
814.049	14931.1
814.378	14881.16
814.707	14816.76
815.036	14788.96
815.365	14673.94
815.693	14624.9
816.022	14694.05
816.351	14572.7
816.68	14491.12
817.008	14524.79
817.337	14433.94
817.665	14422.64
817.994	14431.68
818.322	14435.75
818.651	14385.13
818.979	14367.73
819.307	14403.89
819.636	14335.64
819.964	14302.65
820.292	14405.47
820.62	14257.22
820.948	14277.79
821.276	14377.9
821.604	14286.38
821.932	14288.41
822.259	14294.74
822.587	14317.34
822.915	14288.86
823.243	14354.17
823.57	14219.03
823.898	14363.66
824.225	14242.31
824.553	14267.39
824.88	14243.21
825.207	14332.48
825.535	14212.71
825.862	14366.83
826.189	14196.21
826.516	14369.31
826.843	14248.64
827.17	14351.01
827.497	14331.35
827.824	14311.46
828.151	14332.48
828.478	14312.59
828.805	14402.76
829.131	14330.44
829.458	14322.98
829.785	14198.47
830.111	14290.44
830.438	14409.99
830.764	14342.19
831.09	14309.2
831.417	14258.58
831.743	14349.2
832.069	14367.5
832.395	14330.89
832.722	14400.27
833.048	14160.96
833.374	14257.22
833.7	14169.99
834.026	14129.77
834.351	14273.95
834.677	14130
835.003	14227.62
835.329	14180.16
835.654	14170.9
835.98	14184.23
836.306	14210.22
836.631	14061.75
836.956	14073.05
837.282	14196.21
837.607	14077.79
837.932	14060.39
838.258	14024.01
838.583	14096.55
838.908	13948.08
839.233	14019.72
839.558	13977.68
839.883	13925.71
840.208	13746.73
840.533	13860.62
840.858	13895.65
841.182	13863.34
841.507	13820.85
841.832	13689.56
842.156	13783.56
842.481	13709.89
842.805	13633.96
843.13	13642.78
843.454	13696.33
843.778	13619.05
844.103	13579.95
844.427	13497.7
844.751	13601.42
845.075	13472.39
845.399	13427.64
845.723	13452.27
846.047	13347.42
846.371	13276.01
846.695	13226.06
847.019	13192.39
847.343	13119.4
847.666	12984.72
847.99	12980.87
848.313	13010.93
848.637	12927.77
848.96	12881.67
849.284	12960.99
849.607	12754.44
849.931	12782.69
850.254	12642.8
850.577	12634.44
850.9	12522.35
851.223	12486.65
851.546	12441.23
851.869	12368.23
852.192	12451.85
852.515	12351.96
852.838	12257.95
853.161	12271.74
853.483	12265.41
853.806	12194.91
854.129	12114.23
854.451	12123.95
854.774	11989.49
855.096	12042.82
855.419	11979.09
855.741	11906.78
856.063	11820.23
856.385	11869.49
856.708	11835.14
857.03	11773.9
857.352	11791.53
857.674	11784.07
857.996	11583.62
858.318	11645.77
858.64	11625.43
858.961	11605.77
859.283	11554.7
859.605	11461.82
859.926	11436.28
860.248	11475.83
860.57	11421.59
860.891	11426.56
861.212	11381.37
861.534	11338.66
861.855	11349.73
862.176	11335.49
862.498	11309.5
862.819	11248.26
863.14	11265.66
863.461	11187.93
863.782	11203.29
864.103	11199.23
864.424	11201.94
864.745	11140.24
865.065	11114.93
865.386	11046.91
865.707	10999.23
866.027	11093.24
866.348	10998.55
866.668	11028.61
866.989	11010.08
867.309	10954.71
867.63	11000.13
867.95	10942.06
868.27	10911.1
868.59	10987.25
868.91	10873.13
869.23	10829.07
869.55	10878.33
869.87	10884.66
870.19	10820.03
870.51	10756.53
870.83	10844.43
871.15	10755.17
871.469	10682.85
871.789	10805.56
872.109	10699.35
872.428	10700.03
872.748	10704.1
873.067	10679.69
873.386	10724.44
873.706	10629.07
874.025	10634.95
874.344	10532.35
874.663	10595.63
874.982	10535.29
875.301	10618
875.62	10519.47
875.939	10458
876.258	10499.58
876.577	10463.65
876.896	10452.13
877.214	10422.52
877.533	10460.26
877.852	10465.46
878.17	10462.07
878.489	10418.91
878.807	10441.51
879.125	10397.44
879.444	10312.24
879.762	10342.3
880.08	10321.51
880.398	10244
880.716	10258.01
881.034	10234.5
881.352	10281.51
881.67	10187.05
881.988	10229.76
882.306	10215.3
882.624	10136.65
882.941	10108.41
883.259	10091.68
883.577	10053.04
883.894	10071.8
884.212	10045.81
884.529	10009.2
884.846	10017.79
885.164	9992.48
885.481	9928.3
885.798	9919.03
886.115	9876.55
886.432	9845.81
886.75	9864.57
887.067	9841.29
887.383	9766.27
887.7	9810.34
888.017	9705.03
888.334	9770.79
888.651	9704.35
888.967	9618.25
889.284	9663.9
889.6	9553.62
889.917	9528.76
890.233	9497.58
890.55	9497.8
890.866	9439.5
891.182	9472.27
891.498	9479.72
891.815	9387.3
892.131	9352.27
892.447	9360.86
892.763	9295.55
893.079	9298.26
893.395	9276.56
893.71	9256.68
894.026	9224.36
894.342	9266.39
894.657	9160.18
894.973	9080.41
895.289	9147.98
895.604	9065.04
895.92	9016.46
896.235	8968.78
896.55	8936.23
896.865	8882.68
897.181	8938.27
897.496	8968.32
897.811	8861.21
898.126	8847.87
898.441	8841.1
898.756	8728.33
899.071	8704.38
899.386	8692.4
899.7	8625.96
900.015	8603.59
900.33	8521.33
900.644	8558.62
900.959	8486.53
901.273	8544.83
901.588	8469.35
901.902	8444.5
902.216	8378.28
902.531	8367.21
902.845	8421.45
903.159	8310.71
903.473	8280.21
903.787	8249.02
904.101	8218.96
904.415	8254.9
904.729	8144.39
905.042	8143.26
905.356	8115.92
905.67	8061.45
905.984	8096.93
906.297	7986.43
906.611	7953.21
906.924	7978.29
907.237	7934.23
907.551	7885.19
907.864	7878.41
908.177	7889.71
908.491	7826.21
908.804	7708.02
909.117	7761.58
909.43	7686.32
909.743	7613.1
910.056	7625.08
910.368	7618.75
910.681	7633.22
910.994	7515.48
911.307	7442.26
911.619	7437.06
911.932	7503.5
912.244	7429.83
912.557	7385.09
912.869	7347.12
913.181	7259.44
913.494	7347.58
913.806	7268.48
914.118	7215.15
914.43	7168.6
914.742	7205.43
915.054	7219.22
915.366	7109.39
915.678	7068.03
915.99	7047.02
916.302	7028.94
916.613	6994.82
916.925	6993.01
917.236	6946.68
917.548	6879.34
917.859	6863.07
918.171	6848.61
918.482	6781.04
918.794	6773.13
919.105	6780.36
919.416	6698.78
919.727	6710.98
920.038	6677.54
920.349	6664.88
920.66	6650.87
920.971	6626.46
921.282	6574.49
921.593	6535.85
921.903	6539.23
922.214	6536.07
922.525	6470.54
922.835	6442.51
923.146	6431.22
923.456	6432.12
923.767	6388.96
924.077	6342.18
924.387	6315.29
924.697	6279.13
925.008	6176.31
925.318	6262.86
925.628	6227.38
925.938	6192.13
926.248	6065.12
926.558	6155.29
926.867	6123.2
927.177	6114.84
927.487	6042.52
927.796	6018.12
928.106	6027.16
928.416	5986.26
928.725	5992.36
929.034	5972.47
929.344	5941.96
929.653	5958.46
929.962	5870.78
930.271	5846.82
930.581	5803.66
930.89	5845.92
931.199	5756.2
931.508	5745.13
931.817	5771.35
932.125	5683.66
932.434	5715.53
932.743	5722.53
933.051	5631.91
933.36	5676.66
933.669	5599.37
933.977	5620.84
934.286	5575.87
934.594	5524.35
934.902	5515.98
935.21	5473.73
935.519	5443.22
935.827	5436.44
936.135	5409.32
936.443	5354.18
936.751	5396.67
937.059	5354.86
937.367	5282.54
937.674	5315.31
937.982	5301.98
938.29	5276.22
938.597	5281.41
938.905	5170.91
939.213	5151.93
939.52	5150.34
939.827	5146.05
940.135	5138.14
940.442	5070.12
940.749	5132.94
941.056	5106.5
941.363	5058.6
941.67	5007.07
941.977	4987.64
942.284	4968.88
942.591	4941.54
942.898	4902.89
943.205	4912.61
943.511	4844.36
943.818	4858.6
944.125	4789.45
944.431	4825.83
944.738	4820.86
945.044	4749.9
945.35	4723.24
945.657	4717.81
945.963	4741.32
946.269	4678.04
946.575	4697.93
946.881	4612.28
947.187	4651.6
947.493	4661.32
947.799	4619.29
948.105	4566.18
948.41	4582.9
948.716	4526.18
949.022	4562.56
949.327	4514.88
949.633	4452.28
949.938	4491.61
950.244	4462
950.549	4465.62
950.854	4414.77
951.16	4409.12
951.465	4372.74
951.77	4346.98
952.075	4302.01
952.38	4345.39
952.685	4308.79
952.99	4306.07
953.294	4268.56
953.599	4225.85
953.904	4205.96
954.209	4209.8
954.513	4205.96
954.818	4157.83
955.122	4147.21
955.426	4155.12
955.731	4147.89
956.035	4057.27
956.339	4070.37
956.643	4076.02
956.948	4048.45
957.252	4058.17
957.556	3966.2
957.86	3994.22
958.163	3974.56
958.467	3945.4
958.771	3963.03
959.075	3944.27
959.378	3922.58
959.682	3897.5
959.985	3878.06
960.289	3854.79
960.592	3827.22
960.896	3847.78
961.199	3822.47
961.502	3813.66
961.805	3806.88
962.108	3747.67
962.411	3764.17
962.714	3733.43
963.017	3697.5
963.32	3749.25
963.623	3688.01
963.926	3671.06
964.228	3662.02
964.531	3622.7
964.833	3615.92
965.136	3615.92
965.438	3604.62
965.741	3601.01
966.043	3553.78
966.345	3530.95
966.648	3555.13
966.95	3539.09
967.252	3508.58
967.554	3476.72
967.856	3487.79
968.158	3437.4
968.46	3440.33
968.761	3440.33
969.063	3440.33
969.365	3402.82
969.666	3365.53
969.968	3369.15
970.269	3350.84
970.571	3353.56
970.872	3325.31
971.174	3307
971.475	3273.78
971.776	3260.68
972.077	3266.55
972.378	3239.43
972.679	3224.29
972.98	3212.32
973.281	3223.39
973.582	3215.25
973.883	3156.5
974.183	3156.05
974.484	3163.73
974.785	3128.48
975.085	3142.49
975.386	3130.06
975.686	3115.37
975.986	3067.24
976.287	3078.76
976.587	3041.7
976.887	3041.02
977.187	3022.27
977.487	3008.48
977.787	3008.48
978.087	2989.27
978.387	2970.06
978.687	2984.75
978.987	2966
979.286	2907.92
979.586	2952.89
979.885	2919.22
980.185	2876.51
980.484	2918.31
980.784	2898.2
981.083	2864.76
981.382	2831.31
981.682	2862.95
981.981	2794.93
982.28	2793.34
982.579	2794.47
982.878	2813.01
983.177	2780.69
983.475	2748.6
983.774	2737.75
984.073	2708.15
984.372	2688.94
984.67	2719.22
984.969	2694.36
985.267	2703.18
985.566	2648.94
985.864	2674.7
986.162	2673.8
986.461	2662.5
986.759	2636.29
987.057	2584.76
987.355	2594.71
987.653	2589.06
987.951	2620.02
988.249	2568.72
988.547	2538.66
988.844	2569.62
989.142	2523.3
989.44	2513.13
989.737	2515.84
990.035	2518.78
990.332	2478.1
990.63	2468.16
990.927	2495.95
991.224	2478.32
991.521	2427.93
991.819	2423.86
992.116	2411.21
992.413	2393.58
992.71	2405.11
993.006	2399.68
993.303	2371.21
993.6	2371.21
993.897	2346.35
994.193	2369.17
994.49	2339.12
994.787	2333.47
995.083	2305.9
995.379	2285.56
995.676	2272.45
995.972	2269.29
996.268	2232.46
996.565	2269.52
996.861	2231.78
997.157	2215.96
997.453	2222.29
997.749	2199.24
998.044	2219.8
998.34	2196.07
998.636	2161.27
998.932	2175.06
999.227	2143.64
999.523	2153.59
999.818	2114.27
1000.114	2087.83
1000.409	2109.52
1000.704	2107.03
1001	2090.54
1001.295	2060.48
1001.59	2072.46
1001.885	2088.5
1002.18	2045.34
1002.475	2006.02
1002.77	2020.26
1003.065	2025.23
1003.359	1989.3
1003.654	2009.41
1003.949	1973.71
1004.243	1954.04
1004.538	1958.79
1004.832	1935.51
1005.127	1935.97
1005.421	1898.45
1005.715	1883.54
1006.009	1880.37
1006.304	1898.68
1006.598	1900.49
1006.892	1860.26
1007.186	1853.71
1007.48	1844.67
1007.773	1828.17
1008.067	1815.07
1008.361	1851.67
1008.655	1792.47
1008.948	1796.76
1009.242	1800.38
1009.535	1815.07
1009.829	1761.06
1010.122	1774.61
1010.415	1721.28
1010.708	1728.06
1011.001	1735.29
1011.295	1714.28
1011.588	1701.85
1011.881	1697.1
1012.173	1657.56
1012.466	1691
1012.759	1693.49
1013.052	1664.11
1013.344	1659.59
1013.637	1636.09
1013.93	1627.95
1014.222	1626.37
1014.514	1629.31
1014.807	1590.44
1015.099	1586.6
1015.391	1568.74
1015.683	1604.45
1015.976	1582.08
1016.268	1546.37
1016.56	1550.89
1016.851	1538.46
1017.143	1501.18
1017.435	1529.2
1017.727	1496.43
1018.018	1501.63
1018.31	1492.36
1018.602	1471.12
1018.893	1460.05
1019.185	1454.17
1019.476	1488.75
1019.767	1444.91
1020.058	1435.64
1020.35	1413.04
1020.641	1410.56
1020.932	1413.04
1021.223	1397.68
1021.514	1377.34
1021.804	1342.99
1022.095	1384.12
1022.386	1357.45
1022.677	1321.07
1022.967	1344.12
1023.258	1345.02
1023.548	1337.11
1023.839	1337.11
1024.129	1306.83
1024.419	1293.27
1024.709	1288.53
1025	1262.09
1025.29	1287.4
1025.58	1274.06
1025.87	1279.71
1026.16	1227.51
1026.449	1218.24
1026.739	1222.54
1027.029	1221.41
1027.319	1221.86
1027.608	1217.79
1027.898	1195.87
1028.187	1190.67
1028.477	1197.91
1028.766	1184.35
1029.055	1173.73
1029.344	1156.55
1029.634	1147.51
1029.923	1146.61
1030.212	1135.76
1030.501	1168.3
1030.79	1134.18
1031.078	1152.48
1031.367	1104.8
1031.656	1092.15
1031.945	1091.69
1032.233	1081.75
1032.522	1070.23
1032.81	1095.99
1033.099	1074.29
1033.387	1073.39
1033.675	1042.43
1033.963	1057.12
1034.251	1077.91
1034.54	1039.27
1034.828	1012.15
1035.116	1026.84
1035.403	1036.78
1035.691	1018.25
1035.979	1011.47
1036.267	1008.08
1036.554	1004.01
1036.842	973.73
1037.129	983.45
1037.417	959.72
1037.704	970.34
1037.992	946.61
1038.279	962.66
1038.566	938.48
1038.853	938.48
1039.14	938.48
