Data from hue_210_FLMS001491_00034.txt Node
Date: Tue Feb 07 16:41:06 GMT 2017
User: dcchb
Spectrometer: FLMS00149
Trigger mode: 0
Integration Time (sec): 2.000000E-2
Scans to average: 10
Electric dark correction enabled: true
Nonlinearity correction enabled: false
Boxcar width: 0
XAxis mode: Wavelengths
Number of Pixels in Spectrum: 2048
>>>>>Begin Spectral Data<<<<<
341.393	-13.62
341.776	-13.62
342.16	-13.62
342.543	-60.17
342.927	-82.09
343.31	-62.65
343.693	-57.23
344.077	-57.46
344.46	-53.61
344.843	-60.62
345.226	-30.34
345.61	-41.41
345.993	1.98
346.376	-3.67
346.759	4.92
347.142	9.66
347.525	30.23
347.908	38.81
348.291	69.77
348.674	95.53
349.057	116.1
349.44	139.15
349.823	146.15
350.206	170.79
350.588	189.77
350.971	231.8
351.354	239.26
351.737	230.9
352.119	252.82
352.502	276.77
352.884	289.65
353.267	302.08
353.65	293.72
354.032	316.32
354.414	336.43
354.797	305.47
355.179	317
355.562	339.82
355.944	332.14
356.326	361.06
356.709	352.93
357.091	334.62
357.473	337.56
357.855	335.08
358.238	350.67
358.62	352.02
359.002	353.83
359.384	345.92
359.766	341.86
360.148	334.85
360.53	334.62
360.912	328.97
361.294	338.92
361.676	347.96
362.057	354.96
362.439	341.18
362.821	333.49
363.203	328.97
363.584	333.72
363.966	333.27
364.348	322.19
364.729	332.36
365.111	312.7
365.493	312.48
365.874	320.39
366.256	304.79
366.637	326.94
367.019	315.87
367.4	340.95
367.781	316.09
368.163	316.09
368.544	309.99
368.925	314.06
369.306	299.37
369.688	327.62
370.069	326.04
370.45	318.81
370.831	335.3
371.212	328.52
371.593	305.25
371.974	323.32
372.355	300.27
372.736	348.41
373.117	309.54
373.498	315.19
373.879	347.73
374.26	320.16
374.641	300.73
375.021	326.26
375.402	303.66
375.783	330.33
376.163	342.53
376.544	324.68
376.925	342.31
377.305	324.23
377.686	322.19
378.066	339.82
378.447	338.24
378.827	325.81
379.208	339.82
379.588	348.18
379.968	345.25
380.349	337.34
380.729	349.54
381.109	349.09
381.489	342.76
381.87	342.53
382.25	365.81
382.63	373.04
383.01	351.57
383.39	342.31
383.77	352.7
384.15	334.62
384.53	345.7
384.91	356.77
385.29	359.03
385.67	369.88
386.049	382.08
386.429	373.94
386.809	381.4
387.189	364.23
387.568	348.41
387.948	352.93
388.328	366.04
388.707	354.06
389.087	344.34
389.466	360.84
389.846	359.26
390.225	380.27
390.605	363.32
390.984	367.39
391.363	376.88
391.743	371.46
392.122	389.09
392.501	382.98
392.881	401.51
393.26	401.29
393.639	402.64
394.018	405.13
394.397	388.18
394.776	412.14
395.155	390.22
395.534	393.83
395.913	406.03
396.292	408.07
396.671	400.84
397.05	400.16
397.429	413.94
397.808	403.77
398.186	401.97
398.565	409.2
398.944	439.48
399.323	421.63
399.701	425.92
400.08	413.04
400.458	418.46
400.837	434.51
401.215	444
401.594	424.34
401.972	443.55
402.351	438.8
402.729	446.49
403.107	449.65
403.486	464.11
403.864	453.49
404.242	430.44
404.62	467.5
404.999	470.67
405.377	481.29
405.755	495.75
406.133	486.94
406.511	473.15
406.889	510.89
407.267	486.71
407.645	510.44
408.023	512.47
408.401	503.66
408.779	527.39
409.156	554.05
409.534	526.71
409.912	530.1
410.29	540.95
410.667	563.77
411.045	556.77
411.422	581.4
411.8	585.69
412.178	573.71
412.555	595.41
412.933	626.59
413.31	617.78
413.687	630.21
414.065	634.28
414.442	649.87
414.819	676.99
415.197	671.34
415.574	699.81
415.951	660.49
416.328	680.83
416.705	695.74
417.082	727.38
417.46	726.7
417.837	741.62
418.214	723.09
418.591	743.43
418.967	733.03
419.344	777.32
419.721	769.41
420.098	766.25
420.475	808.74
420.852	813.03
421.228	820.03
421.605	834.95
421.982	847.38
422.358	851.9
422.735	871.78
423.111	873.82
423.488	920.15
423.864	911.78
424.241	933.48
424.617	944.1
424.994	939.13
425.37	966.7
425.746	995.85
426.123	1014.83
426.499	997.21
426.875	1019.13
427.251	1043.08
427.627	1059.35
428.003	1055.51
428.379	1080.82
428.756	1106.13
429.132	1124.66
429.507	1138.9
429.883	1156.98
430.259	1154.72
430.635	1173.47
431.011	1188.39
431.387	1198.78
431.763	1210.31
432.138	1239.46
432.514	1237.43
432.89	1252.79
433.265	1288.72
433.641	1320.36
434.016	1323.52
434.392	1391.77
434.767	1394.03
435.143	1422.05
435.518	1438.32
435.894	1428.38
436.269	1455.95
436.644	1506.12
437.02	1536.4
437.395	1549.73
437.77	1571.2
438.145	1627.25
438.52	1642.16
438.895	1625.44
439.271	1676.96
439.646	1720.35
440.021	1746.11
440.395	1724.64
440.77	1773.68
441.145	1793.79
441.52	1829.05
441.895	1855.49
442.27	1879.44
442.645	1857.52
443.019	1904.53
443.394	1886
443.769	1926.22
444.143	1923.96
444.518	1951.08
444.892	1964.64
445.267	1974.13
445.641	2004.64
446.016	2001.7
446.39	2018.87
446.764	2047.57
447.139	2096.61
447.513	2097.97
447.887	2086.22
448.262	2106.55
448.636	2118.98
449.01	2156.27
449.384	2148.81
449.758	2193.78
450.132	2230.85
450.506	2239.66
450.88	2211.41
451.254	2230.62
451.628	2268.58
452.002	2330.73
452.376	2295.02
452.75	2331.18
453.123	2350.16
453.497	2431.07
453.871	2410.5
454.244	2466.77
454.618	2475.81
454.992	2500.22
455.365	2562.59
455.739	2605.07
456.112	2629.25
456.486	2590.61
456.859	2622.47
457.232	2728.01
457.606	2660.44
457.979	2737.27
458.352	2762.36
458.725	2781.34
459.099	2814.33
459.472	2865.18
459.845	2882.58
460.218	2912.86
460.591	2936.14
460.964	2960.09
461.337	2979.3
461.71	3067.89
462.083	3091.61
462.456	3097.26
462.829	3104.95
463.201	3133.65
463.574	3190.82
463.947	3270.37
464.32	3321.66
464.692	3337.71
465.065	3340.19
465.438	3413.87
465.81	3430.14
466.183	3488.67
466.555	3542
466.928	3543.58
467.3	3539.96
467.672	3571.15
468.045	3643.24
468.417	3722.33
468.789	3741.31
469.161	3783.12
469.534	3843.46
469.906	3921.87
470.278	3895.43
470.65	3958.71
471.022	4068.99
471.394	4128.65
471.766	4168.42
472.138	4163.9
472.51	4241.19
472.882	4287.29
473.253	4373.39
473.625	4404.8
473.997	4487.74
474.369	4509.88
474.74	4570.9
475.112	4653.38
475.484	4701.51
475.855	4750.33
476.227	4777.9
476.598	4973.15
476.97	4987.16
477.341	5075.29
477.713	5105.8
478.084	5075.74
478.455	5263.31
478.827	5324.55
479.198	5440.03
479.569	5440.7
479.94	5523.87
480.311	5640.02
480.682	5753.46
481.053	5837.53
481.424	5956.62
481.795	5961.37
482.166	6070.52
482.537	6136.73
482.908	6244.07
483.279	6284.3
483.65	6366.33
484.021	6489.72
484.391	6593.89
484.762	6588.7
485.133	6641.12
485.503	6739.2
485.874	6881.34
486.244	6859.42
486.615	7044.28
486.985	7065.97
487.356	7206.53
487.726	7245.63
488.097	7387.32
488.467	7425.06
488.837	7554.1
489.207	7623.25
489.578	7641.55
489.948	7740.3
490.318	7885.61
490.688	7905.05
491.058	8001.77
491.428	8073.4
491.798	8098.26
492.168	8236.79
492.538	8310.69
492.908	8426.84
493.278	8466.61
493.648	8453.28
494.017	8615.08
494.387	8623.45
494.757	8701.64
495.126	8748.87
495.496	8770.33
495.866	8781.41
496.235	8881.97
496.605	8983.44
496.974	8986.6
497.344	9065.47
497.713	9083.09
498.082	9130.55
498.452	9223.88
498.821	9251.23
499.19	9290.32
499.559	9326.03
499.928	9390.66
500.298	9424.78
500.667	9440.6
501.036	9420.26
501.405	9491.9
501.774	9511.78
502.143	9580.48
502.512	9652.12
502.88	9605.34
503.249	9638.56
503.618	9739.35
503.987	9709.74
504.356	9757.2
504.724	9809.63
505.093	9763.75
505.462	9850.98
505.83	9873.81
506.199	9886.01
506.567	10005.78
506.936	10024.99
507.304	10104.31
507.672	10019.12
508.041	10074.03
508.409	10159
508.777	10235.83
509.145	10196.96
509.514	10207.36
509.882	10300.46
510.25	10182.95
510.618	10321.25
510.986	10194.93
511.354	10360.58
511.722	10376.17
512.09	10437.64
512.458	10420.23
512.826	10441.02
513.193	10497.97
513.561	10478.09
513.929	10517.18
514.297	10505.2
514.664	10617.74
515.032	10651.19
515.4	10604.86
515.767	10683.73
516.135	10697.74
516.502	10472.44
516.869	10756.5
517.237	10668.59
517.604	10642.83
517.972	10730.06
518.339	10734.58
518.706	10730.51
519.073	10749.27
519.44	10777.51
519.808	10798.08
520.175	10744.52
520.542	10835.36
520.909	10845.08
521.276	10776.38
521.643	10929.83
522.009	10851.86
522.376	10937.06
522.743	10921.24
523.11	10909.71
523.477	10962.59
523.843	10922.59
524.21	11032.42
524.577	11087.56
524.943	11105.19
525.31	11074.68
525.676	11133.21
526.043	11118.07
526.409	11117.39
526.776	11155.81
527.142	11165.53
527.508	11120.56
527.874	11198.07
528.241	11138.86
528.607	11138.63
528.973	11217.28
529.339	11135.7
529.705	11220.89
530.071	11205.98
530.437	11184.51
530.803	11256.6
531.169	11194.23
531.535	11173.21
531.901	11174.79
532.267	11187.67
532.632	11155.58
532.998	11203.26
533.364	11168.24
533.73	11171.63
534.095	11104.96
534.461	11110.39
534.826	11126.88
535.192	11136.37
535.557	11121.01
535.923	11039.43
536.288	11008.92
536.653	11078.07
537.019	10980.22
537.384	10982.25
537.749	10990.84
538.114	10831.75
538.479	10901.35
538.845	10881.92
539.21	10772.99
539.575	10845.31
539.94	10798.3
540.305	10792.65
540.67	10834.91
541.034	10785.65
541.399	10805.08
541.764	10684.18
542.129	10667.01
542.494	10637.4
542.858	10580.91
543.223	10625.88
543.587	10606.9
543.952	10514.7
544.316	10499.1
544.681	10492.32
545.045	10474.7
545.41	10450.74
545.774	10366.68
546.138	10410.74
546.503	10372.1
546.867	10326.9
547.231	10344.08
547.595	10297.98
547.959	10279.9
548.324	10212.78
548.688	10137.08
549.052	10148.83
549.416	10160.35
549.779	10061.83
550.143	10116.97
550.507	10052.11
550.871	10064.09
551.235	10024.09
551.599	10010.75
551.962	10060.02
552.326	9988.61
552.689	9996.29
553.053	9857.54
553.417	9848.72
553.78	9980.7
554.143	9871.55
554.507	9860.02
554.87	9880.36
555.234	9832.68
555.597	9772.79
555.96	9743.42
556.323	9792.91
556.686	9759.23
557.05	9821.61
557.413	9771.44
557.776	9703.87
558.139	9752.68
558.502	9710.2
558.865	9651.67
559.228	9770.76
559.59	9678.11
559.953	9726.69
560.316	9704.32
560.679	9693.25
561.041	9755.62
561.404	9697.09
561.767	9716.07
562.129	9684.21
562.492	9727.15
562.854	9695.06
563.217	9654.83
563.579	9718.11
563.941	9745.22
564.304	9710.42
564.666	9765.11
565.028	9723.08
565.39	9779.8
565.753	9768.95
566.115	9805.11
566.477	9786.13
566.839	9744.09
567.201	9780.48
567.563	9815.28
567.925	9884.43
568.287	9891.21
568.648	9848.5
569.01	9827.93
569.372	9894.37
569.734	9846.69
570.095	9897.54
570.457	9893.24
570.819	9897.31
571.18	9863.19
571.542	9890.76
571.903	9851.89
572.265	9839.68
572.626	9920.59
572.987	9965.78
573.349	9896.41
573.71	9929.4
574.071	10045.56
574.432	10038.1
574.794	10032.22
575.155	10056.4
575.516	9984.54
575.877	10024.31
576.238	10140.24
576.599	10079
576.96	10111.77
577.32	10091.88
577.681	10203.07
578.042	10145.67
578.403	10080.36
578.763	10127.13
579.124	10158.77
579.485	10192.44
579.845	10205.1
580.206	10213.01
580.566	10155.16
580.927	10223.86
581.287	10234.48
581.648	10268.37
582.008	10261.59
582.368	10235.83
582.728	10243.97
583.089	10268.6
583.449	10241.71
583.809	10252.56
584.169	10240.35
584.529	10316.06
584.889	10351.54
585.249	10271.31
585.609	10282.84
585.969	10304.76
586.329	10337.98
586.688	10268.6
587.048	10356.73
587.408	10283.97
587.768	10267.02
588.127	10326.45
588.487	10300.46
588.846	10305.89
589.206	10248.04
589.565	10292.33
589.925	10309.95
590.284	10316.96
590.643	10369.39
591.003	10322.16
591.362	10370.29
591.721	10338.2
592.08	10393.57
592.44	10361.93
592.799	10443.96
593.158	10371.87
593.517	10305.44
593.876	10357.86
594.235	10368.26
594.593	10357.41
594.952	10356.73
595.311	10315.83
595.67	10394.92
596.029	10365.32
596.387	10399.9
596.746	10349.05
597.104	10429.73
597.463	10390.63
597.822	10468.82
598.18	10376.85
598.538	10364.64
598.897	10472.89
599.255	10331.88
599.613	10467.92
599.972	10390.63
600.33	10382.72
600.688	10353.12
601.046	10423.62
601.404	10445.32
601.762	10415.71
602.12	10475.6
602.478	10553.79
602.836	10488.48
603.194	10472.44
603.552	10400.12
603.91	10385.66
604.268	10463.85
604.625	10419.78
604.983	10523.73
605.341	10372.78
605.698	10466.56
606.056	10476.5
606.413	10484.41
606.771	10493.68
607.128	10487.58
607.485	10481.7
607.843	10499.55
608.2	10532.32
608.557	10561.47
608.914	10559.21
609.272	10544.07
609.629	10523.73
609.986	10626.1
610.343	10502.27
610.7	10649.61
611.057	10598.53
611.414	10574.58
611.771	10566.67
612.127	10685.31
612.484	10618.2
612.841	10640.79
613.198	10600.12
613.554	10543.62
613.911	10644.86
614.267	10624.3
614.624	10670.85
614.98	10654.35
615.337	10654.58
615.693	10679.89
616.05	10670.85
616.406	10719.89
616.762	10707.01
617.118	10680.34
617.475	10729.83
617.831	10694.8
618.187	10669.27
618.543	10700.45
618.899	10772.99
619.255	10785.2
619.611	10747.46
619.967	10845.76
620.323	10791.3
620.678	10665.43
621.034	10746.1
621.39	10754.01
621.746	10668.59
622.101	10847.34
622.457	10738.87
622.812	10767.57
623.168	10773.9
623.523	10792.43
623.879	10762.82
624.234	10731.64
624.589	10760.34
624.945	10832.2
625.3	10741.81
625.655	10763.5
626.01	10782.71
626.365	10828.59
626.72	10729.15
627.075	10714.01
627.43	10730.51
627.785	10752.2
628.14	10743.39
628.495	10770.51
628.85	10725.31
629.205	10643.05
629.559	10751.75
629.914	10707.46
630.269	10713.11
630.623	10658.19
630.978	10626.78
631.332	10644.41
631.687	10722.6
632.041	10577.07
632.396	10668.14
632.75	10596.5
633.104	10639.44
633.459	10588.59
633.813	10607.8
634.167	10553.34
634.521	10488.71
634.875	10566.9
635.229	10527.58
635.583	10465.21
635.937	10482.38
636.291	10501.14
636.645	10446
636.999	10426.34
637.352	10424.3
637.706	10356.06
638.06	10470.63
638.413	10384.76
638.767	10472.66
639.121	10430.86
639.474	10345.21
639.828	10388.37
640.181	10373.23
640.534	10391.08
640.888	10318.32
641.241	10296.62
641.594	10266.79
641.947	10267.92
642.301	10292.55
642.654	10310.41
643.007	10316.96
643.36	10294.81
643.713	10293.01
644.066	10287.81
644.419	10160.81
644.771	10142.95
645.124	10067.48
645.477	10080.58
645.83	9942.28
646.182	9890.08
646.535	9902.06
646.888	9949.06
647.24	9813.24
647.593	9904.99
647.945	9902.28
648.298	9881.04
648.65	9827.93
649.002	9831.78
649.355	9860.48
649.707	9877.88
650.059	9920.13
650.411	10099.34
650.763	10012.11
651.115	10141.6
651.467	10139.56
651.819	10132.33
652.171	10103.41
652.523	10081.49
652.875	10080.36
653.227	10047.81
653.578	10138.43
653.93	10113.8
654.282	10029.06
654.633	10093.69
654.985	10023.63
655.337	10060.92
655.688	10067.7
656.039	10088.27
656.391	10078.1
656.742	10050.75
657.094	10083.97
657.445	10098.44
657.796	10039.23
658.147	10023.41
658.498	10072.9
658.849	10104.08
659.2	10073.8
659.551	10053.92
659.902	10113.8
660.253	10101.6
660.604	10158.32
660.955	10074.71
661.306	10161.03
661.656	10131.65
662.007	10091.2
662.358	10114.93
662.708	10170.3
663.059	10080.36
663.409	10106.12
663.76	10129.39
664.11	10178.21
664.461	10163.97
664.811	10183.4
665.161	10137.53
665.511	10132.33
665.862	10199
666.212	10151.77
666.562	10182.05
666.912	10173.01
667.262	10133.46
667.612	10175.27
667.962	10193.8
668.312	10156.51
668.662	10173.91
669.011	10153.12
669.361	10151.54
669.711	10128.26
670.06	10145.21
670.41	10013.01
670.76	10112.22
671.109	10144.08
671.459	10086.23
671.808	10087.14
672.157	10125.33
672.507	10028.83
672.856	10044.43
673.205	9986.57
673.554	10086.68
673.904	10072.22
674.253	10081.49
674.602	10063.18
674.951	9955.16
675.3	9865.45
675.649	9996.52
675.998	10019.12
676.346	10020.02
676.695	10000.58
677.044	9926.01
677.393	9982.96
677.741	9958.33
678.09	9955.61
678.438	9922.17
678.787	9901.83
679.135	9933.69
679.484	9831.78
679.832	9936.63
680.181	9841.49
680.529	9831.78
680.877	9828.39
681.225	9816.18
681.573	9807.82
681.922	9747.03
682.27	9760.14
682.618	9703.19
682.966	9692.8
683.314	9757.2
683.661	9742.29
684.009	9662.06
684.357	9626.36
684.705	9618.22
685.053	9614.15
685.4	9555.17
685.748	9507.72
686.095	9514.95
686.443	9484.89
686.79	9417.32
687.138	9483.08
687.485	9545
687.832	9418.9
688.18	9415.29
688.527	9394.72
688.874	9358.79
689.221	9320.83
689.568	9376.42
689.915	9287.38
690.262	9259.59
690.609	9241.73
690.956	9243.77
691.303	9158.35
691.65	9112.92
691.997	9150.66
692.344	9073.38
692.69	9104.79
693.037	9021.4
693.383	8949.99
693.73	8962.65
694.077	8871.8
694.423	8926.71
694.769	8876.77
695.116	8821.86
695.462	8819.82
695.808	8793.38
696.155	8731.69
696.501	8726.95
696.847	8749.54
697.193	8667.06
697.539	8671.35
697.885	8624.58
698.231	8506.84
698.577	8504.35
698.923	8523.56
699.269	8467.07
699.614	8443.56
699.96	8410.57
700.306	8419.61
700.651	8410.57
700.997	8316.11
701.342	8371.02
701.688	8336.9
702.033	8317.24
702.379	8284.02
702.724	8166.28
703.069	8181.65
703.415	8196.11
703.76	8175.32
704.105	8154.53
704.45	8058.94
704.795	8069.79
705.14	7981.65
705.485	8029.79
705.83	7966.51
706.175	7968.32
706.52	7891.49
706.865	7884.03
707.209	7871.15
707.554	7877.7
707.899	7887.65
708.243	7763.81
708.588	7792.73
708.932	7750.47
709.277	7663.92
709.621	7709.8
709.966	7644.71
710.31	7689.01
710.654	7567.2
710.998	7619.86
711.342	7530.14
711.687	7593.42
712.031	7572.85
712.375	7449.92
712.719	7498.73
713.063	7549.35
713.407	7546.64
713.75	7420.54
714.094	7429.8
714.438	7488.79
714.782	7444.27
715.125	7428.67
715.469	7446.53
715.812	7411.95
716.156	7353.87
716.499	7388.9
716.843	7365.63
717.186	7311.16
717.53	7348.9
717.873	7372.18
718.216	7309.36
718.559	7297.83
718.902	7278.62
719.246	7244.5
719.589	7259.87
719.932	7217.15
720.275	7192.3
720.617	7178.96
720.96	7217.38
721.303	7203.37
721.646	7246.53
721.989	7199.75
722.331	7227.55
722.674	7181.45
723.016	7132.19
723.359	7145.29
723.701	7193.2
724.044	7107.33
724.386	7083.37
724.729	7181.9
725.071	7101.9
725.413	7138.96
725.755	7137.38
726.097	7075.46
726.439	7060.1
726.782	7031.85
727.124	7085.41
727.465	7013.09
727.807	7082.02
728.149	7001.34
728.491	7033.2
728.833	7031.4
729.175	7023.26
729.516	6978.29
729.858	7045.41
730.199	7070.94
730.541	6991.62
730.882	7009.48
731.224	6997.27
731.565	6973.32
731.906	7027.1
732.248	7004.96
732.589	7029.82
732.93	7038.4
733.271	7036.82
733.612	7004.73
733.953	6955.01
734.294	6978.52
734.635	6967.44
734.976	7004.51
735.317	6953.88
735.658	7037.05
735.999	7041.79
736.339	7005.41
736.68	6999.76
737.021	7025.97
737.361	6959.76
737.702	7044.5
738.042	6993.88
738.383	6986.2
738.723	7028.46
739.063	7055.35
739.404	7072.75
739.744	7037.95
740.084	7054.67
740.424	7087.21
740.764	7068.01
741.104	7093.32
741.444	7084.73
741.784	7132.86
742.124	7141.22
742.464	7151.62
742.804	7102.36
743.143	7189.36
743.483	7185.97
743.823	7155.46
744.162	7228.45
744.502	7205.63
744.841	7315.01
745.181	7326.76
745.52	7376.47
745.86	7361.33
746.199	7403.82
746.538	7435.23
746.877	7460.31
747.216	7583.02
747.556	7596.81
747.895	7595.22
748.234	7627.09
748.573	7685.84
748.911	7767.65
749.25	7810.13
749.589	7871.83
749.928	7964.03
750.267	8020.3
750.605	8115.21
750.944	8195.43
751.283	8188.88
751.621	8287.86
751.96	8321.31
752.298	8447.63
752.636	8547.74
752.975	8670
753.313	8646.72
753.651	8873.16
753.989	8869.31
754.327	8962.87
754.666	9074.73
755.004	9256.42
755.342	9363.54
755.679	9548.84
756.017	9551.33
756.355	9747.71
756.693	9801.72
757.031	10011.66
757.368	10105.67
757.706	10250.52
758.044	10348.37
758.381	10599.44
758.719	10708.36
759.056	10879.21
759.394	11070.16
759.731	11128.01
760.068	11292.3
760.405	11435.35
760.743	11645.06
761.08	11801.67
761.417	11948.1
761.754	12083.47
762.091	12355.32
762.428	12445.04
762.765	12591.48
763.102	12924.8
763.438	12919.6
763.775	13200.05
764.112	13394.17
764.449	13479.14
764.785	13662.86
765.122	13833.7
765.458	13949.41
765.795	14192.79
766.131	14343.52
766.467	14454.48
766.804	14696.28
767.14	14811.98
767.476	14928.82
767.812	15035.48
768.148	15223.95
768.485	15352.31
768.821	15434.34
769.157	15656.03
769.492	15760.43
769.828	15861.9
770.164	15846.31
770.5	16138.73
770.836	16209.23
771.171	16294.43
771.507	16332.4
771.842	16423.47
772.178	16681.99
772.513	16650.58
772.849	16773.06
773.184	16817.81
773.519	17024.13
773.855	17001.3
774.19	17128.08
774.525	17095.77
774.86	17250.79
775.195	17376.89
775.53	17498.92
775.865	17412.82
776.2	17453.72
776.535	17456.21
776.87	17643.32
777.205	17622.98
777.539	17677.22
777.874	17806.48
778.209	17756.09
778.543	17844.22
778.878	17724.45
779.212	17906.37
779.547	17806.25
779.881	17976.87
780.215	17873.6
780.55	18041.28
780.884	18050.77
781.218	18015.74
781.552	18096.42
781.886	18054.38
782.22	18032.92
782.554	18090.99
782.888	17962.41
783.222	17993.82
783.556	18027.94
783.889	17989.3
784.223	17973.71
784.557	17914.73
784.89	18102.52
785.224	18058.23
785.557	17916.53
785.891	18046.25
786.224	17962.64
786.558	18067.49
786.891	17818.68
787.224	17933.26
787.557	17845.58
787.891	17848.06
788.224	17953.6
788.557	17921.96
788.89	17980.49
789.223	17897.78
789.556	17853.03
789.888	17785.69
790.221	17747.05
790.554	17683.77
790.887	17660.27
791.219	17714.96
791.552	17651.68
791.884	17597.9
792.217	17561.29
792.549	17465.25
792.882	17434.06
793.214	17436.55
793.546	17482.65
793.879	17417.79
794.211	17302.31
794.543	17426.38
794.875	17340.5
795.207	17468.86
795.539	17374.85
795.871	17437.23
796.203	17227.51
796.535	17165.37
796.867	17200.62
797.198	17167.85
797.53	17150.45
797.862	17063.68
798.193	17059.16
798.525	17053.05
798.856	17059.38
799.188	16903.91
799.519	16770.58
799.85	16768.09
800.182	16783.46
800.513	16729.45
800.844	16651.03
801.175	16785.04
801.506	16664.36
801.837	16703.91
802.168	16700.97
802.499	16490.58
802.83	16524.25
803.161	16518.83
803.491	16459.62
803.822	16496.46
804.153	16348.67
804.483	16358.38
804.814	16276.13
805.145	16304.6
805.475	16344.6
805.805	16253.3
806.136	16213.98
806.466	16202.23
806.796	16158.16
807.126	16042.69
807.457	16034.1
807.787	16000.43
808.117	15924.5
808.447	15894.44
808.777	15972.86
809.107	15877.04
809.436	15822.8
809.766	15736.7
810.096	15733.09
810.426	15724.28
810.755	15776.03
811.085	15764.27
811.414	15685.63
811.744	15532.64
812.073	15581.68
812.403	15591.17
812.732	15417.17
813.061	15494.45
813.39	15417.17
813.719	15372.19
814.049	15391.86
814.378	15364.96
814.707	15251.97
815.036	15364.96
815.365	15235.93
815.693	15164.29
816.022	15190.05
816.351	15182.37
816.68	15156.83
817.008	15150.05
817.337	15010.85
817.665	14993.9
817.994	15016.95
818.322	14964.07
818.651	14930.85
818.979	14725.66
819.307	14925.2
819.636	14837.97
819.964	14848.14
820.292	14875.03
820.62	14809.5
820.948	14830.06
821.276	14861.93
821.604	14881.59
821.932	14849.72
822.259	14848.14
822.587	14844.07
822.915	14869.16
823.243	14814.47
823.57	14889.72
823.898	14838.65
824.225	14735.15
824.553	14816.05
824.88	14798.42
825.207	14849.95
825.535	14820.12
825.862	14813.34
826.189	14819.21
826.516	14844.3
826.843	14800.23
827.17	14863.28
827.497	14897.63
827.824	14886.33
828.151	14886.33
828.478	14837.07
828.805	14895.6
829.131	14797.97
829.458	14820.12
829.785	14770.63
830.111	14815.37
830.438	14907.8
830.764	14893.56
831.09	14893.79
831.417	14814.24
831.743	14889.5
832.069	14826.67
832.395	14730.86
832.722	14774.7
833.048	14799.55
833.374	14775.15
833.7	14736.05
834.026	14798.65
834.351	14746
834.677	14721.82
835.003	14685.89
835.329	14752.1
835.654	14753
835.98	14611.76
836.306	14614.02
836.631	14586
836.956	14604.08
837.282	14714.36
837.607	14616.96
837.932	14541.93
838.258	14525.89
838.583	14505.32
838.908	14392.33
839.233	14523.63
839.558	14454.03
839.883	14363.86
840.208	14357.98
840.533	14331.32
840.858	14279.12
841.182	14379.23
841.507	14377.19
841.832	14237.99
842.156	14186.01
842.481	14198.67
842.805	14120.25
843.13	14155.96
843.454	14150.31
843.778	14098.78
844.103	14034.38
844.427	14026.69
844.751	14001.61
845.075	14001.61
845.399	13909.63
845.723	13837.32
846.047	13853.14
846.371	13726.59
846.695	13747.6
847.019	13679.13
847.343	13565.01
847.666	13592.58
847.99	13481.85
848.313	13472.58
848.637	13327.28
848.96	13426.03
849.284	13294.74
849.607	13220.84
849.931	13192.14
850.254	13089.09
850.577	13068.98
850.9	13083.22
851.223	13010.22
851.546	12939.49
851.869	12782.43
852.192	12908.3
852.515	12808.19
852.838	12721.64
853.161	12788.99
853.483	12672.6
853.806	12715.77
854.129	12529.78
854.451	12499.28
854.774	12548.31
855.096	12431.48
855.419	12383.57
855.741	12397.36
856.063	12341.99
856.385	12350.58
856.708	12248.89
857.03	12194.2
857.352	12193.97
857.674	12129.79
857.996	12096.8
858.318	12104.71
858.64	12034.66
858.961	11938.39
859.283	11960.98
859.605	11905.85
859.926	11921.66
860.248	11893.87
860.57	11877.6
860.891	11795.79
861.212	11820.42
861.534	11713.76
861.855	11698.84
862.176	11755.79
862.498	11676.02
862.819	11706.75
863.14	11693.65
863.461	11638.96
863.782	11609.81
864.103	11638.96
864.424	11503.6
864.745	11526.19
865.065	11486.42
865.386	11402.36
865.707	11530.26
866.027	11460.66
866.348	11473.09
866.668	11380.44
866.989	11354.67
867.309	11344.96
867.63	11356.26
867.95	11372.53
868.27	11226.54
868.59	11252.75
868.91	11277.61
869.23	11261.12
869.55	11168.69
869.87	11305.18
870.19	11191.74
870.51	11191.06
870.83	11253.21
871.15	11072.65
871.469	11066.55
871.789	11172.98
872.109	11137.05
872.428	11059.54
872.748	11105.19
873.067	11053.21
873.386	11071.97
873.706	11003.27
874.025	10961.24
874.344	10933.67
874.663	10984.29
874.982	10906.1
875.301	10973.21
875.62	10856.16
875.939	10874.23
876.258	10941.35
876.577	10796.95
876.896	10817.29
877.214	10775.48
877.533	10798.98
877.852	10787.91
878.17	10784.52
878.489	10823.84
878.807	10804.86
879.125	10694.58
879.444	10628.14
879.762	10640.57
880.08	10683.28
880.398	10638.53
880.716	10580.23
881.034	10567.58
881.352	10596.73
881.67	10562.83
881.988	10545.65
882.306	10527.35
882.624	10456.39
882.941	10390.4
883.259	10417.07
883.577	10427.69
883.894	10373.91
884.212	10331.88
884.529	10369.16
884.846	10290.29
885.164	10274.48
885.481	10251.88
885.798	10258.43
886.115	10151.54
886.432	10168.72
886.75	10111.09
887.067	10133.91
887.383	10119.9
887.7	10142.28
888.017	10087.81
888.334	10089.85
888.651	10021.15
888.967	10024.76
889.284	9988.61
889.6	9950.19
889.917	9848.5
890.233	9839.68
890.55	9867.48
890.866	9808.27
891.182	9789.74
891.498	9698.45
891.815	9725.34
892.131	9745.68
892.447	9639.69
892.763	9695.73
893.079	9615.51
893.395	9591.56
893.71	9581.16
894.026	9541.84
894.342	9498.9
894.657	9392.69
894.973	9436.98
895.289	9387.95
895.604	9357.89
895.92	9360.38
896.235	9300.49
896.55	9273.37
896.865	9208.29
897.181	9165.13
897.496	9225.01
897.811	9140.49
898.126	9059.82
898.441	9140.49
898.756	9015.07
899.071	8975.3
899.386	9038.35
899.7	8971.23
900.015	8893.72
900.33	8809.43
900.644	8889.88
900.959	8837.68
901.273	8813.72
901.588	8785.25
901.902	8772.59
902.216	8715.42
902.531	8740.05
902.845	8691.47
903.159	8620.51
903.473	8534.86
903.787	8555.88
904.101	8526.05
904.415	8468.42
904.729	8442.21
905.042	8403.34
905.356	8350.46
905.67	8335.77
905.984	8391.14
906.297	8307.97
906.611	8247.86
906.924	8225.49
907.237	8294.19
907.551	8157.92
907.864	8116.79
908.177	8167.64
908.491	8033.4
908.804	8017.81
909.117	8026.17
909.43	7940.07
909.743	7881.09
910.056	7879.51
910.368	7840.19
910.681	7888.1
910.994	7819.4
911.307	7784.15
911.619	7700.31
911.932	7679.97
912.244	7702.79
912.557	7637.03
912.869	7613.3
913.181	7576.24
913.494	7557.48
913.806	7458.05
914.118	7500.54
914.43	7426.19
914.742	7479.29
915.054	7423.93
915.366	7347.32
915.678	7361.11
915.99	7333.99
916.302	7236.14
916.613	7240.66
916.925	7239.3
917.236	7212.41
917.548	7151.17
917.859	7147.33
918.171	7109.81
918.482	7076.14
918.794	7038.63
919.105	6999.99
919.416	6998.63
919.727	6973.09
920.038	6956.6
920.349	6858.07
920.66	6831.18
920.971	6879.54
921.282	6823.04
921.593	6781.69
921.903	6776.04
922.214	6685.19
922.525	6682.48
922.835	6693.55
923.146	6655.14
923.456	6596.15
923.767	6602.48
924.077	6649.49
924.387	6494.69
924.697	6480.9
925.008	6444.52
925.318	6450.85
925.628	6477.74
925.938	6435.48
926.248	6370.17
926.558	6385.31
926.867	6292.21
927.177	6287.69
927.487	6237.52
927.796	6243.17
928.106	6224.64
928.416	6144.19
928.725	6157.07
929.034	6101.03
929.344	6143.74
929.653	6136.05
929.962	6049.28
930.271	6036.85
930.581	6003.63
930.89	5970.63
931.199	5936.28
931.508	5943.74
931.817	5949.39
932.125	5912.56
932.434	5898.55
932.743	5814.03
933.051	5792.56
933.36	5797.98
933.669	5759.34
933.977	5736.06
934.286	5683.41
934.594	5688.16
934.902	5671.43
935.21	5612.23
935.519	5604.99
935.827	5613.58
936.135	5565.45
936.443	5487.48
936.751	5511.89
937.059	5502.4
937.367	5497.65
937.674	5486.35
937.982	5426.47
938.29	5419.69
938.597	5398.67
938.905	5374.94
939.213	5338.11
939.52	5346.47
939.827	5334.27
940.135	5290.43
940.442	5280.26
940.749	5261.27
941.056	5252.01
941.363	5206.81
941.67	5189.86
941.977	5125.46
942.284	5121.62
942.591	5154.16
942.898	5106.93
943.205	5083.65
943.511	5066.48
943.818	5083.88
944.125	4962.3
944.431	4959.14
944.738	4942.19
945.044	4932.92
945.35	4917.33
945.657	4908.74
945.963	4871.45
946.269	4869.65
946.575	4860.38
946.881	4792.36
947.187	4814.05
947.493	4748.52
947.799	4726.6
948.105	4729.54
948.41	4706.71
948.716	4721.63
949.022	4629.2
949.327	4647.5
949.633	4590.56
949.938	4607.73
950.244	4608.64
950.549	4561.18
950.854	4543.78
951.16	4520.73
951.465	4505.81
951.77	4517.79
952.075	4505.36
952.38	4497.9
952.685	4445.93
952.99	4391.92
953.294	4398.47
953.599	4362.31
953.904	4337.46
954.209	4301.07
954.513	4350.34
954.818	4356.89
955.122	4292.03
955.426	4236.22
955.731	4224.47
956.035	4228.08
956.339	4238.02
956.643	4209.78
956.948	4168.87
957.252	4158.03
957.556	4126.61
957.86	4115.77
958.163	4158.25
958.467	4115.77
958.771	4078.03
959.075	4083.68
959.378	4039.61
959.682	4057.69
959.985	4008.43
960.289	3997.58
960.592	3965.26
960.896	3975.21
961.199	3930.91
961.502	3938.37
961.805	3934.3
962.108	3844.14
962.411	3885.94
962.714	3882.1
963.017	3835.32
963.32	3879.84
963.623	3824.02
963.926	3819.96
964.228	3806.85
964.531	3760.97
964.833	3756
965.136	3755.78
965.438	3708.09
965.741	3686.63
966.043	3666.97
966.345	3675.33
966.648	3656.12
966.95	3666.74
967.252	3591.04
967.554	3618.15
967.856	3575.67
968.158	3549.45
968.46	3562.56
968.761	3560.08
969.063	3516.69
969.365	3533.64
969.666	3472.62
969.968	3464.94
970.269	3441.89
970.571	3438.05
970.872	3421.1
971.174	3390.36
971.475	3394.43
971.776	3367.54
972.077	3389.23
972.378	3342
972.679	3341.1
972.98	3328.44
973.281	3281.44
973.582	3273.3
973.883	3286.41
974.183	3294.77
974.484	3284.6
974.785	3240.54
975.085	3235.56
975.386	3245.73
975.686	3239.41
975.986	3200.31
976.287	3236.69
976.587	3160.76
976.887	3115.34
977.187	3145.85
977.487	3146.98
977.787	3080.99
978.087	3092.97
978.387	3055.46
978.687	3084.38
978.987	3041.67
979.286	2999.41
979.586	3053.65
979.885	2982.92
980.185	2970.71
980.484	2971.16
980.784	2951.05
981.083	2952.63
981.382	2939.3
981.682	2931.39
981.981	2928.23
982.28	2899.08
982.579	2905.18
982.878	2881.68
983.177	2867.66
983.475	2822.92
983.774	2832.86
984.073	2782.92
984.372	2794.9
984.67	2811.17
984.969	2759.87
985.267	2778.4
985.566	2763.49
985.864	2720.78
986.162	2755.58
986.461	2735.69
986.759	2706.99
987.057	2643.26
987.355	2661.34
987.653	2687.78
987.951	2642.81
988.249	2666.31
988.547	2617.28
988.844	2640.33
989.142	2605.07
989.44	2609.14
989.737	2591.74
990.035	2592.87
990.332	2543.15
990.63	2585.41
990.927	2528.24
991.224	2528.69
991.521	2542.25
991.819	2514.91
992.116	2501.8
992.413	2465.19
992.71	2494.57
993.006	2447.11
993.303	2495.02
993.6	2461.12
993.897	2420.44
994.193	2420.44
994.49	2407.56
994.787	2384.51
995.083	2388.58
995.379	2356.72
995.676	2342.71
995.972	2341.12
996.268	2342.71
996.565	2328.02
996.861	2303.16
997.157	2306.32
997.453	2278.3
997.749	2312.65
998.044	2279.88
998.34	2263.61
998.636	2250.51
998.932	2257.29
999.227	2210.51
999.523	2220.45
999.818	2187
1000.114	2171.19
1000.409	2153.11
1000.704	2130.51
1001	2157.85
1001.295	2139.77
1001.59	2118.98
1001.885	2126.22
1002.18	2083.28
1002.475	2067.69
1002.77	2080.34
1003.065	2066.1
1003.359	2064.97
1003.654	2043.05
1003.949	2003.51
1004.243	2056.39
1004.538	2005.54
1004.832	2017.74
1005.127	1977.07
1005.421	1965.99
1005.715	1992.89
1006.009	1968.93
1006.304	1973.45
1006.598	1933.9
1006.892	1922.6
1007.186	1916.73
1007.48	1918.31
1007.773	1904.75
1008.067	1911.53
1008.361	1847.13
1008.655	1832.21
1008.948	1856.39
1009.242	1851.87
1009.535	1828.6
1009.829	1827.24
1010.122	1804.42
1010.415	1784.53
1010.708	1773
1011.001	1788.37
1011.295	1767.35
1011.588	1757.86
1011.881	1742.95
1012.173	1760.35
1012.466	1729.16
1012.759	1700.01
1013.052	1719.45
1013.344	1679.22
1013.637	1681.48
1013.93	1669.73
1014.222	1670.63
1014.514	1681.93
1014.807	1634.93
1015.099	1654.36
1015.391	1660.01
1015.683	1614.59
1015.976	1596.29
1016.268	1598.77
1016.56	1575.04
1016.851	1540.92
1017.143	1557.42
1017.435	1535.95
1017.727	1560.58
1018.018	1523.75
1018.31	1542.28
1018.602	1512.9
1018.893	1520.58
1019.185	1530.75
1019.476	1484.88
1019.767	1492.56
1020.058	1481.49
1020.35	1461.15
1020.641	1446.69
1020.932	1425.44
1021.223	1422.73
1021.514	1414.14
1021.804	1408.95
1022.095	1406.46
1022.386	1431.09
1022.677	1370.53
1022.967	1403.52
1023.258	1373.69
1023.548	1361.04
1023.839	1339.34
1024.129	1349.74
1024.419	1328.04
1024.709	1328.27
1025	1315.84
1025.29	1308.84
1025.58	1295.05
1025.87	1279.46
1026.16	1300.7
1026.449	1288.5
1026.739	1265.22
1027.029	1299.57
1027.319	1236.07
1027.608	1257.76
1027.898	1231.1
1028.187	1232.23
1028.477	1235.17
1028.766	1208.27
1029.055	1203.53
1029.344	1220.48
1029.634	1171.44
1029.923	1167.37
1030.212	1173.7
1030.501	1194.49
1030.79	1166.92
1031.078	1151.33
1031.367	1139.35
1031.656	1155.39
1031.945	1136.41
1032.233	1144.55
1032.522	1111.33
1032.81	1116.07
1033.099	1069.97
1033.387	1112
1033.675	1084.21
1033.963	1078.11
1034.251	1088.05
1034.54	1059.12
1034.828	1067.49
1035.116	1055.51
1035.403	1053.25
1035.691	1041.95
1035.979	1056.86
1036.267	1037.66
1036.554	1048.73
1036.842	1020.03
1037.129	1030.88
1037.417	1003.08
1037.704	972.57
1037.992	1004.89
1038.279	981.61
1038.566	978.67
1038.853	978.67
1039.14	978.67
