Data from hue_38_FLMS001491_00091.txt Node
Date: Tue Feb 07 17:32:13 GMT 2017
User: dcchb
Spectrometer: FLMS00149
Trigger mode: 0
Integration Time (sec): 2.000000E-2
Scans to average: 10
Electric dark correction enabled: true
Nonlinearity correction enabled: false
Boxcar width: 0
XAxis mode: Wavelengths
Number of Pixels in Spectrum: 2048
>>>>>Begin Spectral Data<<<<<
341.393	-20.97
341.776	-20.97
342.16	-20.97
342.543	-56.68
342.927	-69.56
343.31	-46.06
343.693	-60.97
344.077	-64.81
344.46	-65.72
344.843	-60.75
345.226	-33.63
345.61	-36.34
345.993	-15.55
346.376	-33.4
346.759	13.38
347.142	28.74
347.525	26.03
347.908	78.01
348.291	85.46
348.674	81.62
349.057	103.99
349.44	127.72
349.823	144.67
350.206	149.87
350.588	186.7
350.971	218.12
351.354	235.29
351.737	231.9
352.119	241.84
352.502	260.83
352.884	263.54
353.267	276.65
353.65	289.53
354.032	283.65
354.414	285.91
354.797	322.75
355.179	297.21
355.562	306.7
355.944	337.66
356.326	331.56
356.709	346.25
357.091	332.46
357.473	366.13
357.855	318.68
358.238	344.89
358.62	342.18
359.002	339.47
359.384	336.3
359.766	335.17
360.148	348.73
360.53	331.79
360.912	346.25
361.294	334.72
361.676	324.78
362.057	330.88
362.439	335.85
362.821	334.5
363.203	315.51
363.584	334.27
363.966	346.02
364.348	327.04
364.729	305.8
365.111	323.65
365.493	308.28
365.874	322.75
366.256	322.97
366.637	315.06
367.019	310.32
367.4	307.15
367.781	307.15
368.163	292.92
368.544	320.49
368.925	321.62
369.306	325.01
369.688	312.58
370.069	332.24
370.45	326.14
370.831	325.46
371.212	300.15
371.593	331.11
371.974	307.38
372.355	320.49
372.736	316.87
373.117	314.84
373.498	310.99
373.879	318.68
374.26	322.29
374.641	305.57
375.021	320.71
375.402	334.95
375.783	304.44
376.163	314.61
376.544	326.36
376.925	337.21
377.305	325.23
377.686	344.21
378.066	337.66
378.447	334.95
378.827	343.08
379.208	321.84
379.588	324.33
379.968	337.89
380.349	339.69
380.729	331.56
381.109	342.18
381.489	355.29
381.87	335.63
382.25	343.31
382.63	338.56
383.01	359.58
383.39	344.89
383.77	336.08
384.15	355.29
384.53	364.33
384.91	332.91
385.29	337.66
385.67	336.3
386.049	365.23
386.429	352.35
386.809	349.86
387.189	343.99
387.568	350.09
387.948	352.58
388.328	349.86
388.707	352.12
389.087	344.67
389.466	357.1
389.846	364.78
390.225	378.56
390.605	374.72
390.984	379.47
391.363	381.73
391.743	387.83
392.122	353.03
392.501	359.35
392.881	392.57
393.26	380.82
393.639	388.51
394.018	385.79
394.397	369.75
394.776	383.31
395.155	388.05
395.534	382.63
395.913	409.75
396.292	403.87
396.671	398.9
397.05	384.21
397.429	401.39
397.808	380.37
398.186	406.13
398.565	397.09
398.944	402.97
399.323	423.53
399.701	407.49
400.08	387.6
400.458	419.92
400.837	399.13
401.215	413.59
401.594	411.78
401.972	381.05
402.351	411.56
402.729	405
403.107	443.42
403.486	425.12
403.864	429.86
404.242	400.03
404.62	423.76
404.999	429.18
405.377	433.03
405.755	436.19
406.133	459.01
406.511	442.97
406.889	442.52
407.267	451.33
407.645	445.68
408.023	451.33
408.401	436.42
408.779	465.79
409.156	442.06
409.534	477.32
409.912	434.16
410.29	477.09
410.667	464.21
411.045	478
411.422	479.35
411.8	473.48
412.178	466.7
412.555	465.79
412.933	482.52
413.31	492.68
413.687	509.18
414.065	509.86
414.442	486.58
414.819	500.14
415.197	514.15
415.574	541.72
415.951	515.06
416.328	522.06
416.705	528.16
417.082	494.94
417.46	525.23
417.837	517.09
418.214	523.64
418.591	529.29
418.967	533.14
419.344	538.56
419.721	541.72
420.098	547.37
420.475	557.99
420.852	535.4
421.228	538.56
421.605	573.13
421.982	575.62
422.358	569.52
422.735	579.46
423.111	591.44
423.488	571.33
423.864	578.78
424.241	601.83
424.617	584.43
424.994	595.51
425.37	598.9
425.746	619.01
426.123	597.54
426.499	603.42
426.875	606.81
427.251	609.74
427.627	642.06
428.003	626.01
428.379	634.6
428.756	635.28
429.132	629.4
429.507	640.03
429.883	657.65
430.259	656.07
430.635	654.94
431.011	672.34
431.387	685.9
431.763	691.78
432.138	676.18
432.514	687.26
432.89	710.31
433.265	696.75
433.641	703.3
434.016	718.67
434.392	757.08
434.767	749.18
435.143	722.06
435.518	741.49
435.894	742.17
436.269	764.77
436.644	762.28
437.02	777.65
437.395	776.97
437.77	788.04
438.145	762.51
438.52	799.8
438.895	798.89
439.271	790.53
439.646	804.32
440.021	796.41
440.395	793.24
440.77	818.78
441.145	810.64
441.52	839.79
441.895	853.35
442.27	861.04
442.645	854.26
443.019	856.97
443.394	854.71
443.769	879.12
444.143	862.39
444.518	879.12
444.892	861.26
445.267	866.01
445.641	895.61
446.016	910.53
446.39	899
446.764	903.07
447.139	908.27
447.513	915.95
447.887	940.36
448.262	929.28
448.636	915.95
449.01	929.06
449.384	912.56
449.758	960.24
450.132	945.55
450.506	950.98
450.88	961.15
451.254	977.42
451.628	985.1
452.002	994.59
452.376	998.66
452.75	1033.46
453.123	1011.09
453.497	1029.85
453.871	1060.35
454.244	1067.81
454.618	1055.61
454.992	1044.99
455.365	1057.42
455.739	1107.36
456.112	1095.15
456.486	1108.26
456.859	1147.36
457.232	1155.49
457.606	1127.02
457.979	1149.16
458.352	1132.67
458.725	1171.31
459.099	1195.27
459.472	1217.64
459.845	1220.8
460.218	1230.52
460.591	1247.69
460.964	1238.2
461.337	1303.51
461.71	1280.23
462.083	1310.29
462.456	1312.55
462.829	1321.82
463.201	1318.2
463.574	1355.26
463.947	1352.32
464.32	1410.85
464.692	1379.89
465.065	1418.31
465.438	1456.73
465.81	1435.48
466.183	1481.81
466.555	1501.92
466.928	1504.41
467.3	1512.54
467.672	1568.59
468.045	1598.19
468.417	1602.49
468.789	1625.31
469.161	1657.85
469.534	1675.93
469.906	1687.46
470.278	1721.13
470.65	1737.17
471.022	1742.6
471.394	1801.58
471.766	1823.27
472.138	1872.99
472.51	1907.11
472.882	1958.41
473.253	1938.75
473.625	1988.69
473.997	2033.21
474.369	2078.63
474.74	2115.92
475.112	2171.28
475.484	2236.14
475.855	2250.83
476.227	2282.92
476.598	2368.12
476.97	2405.4
477.341	2442.24
477.713	2518.39
478.084	2530.6
478.455	2638.84
478.827	2629.13
479.198	2742.34
479.569	2769.01
479.94	2838.39
480.311	2899.85
480.682	3000.19
481.053	3112.95
481.424	3139.39
481.795	3264.59
482.166	3296.23
482.537	3365.83
482.908	3454.41
483.279	3526.28
483.65	3618.48
484.021	3748.19
484.391	3797.23
484.762	3879.49
485.133	3926.04
485.503	4035.19
485.874	4141.85
486.244	4214.85
486.615	4329.19
486.985	4419.14
487.356	4537.32
487.726	4629.3
488.097	4735.51
488.467	4847.37
488.837	4950.87
489.207	5041.72
489.578	5136.4
489.948	5258.44
490.318	5339.11
490.688	5393.12
491.058	5545.43
491.428	5648.93
491.798	5770.96
492.168	5871.3
492.538	5982.26
492.908	6119.2
493.278	6230.84
493.648	6307.67
494.017	6398.52
494.387	6510.83
494.757	6576.59
495.126	6702.24
495.496	6786.3
495.866	6846.64
496.235	6984.49
496.605	7113.3
496.974	7194.43
497.344	7310.13
497.713	7297.48
498.082	7491.37
498.452	7529.11
498.821	7634.42
499.19	7661.08
499.559	7795.09
499.928	7944.47
500.298	8008.65
500.667	8117.8
501.036	8074.41
501.405	8270.11
501.774	8335.87
502.143	8363.89
502.512	8421.52
502.88	8558.24
503.249	8617.44
503.618	8723.43
503.987	8779.92
504.356	8893.82
504.724	8932.69
505.093	9030.31
505.462	9074.15
505.83	9168.61
506.199	9247.48
506.567	9424.88
506.936	9405.44
507.304	9459.68
507.672	9625.1
508.041	9613.57
508.409	9712.56
508.777	9850.4
509.145	9929.72
509.514	9885.88
509.882	10022.38
510.25	10088.82
510.618	10152.32
510.986	10224.18
511.354	10279.77
511.722	10387.79
512.09	10550.73
512.458	10510.05
512.826	10588.92
513.193	10636.82
513.561	10639.54
513.929	10774.22
514.297	10943.94
514.664	10979.41
515.032	10922.02
515.4	11142.35
515.767	11162.91
516.135	11211.5
516.502	11217.83
516.869	11394.09
517.237	11392.29
517.604	11412.17
517.972	11543.69
518.339	11595.44
518.706	11625.5
519.073	11668.89
519.44	11785.04
519.808	11873.85
520.175	11870.46
520.542	12025.94
520.909	12029.78
521.276	12112.27
521.643	12255.54
522.009	12347.97
522.376	12438.59
522.743	12486.27
523.11	12665.25
523.477	12688.3
523.843	12672.48
524.21	12924.9
524.577	13025.46
524.943	13034.73
525.31	13067.04
525.676	13177.77
526.043	13227.49
526.409	13253.93
526.776	13446.69
527.142	13456.19
527.508	13484.89
527.874	13692.34
528.241	13647.37
528.607	13754.48
528.973	14015.72
529.339	13906.34
529.705	14208.71
530.071	14126
530.437	14177.52
530.803	14326.45
531.169	14377.29
531.535	14425.43
531.901	14441.02
532.267	14384.75
532.632	14643.95
532.998	14619.32
533.364	14750.84
533.73	14796.72
534.095	14928.01
534.461	15026.99
534.826	15041.23
535.192	15061.57
535.557	15231.96
535.923	15261.11
536.288	15324.16
536.653	15403.03
537.019	15365.51
537.384	15407.32
537.749	15490.48
538.114	15569.58
538.479	15486.41
538.845	15599.18
539.21	15679.86
539.575	15728.44
539.94	15813.86
540.305	15965.72
540.67	15886.63
541.034	16006.4
541.399	16097.02
541.764	15946.97
542.129	16179.73
542.494	16266.96
542.858	16286.39
543.223	16373.85
543.587	16479.61
543.952	16454.75
544.316	16454.07
544.681	16528.87
545.045	16656.55
545.41	16689.1
545.774	16770.22
546.138	16805.48
546.503	16936.32
546.867	16925.7
547.231	17097.22
547.595	17051.35
547.959	17056.54
548.324	17123.21
548.688	17199.36
549.052	17328.63
549.416	17312.13
549.779	17395.29
550.143	17388.96
550.507	17524.33
550.871	17602.52
551.235	17531.78
551.599	17717.09
551.962	17677.77
552.326	17808.39
552.689	17907.14
553.053	17750.99
553.417	17923.41
553.78	18143.97
554.143	18141.03
554.507	18278.66
554.87	18191.43
555.234	18358.88
555.597	18270.3
555.96	18471.87
556.323	18393.68
556.686	18468.26
557.05	18611.3
557.413	18663.73
557.776	18769.72
558.139	18846.55
558.502	18859.66
558.865	18946.89
559.228	18996.38
559.59	19041.35
559.953	19029.15
560.316	19291.06
560.679	19271.85
561.041	19411.28
561.404	19483.37
561.767	19507.1
562.129	19474.56
562.492	19681.11
562.854	19682.46
563.217	19740.77
563.579	19844.04
563.941	19940.31
564.304	20110.93
564.666	20231.15
565.028	20136.01
565.39	20214.2
565.753	20370.35
566.115	20441.09
566.477	20478.6
566.839	20566.06
567.201	20644.02
567.563	20726.96
567.925	20847.18
568.287	20857.57
568.648	20949.32
569.01	20980.73
569.372	21161.52
569.734	21082.88
570.095	21349.76
570.457	21268.64
570.819	21328.07
571.18	21462.3
571.542	21538.01
571.903	21599.47
572.265	21739.81
572.626	21798.34
572.987	21911.1
573.349	21980.48
573.71	22041.27
574.071	22115.39
574.432	22413.69
574.794	22576.85
575.155	22453.01
575.516	22460.92
575.877	22644.64
576.238	22862.27
576.599	22954.24
576.96	23066.55
577.32	23169.6
577.681	23269.04
578.042	23382.03
578.403	23540.89
578.763	23629.25
579.124	23779.08
579.485	23952.63
579.845	24208.22
580.206	24245.96
580.566	24298.84
580.927	24551.71
581.287	24633.07
581.648	24774.08
582.008	24911.7
582.368	25096.33
582.728	25316.21
583.089	25416.1
583.449	25633.27
583.809	25734.73
584.169	25952.35
584.529	26145.34
584.889	26516.41
585.249	26537.42
585.609	26634.82
585.969	26987.13
586.329	27039.33
586.688	27327.46
587.048	27452.43
587.408	27640.67
587.768	27792.98
588.127	28105.74
588.487	28238.17
588.846	28672.51
589.206	28613.53
589.565	28924.93
589.925	29181.65
590.284	29298.48
590.643	29618.25
591.003	29837.68
591.362	30094.39
591.721	30299.13
592.08	30395.63
592.44	30763.75
592.799	30875.61
593.158	31073.12
593.517	31267.24
593.876	31547.69
594.235	31571.64
594.593	31744.74
594.952	31981.57
595.311	32128.01
595.67	32472.18
596.029	32705.62
596.387	33004.6
596.746	33081.43
597.104	33201.43
597.463	33510.12
597.822	33787.18
598.18	33799.38
598.538	33975.42
598.897	34383.77
599.255	34289.99
599.613	34702.86
599.972	34895.4
600.33	35118.89
600.688	34988.05
601.046	35279.34
601.404	35613.34
601.762	35568.15
602.12	35997.97
602.478	36189.83
602.836	36167
603.194	36256.04
603.552	36445.64
603.91	36682.69
604.268	36809.92
604.625	36940.31
604.983	37319.97
605.341	37028.22
605.698	37505.04
606.056	37630.92
606.413	37762.67
606.771	38018.7
607.128	38148.64
607.485	38117.46
607.843	38257.34
608.2	38445.36
608.557	38738.23
608.914	38707.73
609.272	38957.89
609.629	39076.53
609.986	39258.45
610.343	39062.97
610.7	39581.15
611.057	39671.99
611.414	39598.32
611.771	39766.91
612.127	40031.98
612.484	40085.77
612.841	40352.65
613.198	40249.61
613.554	40289.15
613.911	40542.03
614.267	40644.62
614.624	40678.29
614.98	40752.87
615.337	41089.36
615.693	41059.98
616.05	41115.8
616.406	41415.45
616.762	41327.77
617.118	41489.8
617.475	41523.02
617.831	41697.48
618.187	41765.72
618.543	41866.96
618.899	42038.03
619.255	42025.6
619.611	42039.39
619.967	42271.93
620.323	42464.46
620.678	42298.82
621.034	42243.9
621.39	42349.44
621.746	42407.29
622.101	42774.28
622.457	42495.42
622.812	42702.2
623.168	42913.49
623.523	42826.94
623.879	42977.22
624.234	42752.82
624.589	43071
624.945	43181.73
625.3	43189.64
625.655	43238
626.01	43114.84
626.365	43134.05
626.72	43195.74
627.075	43147.61
627.43	43117.1
627.785	43256.31
628.14	43251.56
628.495	43318
628.85	43299.92
629.205	43256.76
629.559	43494.72
629.914	43333.59
630.269	43340.6
630.623	43491.33
630.978	43167.95
631.332	43448.39
631.687	43617.43
632.041	43415.85
632.396	43627.14
632.75	43403.19
633.104	43480.93
633.459	43250.88
633.813	43240.71
634.167	43362.29
634.521	43298.34
634.875	43525.23
635.229	43404.1
635.583	43318.45
635.937	43235.29
636.291	43296.53
636.645	43216.99
636.999	43221.05
637.352	43260.6
637.706	43136.99
638.06	43282.97
638.413	43063.77
638.767	43206.59
639.121	43133.37
639.474	43123.65
639.828	42923.21
640.181	43044.33
640.534	42922.53
640.888	42846.6
641.241	42737.45
641.594	42992.81
641.947	43027.16
642.301	42823.1
642.654	42907.84
643.007	42821.97
643.36	42829.2
643.713	42724.79
644.066	42934.73
644.419	42677.79
644.771	42492.94
645.124	42103.79
645.477	42144.24
645.83	41811.6
646.182	41754.42
646.535	41685.05
646.888	41722.56
647.24	41456.13
647.593	41828.32
647.945	41591.49
648.298	41453.19
648.65	41412.29
649.002	41288.22
649.355	41525.73
649.707	41376.13
650.059	41608.89
650.411	42075.09
650.763	42097.69
651.115	42498.81
651.467	42466.04
651.819	42344.69
652.171	42333.62
652.523	42181.76
652.875	42190.57
653.227	42041.42
653.578	42367.74
653.93	42221.08
654.282	42113.96
654.633	41970.24
654.985	42037.58
655.337	42101.31
655.688	42033.97
656.039	42224.47
656.391	41881.43
656.742	41960.75
657.094	42027.41
657.445	42060.63
657.796	41999.39
658.147	41980.86
658.498	41986.28
658.849	41960.3
659.2	42116.22
659.551	41878.26
659.902	42033.74
660.253	42032.61
660.604	41984.25
660.955	41838.49
661.306	41801.88
661.656	41882.33
662.007	41910.8
662.358	41773.86
662.708	41812.95
663.059	41751.49
663.409	41623.13
663.76	42005.27
664.11	41866.51
664.461	41865.38
664.811	41854.54
665.161	41689.34
665.511	41657.7
665.862	41753.29
666.212	41747.65
666.562	41878.26
666.912	41704.26
667.262	41670.59
667.612	41639.63
667.962	41647.08
668.312	41568.21
668.662	41871.26
669.011	41787.87
669.361	41854.31
669.711	41729.79
670.06	41496.58
670.41	41537.03
670.76	41509.91
671.109	41737.7
671.459	41697.93
671.808	41501.32
672.157	41735.67
672.507	41331.38
672.856	41438.73
673.205	41509.46
673.554	41539.06
673.904	41456.35
674.253	41730.7
674.602	41390.59
674.951	40872.19
675.3	40810.04
675.649	41339.52
675.998	41318.73
676.346	41344.94
676.695	41440.76
677.044	41115.12
677.393	41173.88
677.741	41492.74
678.09	41111.05
678.438	41173.65
678.787	41112.63
679.135	41241.67
679.484	40960.1
679.832	41116.25
680.181	40870.61
680.529	40961.68
680.877	40834.67
681.225	40745.19
681.573	41169.36
681.922	40709.93
682.27	40565.76
682.618	40689.59
682.966	40462.93
683.314	40593.55
683.661	40540.67
684.009	40496.6
684.357	40242.37
684.705	40151.75
685.053	40333.9
685.4	40261.81
685.748	40113.11
686.095	40050.97
686.443	40011.42
686.79	39849.16
687.138	39916.73
687.485	39926.45
687.832	39908.82
688.18	39704.76
688.527	39476.74
688.874	39507.25
689.221	39439.46
689.568	39491.66
689.915	39320.82
690.262	39248.73
690.609	39328.73
690.956	39020.94
691.303	38960.37
691.65	38874.5
691.997	38866.59
692.344	38619.59
692.69	38619.82
693.037	38596.77
693.383	38419.37
693.73	38538.46
694.077	38212.14
694.423	38149.32
694.769	38033.17
695.116	38079.72
695.462	37948.65
695.808	37898.93
696.155	37926.95
696.501	37646.06
696.847	37739.84
697.193	37362
697.539	37555.21
697.885	37315.9
698.231	37228.89
698.577	37175.56
698.923	37195.67
699.269	36979.18
699.614	36810.83
699.96	36700.32
700.306	36853.76
700.651	36515.01
700.997	36509.14
701.342	36509.59
701.688	36269.6
702.033	36305.98
702.379	36227.11
702.724	36089.71
703.069	36147.57
703.415	35880
703.76	35727.69
704.105	35796.16
704.45	35654.02
704.795	35674.36
705.14	35626
705.485	35410.86
705.83	35284.54
706.175	35272.11
706.52	35169.06
706.865	35094.26
707.209	35107.14
707.554	34916.86
707.899	35008.84
708.243	34914.38
708.588	34750.99
708.932	34701.05
709.277	34541.28
709.621	34546.03
709.966	34283.21
710.31	34528.17
710.654	34263.1
710.998	34198.69
711.342	34234.85
711.687	34144.68
712.031	33974.97
712.375	33906.72
712.719	33987.85
713.063	33812.26
713.407	33802.54
713.75	33531.59
714.094	33635.09
714.438	33613.4
714.782	33477.35
715.125	33518.48
715.469	33448.88
715.812	33267.42
716.156	33038.5
716.499	33094.99
716.843	33197.36
717.186	32906.75
717.53	33066.74
717.873	33110.81
718.216	32972.51
718.559	32818.39
718.902	32644.38
719.246	32771.38
719.589	32708.56
719.932	32509.7
720.275	32596.93
720.617	32509.7
720.96	32327.78
721.303	32440.32
721.646	32398.06
721.989	32091.85
722.331	32285.97
722.674	32103.83
723.016	32290.04
723.359	32189.03
723.701	32122.81
724.044	31987.22
724.386	31826.78
724.729	31933.67
725.071	31858.64
725.413	31794.91
725.755	31719.43
726.097	31704.07
726.439	31486.9
726.782	31540.23
727.124	31712.43
727.465	31555.14
727.807	31500.91
728.149	31372.1
728.491	31284.19
728.833	31347.92
729.175	31209.39
729.516	31198.54
729.858	31233.12
730.199	31161.03
730.541	31062.28
730.882	30901.38
731.224	31089.17
731.565	30926.91
731.906	30804.66
732.248	30885.11
732.589	30740.93
732.93	30514.04
733.271	30657.09
733.612	30661.61
733.953	30653.25
734.294	30622.51
734.635	30354.05
734.976	30567.15
735.317	30382.29
735.658	30307.72
735.999	30227.04
736.339	30247.38
736.68	30213.71
737.021	30298.45
737.361	29942.08
737.702	30223.65
738.042	30084.22
738.383	30006.71
738.723	30024.79
739.063	30017.33
739.404	30093.49
739.744	29860.95
740.084	29775.53
740.424	29798.81
740.764	29698.7
741.104	29896.21
741.444	29652.82
741.784	29545.48
742.124	29662.54
742.464	29597.91
742.804	29568.08
743.143	29536.89
743.483	29523.33
743.823	29335.32
744.162	29309.78
744.502	29448.53
744.841	29343.9
745.181	29358.14
745.52	29287.18
745.86	29247.41
746.199	29207.18
746.538	29159.28
746.877	29193.17
747.216	29236.79
747.556	28993.86
747.895	29058.49
748.234	28911.15
748.573	28948.21
748.911	28909.79
749.25	28817.14
749.589	28878.61
749.928	28751.83
750.267	28763.81
750.605	28617.82
750.944	28562.23
751.283	28519.74
751.621	28482.91
751.96	28377.6
752.298	28451.05
752.636	28437.49
752.975	28269.36
753.313	28173.31
753.651	28295.12
753.989	28023.03
754.327	28003.15
754.666	27922.92
755.004	27940.32
755.342	27955.69
755.679	27832.98
756.017	27851.29
756.355	27898.29
756.693	27680.44
757.031	27660.11
757.368	27602.93
757.706	27475.7
758.044	27525.87
758.381	27411.75
758.719	27317.97
759.056	27413.56
759.394	27230.51
759.731	27093.34
760.068	27076.84
760.405	26884.76
760.743	26859
761.08	26937.41
761.417	26753.46
761.754	26701.71
762.091	26605.9
762.428	26551.43
762.765	26455.17
763.102	26560.93
763.438	26305.57
763.775	26156.87
764.112	26275.96
764.449	26191.67
764.785	26080.71
765.122	25834.62
765.458	25778.57
765.795	25681.4
766.131	25802.98
766.467	25563.66
766.804	25600.95
767.14	25292.71
767.476	25343.78
767.812	25302.2
768.148	25302.88
768.485	25211.58
768.821	25035.32
769.157	24979.5
769.492	24958.93
769.828	24909.9
770.164	24734.31
770.5	24538.61
770.836	24645.5
771.171	24486.4
771.507	24373.64
771.842	24236.47
772.178	24289.57
772.513	24125.96
772.849	24178.16
773.184	24013.87
773.519	23988.34
773.855	23895.01
774.19	23805.74
774.525	23733.43
774.86	23711.96
775.195	23534.56
775.53	23555.58
775.865	23401.46
776.2	23208.02
776.535	23085.09
776.87	23076.27
777.205	23036.72
777.539	22937.74
777.874	22923.96
778.209	22813.68
778.543	22716.28
778.878	22623.85
779.212	22579.56
779.547	22453.24
779.881	22505.89
780.215	22314.26
780.55	22269.51
780.884	22097.54
781.218	22116.07
781.552	22145
781.886	21954.49
782.22	21804.89
782.554	21828.85
782.888	21631.11
783.222	21553.15
783.556	21359.03
783.889	21386.82
784.223	21169.2
784.557	21232.7
784.89	21238.58
785.224	21076.32
785.557	20923.79
785.891	20863.9
786.224	20931.24
786.558	20927.18
786.891	20791.59
787.224	20582.33
787.557	20565.6
787.891	20586.62
788.224	20483.57
788.557	20456
788.89	20479.96
789.223	20441.54
789.556	20167.2
789.888	20065.5
790.221	20125.16
790.554	19964.49
790.887	19884.27
791.219	19911.38
791.552	19850.82
791.884	19601.33
792.217	19639.07
792.549	19516.82
792.882	19374.45
793.214	19361.57
793.546	19390.04
793.879	19216.26
794.211	19141.01
794.543	19226.88
794.875	19082.25
795.207	19142.14
795.539	19062.14
795.871	19012.88
796.203	18868.92
796.535	18739.66
796.867	18700.34
797.198	18612.21
797.53	18678.2
797.862	18567.24
798.193	18546.22
798.525	18483.4
798.856	18502.61
799.188	18301.71
799.519	18249.96
799.85	18087.02
800.182	18161.15
800.513	18178.32
800.844	18053.8
801.175	18069.85
801.506	17960.93
801.837	17913.02
802.168	17780.82
802.499	17790.76
802.83	17696.3
803.161	17709.41
803.491	17531.33
803.822	17626.25
804.153	17477.1
804.483	17424.44
804.814	17339.02
805.145	17365.91
805.475	17329.98
805.805	17267.61
806.136	17285.69
806.466	17212.02
806.796	17184.22
807.126	16979.48
807.457	17007.73
807.787	17023.78
808.117	16910.78
808.447	16835.08
808.777	16910.11
809.107	16753.05
809.436	16767.06
809.766	16702.43
810.096	16649.55
810.426	16503.79
810.755	16532.72
811.085	16524.58
811.414	16433.73
811.744	16337.24
812.073	16304.7
812.403	16306.28
812.732	16255.21
813.061	16262.44
813.39	16157.81
813.719	16078.49
814.049	16198.49
814.378	16136.12
814.707	16034.65
815.036	15962.33
815.365	15841.66
815.693	15797.37
816.022	15786.29
816.351	15760.76
816.68	15700.42
817.008	15751.94
817.337	15593.98
817.665	15545.85
817.994	15544.94
818.322	15527.77
818.651	15494.55
818.979	15436.02
819.307	15508.34
819.636	15444.38
819.964	15287.78
820.292	15326.19
820.62	15318.96
820.948	15253.2
821.276	15316.25
821.604	15248.68
821.932	15382.91
822.259	15288.68
822.587	15290.49
822.915	15159.19
823.243	15278.74
823.57	15278.06
823.898	15180.21
824.225	15203.48
824.553	15137.95
824.88	15187.67
825.207	15273.99
825.535	15182.92
825.862	15271.96
826.189	15150.15
826.516	15259.98
826.843	15229.7
827.17	15219.3
827.497	15257.27
827.824	15250.71
828.151	15289.13
828.478	15172.75
828.805	15324.39
829.131	15170.04
829.458	15204.84
829.785	15098.85
830.111	15134.33
830.438	15230.15
830.764	15204.61
831.09	15166.2
831.417	15115.58
831.743	15239.64
832.069	15139.53
832.395	15146.54
832.722	15149.93
833.048	15080.32
833.374	15066.54
833.7	14951.97
834.026	14975.92
834.351	15030.38
834.677	15017.73
835.003	15070.38
835.329	15089.36
835.654	14887.11
835.98	14969.82
836.306	14953.32
836.631	14833.32
836.956	14982.02
837.282	14888.92
837.607	14809.37
837.932	14775.02
838.258	14776.6
838.583	14708.81
838.908	14676.27
839.233	14691.41
839.558	14721.92
839.883	14608.02
840.208	14547.68
840.533	14502.49
840.858	14521.47
841.182	14530.51
841.507	14577.06
841.832	14446.22
842.156	14497.06
842.481	14441.7
842.805	14371.42
843.13	14345.88
843.454	14335.71
843.778	14272.44
844.103	14187.92
844.427	14207.58
844.751	14215.94
845.075	14126.45
845.399	14104.53
845.723	14027.7
846.047	14085.1
846.371	13932.78
846.695	13968.71
847.019	13861.6
847.343	13716.97
847.666	13657.99
847.99	13734.37
848.313	13675.39
848.637	13604.43
848.96	13547.26
849.284	13514.04
849.607	13415.28
849.931	13422.06
850.254	13230.43
850.577	13267.04
850.9	13149.3
851.223	13140.49
851.546	13050.55
851.869	12983.43
852.192	13003.32
852.515	12827.5
852.838	12884.22
853.161	12829.54
853.483	12821.17
853.806	12679.48
854.129	12650.56
854.451	12637.9
854.774	12606.26
855.096	12496.44
855.419	12500.73
855.741	12464.8
856.063	12403.56
856.385	12371.92
856.708	12258.7
857.03	12278.82
857.352	12285.37
857.674	12218.7
857.996	12206.73
858.318	12089.89
858.64	12095.77
858.961	12118.82
859.283	12034.08
859.605	12074.75
859.926	12025.04
860.248	12005.6
860.57	11877.92
860.891	11919.05
861.212	11868.43
861.534	11873.63
861.855	11793.4
862.176	11804.25
862.498	11806.74
862.819	11709.79
863.14	11694.65
863.461	11771.71
863.782	11650.13
864.103	11690.36
864.424	11625.05
864.745	11645.84
865.065	11586.18
865.386	11577.59
865.707	11594.99
866.027	11556.35
866.348	11517.03
866.668	11540.98
866.989	11470.02
867.309	11452.62
867.63	11371.95
867.95	11480.87
868.27	11357.03
868.59	11332.17
868.91	11300.31
869.23	11281.78
869.55	11258.73
869.87	11290.82
870.19	11326.3
870.51	11190.71
870.83	11226.19
871.15	11131.05
871.469	11142.8
871.789	11149.13
872.109	11188.45
872.428	11134.89
872.748	11194.78
873.067	11195.91
873.386	11107.77
873.706	11035.68
874.025	10963.14
874.344	11012.18
874.663	10988.91
874.982	10993.88
875.301	11011.28
875.62	10967.66
875.939	10903.71
876.258	10934.44
876.577	10799.76
876.896	10889.02
877.214	10853.09
877.533	10873.88
877.852	10808.12
878.17	10743.49
878.489	10760.21
878.807	10803.83
879.125	10756.6
879.444	10761.79
879.762	10747.56
880.08	10684.06
880.398	10666.65
880.716	10662.59
881.034	10701.46
881.352	10647.9
881.67	10573.32
881.988	10573.55
882.306	10510.73
882.624	10461.46
882.941	10483.83
883.259	10500.33
883.577	10411.07
883.894	10398.86
884.212	10399.09
884.529	10380.56
884.846	10348.02
885.164	10317.51
885.481	10275.48
885.798	10295.82
886.115	10247.68
886.432	10227.12
886.75	10155.71
887.067	10180.57
887.383	10166.55
887.7	10154.58
888.017	10046.78
888.334	10070.29
888.651	10041.81
888.967	10023.51
889.284	9968.59
889.6	9955.03
889.917	9918.43
890.233	9934.92
890.55	9804.08
890.866	9887.92
891.182	9783.51
891.498	9853.79
891.815	9814.47
892.131	9734.02
892.447	9695.61
892.763	9666.23
893.079	9646.79
893.395	9613.12
893.71	9642.5
894.026	9555.05
894.342	9592.33
894.657	9498.55
894.973	9581.03
895.289	9462.17
895.604	9422.17
895.92	9381.04
896.235	9386.69
896.55	9350.08
896.865	9231.89
897.181	9250.87
897.496	9319.8
897.811	9192.12
898.126	9176.98
898.441	9170.65
898.756	9178.11
899.071	9122.06
899.386	9074.38
899.7	8994.83
900.015	8976.3
900.33	8894.27
900.644	8889.75
900.959	8938.34
901.273	8805.91
901.588	8855.4
901.902	8766.82
902.216	8759.36
902.531	8731.79
902.845	8723.88
903.159	8629.65
903.473	8605.47
903.787	8548.74
904.101	8591.91
904.415	8579.93
904.729	8516.65
905.042	8443.21
905.356	8446.6
905.67	8385.13
905.984	8408.41
906.297	8379.26
906.611	8271.01
906.924	8301.74
907.237	8286.83
907.551	8249.77
907.864	8196.66
908.177	8179.26
908.491	8128.42
908.804	8079.83
909.117	8042.99
909.43	7999.38
909.743	8014.07
910.056	8011.81
910.368	7872.83
910.681	7933.39
910.994	7903.56
911.307	7856.56
911.619	7743.79
911.932	7812.04
912.244	7703.12
912.557	7680.07
912.869	7641.65
913.181	7642.55
913.494	7667.19
913.806	7547.19
914.118	7564.14
914.43	7487.08
914.742	7490.01
915.054	7410.69
915.366	7414.99
915.678	7400.98
915.99	7304.26
916.302	7321.43
916.613	7291.15
916.925	7316.23
917.236	7299.06
917.548	7149.68
917.859	7222.9
918.171	7140.42
918.482	7083.7
918.794	7110.36
919.105	7104.04
919.416	7024.72
919.727	7110.14
920.038	6993.08
920.349	6914.66
920.66	6942.46
920.971	6869.92
921.282	6895.68
921.593	6790.37
921.903	6779.53
922.214	6793.54
922.525	6741.33
922.835	6731.16
923.146	6717.83
923.456	6645.07
923.767	6628.57
924.077	6672.41
924.387	6609.36
924.697	6521
925.008	6499.08
925.318	6504.05
925.628	6491.85
925.938	6481.23
926.248	6419.76
926.558	6363.26
926.867	6360.55
927.177	6305.41
927.487	6309.71
927.796	6298.18
928.106	6232.42
928.416	6244.85
928.725	6166.89
929.034	6107.23
929.344	6089.83
929.653	6129.37
929.962	6023.84
930.271	6043.05
930.581	6029.49
930.89	6036.95
931.199	5955.82
931.508	5906.1
931.817	5874.24
932.125	5940.9
932.434	5885.99
932.743	5850.28
933.051	5817.74
933.36	5812.32
933.669	5793.56
933.977	5737.97
934.286	5743.62
934.594	5681.93
934.902	5649.61
935.21	5639.67
935.519	5619.33
935.827	5674.24
936.135	5586.11
936.443	5537.3
936.751	5550.63
937.059	5553.79
937.367	5499.33
937.674	5497.52
937.982	5489.39
938.29	5408.04
938.597	5417.53
938.905	5370.52
939.213	5377.53
939.52	5365.55
939.827	5377.53
940.135	5293.69
940.442	5265.44
940.749	5276.74
941.056	5235.38
941.363	5194.71
941.67	5186.35
941.977	5175.27
942.284	5109.06
942.591	5119.46
942.898	5089.17
943.205	5073.36
943.511	5086.46
943.818	5024.54
944.125	5027.03
944.431	5017.31
944.738	4999.68
945.044	4960.14
945.35	4955.17
945.657	4886.02
945.963	4844.66
946.269	4836.75
946.575	4826.58
946.881	4779.13
947.187	4799.46
947.493	4756.3
947.799	4749.07
948.105	4726.7
948.41	4654.61
948.716	4697.09
949.022	4646.7
949.327	4667.26
949.633	4580.26
949.938	4558.34
950.244	4576.42
950.549	4557.44
950.854	4549.53
951.16	4486.48
951.465	4503.2
951.77	4446.71
952.075	4465.91
952.38	4399.93
952.685	4430.21
952.99	4404.67
953.294	4341.62
953.599	4307.95
953.904	4355.63
954.209	4299.59
954.513	4322.64
954.818	4297.56
955.122	4250.55
955.426	4228.86
955.731	4233.83
956.035	4196.77
956.339	4192.47
956.643	4182.53
956.948	4156.09
957.252	4124.23
957.556	4161.29
957.86	4127.17
958.163	4100.5
958.467	4089.43
958.771	4065.92
959.075	4060.95
959.378	4031.12
959.682	3997.68
959.985	3985.25
960.289	3977.79
960.592	3982.76
960.896	3938.24
961.199	3921.75
961.502	3912.71
961.805	3881.52
962.108	3839.04
962.411	3856.89
962.714	3832.94
963.017	3796.1
963.32	3814.63
963.623	3768.76
963.926	3803.11
964.228	3765.14
964.531	3744.8
964.833	3743.22
965.136	3673.39
965.438	3685.37
965.741	3655.99
966.043	3674.75
966.345	3637.69
966.648	3658.7
966.95	3615.09
967.252	3633.62
967.554	3548.65
967.856	3582.55
968.158	3521.98
968.46	3503.23
968.761	3557.24
969.063	3504.13
969.365	3456.67
969.666	3493.06
969.968	3447.64
970.269	3441.08
970.571	3441.31
970.872	3411.48
971.174	3406.73
971.475	3401.08
971.776	3357.47
972.077	3328.77
972.378	3331.25
972.679	3291.03
972.98	3313.85
973.281	3321.31
973.582	3292.84
973.883	3269.79
974.183	3252.84
974.484	3203.35
974.785	3234.53
975.085	3237.02
975.386	3180.75
975.686	3150.24
975.986	3196.12
976.287	3159.06
976.587	3128.77
976.887	3155.67
977.187	3136.23
977.487	3092.16
977.787	3094.88
978.087	3099.85
978.387	3039.51
978.687	3086.97
978.987	3024.6
979.286	3014.43
979.586	2971.04
979.885	2958.38
980.185	2933.07
980.484	2944.15
980.784	2977.14
981.083	2928.55
981.382	2928.1
981.682	2900.08
981.981	2858.95
982.28	2887.65
982.579	2887.2
982.878	2878.38
983.177	2831.15
983.475	2866.86
983.774	2825.28
984.073	2820.08
984.372	2765.17
984.67	2765.62
984.969	2778.27
985.267	2735.34
985.566	2750.25
985.864	2688.79
986.162	2710.03
986.461	2710.03
986.759	2719.74
987.057	2691.05
987.355	2682.91
987.653	2599.97
987.951	2675.23
988.249	2625.06
988.547	2626.19
988.844	2645.4
989.142	2602.91
989.44	2581.9
989.737	2544.83
990.035	2568.79
990.332	2565.85
990.63	2488.56
990.927	2511.39
991.224	2515.46
991.521	2523.37
991.819	2513.65
992.116	2491.5
992.413	2455.35
992.71	2438.17
993.006	2416.48
993.303	2428.91
993.6	2432.29
993.897	2413.76
994.193	2423.26
994.49	2404.72
994.787	2364.95
995.083	2367.66
995.379	2382.58
995.676	2349.59
995.972	2319.3
996.268	2332.18
996.565	2315.91
996.861	2296.03
997.157	2279.3
997.453	2302.58
997.749	2251.73
998.044	2264.16
998.34	2283.15
998.636	2237.95
998.932	2205.18
999.227	2214.9
999.523	2185.97
999.818	2176.26
1000.114	2146.2
1000.409	2193.21
1000.704	2134.22
1001	2145.3
1001.295	2104.62
1001.59	2110.5
1001.885	2130.83
1002.18	2134.45
1002.475	2071.17
1002.77	2055.13
1003.065	2036.6
1003.359	2034.79
1003.654	2034.57
1003.949	2046.54
1004.243	2014.68
1004.538	2000.89
1004.832	2005.19
1005.127	1976.04
1005.421	2001.8
1005.715	1950.5
1006.009	1922.48
1006.304	1934.23
1006.598	1930.16
1006.892	1921.57
1007.186	1906.21
1007.48	1912.99
1007.773	1914.34
1008.067	1863.95
1008.361	1878.64
1008.655	1847.45
1008.948	1877.73
1009.242	1820.56
1009.535	1806.55
1009.829	1824.18
1010.122	1782.59
1010.415	1809.94
1010.708	1786.21
1011.001	1774.01
1011.295	1770.39
1011.588	1745.08
1011.881	1701.92
1012.173	1714.12
1012.466	1729.26
1012.759	1721.58
1013.052	1690.17
1013.344	1700.11
1013.637	1701.01
1013.93	1654.01
1014.222	1678.42
1014.514	1677.29
1014.807	1653.11
1015.099	1618.3
1015.391	1631.19
1015.683	1636.16
1015.976	1604.97
1016.268	1601.36
1016.56	1578.98
1016.851	1573.33
1017.143	1569.94
1017.435	1551.87
1017.727	1562.94
1018.018	1564.52
1018.31	1519.55
1018.602	1530.85
1018.893	1513.9
1019.185	1515.03
1019.476	1480.91
1019.767	1483.39
1020.058	1467.57
1020.35	1455.6
1020.641	1456.95
1020.932	1449.95
1021.223	1409.04
1021.514	1409.95
1021.804	1406.33
1022.095	1413.79
1022.386	1408.82
1022.677	1359.78
1022.967	1378.99
1023.258	1362.04
1023.548	1343.28
1023.839	1335.83
1024.129	1353.91
1024.419	1342.15
1024.709	1323.4
1025	1329.95
1025.29	1307.35
1025.58	1310.06
1025.87	1267.35
1026.16	1293.12
1026.449	1269.39
1026.739	1274.36
1027.029	1262.83
1027.319	1263.06
1027.608	1263.51
1027.898	1240.91
1028.187	1197.3
1028.477	1216.28
1028.766	1221.71
1029.055	1182.61
1029.344	1214.25
1029.634	1181.93
1029.923	1186.9
1030.212	1143.97
1030.501	1160.46
1030.79	1151.65
1031.078	1151.2
1031.367	1134.25
1031.656	1128.83
1031.945	1129.5
1032.233	1129.96
1032.522	1119.11
1032.81	1113.91
1033.099	1132.67
1033.387	1081.82
1033.675	1074.59
1033.963	1074.14
1034.251	1070.3
1034.54	1049.05
1034.828	1037.76
1035.116	1057.64
1035.403	1050.41
1035.691	1038.66
1035.979	1052.9
1036.267	1018.32
1036.554	1003.41
1036.842	983.97
1037.129	1001.37
1037.417	990.07
1037.704	977.87
1037.992	982.16
1038.279	998.21
1038.566	959.11
1038.853	959.11
1039.14	959.11
