Data from hue_180_FLMS001491_00025.txt Node
Date: Tue Feb 07 16:46:46 GMT 2017
User: dcchb
Spectrometer: FLMS00149
Trigger mode: 0
Integration Time (sec): 2.000000E-2
Scans to average: 10
Electric dark correction enabled: true
Nonlinearity correction enabled: false
Boxcar width: 0
XAxis mode: Wavelengths
Number of Pixels in Spectrum: 2048
>>>>>Begin Spectral Data<<<<<
341.393	-8.08
341.776	-8.08
342.16	-8.08
342.543	-57.34
342.927	-68.87
343.31	-77.68
343.693	-65.25
344.077	-53.5
344.46	-65.03
344.843	-60.73
345.226	-42.43
345.61	-34.74
345.993	-29.55
346.376	-17.8
346.759	10.45
347.142	29.66
347.525	46.61
347.908	69.21
348.291	72.37
348.674	87.06
349.057	131.35
349.44	127.51
349.823	142.2
350.206	165.48
350.588	203.67
350.971	217.23
351.354	212.03
351.737	220.39
352.119	233.72
352.502	252.48
352.884	263.78
353.267	242.54
353.65	288.41
354.032	302.2
354.414	299.03
354.797	320.95
355.179	315.75
355.562	331.57
355.944	325.92
356.326	333.38
356.709	317.34
357.091	326.38
357.473	325.92
357.855	328.41
358.238	348.3
358.62	322.76
359.002	333.61
359.384	341.52
359.766	337.45
360.148	337.9
360.53	338.58
360.912	337.67
361.294	327.51
361.676	330.9
362.057	339.48
362.439	309.43
362.821	314.85
363.203	329.77
363.584	335.19
363.966	318.92
364.348	325.7
364.729	322.08
365.111	302.42
365.493	319.82
365.874	323.21
366.256	299.71
366.637	314.17
367.019	324.34
367.4	301.07
367.781	308.97
368.163	306.04
368.544	319.14
368.925	304.68
369.306	303.33
369.688	297.68
370.069	315.75
370.45	331.57
370.831	313.95
371.212	325.02
371.593	302.42
371.974	306.26
372.355	298.58
372.736	308.97
373.117	308.52
373.498	320.05
373.879	308.52
374.26	303.33
374.641	294.51
375.021	313.27
375.402	315.53
375.783	326.6
376.163	324.12
376.544	334.96
376.925	306.26
377.305	321.4
377.686	329.77
378.066	301.52
378.447	329.54
378.827	329.54
379.208	318.01
379.588	321.4
379.968	301.07
380.349	312.59
380.729	315.08
381.109	334.06
381.489	341.06
381.87	338.13
382.25	336.09
382.63	341.29
383.01	332.25
383.39	331.35
383.77	334.28
384.15	342.42
384.53	334.74
384.91	337.45
385.29	355.53
385.67	350.56
386.049	343.1
386.429	330.9
386.809	333.38
387.189	345.36
387.568	319.14
387.948	350.1
388.328	349.2
388.707	357.79
389.087	359.6
389.466	365.92
389.846	333.38
390.225	377.22
390.605	361.18
390.984	364.34
391.363	347.84
391.743	353.04
392.122	354.85
392.501	345.36
392.881	371.57
393.26	380.84
393.639	360.95
394.018	356.88
394.397	362.98
394.776	359.82
395.155	386.71
395.534	404.34
395.913	365.92
396.292	364.11
396.671	380.16
397.05	381.97
397.429	403.89
397.808	389.88
398.186	391.23
398.565	392.14
398.944	387.39
399.323	382.42
399.701	399.82
400.08	382.19
400.458	419.71
400.837	413.15
401.215	383.55
401.594	413.15
401.972	414.51
402.351	376.54
402.729	414.06
403.107	404.11
403.486	414.73
403.864	418.58
404.242	415.41
404.62	434.17
404.999	417.67
405.377	426.71
405.755	431.01
406.133	428.52
406.511	446.6
406.889	449.08
407.267	433.94
407.645	456.54
408.023	454.96
408.401	455.19
408.779	476.43
409.156	507.16
409.534	479.37
409.912	497.22
410.29	489.31
410.667	485.02
411.045	514.62
411.422	518.69
411.8	501.29
412.178	525.92
412.555	539.03
412.933	528.63
413.31	530.44
413.687	560.72
414.065	548.52
414.442	547.61
414.819	556.65
415.197	561.62
415.574	610.44
415.951	585.13
416.328	606.37
416.705	599.14
417.082	623.99
417.46	638.68
417.837	623.77
418.214	629.42
418.591	658.57
418.967	641.4
419.344	670.32
419.721	661.06
420.098	662.86
420.475	678.68
420.852	688.63
421.228	685.24
421.605	708.06
421.982	713.48
422.358	725.24
422.735	732.47
423.111	746.03
423.488	750.55
423.864	755.06
424.241	756.87
424.617	773.6
424.994	776.76
425.37	815.18
425.746	811.33
426.123	822.18
426.499	805.69
426.875	842.75
427.251	854.05
427.627	858.79
428.003	903.54
428.379	906.7
428.756	893.14
429.132	923.2
429.507	935.63
429.883	928.62
430.259	934.04
430.635	971.78
431.011	957.09
431.387	993.7
431.763	998.67
432.138	1008.17
432.514	1022.18
432.89	999.13
433.265	1022.18
433.641	1062.85
434.016	1084.77
434.392	1082.97
434.767	1136.52
435.143	1134.94
435.518	1139.01
435.894	1162.96
436.269	1176.52
436.644	1198.67
437.02	1202.51
437.395	1208.16
437.77	1249.97
438.145	1257.88
438.52	1282.96
438.895	1302.4
439.271	1308.72
439.646	1352.11
440.021	1370.42
440.395	1361.15
440.77	1352.56
441.145	1390.53
441.52	1417.65
441.895	1414.48
442.27	1437.76
442.645	1443.18
443.019	1464.2
443.394	1481.37
443.769	1502.16
444.143	1494.71
444.518	1517.53
444.892	1545.55
445.267	1536.29
445.641	1580.35
446.016	1557.98
446.39	1562.95
446.764	1591.43
447.139	1604.31
447.513	1623.97
447.887	1604.31
448.262	1637.98
448.636	1650.41
449.01	1668.04
449.384	1691.76
449.758	1683.85
450.132	1680.69
450.506	1702.16
450.88	1750.07
451.254	1765.21
451.628	1784.87
452.002	1820.12
452.376	1787.13
452.75	1810.4
453.123	1847.92
453.497	1883.62
453.871	1917.07
454.244	1913.23
454.618	1920.23
454.992	1939.44
455.365	1934.47
455.739	1977.18
456.112	2071.41
456.486	2050.62
456.859	2071.87
457.232	2093.33
457.606	2112.32
457.979	2145.76
458.352	2180.11
458.725	2194.58
459.099	2237.74
459.472	2277.28
459.845	2255.59
460.218	2269.15
460.591	2292.88
460.964	2342.59
461.337	2410.39
461.71	2435.7
462.083	2474.79
462.456	2484.06
462.829	2466.21
463.201	2550.95
463.574	2537.62
463.947	2541.68
464.32	2657.39
464.692	2685.41
465.065	2675.69
465.438	2715.01
465.81	2774.22
466.183	2836.59
466.555	2873.43
466.928	2888.34
467.3	2880.88
467.672	2962.92
468.045	3057.38
468.417	3002.01
468.789	3081.11
469.161	3125.85
469.534	3140.31
469.906	3247.2
470.278	3243.81
470.65	3296.47
471.022	3372.62
471.394	3410.14
471.766	3450.36
472.138	3540.53
472.51	3591.37
472.882	3663.46
473.253	3703.46
473.625	3743.69
473.997	3891.03
474.369	3932.83
474.74	3939.84
475.112	4016.22
475.484	4069.78
475.855	4158.37
476.227	4181.42
476.598	4354.97
476.97	4404.91
477.341	4483.1
477.713	4592.25
478.084	4612.36
478.455	4738.69
478.827	4767.39
479.198	4922.86
479.569	5024.33
479.94	5121.73
480.311	5174.16
480.682	5323.98
481.053	5434.49
481.424	5518.56
481.795	5582.96
482.166	5676.29
482.537	5776.63
482.908	5947.7
483.279	5991.09
483.65	6104.98
484.021	6201.93
484.391	6301.36
484.762	6460.68
485.133	6420.23
485.503	6552.65
485.874	6753.55
486.244	6834.45
486.615	6942.25
486.985	6986.09
487.356	7209.13
487.726	7253.88
488.097	7426.08
488.467	7453.19
488.837	7615
489.207	7712.17
489.578	7859.06
489.948	7899.28
490.318	8062.44
490.688	8029
491.058	8239.61
491.428	8393.96
491.798	8403.9
492.168	8582.43
492.538	8686.83
492.908	8734.06
493.278	8831.69
493.648	8835.76
494.017	9000.27
494.387	9114.85
494.757	9221.28
495.126	9305.12
495.496	9231.68
495.866	9381.5
496.235	9393.26
496.605	9568.39
496.974	9534.5
497.344	9694.94
497.713	9772.68
498.082	9806.58
498.452	9888.38
498.821	9917.76
499.19	9987.36
499.559	10102.84
499.928	10074.37
500.298	10148.94
500.667	10204.76
501.036	10195.95
501.405	10326.11
501.774	10352.33
502.143	10412.66
502.512	10376.28
502.88	10494.47
503.249	10510.51
503.618	10565.2
503.987	10608.14
504.356	10600.68
504.724	10636.39
505.093	10653.79
505.462	10759.55
505.83	10800.45
506.199	10833.44
506.567	10900.79
506.936	10894.91
507.304	11048.13
507.672	11068.24
508.041	11043.38
508.409	11141.91
508.777	11210.16
509.145	11211.29
509.514	11234.79
509.882	11248.12
510.25	11216.48
510.618	11280.44
510.986	11300.1
511.354	11374.22
511.722	11392.53
512.09	11433.88
512.458	11370.15
512.826	11421.23
513.193	11451.73
513.561	11493.54
513.929	11555.23
514.297	11641.78
514.664	11597.94
515.032	11571.05
515.4	11693.53
515.767	11709.13
516.135	11696.47
516.502	11613.76
516.869	11742.8
517.237	11743.02
517.604	11689.24
517.972	11783.48
518.339	11703.7
518.706	11645.17
519.073	11774.44
519.44	11822.8
519.808	11836.81
520.175	11728.34
520.542	11867.09
520.909	11879.07
521.276	11856.47
521.643	11905.96
522.009	11913.42
522.376	11963.13
522.743	11936.69
523.11	11943.92
523.477	12028.21
523.843	12008.55
524.21	12097.37
524.577	12090.13
524.943	12135.33
525.31	12186.18
525.676	12140.98
526.043	12158.15
526.409	12076.8
526.776	12163.35
527.142	12145.95
527.508	12172.84
527.874	12284.25
528.241	12081.32
528.607	12071.38
528.973	12204.93
529.339	12127.65
529.705	12171.71
530.071	12211.94
530.437	12159.06
530.803	12165.39
531.169	12123.58
531.535	12050.14
531.901	12046.52
532.267	12005.62
532.632	12042.45
532.998	12009.68
533.364	11986.63
533.73	11945.51
534.095	11984.37
534.461	11933.08
534.826	11941.44
535.192	11976.01
535.557	11931.04
535.923	11779.63
536.288	11826.41
536.653	11825.28
537.019	11652.63
537.384	11650.37
537.749	11653.76
538.114	11638.62
538.479	11509.81
538.845	11546.65
539.21	11422.58
539.575	11453.99
539.94	11378.97
540.305	11373.09
540.67	11396.14
541.034	11301
541.399	11233.43
541.764	11187.11
542.129	11189.14
542.494	11139.65
542.858	11141.23
543.223	11146.43
543.587	11143.72
543.952	11006.55
544.316	10966.32
544.681	10899.88
545.045	10884.52
545.41	10838.64
545.774	10837.29
546.138	10822.6
546.503	10695.14
546.867	10669.38
547.231	10677.97
547.595	10616.73
547.959	10536.95
548.324	10543.06
548.688	10413.12
549.052	10445.88
549.416	10394.59
549.779	10358.65
550.143	10357.3
550.507	10347.81
550.871	10284.53
551.235	10213.12
551.599	10213.35
551.962	10180.81
552.326	10115.04
552.689	10081.6
553.053	10075.05
553.417	10001.6
553.78	10066.23
554.143	9924.99
554.507	9953.24
554.87	9909.85
555.234	9913.69
555.597	9850.19
555.96	9892
556.323	9756.18
556.686	9735.85
557.05	9800.02
557.413	9757.54
557.776	9681.61
558.139	9743.76
558.502	9730.87
558.865	9572.91
559.228	9692.68
559.59	9624.66
559.953	9602.52
560.316	9675.51
560.679	9582.18
561.041	9640.25
561.404	9614.04
561.767	9613.14
562.129	9606.36
562.492	9601.39
562.854	9524.55
563.217	9562.06
563.579	9471.67
563.941	9525.68
564.304	9537.43
564.666	9508.73
565.028	9547.83
565.39	9531.78
565.753	9566.58
566.115	9587.15
566.477	9520.94
566.839	9504.44
567.201	9586.02
567.563	9543.08
567.925	9575.85
568.287	9535.85
568.648	9547.6
569.01	9510.77
569.372	9571.56
569.734	9511.67
570.095	9571.1
570.457	9582.86
570.819	9553.03
571.18	9523.65
571.542	9598.22
571.903	9552.8
572.265	9588.96
572.626	9619.92
572.987	9505.12
573.349	9563.65
573.71	9628.05
574.071	9562.97
574.432	9553.48
574.794	9586.25
575.155	9598
575.516	9508.28
575.877	9546.25
576.238	9527.26
576.599	9558.45
576.96	9543.99
577.32	9552.57
577.681	9588.5
578.042	9621.5
578.403	9559.81
578.763	9561.39
579.124	9584.66
579.485	9538.56
579.845	9538.34
580.206	9542.86
580.566	9533.59
580.927	9549.18
581.287	9517.32
581.648	9523.2
582.008	9520.94
582.368	9531.56
582.728	9489.52
583.089	9458.34
583.449	9431.9
583.809	9498.56
584.169	9430.77
584.529	9394.39
584.889	9449.07
585.249	9451.33
585.609	9419.92
585.969	9468.28
586.329	9445.91
586.688	9431.9
587.048	9388.28
587.408	9366.82
587.768	9356.42
588.127	9291.11
588.487	9251.56
588.846	9303.99
589.206	9261.28
589.565	9291.34
589.925	9338.57
590.284	9392.35
590.643	9295.18
591.003	9374.73
591.362	9315.07
591.721	9240.72
592.08	9244.79
592.44	9295.86
592.799	9270.77
593.158	9291.56
593.517	9234.16
593.876	9271.68
594.235	9227.61
594.593	9235.97
594.952	9202.75
595.311	9265.12
595.67	9191.91
596.029	9233.03
596.387	9237.55
596.746	9207.72
597.104	9236.2
597.463	9153.94
597.822	9196.65
598.18	9115.97
598.538	9145.58
598.897	9208.63
599.255	9130.89
599.613	9265.35
599.972	9145.13
600.33	9107.61
600.688	9102.19
601.046	9103.55
601.404	9245.01
601.762	9139.48
602.12	9140.16
602.478	9170.66
602.836	9168.18
603.194	9117.33
603.552	9120.72
603.91	9049.08
604.268	9136.77
604.625	9097.9
604.983	9121.4
605.341	9029.2
605.698	9094.96
606.056	9014.73
606.413	9036.66
606.771	9071.91
607.128	9112.36
607.485	9053.15
607.843	9038.46
608.2	9082.3
608.557	9147.16
608.914	9051.34
609.272	9145.8
609.629	9151.45
609.986	9224.45
610.343	9093.6
610.7	9200.27
611.057	9224.22
611.414	9146.03
611.771	9101.74
612.127	9156.2
612.484	9183.09
612.841	9208.63
613.198	9209.53
613.554	9197.55
613.911	9218.12
614.267	9226.48
614.624	9153.94
614.98	9219.93
615.337	9267.16
615.693	9253.37
616.05	9212.47
616.406	9257.89
616.762	9256.31
617.118	9228.74
617.475	9156.43
617.831	9232.58
618.187	9276.2
618.543	9252.47
618.899	9267.16
619.255	9221.28
619.611	9252.92
619.967	9233.26
620.323	9252.02
620.678	9277.1
621.034	9213.6
621.39	9252.02
621.746	9234.39
622.101	9311.45
622.457	9303.31
622.812	9278.23
623.168	9312.58
623.523	9292.24
623.879	9286.14
624.234	9280.72
624.589	9240.49
624.945	9298.57
625.3	9243.66
625.655	9264.9
626.01	9209.98
626.365	9249.08
626.72	9243.2
627.075	9276.65
627.43	9266.03
627.785	9241.62
628.14	9249.76
628.495	9235.07
628.85	9275.74
629.205	9202.3
629.559	9297.44
629.914	9181.74
630.269	9274.39
630.623	9215.41
630.978	9195.75
631.332	9162.75
631.687	9206.59
632.041	9149.19
632.396	9160.49
632.75	9155.52
633.104	9080.27
633.459	9036.43
633.813	9107.84
634.167	9084.34
634.521	9084.79
634.875	9068.74
635.229	9059.71
635.583	9006.37
635.937	9015.86
636.291	8977
636.645	8936.77
636.999	8982.65
637.352	9029.2
637.706	8973.15
638.06	9022.19
638.413	8957.56
638.767	8936.09
639.121	8942.87
639.474	8901.07
639.828	8916.21
640.181	8931.12
640.534	8959.59
640.888	8895.19
641.241	8845.93
641.594	8872.59
641.947	8891.8
642.301	8907.62
642.654	8923.21
643.007	8822.88
643.36	8876.21
643.713	8840.73
644.066	8885.92
644.419	8782.42
644.771	8724.8
645.124	8677.79
645.477	8655.2
645.83	8620.39
646.182	8562.54
646.535	8622.43
646.888	8647.51
647.24	8533.84
647.593	8589.89
647.945	8591.24
648.298	8535.88
648.65	8586.95
649.002	8515.09
649.355	8511.92
649.707	8523.67
650.059	8577.46
650.411	8701.52
650.763	8692.26
651.115	8802.99
651.467	8694.52
651.819	8751.01
652.171	8711.24
652.523	8712.14
652.875	8709.43
653.227	8709.43
653.578	8688.42
653.93	8724.12
654.282	8646.61
654.633	8615.2
654.985	8724.35
655.337	8736.32
655.688	8730.22
656.039	8791.69
656.391	8687.74
656.742	8770.45
657.094	8725.93
657.445	8736.32
657.796	8747.17
658.147	8774.06
658.498	8748.98
658.849	8792.82
659.2	8775.87
659.551	8734.52
659.902	8797.79
660.253	8808.19
660.604	8792.82
660.955	8780.16
661.306	8760.05
661.656	8800.28
662.007	8797.79
662.358	8825.36
662.708	8818.36
663.059	8773.16
663.409	8746.49
663.76	8767.51
664.11	8865.36
664.461	8836.66
664.811	8774.52
665.161	8841.41
665.511	8807.96
665.862	8871.69
666.212	8872.37
666.562	8866.49
666.912	8854.29
667.262	8789.2
667.612	8837.56
667.962	8873.5
668.312	8812.25
668.662	8875.98
669.011	8892.03
669.361	8866.26
669.711	8788.3
670.06	8798.02
670.41	8836.66
670.76	8779.94
671.109	8844.57
671.459	8830.11
671.808	8787.85
672.157	8863.55
672.507	8781.75
672.856	8739.94
673.205	8759.6
673.554	8784.68
673.904	8784.01
674.253	8751.92
674.602	8748.75
674.951	8654.07
675.3	8598.93
675.649	8718.92
675.998	8737.68
676.346	8692.94
676.695	8764.8
677.044	8688.64
677.393	8650.9
677.741	8717.34
678.09	8675.99
678.438	8654.29
678.787	8607.97
679.135	8641.64
679.484	8614.97
679.832	8584.92
680.181	8525.26
680.529	8562.32
680.877	8546.05
681.225	8548.08
681.573	8576.55
681.922	8474.18
682.27	8469.44
682.618	8458.14
682.966	8466.73
683.314	8459.72
683.661	8340.4
684.009	8387.41
684.357	8415.2
684.705	8375.88
685.053	8386.5
685.4	8378.82
685.748	8285.26
686.095	8268.31
686.443	8280.29
686.79	8274.87
687.138	8304.24
687.485	8251.82
687.832	8183.8
688.18	8200.52
688.527	8170.01
688.874	8168.43
689.221	8190.12
689.568	8058.38
689.915	8099.05
690.262	8047.98
690.609	8050.01
690.956	7953.29
691.303	7959.62
691.65	7920.75
691.997	7935.67
692.344	7922.56
692.69	7838.27
693.037	7933.41
693.383	7765.28
693.73	7749.46
694.077	7791.26
694.423	7737.48
694.769	7657.26
695.116	7713.98
695.462	7677.59
695.808	7644.6
696.155	7593.76
696.501	7542.23
696.847	7534.1
697.193	7471.72
697.539	7482.8
697.885	7438.05
698.231	7434.89
698.577	7400.09
698.923	7413.65
699.269	7329.81
699.614	7337.94
699.96	7231.28
700.306	7334.55
700.651	7285.97
700.997	7189.25
701.342	7233.31
701.688	7189.47
702.033	7117.61
702.379	7161.22
702.724	7082.13
703.069	7095.92
703.415	7012.98
703.76	7019.31
704.105	7001.45
704.45	6987.9
704.795	6980.89
705.14	6874.45
705.485	6915.58
705.83	6879.88
706.175	6820.44
706.52	6796.94
706.865	6821.12
707.209	6803.04
707.554	6742.03
707.899	6762.36
708.243	6745.87
708.588	6763.04
708.932	6631.07
709.277	6699.99
709.621	6642.59
709.966	6630.84
710.31	6616.38
710.654	6584.06
710.998	6591.75
711.342	6553.78
711.687	6506.33
712.031	6534.12
712.375	6551.52
712.719	6509.04
713.063	6484.18
713.407	6497.51
713.75	6449.6
714.094	6466.33
714.438	6409.15
714.782	6383.62
715.125	6456.38
715.469	6392.88
715.812	6384.97
716.156	6358.76
716.499	6355.14
716.843	6351.98
717.186	6341.58
717.53	6336.16
717.873	6327.8
718.216	6327.12
718.559	6321.25
718.902	6257.52
719.246	6236.95
719.589	6218.65
719.932	6242.83
720.275	6243.28
720.617	6240.34
720.96	6189.72
721.303	6215.94
721.646	6215.94
721.989	6165.77
722.331	6214.81
722.674	6217.52
723.016	6269.04
723.359	6175.04
723.701	6244.19
724.044	6136.39
724.386	6113.12
724.729	6139.33
725.071	6159.67
725.413	6173.45
725.755	6181.36
726.097	6136.62
726.439	6093.46
726.782	6124.64
727.124	6143.85
727.465	6167.58
727.807	6122.61
728.149	6164.64
728.491	6130.97
728.833	6130.52
729.175	6088.71
729.516	6102.27
729.858	6111.99
730.199	6121.48
730.541	6074.93
730.882	6139.33
731.224	6129.39
731.565	6113.79
731.906	6079.67
732.248	6113.12
732.589	6132.78
732.93	6062.27
733.271	6105.43
733.612	6128.93
733.953	6125.77
734.294	6127.8
734.635	6116.73
734.976	6150.18
735.317	6093.46
735.658	6092.33
735.999	6137.97
736.339	6135.94
736.68	6147.01
737.021	6145.43
737.361	6123.51
737.702	6148.14
738.042	6172.55
738.383	6151.76
738.723	6223.17
739.063	6212.1
739.404	6201.25
739.744	6173.23
740.084	6233.34
740.424	6220.46
740.764	6258.65
741.104	6290.96
741.444	6243.51
741.784	6279.21
742.124	6286.67
742.464	6243.73
742.804	6295.26
743.143	6351.75
743.483	6347.23
743.823	6365.76
744.162	6382.94
744.502	6469.94
744.841	6445.08
745.181	6514.24
745.52	6556.95
745.86	6572.09
746.199	6565.08
746.538	6645.31
746.877	6697.73
747.216	6691.86
747.556	6725.08
747.895	6819.76
748.234	6816.37
748.573	6867.67
748.911	6943.38
749.25	6958.52
749.589	7054.79
749.928	7137.04
750.267	7175.01
750.605	7242.58
750.944	7332.97
751.283	7372.74
751.621	7475.34
751.96	7521.21
752.298	7638.73
752.636	7791.04
752.975	7824.48
753.313	7904.26
753.651	8033.74
753.989	8081.2
754.327	8265.38
754.666	8261.08
755.004	8444.58
755.342	8569.1
755.679	8757.79
756.017	8731.13
756.355	8998.69
756.693	9034.4
757.031	9200.94
757.368	9324.11
757.706	9510.09
758.044	9638.22
758.381	9802.28
758.719	9898.55
759.056	10149.62
759.394	10302.61
759.731	10362.27
760.068	10503.74
760.405	10701.47
760.743	10860.79
761.08	11039.54
761.417	11141.23
761.754	11388.91
762.091	11511.39
762.428	11624.84
762.765	11860.31
763.102	11933.53
763.438	12144.14
763.775	12296.68
764.112	12473.17
764.449	12646.05
764.785	12754.3
765.122	12853.96
765.458	13034.74
765.795	13240.61
766.131	13370.1
766.467	13559.47
766.804	13734.61
767.14	13767.15
767.476	14019.57
767.812	14068.39
768.148	14244.88
768.485	14344.09
768.821	14435.16
769.157	14616.62
769.492	14785.43
769.828	14926.9
770.164	14895.26
770.5	15101.81
770.836	15234.68
771.171	15366.43
771.507	15456.6
771.842	15436.49
772.178	15511.06
772.513	15764.61
772.849	15870.6
773.184	15932.07
773.519	16036.92
773.855	16049.13
774.19	16092.06
774.525	16160.08
774.86	16280.08
775.195	16340.87
775.53	16484.37
775.865	16444.14
776.2	16430.36
776.535	16464.71
776.87	16608.89
777.205	16660.64
777.539	16625.61
777.874	16791.25
778.209	16675.55
778.543	16787.41
778.878	16783.57
779.212	16823.57
779.547	16851.36
779.881	16959.16
780.215	16884.58
780.55	17023.34
780.884	16988.99
781.218	16981.98
781.552	17064.24
781.886	17015.65
782.22	17040.29
782.554	17021.53
782.888	16953.74
783.222	16856.34
783.556	17001.42
783.889	16899.95
784.223	16875.54
784.557	16973.17
784.89	16963.9
785.224	16997.12
785.557	16954.86
785.891	16848.65
786.224	16913.74
786.558	16914.87
786.891	16837.13
787.224	16784.25
787.557	16821.54
787.891	16786.96
788.224	16761.88
788.557	16815.89
788.89	16852.04
789.223	16880.29
789.556	16714.87
789.888	16739.96
790.221	16694.08
790.554	16591.94
790.887	16684.82
791.219	16599.17
791.552	16567.76
791.884	16503.13
792.217	16494.09
792.549	16561.2
792.882	16442.56
793.214	16410.7
793.546	16350.81
793.879	16317.82
794.211	16304.71
794.543	16433.07
794.875	16269.91
795.207	16400.3
795.539	16280.76
795.871	16260.42
796.203	16188.33
796.535	16090.25
796.867	16073.31
797.198	16053.65
797.53	16089.35
797.862	15937.49
798.193	16070.82
798.525	16036.47
798.856	16046.64
799.188	15813.65
799.519	15841.9
799.85	15688.68
800.182	15741.79
800.513	15741.56
800.844	15689.14
801.175	15751.73
801.506	15779.53
801.837	15634.67
802.168	15582.7
802.499	15621.34
802.83	15523.94
803.161	15471.97
803.491	15543.83
803.822	15489.37
804.153	15358.52
804.483	15272.2
804.814	15269.49
805.145	15211.86
805.475	15191.75
805.805	15255.02
806.136	15176.15
806.466	15177.74
806.796	15161.69
807.126	15048.02
807.457	15113.56
807.787	14996.5
808.117	15000.57
808.447	14917.4
808.777	14920.12
809.107	14918.53
809.436	14870.85
809.766	14785.88
810.096	14728.48
810.426	14791.76
810.755	14742.72
811.085	14764.41
811.414	14734.36
811.744	14587.47
812.073	14632.89
812.403	14623.85
812.732	14549.96
813.061	14602.38
813.39	14449.17
813.719	14388.6
814.049	14487.81
814.378	14438.55
814.707	14371.88
815.036	14420.02
815.365	14262.51
815.693	14175.28
816.022	14202.39
816.351	14180.93
816.68	14210.98
817.008	14168.95
817.337	14004.66
817.665	14034.26
817.994	14071.1
818.322	14071.1
818.651	14011.21
818.979	13967.6
819.307	14012.12
819.636	13933.25
819.964	13929.41
820.292	13949.07
820.62	13917.43
820.948	13873.82
821.276	13965.34
821.604	13891.22
821.932	13938.9
822.259	13975.51
822.587	13895.74
822.915	13886.47
823.243	13935.06
823.57	13870.88
823.898	13892.8
824.225	13865.23
824.553	13897.32
824.88	13899.13
825.207	13930.09
825.535	13955.62
825.862	13915.85
826.189	13869.3
826.516	13984.32
826.843	13967.15
827.17	13980.71
827.497	13996.07
827.824	13868.39
828.151	14015.28
828.478	13951.55
828.805	14030.2
829.131	13843.99
829.458	13897.54
829.785	13813.7
830.111	13912.23
830.438	13967.15
830.764	13952.46
831.09	13971.44
831.417	13866.81
831.743	13972.12
832.069	13951.1
832.395	13865.91
832.722	13894.61
833.048	13915.4
833.374	13911.1
833.7	13837.88
834.026	13859.58
834.351	13813.03
834.677	13742.29
835.003	13825.68
835.329	13782.74
835.654	13794.04
835.98	13743.65
836.306	13819.58
836.631	13763.31
836.956	13762.18
837.282	13712.01
837.607	13636.08
837.932	13670.43
838.258	13633.82
838.583	13710.2
838.908	13612.35
839.233	13602.64
839.558	13598.57
839.883	13507.05
840.208	13495.52
840.533	13445.8
840.858	13498.91
841.182	13474.05
841.507	13426.37
841.832	13332.14
842.156	13349.99
842.481	13416.88
842.805	13329.42
843.13	13315.41
843.454	13293.72
843.778	13205.36
844.103	13235.19
844.427	13119.03
844.751	13188.86
845.075	13098.7
845.399	13087.85
845.723	13025.93
846.047	13008.53
846.371	12889.89
846.695	12968.98
847.019	12890.79
847.343	12727.63
847.666	12652.61
847.99	12642.21
848.313	12602.21
848.637	12532.83
848.96	12608.31
849.284	12543
849.607	12470.92
849.931	12373.29
850.254	12229.34
850.577	12241.54
850.9	12084.71
851.223	12188.21
851.546	12070.7
851.869	12059.4
852.192	12070.47
852.515	11912.29
852.838	11959.06
853.161	11912.96
853.483	11880.65
853.806	11795.68
854.129	11841.1
854.451	11717.49
854.774	11756.81
855.096	11670.03
855.419	11587.55
855.741	11581.45
856.063	11476.59
856.385	11565.18
856.708	11531.28
857.03	11438.17
857.352	11408.34
857.674	11404.95
857.996	11383.71
858.318	11290.83
858.64	11317.5
858.961	11270.95
859.283	11202.02
859.605	11127.9
859.926	11179.2
860.248	11149.59
860.57	11032.76
860.891	11048.81
861.212	10960.9
861.534	10978.52
861.855	11031.86
862.176	11065.98
862.498	11035.25
862.819	11000.22
863.14	10901.24
863.461	10958.41
863.782	10861.47
864.103	10953.21
864.424	10883.61
864.745	10872.09
865.065	10789.38
865.386	10720
865.707	10758.64
866.027	10685.43
866.348	10693.56
866.668	10724.75
866.989	10712.77
867.309	10631.87
867.63	10698.08
867.95	10676.84
868.27	10585.99
868.59	10634.58
868.91	10603.62
869.23	10557.07
869.55	10522.27
869.87	10590.29
870.19	10469.39
870.51	10474.13
870.83	10489.5
871.15	10424.87
871.469	10446.79
871.789	10459.89
872.109	10459.44
872.428	10275.27
872.748	10454.7
873.067	10345.77
873.386	10374.47
873.706	10358.88
874.025	10264.19
874.344	10225.32
874.663	10318.66
874.982	10294.93
875.301	10286.79
875.62	10230.3
875.939	10211.54
876.258	10230.52
876.577	10205.44
876.896	10160.24
877.214	10136.51
877.533	10153.01
877.852	10103.52
878.17	10129.51
878.489	10083.86
878.807	10100.58
879.125	10101.49
879.444	10115.04
879.762	10021.04
880.08	10031.43
880.398	9986.23
880.716	9934.48
881.034	9961.38
881.352	9948.04
881.67	9858.1
881.988	9872.11
882.306	9844.54
882.624	9772.91
882.941	9790.53
883.259	9727.26
883.577	9744.21
883.894	9769.74
884.212	9688.62
884.529	9701.27
884.846	9762.96
885.164	9728.16
885.481	9647.49
885.798	9635.96
886.115	9518.22
886.432	9565.23
886.75	9593.7
887.067	9579.24
887.383	9464.44
887.7	9478.23
888.017	9460.82
888.334	9504.44
888.651	9534.95
888.967	9402.75
889.284	9346.03
889.6	9318.68
889.917	9242.3
890.233	9322.75
890.55	9213.37
890.866	9238.46
891.182	9244.11
891.498	9133.6
891.815	9149.42
892.131	9150.55
892.447	9045.92
892.763	9049.99
893.079	9049.76
893.395	9016.54
893.71	8981.52
894.026	8978.58
894.342	8950.56
894.657	8877.11
894.973	8908.52
895.289	8866.26
895.604	8802.08
895.92	8698.58
896.235	8707.62
896.55	8750.11
896.865	8709.21
897.181	8660.17
897.496	8664.01
897.811	8605.03
898.126	8584.92
898.441	8608.64
898.756	8518.93
899.071	8481.42
899.386	8499.95
899.7	8413.17
900.015	8339.95
900.33	8295.66
900.644	8278.26
900.959	8330.68
901.273	8258.6
901.588	8267.18
901.902	8117.13
902.216	8167.98
902.531	8142.44
902.845	8072.16
903.159	8038.94
903.473	8038.04
903.787	7991.26
904.101	7958.04
904.415	7971.82
904.729	7915.33
905.042	7878.27
905.356	7895.89
905.67	7840.75
905.984	7790.81
906.297	7828.1
906.611	7798.95
906.924	7713.98
907.237	7737.03
907.551	7713.75
907.864	7598.95
908.177	7641.66
908.491	7575.9
908.804	7511.27
909.117	7456.58
909.43	7435.57
909.743	7369.35
910.056	7418.62
910.368	7315.8
910.681	7364.61
910.994	7367.77
911.307	7304.72
911.619	7300.88
911.932	7192.64
912.244	7172.07
912.557	7147.67
912.869	7093.66
913.181	7113.32
913.494	7116.25
913.806	7031.96
914.118	7008.23
914.43	6971.62
914.742	6965.3
915.054	6951.06
915.366	6924.85
915.678	6904.51
915.99	6836.49
916.302	6751.97
916.613	6772.08
916.925	6786.09
917.236	6735.02
917.548	6682.82
917.859	6696.83
918.171	6633.1
918.482	6664.06
918.794	6622.71
919.105	6619.54
919.416	6503.61
919.727	6474.69
920.038	6432.2
920.349	6478.08
920.66	6394.92
920.971	6426.55
921.282	6396.5
921.593	6398.98
921.903	6364.63
922.214	6303.62
922.525	6290.96
922.835	6260.68
923.146	6226.33
923.456	6246.45
923.767	6158.99
924.077	6169.84
924.387	6156.73
924.697	6126
925.008	6081.25
925.318	6052.33
925.628	6067.47
925.938	6034.47
926.248	5977.98
926.558	5907.25
926.867	5955.15
927.177	5930.75
927.487	5878.32
927.796	5855.27
928.106	5837.19
928.416	5823.86
928.725	5803.52
929.034	5792.45
929.344	5766.91
929.653	5728.04
929.962	5665.22
930.271	5670.42
930.581	5637.2
930.89	5658.89
931.199	5622.96
931.508	5671.09
931.817	5564.88
932.125	5561.27
932.434	5537.99
932.743	5455.73
933.051	5490.53
933.36	5454.38
933.669	5449.4
933.977	5396.98
934.286	5435.62
934.594	5376.41
934.902	5339.35
935.21	5361.72
935.519	5316.53
935.827	5310.43
936.135	5241.73
936.443	5209.64
936.751	5162.86
937.059	5159.69
937.367	5192.91
937.674	5205.57
937.982	5168.96
938.29	5127.83
938.597	5062.75
938.905	5051.68
939.213	5039.47
939.52	5065.69
939.827	5007.83
940.135	4962.86
940.442	4931.68
940.749	4921.28
941.056	4875.86
941.363	4865.92
941.67	4860.49
941.977	4810.78
942.284	4860.04
942.591	4788.41
942.898	4804
943.205	4770.55
943.511	4794.05
943.818	4770.55
944.125	4694.85
944.431	4712.25
944.738	4691.91
945.044	4679.48
945.35	4589.99
945.657	4612.36
945.963	4592.93
946.269	4536.89
946.575	4560.61
946.881	4501.63
947.187	4526.49
947.493	4541.86
947.799	4480.39
948.105	4469.54
948.41	4372.82
948.716	4423.22
949.022	4374.86
949.327	4411.24
949.633	4343.22
949.938	4362.65
950.244	4268.42
950.549	4298.02
950.854	4290.11
951.16	4301.64
951.465	4236.1
951.77	4240.17
952.075	4230
952.38	4228.87
952.685	4196.1
952.99	4151.81
953.294	4178.48
953.599	4119.5
953.904	4108.2
954.209	4093.06
954.513	4168.31
954.818	4060.74
955.122	4057.12
955.426	4063.23
955.731	4008.54
956.035	3978.48
956.339	3968.54
956.643	3949.56
956.948	3919.73
957.252	3930.57
957.556	3899.16
957.86	3863.01
958.163	3880.41
958.467	3859.84
958.771	3848.09
959.075	3834.76
959.378	3840.86
959.682	3810.35
959.985	3781.2
960.289	3741.43
960.592	3744.14
960.896	3713.63
961.199	3694.2
961.502	3706.85
961.805	3678.6
962.108	3671.37
962.411	3596.35
962.714	3641.77
963.017	3585.5
963.32	3612.62
963.623	3630.02
963.926	3563.58
964.228	3560.19
964.531	3526.74
964.833	3562.22
965.136	3508.89
965.438	3478.16
965.741	3450.59
966.043	3441.55
966.345	3445.84
966.648	3417.37
966.95	3447.88
967.252	3401.55
967.554	3377.59
967.856	3404.26
968.158	3352.28
968.46	3331.49
968.761	3333.75
969.063	3326.97
969.365	3309.8
969.666	3265.28
969.968	3264.83
970.269	3288.78
970.571	3233.87
970.872	3235.9
971.174	3201.33
971.475	3172.18
971.776	3207.66
972.077	3151.16
972.378	3144.61
972.679	3171.27
972.98	3110.94
973.281	3115.91
973.582	3119.3
973.883	3070.48
974.183	3093.08
974.484	3077.94
974.785	3068.22
975.085	3033.88
975.386	3084.95
975.686	3045.17
975.986	2970.6
976.287	2971.28
976.587	2952.75
976.887	2967.21
977.187	2945.97
977.487	2946.19
977.787	2909.36
978.087	2911.62
978.387	2904.39
978.687	2885.18
978.987	2887.89
979.286	2873.2
979.586	2837.27
979.885	2863.26
980.185	2823.26
980.484	2799.53
980.784	2798.18
981.083	2808.12
981.382	2763.15
981.682	2760.89
981.981	2732.19
982.28	2738.29
982.579	2693.54
982.878	2739.87
983.177	2692.87
983.475	2682.02
983.774	2634.79
984.073	2638.18
984.372	2677.27
984.67	2657.84
984.969	2632.3
985.267	2613.77
985.566	2612.87
985.864	2565.64
986.162	2598.63
986.461	2544.62
986.759	2552.76
987.057	2536.04
987.355	2521.35
987.653	2534.68
987.951	2496.26
988.249	2458.75
988.547	2521.8
988.844	2486.54
989.142	2478.41
989.44	2451.74
989.737	2437.96
990.035	2409.03
990.332	2423.95
990.63	2406.09
990.927	2404.51
991.224	2360.45
991.521	2399.32
991.819	2371.07
992.116	2338.53
992.413	2352.99
992.71	2320
993.006	2329.26
993.303	2315.48
993.6	2275.25
993.897	2272.54
994.193	2310.28
994.49	2289.49
994.787	2246.78
995.083	2228.7
995.379	2218.3
995.676	2235.03
995.972	2201.35
996.268	2209.72
996.565	2161.81
996.861	2189.38
997.157	2141.47
997.453	2140.34
997.749	2136.5
998.044	2127.68
998.34	2136.27
998.636	2119.32
998.932	2093.11
999.227	2103.28
999.523	2090.4
999.818	2072.09
1000.114	2040.45
1000.409	2046.56
1000.704	2010.4
1001	2018.99
1001.295	1985.32
1001.59	2014.01
1001.885	2019.44
1002.18	1993.9
1002.475	1976.05
1002.77	1986.67
1003.065	1920.23
1003.359	1948.03
1003.654	1950.06
1003.949	1911.87
1004.243	1911.19
1004.538	1917.75
1004.832	1890.4
1005.127	1896.73
1005.421	1906
1005.715	1849.73
1006.009	1844.75
1006.304	1850.86
1006.598	1847.47
1006.892	1819.9
1007.186	1834.58
1007.48	1791.2
1007.773	1781.7
1008.067	1791.42
1008.361	1759.33
1008.655	1767.92
1008.948	1751.2
1009.242	1721.14
1009.535	1710.97
1009.829	1752.55
1010.122	1707.36
1010.415	1698.09
1010.708	1678.2
1011.001	1701.71
1011.295	1673.23
1011.588	1667.58
1011.881	1660.8
1012.173	1653.57
1012.466	1638.66
1012.759	1594.36
1013.052	1612.9
1013.344	1604.31
1013.637	1621.48
1013.93	1575.61
1014.222	1578.77
1014.514	1553.91
1014.807	1570.64
1015.099	1554.82
1015.391	1529.73
1015.683	1534.48
1015.976	1531.54
1016.268	1501.71
1016.56	1491.54
1016.851	1500.13
1017.143	1504.2
1017.435	1481.15
1017.727	1447.93
1018.018	1449.96
1018.31	1459.91
1018.602	1450.87
1018.893	1411.32
1019.185	1432.11
1019.476	1409.96
1019.767	1402.73
1020.058	1403.64
1020.35	1368.61
1020.641	1361.38
1020.932	1347.82
1021.223	1361.15
1021.514	1342.17
1021.804	1336.52
1022.095	1339.91
1022.386	1339.68
1022.677	1310.53
1022.967	1337.2
1023.258	1303.53
1023.548	1284.09
1023.839	1260.81
1024.129	1277.76
1024.419	1277.09
1024.709	1240.48
1025	1241.15
1025.29	1257.88
1025.58	1255.16
1025.87	1236.63
1026.16	1225.56
1026.449	1223.75
1026.739	1223.08
1027.029	1218.1
1027.319	1191.89
1027.608	1195.05
1027.898	1157.54
1028.187	1164.55
1028.477	1154.6
1028.766	1157.54
1029.055	1165.22
1029.344	1144.21
1029.634	1136.98
1029.923	1130.42
1030.212	1140.14
1030.501	1108.95
1030.79	1106.92
1031.078	1102.63
1031.367	1089.52
1031.656	1080.71
1031.945	1054.49
1032.233	1109.41
1032.522	1063.98
1032.81	1038.67
1033.099	1056.53
1033.387	1044.1
1033.675	1045.45
1033.963	1014.49
1034.251	1039.8
1034.54	991.67
1034.828	988.51
1035.116	989.63
1035.403	989.86
1035.691	982.4
1035.979	1002.06
1036.267	969.3
1036.554	977.88
1036.842	968.39
1037.129	953.03
1037.417	962.97
1037.704	937.66
1037.992	928.17
1038.279	941.5
1038.566	913.25
1038.853	913.25
1039.14	913.25
