Data from hue_140_FLMS001491_00085.txt Node
Date: Tue Feb 07 16:56:31 GMT 2017
User: dcchb
Spectrometer: FLMS00149
Trigger mode: 0
Integration Time (sec): 2.000000E-2
Scans to average: 10
Electric dark correction enabled: true
Nonlinearity correction enabled: false
Boxcar width: 0
XAxis mode: Wavelengths
Number of Pixels in Spectrum: 2048
>>>>>Begin Spectral Data<<<<<
341.393	-13.95
341.776	-13.95
342.16	-13.95
342.543	-72.03
342.927	-68.87
343.31	-54.86
343.693	-65.93
344.077	-78.13
344.46	-68.42
344.843	-66.38
345.226	-44.01
345.61	-20.28
345.993	-27.29
346.376	6.61
346.759	10.45
347.142	32.15
347.525	48.87
347.908	57
348.291	76.66
348.674	80.28
349.057	113.27
349.44	132.71
349.823	131.13
350.206	164.35
350.588	191.24
350.971	206.6
351.354	231.91
351.737	237.11
352.119	232.82
352.502	268.07
352.884	271.01
353.267	293.61
353.65	286.15
354.032	303.78
354.414	312.82
354.797	318.47
355.179	325.7
355.562	320.5
355.944	325.92
356.326	307.17
356.709	342.19
357.091	324.57
357.473	343.1
357.855	336.54
358.238	334.06
358.62	341.52
359.002	331.8
359.384	355.08
359.766	345.81
360.148	334.51
360.53	361.4
360.912	311.69
361.294	318.92
361.676	334.06
362.057	322.53
362.439	317.34
362.821	323.66
363.203	338.13
363.584	324.57
363.966	315.3
364.348	324.57
364.729	311.23
365.111	334.28
365.493	324.34
365.874	294.74
366.256	318.24
366.637	304.91
367.019	310.56
367.4	306.04
367.781	319.14
368.163	288.41
368.544	310.78
368.925	304
369.306	314.62
369.688	307.39
370.069	321.4
370.45	312.14
370.831	315.08
371.212	294.51
371.593	311.01
371.974	288.18
372.355	308.3
372.736	299.48
373.117	311.46
373.498	320.73
373.879	313.72
374.26	335.41
374.641	322.31
375.021	309.88
375.402	318.92
375.783	318.47
376.163	315.53
376.544	333.83
376.925	338.58
377.305	325.92
377.686	343.78
378.066	323.66
378.447	344.45
378.827	339.03
379.208	330.22
379.588	338.58
379.968	336.32
380.349	338.58
380.729	326.38
381.109	336.32
381.489	346.71
381.87	313.27
382.25	331.8
382.63	336.54
383.01	345.81
383.39	334.51
383.77	323.21
384.15	338.13
384.53	339.93
384.91	343.78
385.29	358.47
385.67	331.12
386.049	351.46
386.429	344.23
386.809	333.38
387.189	347.62
387.568	366.15
387.948	359.14
388.328	360.95
388.707	366.15
389.087	372.25
389.466	341.06
389.846	369.09
390.225	355.08
390.605	370.89
390.984	382.42
391.363	360.5
391.743	359.6
392.122	360.27
392.501	357.79
392.881	359.14
393.26	358.92
393.639	370.44
394.018	374.74
394.397	377.22
394.776	378.35
395.155	370.44
395.534	375.19
395.913	366.15
396.292	377.22
396.671	382.42
397.05	392.59
397.429	373.61
397.808	387.16
398.186	380.61
398.565	381.29
398.944	393.04
399.323	391.46
399.701	385.36
400.08	382.65
400.458	377.22
400.837	413.83
401.215	399.37
401.594	404.34
401.972	407.96
402.351	381.97
402.729	403.66
403.107	418.12
403.486	408.18
403.864	411.35
404.242	402.53
404.62	424.23
404.999	411.57
405.377	411.8
405.755	424.68
406.133	410.44
406.511	392.36
406.889	431.01
407.267	440.04
407.645	440.5
408.023	421.51
408.401	442.3
408.779	440.72
409.156	431.91
409.534	454.96
409.912	445.92
410.29	445.92
410.667	435.75
411.045	448.41
411.422	448.41
411.8	440.5
412.178	464
412.555	456.99
412.933	455.19
413.31	475.07
413.687	464.68
414.065	469.87
414.442	464.23
414.819	484.79
415.197	492.47
415.574	503.55
415.951	480.5
416.328	496.54
416.705	475.3
417.082	485.92
417.46	504.68
417.837	492.92
418.214	512.59
418.591	491.57
418.967	488.18
419.344	504
419.721	515.3
420.098	513.04
420.475	520.72
420.852	518.69
421.228	519.82
421.605	518.46
421.982	529.53
422.358	530.21
422.735	548.06
423.111	539.7
423.488	534.51
423.864	511.91
424.241	541.96
424.617	539.03
424.994	548.74
425.37	589.19
425.746	556.2
426.123	552.13
426.499	564.79
426.875	593.26
427.251	582.19
427.627	576.09
428.003	582.19
428.379	626.25
428.756	598.68
429.132	593.04
429.507	609.98
429.883	591
430.259	621.74
430.635	617.67
431.011	625.12
431.387	631.45
431.763	634.62
432.138	637.55
432.514	639.36
432.89	643.88
433.265	647.27
433.641	661.28
434.016	631.68
434.392	670.77
434.767	686.82
435.143	692.69
435.518	683.43
435.894	684.11
436.269	706.03
436.644	720.49
437.02	715.29
437.395	715.29
437.77	721.17
438.145	736.08
438.52	734.5
438.895	731.56
439.271	731.34
439.646	758.45
440.021	747.61
440.395	755.29
440.77	772.47
441.145	781.96
441.52	762.52
441.895	793.71
442.27	758.68
442.645	781.28
443.019	797.32
443.394	793.48
443.769	807.49
444.143	789.87
444.518	806.36
444.892	814.72
445.267	810.2
445.641	830.32
446.016	824.44
446.39	840.03
446.764	830.77
447.139	828.28
447.513	844.78
447.887	837.32
448.262	849.3
448.636	844.55
449.01	874.84
449.384	873.48
449.758	871.22
450.132	858.11
450.506	885.46
450.88	888.62
451.254	897.43
451.628	911.9
452.002	909.19
452.376	918.9
452.75	914.38
453.123	945.34
453.497	940.82
453.871	959.35
454.244	968.17
454.618	978.34
454.992	989.18
455.365	984.89
455.739	983.53
456.112	1035.06
456.486	1019.24
456.859	1054.04
457.232	1075.51
457.606	1055.85
457.979	1056.07
458.352	1103.53
458.725	1084.77
459.099	1097.88
459.472	1125.68
459.845	1151.21
460.218	1138.56
460.591	1123.19
460.964	1150.76
461.337	1185.79
461.71	1186.47
462.083	1220.82
462.456	1224.88
462.829	1222.85
463.201	1241.83
463.574	1230.53
463.947	1280.02
464.32	1330.19
464.692	1309.17
465.065	1343.07
465.438	1362.28
465.81	1399.12
466.183	1358.21
466.555	1410.87
466.928	1421.26
467.3	1441.37
467.672	1470.98
468.045	1505.33
468.417	1537.87
468.789	1521.37
469.161	1565.44
469.534	1599.11
469.906	1648.15
470.278	1620.58
470.65	1690.86
471.022	1712.1
471.394	1756.39
471.766	1786.22
472.138	1788.48
472.51	1821.48
472.882	1874.58
473.253	1892.44
473.625	1953.68
473.997	2006.56
474.369	2048.36
474.74	2064.18
475.112	2081.13
475.484	2183.28
475.855	2209.49
476.227	2251.52
476.598	2325.87
476.97	2355.25
477.341	2467.56
477.713	2511.18
478.084	2560.44
478.455	2599.99
478.827	2680.89
479.198	2773.32
479.569	2797.72
479.94	2881.11
480.311	2962.92
480.682	3039.75
481.053	3146.64
481.424	3246.3
481.795	3327.43
482.166	3409.46
482.537	3476.8
482.908	3606.74
483.279	3669.34
483.65	3775.32
484.021	3900.07
484.391	3952.27
484.762	4070.01
485.133	4143.68
485.503	4269.1
485.874	4407.4
486.244	4525.81
486.615	4643.78
486.985	4765.13
487.356	4908.63
487.726	4952.69
488.097	5078.57
488.467	5169.19
488.837	5386.58
489.207	5462.51
489.578	5579.8
489.948	5728.72
490.318	5825.89
490.688	5976.62
491.058	6107.24
491.428	6241.02
491.798	6395.37
492.168	6551.52
492.538	6661.35
492.908	6708.81
493.278	6884.17
493.648	7008.91
494.017	7176.36
494.387	7249.13
494.757	7364.16
495.126	7495.9
495.496	7587.43
495.866	7706.97
496.235	7874.65
496.605	7896.35
496.974	8051.6
497.344	8182.44
497.713	8292.27
498.082	8411.36
498.452	8555.99
498.821	8556.89
499.19	8715.31
499.559	8918.69
499.928	8930.44
500.298	9014.28
500.667	9152.13
501.036	9165.01
501.405	9366.82
501.774	9333.37
502.143	9419.92
502.512	9555.51
502.88	9652.91
503.249	9686.81
503.618	9805.45
503.987	9818.1
504.356	9926.8
504.724	10030.98
505.093	10079.34
505.462	10138.32
505.83	10206.57
506.199	10289.73
506.567	10446.34
506.936	10454.02
507.304	10597.29
507.672	10638.87
508.041	10635.71
508.409	10783.05
508.777	10766.78
509.145	10941.92
509.514	10924.74
509.882	11020.56
510.25	11057.62
510.618	11141.01
510.986	11113.66
511.354	11286.09
511.722	11303.94
512.09	11441.56
512.458	11367.22
512.826	11459.87
513.193	11515.01
513.561	11444.5
513.929	11551.84
514.297	11621.45
514.664	11684.27
515.032	11718.62
515.4	11850.59
515.767	11811.95
516.135	11826.86
516.502	11751.39
516.869	12011.72
517.237	12013.75
517.604	11920.65
517.972	11997.93
518.339	12051.04
518.706	12040.42
519.073	12121.55
519.44	12124.48
519.808	12162
520.175	12150.25
520.542	12269.56
520.909	12346.17
521.276	12286.29
521.643	12389.11
522.009	12357.25
522.376	12383.46
522.743	12440.41
523.11	12530.12
523.477	12628.65
523.843	12563.79
524.21	12618.03
524.577	12662.32
524.943	12738.93
525.31	12608.54
525.676	12813.28
526.043	12797.91
526.409	12790.68
526.776	12885.82
527.142	12839.04
527.508	12854.86
527.874	12972.14
528.241	12882.43
528.607	12906.16
528.973	12940.28
529.339	12888.08
529.705	12933.5
530.071	13004.46
530.437	12981.64
530.803	13001.75
531.169	13020.73
531.535	12852.6
531.901	12896.67
532.267	12936.67
532.632	12949.77
532.998	12912.26
533.364	12886.27
533.73	12940.51
534.095	12980.05
534.461	12935.08
534.826	12981.41
535.192	13024.57
535.557	12939.15
535.923	12841.07
536.288	12848.76
536.653	12918.59
537.019	12831.81
537.384	12823.22
537.749	12773.96
538.114	12750.68
538.479	12790
538.845	12655.32
539.21	12683.34
539.575	12615.32
539.94	12649.67
540.305	12591.59
540.67	12603.79
541.034	12575.55
541.399	12533.96
541.764	12524.92
542.129	12560.86
542.494	12485.83
542.858	12398.83
543.223	12364.48
543.587	12437.02
543.952	12373.52
544.316	12345.27
544.681	12195.89
545.045	12251.94
545.41	12213.52
545.774	12169.91
546.138	12209
546.503	12129.46
546.867	12082
547.231	12146.86
547.595	12088.33
547.959	12085.61
548.324	12066.41
548.688	12035.9
549.052	12004.49
549.416	11964.94
549.779	11910.25
550.143	11864.15
550.507	11852.4
550.871	11806.53
551.235	11767.88
551.599	11745.06
551.962	11783.48
552.326	11762.46
552.689	11688.34
553.053	11616.25
553.417	11737.6
553.78	11757.94
554.143	11604.05
554.507	11573.76
554.87	11611.05
555.234	11639.98
555.597	11604.5
555.96	11601.79
556.323	11546.65
556.686	11575.12
557.05	11634.55
557.413	11552.75
557.776	11486.99
558.139	11511.62
558.502	11453.99
558.865	11471.39
559.228	11511.84
559.59	11505.29
559.953	11453.54
560.316	11557.49
560.679	11489.47
561.041	11538.06
561.404	11495.12
561.767	11524.5
562.129	11477.95
562.492	11582.58
562.854	11504.16
563.217	11435.24
563.579	11408.34
563.941	11524.73
564.304	11565.4
564.666	11658.73
565.028	11628.23
565.39	11651.73
565.753	11656.93
566.115	11691.27
566.477	11651.28
566.839	11590.71
567.201	11692.86
567.563	11594.78
567.925	11607.89
568.287	11664.16
568.648	11646.98
569.01	11783.93
569.372	11686.3
569.734	11659.41
570.095	11710.26
570.457	11734.89
570.819	11751.84
571.18	11723.59
571.542	11793.64
571.903	11783.7
572.265	11789.8
572.626	11837.71
572.987	11827.32
573.349	11875.68
573.71	11877.48
574.071	11811.27
574.432	11839.07
574.794	11895.79
575.155	11908.9
575.516	11900.53
575.877	11835
576.238	11862.34
576.599	11973.98
576.96	11882.68
577.32	11968.33
577.681	11951.83
578.042	11935.34
578.403	11895.34
578.763	11945.51
579.124	11952.74
579.485	11904.15
579.845	11929.69
580.206	12002.9
580.566	11953.19
580.927	11871.83
581.287	11992.28
581.648	11900.99
582.008	11903.92
582.368	11919.07
582.728	11967.65
583.089	11945.73
583.449	11861.21
583.809	11925.62
584.169	11922.68
584.529	11901.21
584.889	11964.49
585.249	11915.22
585.609	11877.94
585.969	11911.61
586.329	11882.68
586.688	11869.35
587.048	11820.76
587.408	11794.55
587.768	11745.96
588.127	11788
588.487	11765.17
588.846	11864.38
589.206	11757.94
589.565	11772.4
589.925	11804.27
590.284	11769.01
590.643	11799.52
591.003	11840.2
591.362	11760.88
591.721	11718.84
592.08	11772.18
592.44	11811.27
592.799	11757.26
593.158	11733.08
593.517	11721.33
593.876	11746.87
594.235	11744.15
594.593	11711.16
594.952	11699.86
595.311	11671.84
595.67	11719.75
596.029	11757.04
596.387	11760.88
596.746	11772.63
597.104	11649.02
597.463	11632.97
597.822	11722.01
598.18	11644.5
598.538	11634.78
598.897	11649.47
599.255	11608.56
599.613	11766.98
599.972	11684.27
600.33	11668.9
600.688	11641.11
601.046	11698.73
601.404	11745.96
601.762	11724.27
602.12	11735.79
602.478	11745.28
602.836	11696.25
603.194	11664.16
603.552	11734.66
603.91	11711.39
604.268	11625.74
604.625	11608.11
604.983	11620.77
605.341	11575.57
605.698	11701.67
606.056	11674.1
606.413	11631.62
606.771	11697.83
607.128	11791.38
607.485	11627.77
607.843	11692.63
608.2	11694.66
608.557	11806.3
608.914	11698.05
609.272	11757.04
609.629	11753.19
609.986	11718.39
610.343	11776.47
610.7	11817.82
611.057	11781.89
611.414	11807.2
611.771	11772.4
612.127	11767.66
612.484	11874.32
612.841	11770.59
613.198	11744.15
613.554	11801.1
613.911	11880.2
614.267	11865.28
614.624	11847.88
614.98	11799.52
615.337	11891.27
615.693	11905.28
616.05	11843.59
616.406	12013.07
616.762	11878.39
617.118	11844.94
617.475	11899.86
617.831	11890.14
618.187	11976.92
618.543	11957.03
618.899	12058.5
619.255	12012.17
619.611	12012.4
619.967	12106.4
620.323	12019.63
620.678	12061.89
621.034	11930.36
621.39	11919.52
621.746	11931.95
622.101	12110.7
622.457	12024.6
622.812	12056.24
623.168	12053.07
623.523	12066.86
623.879	12019.63
624.234	12001.1
624.589	12045.39
624.945	12066.86
625.3	12038.61
625.655	12042
626.01	12042.9
626.365	11987.09
626.72	11959.06
627.075	11969.23
627.43	12030.93
627.785	11995.45
628.14	11946.86
628.495	12005.16
628.85	12035.45
629.205	11909.35
629.559	12002
629.914	11943.02
630.269	12025.05
630.623	11891.5
630.978	11982.57
631.332	11964.94
631.687	11971.95
632.041	11912.74
632.396	11964.94
632.75	11939.63
633.104	11980.08
633.459	11725.85
633.813	11853.53
634.167	11779.41
634.521	11809.01
634.875	11831.84
635.229	11811.95
635.583	11728.11
635.937	11732.18
636.291	11702.12
636.645	11685.17
636.999	11693.08
637.352	11741.44
637.706	11630.94
638.06	11693.08
638.413	11707.32
638.767	11663.03
639.121	11606.3
639.474	11529.92
639.828	11570.37
640.181	11632.52
640.534	11490.83
640.888	11510.94
641.241	11538.96
641.594	11570.37
641.947	11550.26
642.301	11525.4
642.654	11601.79
643.007	11553.88
643.36	11533.99
643.713	11535.57
644.066	11543.03
644.419	11533.54
644.771	11413.54
645.124	11358.18
645.477	11420.55
645.83	11246.09
646.182	11217.39
646.535	11087.45
646.888	11233.89
647.24	11090.84
647.593	11170.61
647.945	11113.66
648.298	11032.08
648.65	11001.8
649.002	10985.76
649.355	11118.18
649.707	11161.12
650.059	11239.76
650.411	11258.07
650.763	11293.54
651.115	11427.78
651.467	11337.16
651.819	11346.42
652.171	11361.34
652.523	11265.97
652.875	11289.48
653.227	11295.8
653.578	11335.8
653.93	11394.56
654.282	11238.41
654.633	11263.26
654.985	11333.32
655.337	11321.57
655.688	11317.5
656.039	11336.03
656.391	11325.41
656.742	11361.34
657.094	11371.96
657.445	11353.88
657.796	11396.14
658.147	11404.95
658.498	11292.19
658.849	11367.67
659.2	11289.03
659.551	11321.11
659.902	11389.81
660.253	11371.96
660.604	11406.08
660.955	11319.76
661.306	11376.03
661.656	11331.28
662.007	11331.51
662.358	11383.26
662.708	11443.37
663.059	11338.74
663.409	11289.03
663.76	11426.87
664.11	11449.7
664.461	11401.11
664.811	11386.88
665.161	11404.28
665.511	11367.67
665.862	11402.47
666.212	11402.69
666.562	11389.36
666.912	11383.71
667.262	11355.01
667.612	11373.09
667.962	11443.82
668.312	11451.28
668.662	11465.74
669.011	11456.25
669.361	11381.45
669.711	11321.57
670.06	11359.53
670.41	11346.42
670.76	11372.64
671.109	11388.68
671.459	11275.69
671.808	11220.55
672.157	11316.6
672.507	11272.98
672.856	11271.17
673.205	11291.74
673.554	11235.47
673.904	11287.9
674.253	11264.17
674.602	11329.48
674.951	11090.39
675.3	11047.68
675.649	11298.06
675.998	11231.63
676.346	11206.32
676.695	11287.9
677.044	11123.38
677.393	11191.85
677.741	11229.82
678.09	11177.62
678.438	11176.94
678.787	11072.31
679.135	11118.86
679.484	11028.92
679.832	11119.31
680.181	11058.97
680.529	11063.95
680.877	11049.48
681.225	10992.99
681.573	11074.34
681.922	10998.41
682.27	10966.77
682.618	10916.61
682.966	10902.14
683.314	10881.58
683.661	10901.01
684.009	10904.85
684.357	10848.13
684.705	10872.09
685.053	10848.81
685.4	10771.3
685.748	10737.63
686.095	10761.13
686.443	10693.56
686.79	10640.91
687.138	10659.21
687.485	10729.94
687.832	10609.5
688.18	10666.89
688.527	10543.96
688.874	10557.74
689.221	10512.1
689.568	10516.16
689.915	10469.16
690.262	10417.18
690.609	10370.63
690.956	10380.8
691.303	10423.29
691.65	10261.71
691.997	10214.7
692.344	10196.17
692.69	10214.25
693.037	10247.7
693.383	10164.31
693.73	10140.13
694.077	10056.97
694.423	10058.78
694.769	10007.03
695.116	10027.82
695.462	9957.76
695.808	9918.67
696.155	9936.97
696.501	9848.39
696.847	9845.67
697.193	9748.5
697.539	9867.14
697.885	9633.93
698.231	9732.46
698.577	9689.29
698.923	9637.32
699.269	9603.65
699.614	9513.03
699.96	9520.26
700.306	9502.86
700.651	9449.53
700.997	9409.53
701.342	9349.64
701.688	9296.31
702.033	9329.53
702.379	9290.66
702.724	9274.39
703.069	9289.76
703.415	9206.59
703.76	9185.58
704.105	9147.16
704.45	9160.49
704.795	9111.91
705.14	9048.41
705.485	9040.72
705.83	9044.34
706.175	9052.47
706.52	8958.92
706.865	8993.49
707.209	8912.59
707.554	8866.04
707.899	8937.9
708.243	8860.84
708.588	8790.56
708.932	8722.31
709.277	8699.26
709.621	8737.68
709.966	8696.78
710.31	8693.61
710.654	8656.33
710.998	8734.97
711.342	8653.84
711.687	8611.36
712.031	8542.88
712.375	8585.37
712.719	8585.59
713.063	8543.33
713.407	8583.79
713.75	8531.13
714.094	8540.17
714.438	8476.22
714.782	8477.12
715.125	8452.72
715.469	8424.92
715.812	8393.96
716.156	8432.15
716.499	8339.5
716.843	8324.36
717.186	8283.45
717.53	8360.06
717.873	8364.58
718.216	8335.88
718.559	8320.74
718.902	8270.35
719.246	8203.23
719.589	8235.09
719.932	8194.64
720.275	8168.66
720.617	8158.71
720.96	8201.42
721.303	8162.55
721.646	8179.5
721.989	8141.54
722.331	8213.63
722.674	8185.6
723.016	8156.68
723.359	8083.23
723.701	8214.08
724.044	8101.31
724.386	8121.2
724.729	8114.87
725.071	8121.42
725.413	8110.8
725.755	8083.23
726.097	8070.13
726.439	8052.27
726.782	8026.96
727.124	8109.67
727.465	8082.56
727.807	8078.94
728.149	8059.73
728.491	8010.92
728.833	8050.92
729.175	8043.91
729.516	8081.65
729.858	8049.34
730.199	8004.37
730.541	8042.33
730.882	7999.39
731.224	8040.75
731.565	7969.11
731.906	7994.65
732.248	7994.42
732.589	7989
732.93	7968.43
733.271	7930.02
733.612	7973.18
733.953	7948.77
734.294	7904.48
734.635	7946.06
734.976	7937.7
735.317	7977.47
735.658	7980.86
735.999	7920.75
736.339	7947.19
736.68	7998.26
737.021	7982.67
737.361	7952.84
737.702	7979.06
738.042	7993.74
738.383	7960.53
738.723	7987.64
739.063	8042.56
739.404	8009.79
739.744	8044.14
740.084	7949
740.424	8027.64
740.764	8059.05
741.104	8098.6
741.444	7993.97
741.784	8104.25
742.124	8128.88
742.464	8098.37
742.804	8050.92
743.143	8106.74
743.483	8180.18
743.823	8104.48
744.162	8100.18
744.502	8199.84
744.841	8230.35
745.181	8297.24
745.52	8285.49
745.86	8281.19
746.199	8381.53
746.538	8373.85
746.877	8432.6
747.216	8507.63
747.556	8524.8
747.895	8616.33
748.234	8582.66
748.573	8630.11
748.911	8702.65
749.25	8809.99
749.589	8814.06
749.928	8848.86
750.267	8979.03
750.605	8935.64
750.944	8960.05
751.283	9007.28
751.621	9184.45
751.96	9269.42
752.298	9369.75
752.636	9421.05
752.975	9513.03
753.313	9594.83
753.651	9734.49
753.989	9715.51
754.327	9916.86
754.666	9946.69
755.004	10047.93
755.342	10192.33
755.679	10361.59
756.017	10425.32
756.355	10613.34
756.693	10710.51
757.031	10880.45
757.368	10919.54
757.706	11066.21
758.044	11200.89
758.381	11411.51
758.719	11554.55
759.056	11719.97
759.394	11844.26
759.731	11859.86
760.068	12024.15
760.405	12309.11
760.743	12373.29
761.08	12592.72
761.417	12602.44
761.754	12903.22
762.091	13026.15
762.428	13095.76
762.765	13284.68
763.102	13588.17
763.438	13564.67
763.775	13782.74
764.112	13909.07
764.449	14062.29
764.785	14263.64
765.122	14371.43
765.458	14434.71
765.795	14615.72
766.131	14781.59
766.467	14966.44
766.804	14951.08
767.14	15094.35
767.476	15316.04
767.812	15430.16
768.148	15562.36
768.485	15728.23
768.821	15762.58
769.157	15906.08
769.492	15941.56
769.828	16135.68
770.164	16101.1
770.5	16281.21
770.836	16407.31
771.171	16413.41
771.507	16554.88
771.842	16631.71
772.178	16699.5
772.513	16907.86
772.849	16882.1
773.184	17022.66
773.519	17042.77
773.855	17049.55
774.19	17239.6
774.525	17272.14
774.86	17353.72
775.195	17409.54
775.53	17506.94
775.865	17459.26
776.2	17465.81
776.535	17409.77
776.87	17599.37
777.205	17553.95
777.539	17655.64
777.874	17809.76
778.209	17526.6
778.543	17654.96
778.878	17643.43
779.212	17839.59
779.547	17803.2
779.881	17873.71
780.215	17716.88
780.55	17939.7
780.884	17799.81
781.218	17844.11
781.552	17872.35
781.886	17876.2
782.22	17814.96
782.554	17771.11
782.888	17708.52
783.222	17755.07
783.556	17684.56
783.889	17695.64
784.223	17690.21
784.557	17599.82
784.89	17735.41
785.224	17656.99
785.557	17617.67
785.891	17689.99
786.224	17548.3
786.558	17691.79
786.891	17494.96
787.224	17460.39
787.557	17533.61
787.891	17483.21
788.224	17487.96
788.557	17636.2
788.89	17516.66
789.223	17581.74
789.556	17479.82
789.888	17377.9
790.221	17395.98
790.554	17320.73
790.887	17373.61
791.219	17293.16
791.552	17215.42
791.884	17238.02
792.217	17176.33
792.549	17157.57
792.882	17053.62
793.214	17027.41
793.546	17148.53
793.879	17073.28
794.211	16969.55
794.543	16957.8
794.875	16923.23
795.207	16966.16
795.539	16930.01
795.871	16878.48
796.203	16760.07
796.535	16765.72
796.867	16662.9
797.198	16695.89
797.53	16576.12
797.862	16600.07
798.193	16504.48
798.525	16486.4
798.856	16535.89
799.188	16356.46
799.519	16247.31
799.85	16261.1
800.182	16275.56
800.513	16363.47
800.844	16219.52
801.175	16238.73
801.506	16270.59
801.837	16111.95
802.168	16164.83
802.499	16057.04
802.83	16045.74
803.161	15889.13
803.491	15961.44
803.822	15972.52
804.153	15881.9
804.483	15803.26
804.814	15709.93
805.145	15750.83
805.475	15744.28
805.805	15669.7
806.136	15681.68
806.466	15706.76
806.796	15590.83
807.126	15533.43
807.457	15451.63
807.787	15503.6
808.117	15451.63
808.447	15328.02
808.777	15401.69
809.107	15381.12
809.436	15347.9
809.766	15256.6
810.096	15312.2
810.426	15242.37
810.755	15195.59
811.085	15133.9
811.414	15160.56
811.744	15070.62
812.073	14985.65
812.403	15090.96
812.732	15013.9
813.061	14998.76
813.39	14929.61
813.719	14880.34
814.049	14967.35
814.378	14902.94
814.707	14845.77
815.036	14812.55
815.365	14788.59
815.693	14583.63
816.022	14601.25
816.351	14631.31
816.68	14417.53
817.008	14586.57
817.337	14456.63
817.665	14384.76
817.994	14384.99
818.322	14528.04
818.651	14398.55
818.979	14359
819.307	14422.5
819.636	14447.81
819.964	14341.83
820.292	14384.99
820.62	14281.94
820.948	14368.04
821.276	14352.67
821.604	14257.08
821.932	14381.6
822.259	14255.95
822.587	14232.68
822.915	14260.25
823.243	14233.35
823.57	14225.45
823.898	14343.63
824.225	14246.01
824.553	14260.92
824.88	14292.11
825.207	14319.45
825.535	14220.93
825.862	14335.5
826.189	14179.12
826.516	14369.4
826.843	14333.01
827.17	14332.11
827.497	14275.61
827.824	14314.48
828.151	14410.3
828.478	14293.47
828.805	14386.34
829.131	14300.02
829.458	14236.29
829.785	14226.8
830.111	14256.86
830.438	14305.44
830.764	14380.47
831.09	14312.9
831.417	14282.84
831.743	14320.13
832.069	14219.57
832.395	14240.13
832.722	14260.92
833.048	14254.37
833.374	14192.23
833.7	14101.38
834.026	14185.45
834.351	14238.78
834.677	14155.16
835.003	14210.98
835.329	14079.01
835.654	14186.8
835.98	14176.18
836.306	14072.23
836.631	14202.62
836.956	14112.91
837.282	14101.83
837.607	14043.76
837.932	13952.91
838.258	14079.46
838.583	13989.07
838.908	13929.63
839.233	13973.47
839.558	13931.89
839.883	13920.82
840.208	13849.41
840.533	13887.37
840.858	13767.6
841.182	13826.59
841.507	13816.87
841.832	13724.67
842.156	13707.27
842.481	13662.97
842.805	13703.88
843.13	13574.16
843.454	13589.53
843.778	13614.39
844.103	13449.42
844.427	13448.29
844.751	13433.83
845.075	13501.4
845.399	13385.02
845.723	13321.06
846.047	13384.56
846.371	13240.84
846.695	13297.33
847.019	13085.81
847.343	13103.44
847.666	13054.18
847.99	12972.6
848.313	12954.74
848.637	12808.99
848.96	12829.78
849.284	12763.34
849.607	12772.15
849.931	12679.27
850.254	12606.28
850.577	12576.45
850.9	12471.82
851.223	12451.03
851.546	12417.81
851.869	12297.13
852.192	12418.04
852.515	12211.49
852.838	12227.08
853.161	12216.68
853.483	12095.78
853.806	12008.78
854.129	12055.11
854.451	12034.32
854.774	11987.31
855.096	11932.85
855.419	11914.09
855.741	11950.48
856.063	11867.99
856.385	11800.88
856.708	11805.4
857.03	11734.66
857.352	11691.5
857.674	11695.79
857.996	11632.07
858.318	11556.36
858.64	11592.29
858.961	11551.84
859.283	11472.52
859.605	11434.78
859.926	11436.82
860.248	11414.45
860.57	11339.19
860.891	11385.75
861.212	11260.33
861.534	11279.08
861.855	11235.47
862.176	11324.5
862.498	11201.34
862.819	11235.92
863.14	11165.86
863.461	11184.85
863.782	11152.53
864.103	11157.96
864.424	11153.44
864.745	11156.83
865.065	11035.02
865.386	10990.28
865.707	11007.9
866.027	10987.79
866.348	10999.99
866.668	10980.11
866.989	11005.87
867.309	10932.65
867.63	10913.67
867.95	10877.28
868.27	10827.12
868.59	10825.31
868.91	10735.14
869.23	10813.56
869.55	10750.28
869.87	10792.77
870.19	10800.9
870.51	10761.81
870.83	10766.33
871.15	10662.38
871.469	10718.87
871.789	10699.44
872.109	10686.1
872.428	10582.15
872.748	10600
873.067	10608.59
873.386	10667.8
873.706	10531.31
874.025	10467.8
874.344	10471.42
874.663	10506.67
874.982	10476.17
875.301	10452.21
875.62	10520.91
875.939	10384.42
876.258	10459.67
876.577	10368.82
876.896	10403.4
877.214	10398.2
877.533	10317.07
877.852	10289.5
878.17	10303.06
878.489	10331.31
878.807	10289.73
879.125	10312.55
879.444	10247.92
879.762	10228.26
880.08	10247.92
880.398	10152.11
880.716	10185.78
881.034	10167.02
881.352	10209.51
881.67	10151.2
881.988	10042.28
882.306	10105.1
882.624	10069.85
882.941	10048.83
883.259	9964.09
883.577	9930.19
883.894	10070.07
884.212	9953.02
884.529	9950.53
884.846	9868.95
885.164	9933.81
885.481	9838.44
885.798	9832.11
886.115	9856.75
886.432	9785.56
886.75	9771.78
887.067	9745.56
887.383	9680.48
887.7	9725.22
888.017	9616.75
888.334	9619.01
888.651	9575.4
888.967	9655.62
889.284	9606.36
889.6	9562.52
889.917	9487.26
890.233	9565.68
890.55	9465.34
890.866	9444.1
891.182	9396.87
891.498	9366.36
891.815	9339.7
892.131	9226.48
892.447	9212.24
892.763	9241.4
893.079	9237.33
893.395	9167.5
893.71	9110.33
894.026	9141.29
894.342	9113.49
894.657	9013.83
894.973	9022.87
895.289	9038.24
895.604	9032.14
895.92	8919.82
896.235	8904.46
896.55	8892.48
896.865	8953.49
897.181	8908.07
897.496	8878.69
897.811	8845.47
898.126	8733.39
898.441	8760.73
898.756	8650
899.071	8601.64
899.386	8682.99
899.7	8621.75
900.015	8564.13
900.33	8498.14
900.644	8479.16
900.959	8506.5
901.273	8454.07
901.588	8405.26
901.902	8377.92
902.216	8388.99
902.531	8324.36
902.845	8246.85
903.159	8272.16
903.473	8217.92
903.787	8188.77
904.101	8204.81
904.415	8177.92
904.729	8130.69
905.042	8060.86
905.356	8000.07
905.67	8012.05
905.984	8032.84
906.297	7884.82
906.611	7889.11
906.924	7920.07
907.237	7886.63
907.551	7840.75
907.864	7858.38
908.177	7748.55
908.491	7740.87
908.804	7713.75
909.117	7640.31
909.43	7591.95
909.743	7591.5
910.056	7524.83
910.368	7549.69
910.681	7526.64
910.994	7431.95
911.307	7507.2
911.619	7382.91
911.932	7437.15
912.244	7400.99
912.557	7366.19
912.869	7250.26
913.181	7241.67
913.494	7262.92
913.806	7214.33
914.118	7161.68
914.43	7076.25
914.742	7152.41
915.054	7092.75
915.366	7057.27
915.678	7064.5
915.99	6991.06
916.302	6949.48
916.613	6888.46
916.925	6920.55
917.236	6899.31
917.548	6875.81
917.859	6807.56
918.171	6776.6
918.482	6759.43
918.794	6752.42
919.105	6797.39
919.416	6692.99
919.727	6686.89
920.038	6674.68
920.349	6613.67
920.66	6586.55
920.971	6547.45
921.282	6560.11
921.593	6485.99
921.903	6466.33
922.214	6487.34
922.525	6455.03
922.835	6422.26
923.146	6408.48
923.456	6327.12
923.767	6321.92
924.077	6321.02
924.387	6290.74
924.697	6211.64
925.008	6250.74
925.318	6182.04
925.628	6187.69
925.938	6124.42
926.248	6174.58
926.558	6064.3
926.867	6072.67
927.177	6077.64
927.487	6037.19
927.796	5987.7
928.106	6025.21
928.416	5997.19
928.725	5937.53
929.034	5898.88
929.344	5919.9
929.653	5890.07
929.962	5811.88
930.271	5793.58
930.581	5723.07
930.89	5793.35
931.199	5703.86
931.508	5745.22
931.817	5683.52
932.125	5687.14
932.434	5635.84
932.743	5595.84
933.051	5602.62
933.36	5606.01
933.669	5531.21
933.977	5536.18
934.286	5499.8
934.594	5494.38
934.902	5469.07
935.21	5443.53
935.519	5386.36
935.827	5392.01
936.135	5385.9
936.443	5318.56
936.751	5313.82
937.059	5303.42
937.367	5252.8
937.674	5284.21
937.982	5235.17
938.29	5235.4
938.597	5229.52
938.905	5187.49
939.213	5128.28
939.52	5105.23
939.827	5134.16
940.135	5125.57
940.442	5055.06
940.749	5073.14
941.056	5060.04
941.363	5009.64
941.67	4948.63
941.977	4942.3
942.284	4953.37
942.591	4936.42
942.898	4907.95
943.205	4915.41
943.511	4848.97
943.818	4821.17
944.125	4799.03
944.431	4749.76
944.738	4757.67
945.044	4723.1
945.35	4721.97
945.657	4720.84
945.963	4688.07
946.269	4670.89
946.575	4612.14
946.881	4603.55
947.187	4606.72
947.493	4583.66
947.799	4596.77
948.105	4561.29
948.41	4536.89
948.716	4487.62
949.022	4460.5
949.327	4520.84
949.633	4439.04
949.938	4393.84
950.244	4443.33
950.549	4420.51
950.854	4374.18
951.16	4342.54
951.465	4290.11
951.77	4299.38
952.075	4277.01
952.38	4284.24
952.685	4313.16
952.99	4252.83
953.294	4230
953.599	4235.2
953.904	4185.94
954.209	4155.2
954.513	4128.54
954.818	4131.93
955.122	4135.54
955.426	4099.38
955.731	4087.41
956.035	4057.35
956.339	4091.25
956.643	4055.09
956.948	3987.75
957.252	3991.14
957.556	3986.84
957.86	3986.17
958.163	3973.29
958.467	3916.34
958.771	3905.26
959.075	3931.93
959.378	3904.59
959.682	3878.82
959.985	3848.77
960.289	3801.09
960.592	3799.96
960.896	3780.75
961.199	3789.11
961.502	3757.7
961.805	3745.95
962.108	3739.62
962.411	3698.49
962.714	3730.81
963.017	3682.9
963.32	3684.03
963.623	3670.24
963.926	3645.61
964.228	3655.78
964.531	3623.46
964.833	3600.41
965.136	3560.41
965.438	3578.49
965.741	3562.9
966.043	3536.46
966.345	3526.74
966.648	3468.67
966.95	3514.31
967.252	3507.76
967.554	3436.35
967.856	3449.46
968.158	3422.34
968.46	3417.14
968.761	3409.68
969.063	3395
969.365	3369.01
969.666	3353.64
969.968	3348.44
970.269	3324.94
970.571	3293.08
970.872	3308.9
971.174	3291.27
971.475	3259.41
971.776	3224.6
972.077	3227.54
972.378	3219.63
972.679	3243.14
972.98	3209.01
973.281	3187.77
973.582	3175.79
973.883	3143.25
974.183	3151.16
974.484	3159.75
974.785	3084.5
975.085	3133.53
975.386	3080.43
975.686	3074.78
975.986	3026.42
976.287	3071.84
976.587	3054.67
976.887	3022.8
977.187	3005.4
977.487	3014.21
977.787	2964.05
978.087	2971.73
978.387	2956.81
978.687	2901.45
978.987	2948.45
979.286	2886.99
979.586	2929.92
979.885	2897.16
980.185	2880.21
980.484	2827.55
980.784	2851.28
981.083	2836.59
981.382	2851.73
981.682	2825.97
981.981	2826.2
982.28	2794.56
982.579	2798.4
982.878	2756.37
983.177	2781.45
983.475	2701.23
983.774	2708.46
984.073	2730.83
984.372	2689.03
984.67	2686.99
984.969	2670.04
985.267	2658.52
985.566	2639.08
985.864	2617.39
986.162	2642.02
986.461	2595.24
986.759	2608.12
987.057	2570.38
987.355	2604.28
987.653	2587.56
987.951	2546.43
988.249	2566.99
988.547	2528.13
988.844	2503.04
989.142	2506.43
989.44	2481.8
989.737	2546.2
990.035	2492.87
990.332	2503.72
990.63	2444.96
990.927	2450.84
991.224	2396.38
991.521	2438.41
991.819	2424.85
992.116	2425.53
992.413	2349.83
992.71	2388.24
993.006	2384.4
993.303	2348.47
993.6	2371.97
993.897	2329.71
994.193	2335.81
994.49	2306.21
994.787	2301.46
995.083	2295.14
995.379	2250.62
995.676	2248.81
995.972	2291.97
996.268	2238.64
996.565	2243.39
996.861	2198.87
997.157	2273.22
997.453	2203.61
997.749	2206.1
998.044	2184.41
998.34	2158.64
998.636	2189.38
998.932	2149.38
999.227	2137.18
999.523	2125.88
999.818	2115.93
1000.114	2100.57
1000.409	2072.54
1000.704	2077.97
1001	2051.53
1001.295	2048.82
1001.59	2073.45
1001.885	2054.01
1002.18	1996.84
1002.475	2015.6
1002.77	2004.52
1003.065	1983.51
1003.359	2026.9
1003.654	1954.81
1003.949	1980.8
1004.243	1950.51
1004.538	1958.42
1004.832	1944.86
1005.127	1922.94
1005.421	1916.39
1005.715	1884.3
1006.009	1889.72
1006.304	1899.89
1006.598	1874.58
1006.892	1866.9
1007.186	1837.97
1007.48	1847.24
1007.773	1838.65
1008.067	1802.72
1008.361	1816.51
1008.655	1797.3
1008.948	1754.36
1009.242	1781.7
1009.535	1776.73
1009.829	1763.85
1010.122	1742.61
1010.415	1719.11
1010.708	1746.68
1011.001	1704.19
1011.295	1693.57
1011.588	1693.8
1011.881	1695.61
1012.173	1659.45
1012.466	1661.48
1012.759	1681.82
1013.052	1667.36
1013.344	1655.15
1013.637	1637.75
1013.93	1619
1014.222	1576.96
1014.514	1597.08
1014.807	1612.9
1015.099	1575.61
1015.391	1560.47
1015.683	1549.62
1015.976	1560.24
1016.268	1520.24
1016.56	1513.24
1016.851	1509.62
1017.143	1509.4
1017.435	1473.24
1017.727	1496.06
1018.018	1481.83
1018.31	1496.29
1018.602	1480.7
1018.893	1416.97
1019.185	1461.71
1019.476	1459
1019.767	1433.01
1020.058	1433.69
1020.35	1411.77
1020.641	1392.34
1020.932	1391.88
1021.223	1411.54
1021.514	1383.3
1021.804	1361.6
1022.095	1371.09
1022.386	1339.91
1022.677	1319.57
1022.967	1329.74
1023.258	1335.84
1023.548	1301.04
1023.839	1326.58
1024.129	1308.27
1024.419	1287.03
1024.709	1298.33
1025	1266.69
1025.29	1259.23
1025.58	1277.76
1025.87	1252.23
1026.16	1226.69
1026.449	1237.76
1026.739	1206.8
1027.029	1232.79
1027.319	1215.84
1027.608	1215.84
1027.898	1207.48
1028.187	1197.99
1028.477	1170.2
1028.766	1192.57
1029.055	1157.31
1029.344	1129.07
1029.634	1160.03
1029.923	1147.82
1030.212	1104.43
1030.501	1115.28
1030.79	1136.07
1031.078	1127.71
1031.367	1115.73
1031.656	1092.91
1031.945	1118.22
1032.233	1097.2
1032.522	1081.84
1032.81	1092.01
1033.099	1065.79
1033.387	1050.42
1033.675	1026.92
1033.963	1052.46
1034.251	1044.77
1034.54	1025.57
1034.828	1021.27
1035.116	1026.24
1035.403	987.83
1035.691	1006.81
1035.979	1005.45
1036.267	1011.33
1036.554	1006.13
1036.842	962.97
1037.129	982.86
1037.417	972.69
1037.704	1000.03
1037.992	979.92
1038.279	986.47
1038.566	931.78
1038.853	931.78
1039.14	931.78
