Data from hue_330_FLMS001491_81.txt Node
Date: Mon Feb 06 15:46:01 GMT 2017
User: dcchb
Spectrometer: FLMS00149
Trigger mode: 0
Integration Time (sec): 2.000000E-2
Scans to average: 10
Electric dark correction enabled: true
Nonlinearity correction enabled: false
Boxcar width: 0
XAxis mode: Wavelengths
Number of Pixels in Spectrum: 2048
>>>>>Begin Spectral Data<<<<<
341.393	3.39
341.776	3.39
342.16	3.39
342.543	-58.76
342.927	-44.29
343.31	-74.35
343.693	-60.79
344.077	-61.69
344.46	-58.08
344.843	-46.55
345.226	-31.41
345.61	-26.21
345.993	-27.8
346.376	-10.4
346.759	25.08
347.142	25.08
347.525	25.31
347.908	55.37
348.291	66.21
348.674	83.39
349.057	116.83
349.44	130.62
349.823	142.82
350.206	169.26
350.588	200.22
350.971	204.29
351.354	204.29
351.737	242.71
352.119	259.43
352.502	268.47
352.884	253.33
353.267	277.96
353.65	282.7
354.032	289.71
354.414	310.95
354.797	297.85
355.179	328.13
355.562	331.97
355.944	312.08
356.326	337.39
356.709	334.68
357.091	334.45
357.473	340.1
357.855	329.03
358.238	329.93
358.62	333.32
359.002	340.56
359.384	317.51
359.766	354.34
360.148	341.46
360.53	330.61
360.912	329.26
361.294	319.09
361.676	328.35
362.057	336.71
362.439	331.29
362.821	307.11
363.203	354.79
363.584	337.84
363.966	304.17
364.348	322.7
364.729	333.55
365.111	329.71
365.493	330.84
365.874	309.37
366.256	301.46
366.637	300.78
367.019	321.57
367.4	324.06
367.781	313.21
368.163	308.69
368.544	306.21
368.925	298.07
369.306	291.52
369.688	309.14
370.069	298.07
370.45	323.16
370.831	327.9
371.212	304.85
371.593	321.57
371.974	305.98
372.355	315.02
372.736	311.18
373.117	301.91
373.498	320.9
373.879	300.33
374.26	327.22
374.641	303.72
375.021	308.69
375.402	322.48
375.783	320.67
376.163	329.93
376.544	315.47
376.925	331.29
377.305	330.84
377.686	324.74
378.066	326.77
378.447	326.55
378.827	340.1
379.208	332.19
379.588	329.26
379.968	342.14
380.349	323.16
380.729	316.38
381.109	336.04
381.489	340.1
381.87	326.09
382.25	329.71
382.63	341.91
383.01	348.24
383.39	350.73
383.77	338.97
384.15	363.38
384.53	332.42
384.91	342.14
385.29	364.28
385.67	372.65
386.049	344.85
386.429	355.02
386.809	351.18
387.189	350.05
387.568	341.91
387.948	353.66
388.328	352.99
388.707	357.28
389.087	349.37
389.466	361.12
389.846	369.71
390.225	363.83
390.605	390.72
390.984	374
391.363	373.55
391.743	352.53
392.122	389.14
392.501	382.36
392.881	384.62
393.26	369.93
393.639	363.15
394.018	402.93
394.397	367.22
394.776	379.2
395.155	390.05
395.534	395.47
395.913	372.65
396.292	403.15
396.671	392.76
397.05	403.83
397.429	398.18
397.808	386.66
398.186	388.69
398.565	416.03
398.944	383.72
399.323	403.61
399.701	387.79
400.08	403.61
400.458	406.32
400.837	404.96
401.215	412.42
401.594	398.18
401.972	418.07
402.351	420.78
402.729	409.71
403.107	411.29
403.486	397.28
403.864	425.3
404.242	429.37
404.62	431.85
404.999	454.45
405.377	435.02
405.755	427.79
406.133	470.95
406.511	443.83
406.889	475.92
407.267	442.47
407.645	472.08
408.023	456.94
408.401	464.85
408.779	474.34
409.156	472.08
409.534	480.44
409.912	483.83
410.29	498.29
410.667	504.39
411.045	491.29
411.422	480.21
411.8	525.41
412.178	504.39
412.555	524.05
412.933	512.53
413.31	535.58
413.687	545.97
414.065	519.99
414.442	530.16
414.819	558.63
415.197	545.52
415.574	533.55
415.951	586.2
416.328	555.24
416.705	572.64
417.082	576.93
417.46	563.15
417.837	597.5
418.214	583.71
418.591	601.34
418.967	597.27
419.344	629.59
419.721	611.28
420.098	612.41
420.475	630.72
420.852	643.82
421.228	625.97
421.605	660.1
421.982	668.46
422.358	684.73
422.735	656.48
423.111	684.05
423.488	682.92
423.864	710.94
424.241	699.87
424.617	689.7
424.994	702.81
425.37	723.6
425.746	698.29
426.123	727.44
426.499	712.07
426.875	735.8
427.251	746.2
427.627	725.86
428.003	754.1
428.379	753.88
428.756	784.61
429.132	789.81
429.507	805.18
429.883	808.34
430.259	807.21
430.635	838.17
431.011	827.32
431.387	857.38
431.763	881.56
432.138	867.32
432.514	870.71
432.89	874.33
433.265	885.17
433.641	887.66
434.016	907.32
434.392	905.29
434.767	934.66
435.143	920.43
435.518	931.5
435.894	943.7
436.269	957.71
436.644	970.6
437.02	989.13
437.395	991.84
437.77	987.09
438.145	1012.4
438.52	1020.09
438.895	1004.49
439.271	1037.94
439.646	1023.93
440.021	1060.09
440.395	1050.82
440.77	1042.23
441.145	1031.16
441.52	1042.68
441.895	1063.02
442.27	1092.17
442.645	1077.03
443.019	1073.64
443.394	1103.47
443.769	1096.24
444.143	1088.11
444.518	1110.48
444.892	1101.89
445.267	1138.95
445.641	1124.49
446.016	1124.49
446.39	1126.75
446.764	1138.95
447.139	1139.86
447.513	1118.61
447.887	1121.33
448.262	1159.52
448.636	1168.33
449.01	1179.18
449.384	1151.83
449.758	1207.43
450.132	1174.43
450.506	1199.29
450.88	1234.54
451.254	1187.31
451.628	1212.4
452.002	1234.32
452.376	1228.22
452.75	1255.11
453.123	1251.49
453.497	1253.75
453.871	1273.41
454.244	1289.68
454.618	1266.63
454.992	1280.19
455.365	1281.55
455.739	1320.42
456.112	1357.93
456.486	1336.01
456.859	1343.92
457.232	1364.26
457.606	1351.15
457.979	1351.83
458.352	1383.47
458.725	1404.93
459.099	1422.11
459.472	1425.5
459.845	1460.53
460.218	1458.04
460.591	1449.91
460.964	1442.22
461.337	1495.78
461.71	1499.17
462.083	1505.95
462.456	1541.2
462.829	1523.12
463.201	1520.19
463.574	1542.78
463.947	1565.83
464.32	1586.62
464.692	1629.79
465.065	1613.29
465.438	1618.71
465.81	1639.28
466.183	1662.78
466.555	1698.03
466.928	1686.96
467.3	1680.86
467.672	1691.03
468.045	1749.78
468.417	1754.98
468.789	1762.44
469.161	1759.05
469.534	1764.02
469.906	1810.35
470.278	1838.37
470.65	1832.27
471.022	1827.97
471.394	1884.24
471.766	1908.2
472.138	1924.47
472.51	1994.3
472.882	1985.94
473.253	2006.05
473.625	2019.16
473.997	2001.53
474.369	2073.62
474.74	2092.6
475.112	2131.92
475.484	2193.16
475.855	2164.46
476.227	2160.62
476.598	2235.65
476.97	2278.58
477.341	2295.98
477.713	2319.26
478.084	2340.05
478.455	2362.42
478.827	2422.76
479.198	2436.32
479.569	2432.48
479.94	2499.6
480.311	2507.5
480.682	2607.84
481.053	2639.7
481.424	2652.59
481.795	2670.44
482.166	2663.88
482.537	2739.36
482.908	2782.3
483.279	2771.9
483.65	2863.2
484.021	2865.69
484.391	2897.55
484.762	2923.54
485.133	2931
485.503	2968.96
485.874	3094.38
486.244	3066.81
486.615	3096.64
486.985	3151.78
487.356	3207.83
487.726	3215.06
488.097	3278.33
488.467	3278.11
488.837	3323.98
489.207	3400.36
489.578	3399.46
489.948	3486.91
490.318	3463.41
490.688	3528.27
491.058	3520.36
491.428	3526.91
491.798	3600.13
492.168	3639.23
492.538	3677.42
492.908	3689.39
493.278	3745.44
493.648	3784.53
494.017	3789.96
494.387	3848.03
494.757	3822.27
495.126	3862.27
495.496	3867.24
495.866	3914.7
496.235	3958.54
496.605	3980.91
496.974	3994.7
497.344	4071.08
497.713	4046.9
498.082	4085.77
498.452	4097.07
498.821	4089.61
499.19	4121.25
499.559	4173.9
499.928	4183.62
500.298	4165.54
500.667	4182.71
501.036	4205.09
501.405	4262.26
501.774	4239.66
502.143	4294.58
502.512	4308.36
502.88	4361.02
503.249	4356.27
503.618	4370.05
503.987	4376.38
504.356	4417.74
504.724	4396.72
505.093	4434.01
505.462	4450.73
505.83	4496.38
506.199	4507.9
506.567	4571.63
506.936	4530.95
507.304	4575.7
507.672	4606.66
508.041	4604.85
508.409	4616.6
508.777	4689.59
509.145	4663.38
509.514	4708.8
509.882	4696.6
510.25	4782.93
510.618	4756.71
510.986	4751.51
511.354	4745.64
511.722	4846.88
512.09	4872.41
512.458	4839.42
512.826	4884.62
513.193	4860.44
513.561	4882.36
513.929	4929.59
514.297	4961.68
514.664	4930.94
515.032	4960.32
515.4	5015.24
515.767	5016.37
516.135	5039.42
516.502	4986.08
516.869	5082.8
517.237	5092.3
517.604	5039.64
517.972	5088.23
518.339	5126.64
518.706	5140.43
519.073	5130.26
519.44	5130.71
519.808	5163.25
520.175	5208.45
520.542	5249.58
520.909	5241.44
521.276	5288.9
521.643	5285.96
522.009	5307.43
522.376	5283.25
522.743	5373.87
523.11	5392.17
523.477	5410.93
523.843	5436.47
524.21	5522.79
524.577	5522.57
524.943	5492.51
525.31	5561.66
525.676	5612.51
526.043	5617.25
526.409	5623.58
526.776	5653.86
527.142	5656.12
527.508	5702.67
527.874	5790.58
528.241	5799.85
528.607	5804.82
528.973	5835.1
529.339	5855.44
529.705	5890.92
530.071	5936.34
530.437	5983.57
530.803	6045.04
531.169	6036.9
531.535	5987.64
531.901	6047.3
532.267	6072.83
532.632	6063.8
532.998	6158.26
533.364	6125.26
533.73	6188.99
534.095	6265.82
534.461	6171.82
534.826	6298.14
535.192	6267.63
535.557	6359.38
535.923	6324.81
536.288	6348.08
536.653	6390.11
537.019	6424.69
537.384	6412.71
537.749	6485.25
538.114	6485.48
538.479	6516.89
538.845	6491.35
539.21	6570.22
539.575	6575.42
539.94	6552.82
540.305	6656.1
540.67	6655.19
541.034	6591.01
541.399	6728.18
541.764	6743.55
542.129	6733.61
542.494	6780.16
542.858	6805.24
543.223	6836.2
543.587	6859.71
543.952	6886.37
544.316	6849.31
544.681	6908.97
545.045	6954.17
545.41	7026.48
545.774	7017.67
546.138	7050.66
546.503	7002.75
546.867	7028.52
547.231	7176.76
547.595	7161.39
547.959	7125.91
548.324	7140.38
548.688	7221.96
549.052	7211.11
549.416	7209.3
549.779	7293.37
550.143	7281.62
550.507	7322.97
550.871	7405.91
551.235	7347.38
551.599	7391.67
551.962	7480.03
552.326	7402.07
552.689	7543.08
553.053	7499.24
553.417	7496.98
553.78	7602.06
554.143	7570.42
554.507	7659.91
554.87	7636.64
555.234	7649.29
555.597	7615.39
555.96	7716.41
556.323	7710.53
556.686	7733.81
557.05	7777.42
557.413	7752.11
557.776	7786.69
558.139	7795.28
558.502	7879.11
558.865	7902.39
559.228	7929.28
559.59	7939.9
559.953	7963.86
560.316	8053.8
560.679	8034.82
561.041	8035.04
561.404	8126.11
561.767	8144.42
562.129	8166.56
562.492	8210.86
562.854	8200.46
563.217	8173.34
563.579	8186
563.941	8283.17
564.304	8259.67
564.666	8368.82
565.028	8334.92
565.39	8348.93
565.753	8402.26
566.115	8505.09
566.477	8473.22
566.839	8464.64
567.201	8491.98
567.563	8589.15
567.925	8563.62
568.287	8607.68
568.648	8640
569.01	8666.44
569.372	8755.25
569.734	8705.31
570.095	8835.7
570.457	8807.9
570.819	8848.35
571.18	8860.11
571.542	8945.53
571.903	8983.49
572.265	9002.02
572.626	9051.51
572.987	9115.69
573.349	9113.43
573.71	9201.79
574.071	9280.66
574.432	9263.71
574.794	9388
575.155	9397.49
575.516	9455.57
575.877	9518.62
576.238	9596.36
576.599	9640.42
576.96	9747.09
577.32	9776.01
577.681	9907.99
578.042	9918.38
578.403	10024.6
578.763	10088.32
579.124	10213.29
579.485	10342.78
579.845	10418.48
580.206	10519.27
580.566	10656.89
580.927	10789.77
581.287	10814.63
581.648	10964.23
582.008	11086.04
582.368	11212.36
582.728	11439.02
583.089	11530.09
583.449	11670.65
583.809	11910.87
584.169	12052.34
584.529	12128.72
584.889	12467.92
585.249	12616.62
585.609	12698.65
585.969	12980.22
586.329	13185.87
586.688	13344.51
587.048	13645.74
587.408	13749.92
587.768	14025.39
588.127	14296.8
588.487	14438.26
588.846	14741.31
589.206	14864.69
589.565	15224.23
589.925	15480.27
590.284	15689.3
590.643	15942.18
591.003	16247.26
591.362	16537.64
591.721	16807.02
592.08	17091.98
592.44	17353.22
592.799	17574.23
593.158	17942.13
593.517	18204.49
593.876	18440.19
594.235	18664.82
594.593	19068.2
594.952	19377.57
595.311	19635.42
595.67	19916.31
596.029	20327.6
596.387	20550.65
596.746	20934.36
597.104	21108.15
597.463	21284.19
597.822	21778.18
598.18	21888.24
598.538	22111.96
598.897	22665.84
599.255	22646.41
599.613	23332.27
599.972	23416.11
600.33	23689.32
600.688	23848.41
601.046	24331.79
601.404	24617.21
601.762	24799.57
602.12	25232.56
602.478	25444.08
602.836	25734.24
603.194	25861.47
603.552	26062.59
603.91	26334.9
604.268	26602.01
604.625	26863.02
604.983	27223.01
605.341	27354.08
605.698	27703.9
606.056	27976.89
606.413	28110.45
606.771	28507.95
607.128	28600.38
607.485	28791.79
607.843	29101.83
608.2	29493.01
608.557	29654.14
608.914	29721.03
609.272	30100.23
609.629	30390.61
609.986	30666.54
610.343	30696.59
610.7	31100.43
611.057	31174.32
611.414	31398.5
611.771	31645.04
612.127	31923.23
612.484	32063.11
612.841	32331.13
613.198	32435.98
613.554	32428.07
613.911	32812.47
614.267	32980.38
614.624	33065.12
614.98	33346.47
615.337	33589.63
615.693	33682.5
616.05	33723.63
616.406	34056.28
616.762	34104.19
617.118	34203.85
617.475	34306.44
617.831	34591.41
618.187	34673.89
618.543	34908.46
618.899	35192.75
619.255	35272.52
619.611	35320.88
619.967	35439.75
620.323	35687.2
620.678	35569.46
621.034	35653.75
621.39	35853.52
621.746	35905.27
622.101	36396.33
622.457	36081.31
622.812	36337.12
623.168	36375.77
623.523	36576.89
623.879	36585.25
624.234	36478.59
624.589	36862.08
624.945	36928.29
625.3	36973.94
625.655	37108.85
626.01	37262.52
626.365	37258.46
626.72	37128.97
627.075	37305.69
627.43	37327.83
627.785	37410.54
628.14	37450.77
628.495	37589.29
628.85	37589.07
629.205	37536.87
629.559	37799.91
629.914	37662.96
630.269	37787.26
630.623	37658.67
630.978	37692.57
631.332	37862.96
631.687	37987.93
632.041	37877.87
632.396	38072.45
632.75	37930.08
633.104	37974.82
633.459	37814.82
633.813	37862.96
634.167	37929.4
634.521	37953.8
634.875	38054.59
635.229	38039.68
635.583	37852.79
635.937	37912.45
636.291	37798.33
636.645	37987.02
636.999	38008.94
637.352	38120.35
637.706	37859.34
638.06	38066.57
638.413	38023.86
638.767	37950.19
639.121	37966.91
639.474	37872.45
639.828	37792.23
640.181	38029.28
640.534	37913.35
640.888	37889.17
641.241	37792.68
641.594	37902.73
641.947	37954.71
642.301	37857.54
642.654	37840.59
643.007	37992.9
643.36	37750.42
643.713	37890.53
644.066	38107.25
644.419	37732.12
644.771	37405.57
645.124	37247.38
645.477	37153.83
645.83	37063.43
646.182	36728.07
646.535	36835.87
646.888	36933.72
647.24	36610.34
647.593	36789.99
647.945	36725.59
648.298	36627.74
648.65	36542.32
649.002	36534.63
649.355	36788.64
649.707	36537.12
650.059	36768.3
650.411	37172.81
650.763	37300.26
651.115	37496.19
651.467	37431.78
651.819	37594.72
652.171	37397.43
652.523	37418.9
652.875	37432.24
653.227	37163.32
653.578	37507.49
653.93	37527.37
654.282	37217.55
654.633	37135.07
654.985	37184.11
655.337	37271.34
655.688	37355.4
656.039	37373.03
656.391	37008.07
656.742	37142.53
657.094	37110.21
657.445	37317.44
657.796	37234.95
658.147	37174.84
658.498	37182.3
658.849	37256.87
659.2	37159.93
659.551	37097.78
659.902	37274.5
660.253	37134.39
660.604	37178.23
660.955	37032.92
661.306	37218.23
661.656	36931.91
662.007	37096.2
662.358	37109.31
662.708	37058.46
663.059	37058.69
663.409	36917
663.76	37131
664.11	37146.14
664.461	37160.38
664.811	37053.94
665.161	37042.64
665.511	36997.9
665.862	36882.87
666.212	37114.28
666.562	37148.4
666.912	37065.01
667.262	37001.29
667.612	36968.75
667.962	36998.35
668.312	36895.08
668.662	37122.64
669.011	36835.19
669.361	36825.92
669.711	36877.9
670.06	36780.28
670.41	36820.95
670.76	36750.45
671.109	37054.84
671.459	36902.08
671.808	36736.21
672.157	36943.21
672.507	36621.41
672.856	36842.65
673.205	36738.02
673.554	36860.05
673.904	36738.92
674.253	36907.73
674.602	36680.84
674.951	36181.87
675.3	36128.77
675.649	36667.96
675.998	36737.79
676.346	36621.86
676.695	36838.58
677.044	36460.28
677.393	36562.65
677.741	36716.77
678.09	36519.94
678.438	36409.21
678.787	36601.98
679.135	36611.01
679.484	36262.55
679.832	36522.2
680.181	36183.68
680.529	36420.74
680.877	36157.02
681.225	36336.9
681.573	36376.9
681.922	36162.21
682.27	36080.41
682.618	36075.44
682.966	35935.78
683.314	36007.64
683.661	35956.79
684.009	35812.17
684.357	35614.43
684.705	35635.9
685.053	35689.23
685.4	35526.3
685.748	35425.28
686.095	35483.36
686.443	35393.19
686.79	35215.8
687.138	35425.51
687.485	35398.84
687.832	35090.15
688.18	35283.37
688.527	35050.15
688.874	35081.34
689.221	35012.64
689.568	34873.21
689.915	34814.9
690.262	34783.04
690.609	34673.66
690.956	34616.26
691.303	34554.57
691.65	34552.31
691.997	34479.77
692.344	34192.77
692.69	34177.86
693.037	34248.37
693.383	34122.27
693.73	34187.12
694.077	33982.84
694.423	33877.08
694.769	33869.62
695.116	33690.41
695.462	33662.17
695.808	33540.36
696.155	33654.26
696.501	33416.07
696.847	33487.26
697.193	33155.74
697.539	33297.66
697.885	32976.08
698.231	32947.83
698.577	32976.76
698.923	32889.98
699.269	32765.24
699.614	32644.79
699.96	32605.7
700.306	32578.58
700.651	32392.14
700.997	32292.71
701.342	32313.73
701.688	32271.69
702.033	32158.7
702.379	32052.94
702.724	32045.03
703.069	32038.93
703.415	31745.15
703.76	31794.19
704.105	31773.63
704.45	31577.47
704.795	31586.29
705.14	31462.9
705.485	31394.65
705.83	31212.51
706.175	31336.8
706.52	31210.93
706.865	31062.46
707.209	31100.2
707.554	30975.23
707.899	31092.74
708.243	30804.84
708.588	30800.55
708.932	30642.13
709.277	30592.19
709.621	30747.67
709.966	30503.83
710.31	30616.6
710.654	30214.57
710.998	30294.12
711.342	30256.61
711.687	30112.43
712.031	30078.98
712.375	29960.57
712.719	30057.97
713.063	29934.13
713.407	30044.18
713.75	29862.04
714.094	29750.18
714.438	29576.85
714.782	29711.76
715.125	29532.78
715.469	29575.04
715.812	29385.44
716.156	29187.93
716.499	29274.48
716.843	29261.15
717.186	29227.03
717.53	29295.27
717.873	29240.59
718.216	29232.68
718.559	29003.76
718.902	28872.91
719.246	28969.86
719.589	28923.31
719.932	28718.11
720.275	28740.94
720.617	28698.45
720.96	28583.43
721.303	28664.56
721.646	28734.84
721.989	28491.23
722.331	28592.69
722.674	28495.3
723.016	28390.89
723.359	28374.17
723.701	28436.54
724.044	28283.32
724.386	28091.69
724.729	28374.4
725.071	28124.68
725.413	28098.24
725.755	28091.92
726.097	28070.45
726.439	27826.61
726.782	27925.59
727.124	28002.2
727.465	27731.25
727.807	27711.81
728.149	27816.22
728.491	27589.11
728.833	27642.44
729.175	27525.6
729.516	27503.68
729.858	27477.02
730.199	27615.77
730.541	27437.7
730.882	27327.19
731.224	27548.43
731.565	27286.29
731.906	27224.82
732.248	27278.38
732.589	27082
732.93	27159.51
733.271	27026.41
733.612	27150.7
733.953	27112.28
734.294	27045.39
734.635	26902.57
734.976	26943.25
735.317	26869.58
735.658	26831.84
735.999	26835.45
736.339	26805.17
736.68	26794.1
737.021	26847.43
737.361	26545.52
737.702	26847.2
738.042	26626.87
738.383	26654.67
738.723	26589.81
739.063	26583.48
739.404	26592.3
739.744	26433.2
740.084	26428.46
740.424	26391.17
740.764	26284.51
741.104	26470.94
741.444	26190.05
741.784	26201.12
742.124	26245.41
742.464	26090.39
742.804	26115.7
743.143	26072.53
743.483	26202.7
743.823	25885.87
744.162	25783.73
744.502	25942.82
744.841	25836.16
745.181	25906.21
745.52	25778.98
745.86	25930.17
746.199	25681.13
746.538	25647.46
746.877	25772.2
747.216	25653.56
747.556	25580.12
747.895	25606.78
748.234	25593.23
748.573	25403.85
748.911	25396.62
749.25	25451.08
749.589	25218.09
749.928	25408.6
750.267	25311.65
750.605	25246.34
750.944	25188.04
751.283	25199.79
751.621	25138.1
751.96	25064.88
752.298	25067.59
752.636	24940.14
752.975	24942.17
753.313	24846.13
753.651	24918.44
753.989	24709.63
754.327	24772.23
754.666	24642.29
755.004	24712.8
755.342	24590.77
755.679	24568.85
756.017	24371.56
756.355	24465.57
756.693	24393.03
757.031	24332.69
757.368	24249.76
757.706	24212.24
758.044	24095.19
758.381	24142.42
758.719	24066.26
759.056	24046.83
759.394	23844.34
759.731	23814.06
760.068	23737.91
760.405	23736.33
760.743	23662.43
761.08	23694.07
761.417	23539.27
761.754	23448.42
762.091	23399.84
762.428	23420.63
762.765	23094.08
763.102	23219.28
763.438	23107.42
763.775	23069.9
764.112	23011.15
764.449	23061.77
764.785	22861.77
765.122	22772.96
765.458	22673.75
765.795	22543.59
766.131	22552.85
766.467	22570.48
766.804	22403.93
767.14	22289.81
767.476	22333.88
767.812	22167.33
768.148	22135.92
768.485	22085.07
768.821	21971.17
769.157	21981.79
769.492	21849.14
769.828	21818.18
770.164	21668.36
770.5	21594.46
770.836	21649.83
771.171	21500.45
771.507	21450.28
771.842	21353.79
772.178	21354.92
772.513	21259.33
772.849	21142.95
773.184	21113.8
773.519	20890.52
773.855	20934.59
774.19	20870.19
774.525	20758.55
774.86	20751.54
775.195	20631.32
775.53	20553.58
775.865	20493.47
776.2	20427.71
776.535	20213.93
776.87	20258.68
777.205	20205.57
777.539	20157.21
777.874	20143.65
778.209	19921.28
778.543	19985.46
778.878	19832.47
779.212	19785.47
779.547	19651.23
779.881	19644.23
780.215	19514.52
780.55	19601.74
780.884	19466.83
781.218	19472.26
781.552	19388.19
781.886	19232.26
782.22	19093.96
782.554	19086.5
782.888	18994.75
783.222	18805.16
783.556	18779.62
783.889	18729.9
784.223	18564.48
784.557	18565.84
784.89	18717.25
785.224	18513.41
785.557	18393.87
785.891	18451.72
786.224	18354.77
786.558	18194.78
786.891	18099.86
787.224	18021.67
787.557	18087.21
787.891	18016.7
788.224	17940.77
788.557	17928.57
788.89	17908.23
789.223	17832.98
789.556	17678.86
789.888	17560.67
790.221	17548.92
790.554	17420.78
790.887	17448.35
791.219	17444.29
791.552	17366.32
791.884	17226.44
792.217	17200.68
792.549	17115.71
792.882	17051.76
793.214	16932.44
793.546	17018.54
793.879	16846.56
794.211	16749.84
794.543	16865.77
794.875	16755.04
795.207	16799.33
795.539	16727.92
795.871	16673.69
796.203	16473.92
796.535	16442.51
796.867	16399.57
797.198	16355.05
797.53	16290.19
797.862	16119.58
798.193	16296.97
798.525	16124.77
798.856	16095.4
799.188	16021.95
799.519	15929.3
799.85	15845.46
800.182	15896.98
800.513	15915.06
800.844	15662.64
801.175	15840.26
801.506	15720.49
801.837	15661.28
802.168	15581.96
802.499	15577.9
802.83	15469.2
803.161	15498.58
803.491	15410.44
803.822	15356.88
804.153	15269.2
804.483	15259.03
804.814	15146.04
805.145	15078.02
805.475	15118.7
805.805	15075.99
806.136	15035.54
806.466	15071.24
806.796	15002.54
807.126	14870.8
807.457	14764.81
807.787	14873.28
808.117	14812.72
808.447	14743.57
808.777	14673.51
809.107	14704.92
809.436	14615.66
809.766	14694.3
810.096	14600.97
810.426	14574.53
810.755	14525.27
811.085	14464.25
811.414	14365.72
811.744	14302.22
812.073	14346.29
812.403	14398.49
812.732	14170.47
813.061	14219.97
813.39	14179.29
813.719	14076.24
814.049	14146.07
814.378	14137.48
814.707	14072.62
815.036	14036.47
815.365	13866.3
815.693	13800.54
816.022	13873.31
816.351	13850.03
816.68	13722.8
817.008	13833.08
817.337	13635.12
817.665	13652.75
817.994	13701.56
818.322	13591.51
818.651	13574.56
818.979	13457.27
819.307	13596.7
819.636	13531.85
819.964	13390.83
820.292	13500.21
820.62	13438.52
820.948	13424.28
821.276	13447.33
821.604	13361
821.932	13355.36
822.259	13419.76
822.587	13357.61
822.915	13348.12
823.243	13371.17
823.57	13363.49
823.898	13388.35
824.225	13296.15
824.553	13346.54
824.88	13386.99
825.207	13381.57
825.535	13336.15
825.862	13335.92
826.189	13249.82
826.516	13369.59
826.843	13366.43
827.17	13358.97
827.497	13316.26
827.824	13357.84
828.151	13370.27
828.478	13353.55
828.805	13336.6
829.131	13302.7
829.458	13250.5
829.785	13128.69
830.111	13224.29
830.438	13295.92
830.764	13230.61
831.09	13266.77
831.417	13185.42
831.743	13288.69
832.069	13220.22
832.395	13142.48
832.722	13224.29
833.048	13236.49
833.374	13205.53
833.7	13151.52
834.026	13172.54
834.351	13158.07
834.677	13142.48
835.003	13147.9
835.329	13156.49
835.654	13143.16
835.98	13052.99
836.306	13112.88
836.631	12949.04
836.956	13094.57
837.282	13095.7
837.607	13032.43
837.932	12940.68
838.258	12968.02
838.583	12911.3
838.908	12868.81
839.233	12845.54
839.558	12881.7
839.883	12777.07
840.208	12796.73
840.533	12751.3
840.858	12751.08
841.182	12737.74
841.507	12769.16
841.832	12780.45
842.156	12628.37
842.481	12659.55
842.805	12630.18
843.13	12587.47
843.454	12554.25
843.778	12507.24
844.103	12482.61
844.427	12449.62
844.751	12508.15
845.075	12473.8
845.399	12416.85
845.723	12314.48
846.047	12411.2
846.371	12259.79
846.695	12200.81
847.019	12103.86
847.343	12072.68
847.666	11951.32
847.99	11988.39
848.313	11950.42
848.637	11866.81
848.96	11836.75
849.284	11848.05
849.607	11738.9
849.931	11737.09
850.254	11633.59
850.577	11566.93
850.9	11491.45
851.223	11537.1
851.546	11441.96
851.869	11325.58
852.192	11462.75
852.515	11249.87
852.838	11185.69
853.161	11256.65
853.483	11189.31
853.806	11187.95
854.129	11109.54
854.451	11073.83
854.774	10997.9
855.096	11017.11
855.419	10983.21
855.741	10932.37
856.063	10901.86
856.385	10881.97
856.708	10799.04
857.03	10816.89
857.352	10734.18
857.674	10788.87
857.996	10699.38
858.318	10636.56
858.64	10667.74
858.961	10658.93
859.283	10591.81
859.605	10541.87
859.926	10502.77
860.248	10498.48
860.57	10405.83
860.891	10486.73
861.212	10420.52
861.534	10365.38
861.855	10366.73
862.176	10455.32
862.498	10420.52
862.819	10344.81
863.14	10307.75
863.461	10225.04
863.782	10263.01
864.103	10189.34
864.424	10210.58
864.745	10267.3
865.065	10216.45
865.386	10142.33
865.707	10164.48
866.027	10128.55
866.348	10122.9
866.668	10010.13
866.989	10017.36
867.309	10020.53
867.63	10010.36
867.95	10022.79
868.27	10075.22
868.59	9959.51
868.91	10059.85
869.23	9896.01
869.55	9883.36
869.87	9887.65
870.19	9890.81
870.51	9902.11
870.83	9910.93
871.15	9860.76
871.469	9761.33
871.789	9866.41
872.109	9847.2
872.428	9813.75
872.748	9863.24
873.067	9773.75
873.386	9760.42
873.706	9864.15
874.025	9774.43
874.344	9698.73
874.663	9705.06
874.982	9665.96
875.301	9660.08
875.62	9644.04
875.939	9612.18
876.258	9593.42
876.577	9615.57
876.896	9553.42
877.214	9540.99
877.533	9520.65
877.852	9485.4
878.17	9498.06
878.489	9508
878.807	9543.7
879.125	9443.59
879.444	9505.96
879.762	9379.41
880.08	9364.27
880.398	9408.79
880.716	9379.87
881.034	9374.67
881.352	9376.02
881.67	9317.04
881.988	9287.21
882.306	9303.71
882.624	9248.8
882.941	9236.14
883.259	9217.38
883.577	9147.1
883.894	9159.31
884.212	9128.12
884.529	9079.31
884.846	9115.24
885.164	9072.08
885.481	9002.48
885.798	9052.19
886.115	8968.8
886.432	8934.45
886.75	8973.78
887.067	8930.39
887.383	8913.89
887.7	8933.78
888.017	8840.22
888.334	8874.34
888.651	8840.67
888.967	8865.3
889.284	8741.69
889.6	8691.07
889.917	8693.33
890.233	8721.35
890.55	8648.59
890.866	8682.94
891.182	8676.83
891.498	8626.89
891.815	8618.53
892.131	8597.06
892.447	8505.31
892.763	8481.13
893.079	8479.33
893.395	8462.6
893.71	8446.78
894.026	8399.1
894.342	8458.53
894.657	8326.11
894.973	8353.68
895.289	8315.71
895.604	8344.87
895.92	8207.69
896.235	8197.75
896.55	8210.63
896.865	8188.71
897.181	8148.71
897.496	8136.06
897.811	8122.95
898.126	8077.53
898.441	8038.43
898.756	7989.85
899.071	7985.78
899.386	8015.38
899.7	7869.85
900.015	7913.46
900.33	7821.72
900.644	7841.83
900.959	7824.88
901.273	7769.51
901.588	7769.97
901.902	7759.8
902.216	7746.46
902.531	7693.81
902.845	7675.96
903.159	7600.03
903.473	7576.07
903.787	7543.98
904.101	7536.98
904.415	7562.51
904.729	7419.01
905.042	7457.43
905.356	7450.88
905.67	7382.4
905.984	7374.04
906.297	7338.34
906.611	7328.62
906.924	7246.59
907.237	7268.06
907.551	7224.89
907.864	7197.32
908.177	7235.52
908.491	7152.13
908.804	7142.19
909.117	7067.16
909.43	7027.16
909.743	6996.43
910.056	7023.32
910.368	6962.08
910.681	6961.4
910.994	6960.72
911.307	6836.2
911.619	6840.95
911.932	6892.25
912.244	6791.46
912.557	6814.51
912.869	6745.59
913.181	6729.99
913.494	6713.72
913.806	6706.94
914.118	6655.19
914.43	6619.94
914.742	6593.5
915.054	6598.92
915.366	6507.17
915.678	6513.95
915.99	6478.93
916.302	6446.38
916.613	6458.59
916.925	6425.82
917.236	6418.14
917.548	6342.88
917.859	6315.77
918.171	6267.41
918.482	6263.79
918.794	6271.47
919.105	6270.34
919.416	6175.2
919.727	6170.23
920.038	6217.01
920.349	6146.05
920.66	6086.17
920.971	6035.55
921.282	6037.36
921.593	6028.09
921.903	5968.2
922.214	5923.01
922.525	5917.36
922.835	5933.86
923.146	5907.19
923.456	5899.96
923.767	5852.5
924.077	5835.78
924.387	5808.89
924.697	5776.12
925.008	5792.84
925.318	5711.26
925.628	5736.12
925.938	5636.46
926.248	5641.66
926.558	5640.3
926.867	5570.7
927.177	5572.28
927.487	5558.95
927.796	5462.91
928.106	5539.74
928.416	5488.22
928.725	5477.14
929.034	5408.45
929.344	5433.3
929.653	5371.38
929.962	5380.42
930.271	5334.1
930.581	5350.14
930.89	5287.77
931.199	5249.58
931.508	5280.99
931.817	5269.69
932.125	5282.8
932.434	5162.8
932.743	5133.65
933.051	5164.84
933.36	5094.78
933.669	5059.75
933.977	5043.94
934.286	5068.57
934.594	5044.39
934.902	5005.74
935.21	4947.67
935.519	4974.78
935.827	4944.5
936.135	4913.77
936.443	4917.16
936.751	4865.18
937.059	4893.88
937.367	4799.2
937.674	4846.2
937.982	4807.33
938.29	4799.2
938.597	4793.32
938.905	4719.42
939.213	4738.41
939.52	4681.23
939.827	4728.24
940.135	4644.85
940.442	4656.6
940.749	4628.58
941.056	4639.2
941.363	4571.86
941.67	4562.14
941.977	4575.7
942.284	4548.81
942.591	4499.77
942.898	4458.41
943.205	4484.85
943.511	4461.8
943.818	4416.38
944.125	4440.34
944.431	4401.92
944.738	4398.53
945.044	4381.13
945.35	4385.2
945.657	4291.41
945.963	4323.05
946.269	4306.1
946.575	4294.58
946.881	4245.99
947.187	4259.77
947.493	4229.95
947.799	4187.91
948.105	4180.68
948.41	4120.34
948.716	4171.19
949.022	4150.17
949.327	4143.39
949.633	4073.11
949.938	4074.92
950.244	4085.09
950.549	4037.18
950.854	4017.07
951.16	3985.88
951.465	3998.54
951.77	3973
952.075	3961.25
952.38	3936.39
952.685	3978.2
952.99	3900.24
953.294	3874.02
953.599	3887.81
953.904	3859.33
954.209	3852.33
954.513	3841.25
954.818	3806.23
955.122	3803.74
955.426	3798.54
955.731	3742.27
956.035	3716.74
956.339	3719
956.643	3750.41
956.948	3698.21
957.252	3703.41
957.556	3707.25
957.86	3649.62
958.163	3661.37
958.467	3601.26
958.771	3636.51
959.075	3583.18
959.378	3593.13
959.682	3549.96
959.985	3551.32
960.289	3537.76
960.592	3500.02
960.896	3503.41
961.199	3464.99
961.502	3468.84
961.805	3452.56
962.108	3404.66
962.411	3443.53
962.714	3407.37
963.017	3370.98
963.32	3375.96
963.623	3387.71
963.926	3311.55
964.228	3299.35
964.531	3287.6
964.833	3313.13
965.136	3289.41
965.438	3269.74
965.741	3206.02
966.043	3220.93
966.345	3256.41
966.648	3223.42
966.95	3191.33
967.252	3186.81
967.554	3173.93
967.856	3165.79
968.158	3140.03
968.46	3100.03
968.761	3133.93
969.063	3127.38
969.365	3116.08
969.666	3073.82
969.968	3048.06
970.269	3058
970.571	3064.78
970.872	3059.35
971.174	2992.01
971.475	3012.35
971.776	3003.08
972.077	2984.78
972.378	2959.24
972.679	2996.53
972.98	2940.94
973.281	2905.23
973.582	2905.23
973.883	2889.19
974.183	2900.26
974.484	2873.14
974.785	2870.88
975.085	2849.64
975.386	2874.05
975.686	2813.71
975.986	2809.87
976.287	2822.3
976.587	2784.11
976.887	2785.01
977.187	2785.69
977.487	2738.69
977.787	2749.98
978.087	2763.54
978.387	2716.31
978.687	2703.88
978.987	2730.32
979.286	2694.62
979.586	2679.03
979.885	2661.17
980.185	2598.58
980.484	2626.37
980.784	2601.74
981.083	2619.82
981.382	2595.64
981.682	2611.23
981.981	2566.49
982.28	2570.78
982.579	2531.23
982.878	2567.16
983.177	2538.24
983.475	2540.27
983.774	2502.76
984.073	2519.26
984.372	2488.52
984.67	2484.23
984.969	2482.65
985.267	2493.27
985.566	2476.77
985.864	2408.75
986.162	2446.26
986.461	2409.2
986.759	2409.88
987.057	2385.02
987.355	2346.6
987.653	2373.04
987.951	2350.45
988.249	2359.49
988.547	2335.53
988.844	2337.34
989.142	2310.22
989.44	2318.58
989.737	2304.8
990.035	2294.4
990.332	2274.29
990.63	2265.48
990.927	2242.65
991.224	2234.74
991.521	2248.3
991.819	2249.43
992.116	2203.78
992.413	2221.86
992.71	2179.15
993.006	2166.72
993.303	2193.84
993.6	2204.69
993.897	2138.7
994.193	2190.22
994.49	2145.03
994.787	2113.84
995.083	2113.62
995.379	2103.22
995.676	2137.12
995.972	2090.34
996.268	2079.72
996.565	2044.92
996.861	2053.05
997.157	2053.96
997.453	2068.19
997.749	2022.09
998.044	2016.9
998.34	2028.65
998.636	2014.86
998.932	2011.7
999.227	1969.21
999.523	1977.12
999.818	1954.52
1000.114	1934.86
1000.409	1972.15
1000.704	1945.94
1001	1925.15
1001.295	1916.11
1001.59	1874.3
1001.885	1888.31
1002.18	1874.75
1002.475	1875.66
1002.77	1869.1
1003.065	1831.14
1003.359	1844.92
1003.654	1831.14
1003.949	1812.38
1004.243	1827.75
1004.538	1783.68
1004.832	1815.09
1005.127	1792.27
1005.421	1773.06
1005.715	1796.11
1006.009	1786.17
1006.304	1764.02
1006.598	1719.05
1006.892	1717.69
1007.186	1710.01
1007.48	1732.38
1007.773	1713.63
1008.067	1686.74
1008.361	1685.38
1008.655	1670.01
1008.948	1651.26
1009.242	1634.76
1009.535	1643.8
1009.829	1628.66
1010.122	1636.34
1010.415	1590.92
1010.708	1625.95
1011.001	1623.69
1011.295	1581.65
1011.588	1597.7
1011.881	1574.2
1012.173	1554.54
1012.466	1541.65
1012.759	1545.5
1013.052	1541.2
1013.344	1558.83
1013.637	1499.17
1013.93	1497.36
1014.222	1531.03
1014.514	1499.17
1014.807	1508.43
1015.099	1472.96
1015.391	1453.52
1015.683	1479.96
1015.976	1477.7
1016.268	1453.75
1016.56	1450.81
1016.851	1412.62
1017.143	1401.77
1017.435	1417.14
1017.727	1395.67
1018.018	1382.11
1018.31	1378.49
1018.602	1360.64
1018.893	1386.86
1019.185	1377.59
1019.476	1362.68
1019.767	1352.05
1020.058	1342.34
1020.35	1310.93
1020.641	1333.75
1020.932	1311.38
1021.223	1297.14
1021.514	1302.56
1021.804	1277.93
1022.095	1264.83
1022.386	1270.02
1022.677	1259.63
1022.967	1251.49
1023.258	1252.62
1023.548	1249.46
1023.839	1238.84
1024.129	1193.19
1024.419	1218.5
1024.709	1215.34
1025	1193.64
1025.29	1173.75
1025.58	1169.01
1025.87	1180.08
1026.16	1146.41
1026.449	1153.64
1026.739	1146.64
1027.029	1149.8
1027.319	1140.76
1027.608	1114.55
1027.898	1122
1028.187	1104.83
1028.477	1119.52
1028.766	1106.64
1029.055	1118.16
1029.344	1104.6
1029.634	1057.15
1029.923	1057.6
1030.212	1107.99
1030.501	1061.22
1030.79	1076.13
1031.078	1055.57
1031.367	1055.11
1031.656	1043.36
1031.945	1015.57
1032.233	999.97
1032.522	1006.98
1032.81	1003.59
1033.099	1009.01
1033.387	1008.79
1033.675	987.54
1033.963	995
1034.251	990.26
1034.54	983.93
1034.828	952.07
1035.116	958.84
1035.403	962.23
1035.691	960.2
1035.979	955
1036.267	949.81
1036.554	951.39
1036.842	916.36
1037.129	905.96
1037.417	905.06
1037.704	920.65
1037.992	908
1038.279	914.33
1038.566	891.5
1038.853	891.5
1039.14	891.5
