Data from hue_24_FLMS001491_00030.txt Node
Date: Tue Feb 07 17:12:03 GMT 2017
User: dcchb
Spectrometer: FLMS00149
Trigger mode: 0
Integration Time (sec): 2.000000E-2
Scans to average: 10
Electric dark correction enabled: true
Nonlinearity correction enabled: false
Boxcar width: 0
XAxis mode: Wavelengths
Number of Pixels in Spectrum: 2048
>>>>>Begin Spectral Data<<<<<
341.393	-30.2
341.776	-30.2
342.16	-30.2
342.543	-87.82
342.927	-73.13
343.31	-70.2
343.693	-67.48
344.077	-56.64
344.46	-70.2
344.843	-57.09
345.226	-39.46
345.61	-23.64
345.993	-5.56
346.376	-24.32
346.759	24.94
347.142	13.19
347.525	39.41
347.908	61.78
348.291	74.89
348.674	102.23
349.057	98.16
349.44	129.8
349.823	142.45
350.206	148.33
350.588	185.62
350.971	208.89
351.354	216.58
351.737	210.93
352.119	231.27
352.502	283.02
352.884	284.6
353.267	274.65
353.65	277.37
354.032	294.54
354.414	318.49
354.797	302.9
355.179	307.87
355.562	334.54
355.944	322.56
356.326	347.19
356.709	328.21
357.091	365.95
357.473	334.54
357.855	346.74
358.238	351.04
358.62	356.46
359.002	326.86
359.384	339.28
359.766	344.71
360.148	341.09
360.53	342.67
360.912	355.1
361.294	343.35
361.676	327.99
362.057	322.79
362.439	347.42
362.821	338.38
363.203	339.06
363.584	345.84
363.966	338.61
364.348	320.08
364.729	327.53
365.111	350.13
365.493	319.85
365.874	326.63
366.256	327.53
366.637	321.21
367.019	305.16
367.4	329.79
367.781	316.69
368.163	314.43
368.544	292.05
368.925	306.97
369.306	322.11
369.688	311.71
370.069	313.75
370.45	324.14
370.831	305.39
371.212	306.29
371.593	320.75
371.974	302.45
372.355	323.24
372.736	303.58
373.117	314.65
373.498	324.14
373.879	306.52
374.26	299.51
374.641	315.33
375.021	320.75
375.402	330.02
375.783	324.82
376.163	316.23
376.544	323.24
376.925	325.05
377.305	330.92
377.686	336.57
378.066	344.48
378.447	328.89
378.827	327.31
379.208	333.41
379.588	332.28
379.968	349.45
380.349	344.48
380.729	322.34
381.109	348.32
381.489	346.06
381.87	345.16
382.25	350.36
382.63	348.55
383.01	332.28
383.39	348.55
383.77	332.73
384.15	351.49
384.53	341.54
384.91	341.09
385.29	338.61
385.67	350.36
386.049	348.55
386.429	353.75
386.809	359.4
387.189	348.1
387.568	343.58
387.948	357.14
388.328	356.91
388.707	365.72
389.087	368.21
389.466	361.66
389.846	353.52
390.225	380.19
390.605	347.65
390.984	376.57
391.363	363.47
391.743	396.68
392.122	379.06
392.501	364.82
392.881	381.09
393.26	372.05
393.639	377.02
394.018	378.83
394.397	368.89
394.776	397.36
395.155	374.99
395.534	395.33
395.913	392.39
396.292	391.71
396.671	377.02
397.05	369.11
397.429	372.96
397.808	399.17
398.186	402.56
398.565	399.17
398.944	391.26
399.323	423.35
399.701	403.92
400.08	388.78
400.458	414.99
400.837	396.68
401.215	408.21
401.594	407.31
401.972	396.23
402.351	400.3
402.729	401.2
403.107	416.57
403.486	407.76
403.864	419.96
404.242	412.05
404.62	413.41
404.999	430.81
405.377	428.1
405.755	436.68
406.133	412.96
406.511	423.35
406.889	427.87
407.267	454.31
407.645	443.24
408.023	452.05
408.401	452.95
408.779	447.08
409.156	464.93
409.534	454.99
409.912	448.21
410.29	460.86
410.667	460.19
411.045	453.86
411.422	469
411.8	472.84
412.178	468.32
412.555	478.49
412.933	480.07
413.31	485.27
413.687	479.17
414.065	481.43
414.442	485.04
414.819	491.37
415.197	494.08
415.574	499.51
415.951	509.22
416.328	520.3
416.705	481.65
417.082	499.05
417.46	538.38
417.837	508.09
418.214	510.81
418.591	541.31
418.967	525.27
419.344	514.42
419.721	550.8
420.098	544.93
420.475	525.49
420.852	525.49
421.228	532.27
421.605	528.88
421.982	541.09
422.358	552.61
422.735	541.99
423.111	558.04
423.488	554.87
423.864	553.97
424.241	551.93
424.617	584.7
424.994	571.82
425.37	579.96
425.746	561.65
426.123	563.69
426.499	571.6
426.875	591.71
427.251	620.86
427.627	601.42
428.003	623.57
428.379	614.76
428.756	616.11
429.132	623.12
429.507	640.75
429.883	626.96
430.259	651.82
430.635	647.07
431.011	646.17
431.387	633.29
431.763	653.4
432.138	672.61
432.514	669.45
432.89	689.11
433.265	679.84
433.641	683.68
434.016	690.46
434.392	683.68
434.767	715.55
435.143	684.36
435.518	710.12
435.894	697.24
436.269	708.77
436.644	725.04
437.02	715.09
437.395	745.6
437.77	754.42
438.145	746.05
438.52	754.42
438.895	761.87
439.271	767.07
439.646	765.94
440.021	788.09
440.395	782.44
440.77	764.13
441.145	779.95
441.52	800.74
441.895	774.75
442.27	813.4
442.645	813.17
443.019	807.75
443.394	806.84
443.769	810.46
444.143	802.32
444.518	824.7
444.892	811.14
445.267	815.88
445.641	839.84
446.016	849.1
446.39	827.63
446.764	838.93
447.139	824.02
447.513	863.79
447.887	848.42
448.262	881.64
448.636	855.88
449.01	874.41
449.384	887.97
449.758	864.69
450.132	879.16
450.506	891.13
450.88	881.42
451.254	907.86
451.628	890.46
452.002	938.59
452.376	925.48
452.75	956.9
453.123	958.7
453.497	947.18
453.871	955.54
454.244	977.46
454.618	993.73
454.992	985.14
455.365	1000.74
455.739	1033.05
456.112	1030.79
456.486	1000.74
456.859	1043.22
457.232	1029.21
457.606	1038.02
457.979	1053.62
458.352	1084.8
458.725	1090.45
459.099	1078.7
459.472	1131.81
459.845	1125.03
460.218	1123.22
460.591	1122.54
460.964	1137.46
461.337	1157.12
461.71	1169.55
462.083	1194.86
462.456	1222.2
462.829	1209.77
463.201	1244.8
463.574	1214.06
463.947	1236.89
464.32	1260.39
464.692	1264.01
465.065	1264.68
465.438	1319.37
465.81	1305.81
466.183	1330.9
466.555	1375.19
466.928	1381.97
467.3	1386.71
467.672	1414.06
468.045	1419.71
468.417	1435.08
468.789	1444.11
469.161	1442.31
469.534	1486.83
469.906	1522.53
470.278	1512.59
470.65	1552.81
471.022	1548.74
471.394	1605.47
471.766	1594.39
472.138	1635.97
472.51	1641.17
472.882	1672.81
473.253	1703.09
473.625	1719.81
473.997	1757.33
474.369	1750.55
474.74	1802.52
475.112	1805.69
475.484	1890.66
475.855	1891.79
476.227	1927.27
476.598	1978.56
476.97	1987.83
477.341	2034.61
477.713	2055.62
478.084	2065.57
478.455	2155.06
478.827	2176.98
479.198	2213.13
479.569	2228.27
479.94	2288.16
480.311	2324.32
480.682	2340.59
481.053	2432.11
481.424	2444.31
481.795	2516.85
482.166	2539
482.537	2574.71
482.908	2625.33
483.279	2692.67
483.65	2729.28
484.021	2780.12
484.391	2794.81
484.762	2868.71
485.133	2902.61
485.503	2944.64
485.874	2980.35
486.244	3090.4
486.615	3099.21
486.985	3134.47
487.356	3241.58
487.726	3249.04
488.097	3339.88
488.467	3352.99
488.837	3447.68
489.207	3527.22
489.578	3527.22
489.948	3569.48
490.318	3617.16
490.688	3642.02
491.058	3716.37
491.428	3764.73
491.798	3858.29
492.168	3865.75
492.538	3904.84
492.908	3959.3
493.278	4025.06
493.648	4058.28
494.017	4104.16
494.387	4185.29
494.757	4180.09
495.126	4244.27
495.496	4249.46
495.866	4329.01
496.235	4363.36
496.605	4374.21
496.974	4425.73
497.344	4507.08
497.713	4478.16
498.082	4563.13
498.452	4586.4
498.821	4604.94
499.19	4655.1
499.559	4698.72
499.928	4738.49
500.298	4772.84
500.667	4794.76
501.036	4773.29
501.405	4865.04
501.774	4868.66
502.143	4902.1
502.512	4908.88
502.88	4994.3
503.249	4981.42
503.618	5011.25
503.987	5029.56
504.356	5067.52
504.724	5107.97
505.093	5163.11
505.462	5178.93
505.83	5194.75
506.199	5253.51
506.567	5325.59
506.936	5270
507.304	5349.55
507.672	5386.16
508.041	5401.52
508.409	5438.59
508.777	5487.4
509.145	5507.96
509.514	5512.48
509.882	5504.57
510.25	5544.12
510.618	5593.38
510.986	5611.46
511.354	5655.08
511.722	5683.55
512.09	5708.18
512.458	5732.36
512.826	5770.1
513.193	5754.51
513.561	5798.35
513.929	5819.82
514.297	5873.15
514.664	5878.8
515.032	5917.22
515.4	5921.28
515.767	5983.43
516.135	5992.92
516.502	5965.8
516.869	6054.84
517.237	6091.68
517.604	6104.78
517.972	6114.05
518.339	6183.65
518.706	6182.3
519.073	6164.89
519.44	6204.67
519.808	6248.96
520.175	6231.56
520.542	6370.76
520.909	6364.21
521.276	6375.51
521.643	6380.26
522.009	6466.13
522.376	6509.29
522.743	6508.61
523.11	6561.27
523.477	6683.75
523.843	6617.76
524.21	6657.54
524.577	6695.05
524.943	6782.96
525.31	6760.13
525.676	6812.56
526.043	6859.34
526.409	6922.84
526.776	6963.07
527.142	6977.08
527.508	7030.41
527.874	7092.33
528.241	7041.71
528.607	7101.82
528.973	7230.4
529.339	7191.31
529.705	7265.2
530.071	7321.47
530.437	7300.91
530.803	7402.6
531.169	7458.42
531.535	7386.33
531.901	7504.97
532.267	7543.16
532.632	7517.4
532.998	7585.42
533.364	7556.72
533.73	7643.5
534.095	7693.22
534.461	7710.39
534.826	7767.34
535.192	7863.83
535.557	7916.94
535.923	7838.3
536.288	7890.27
536.653	7900.67
537.019	7861.57
537.384	7950.84
537.749	8006.2
538.114	7970.04
538.479	8029.7
538.845	8121.23
539.21	7986.09
539.575	8080.55
539.94	8111.96
540.305	8236.25
540.67	8251.85
541.034	8238.74
541.399	8274.44
541.764	8278.96
542.129	8275.57
542.494	8379.3
542.858	8487.77
543.223	8415.23
543.587	8499.07
543.952	8441.67
544.316	8570.25
544.681	8576.81
545.045	8595.56
545.41	8686.64
545.774	8626.75
546.138	8673.08
546.503	8740.65
546.867	8739.29
547.231	8804.37
547.595	8785.84
547.959	8863.58
548.324	8806.63
548.688	8871.04
549.052	8927.76
549.416	8986.97
549.779	8955.56
550.143	8997.81
550.507	9062.22
550.871	9020.64
551.235	9087.53
551.599	9146.28
551.962	9114.65
552.326	9173.4
552.689	9292.72
553.053	9203.91
553.417	9278.48
553.78	9321.87
554.143	9361.65
554.507	9414.98
554.87	9410.68
555.234	9513.96
555.597	9474.41
555.96	9494.75
556.323	9561.19
556.686	9516.22
557.05	9640.74
557.413	9615.43
557.776	9586.5
558.139	9790.79
558.502	9724.57
558.865	9756.44
559.228	9862.88
559.59	9836.89
559.953	9834.63
560.316	9924.57
560.679	9997.34
561.041	10041.85
561.404	10135.41
561.767	10078.01
562.129	10062.87
562.492	10225.13
562.854	10211.34
563.217	10158.69
563.579	10215.86
563.941	10223.32
564.304	10242.53
564.666	10371.34
565.028	10395.97
565.39	10371.56
565.753	10466.7
566.115	10497.66
566.477	10528.62
566.839	10518
567.201	10692.23
567.563	10570.65
567.925	10692.46
568.287	10786.24
568.648	10727.26
569.01	10848.61
569.372	10852.68
569.734	10872.57
570.095	10909.18
570.457	10990.53
570.819	11023.3
571.18	11021.94
571.542	11132
571.903	11133.8
572.265	11204.76
572.626	11279.56
572.987	11300.35
573.349	11389.16
573.71	11395.72
574.071	11476.62
574.432	11505.32
574.794	11640.46
575.155	11590.74
575.516	11657.86
575.877	11874.8
576.238	11833.22
576.599	11948.25
576.96	12007.9
577.32	12072.31
577.681	12107.34
578.042	12174.45
578.403	12329.93
578.763	12485.63
579.124	12539.42
579.485	12662.58
579.845	12747.77
580.206	12870.25
580.566	12938.95
580.927	13098.5
581.287	13277.25
581.648	13309.34
582.008	13508.66
582.368	13590.91
582.728	13763.34
583.089	13847.86
583.449	14033.61
583.809	14247.39
584.169	14351.35
584.529	14515.41
584.889	14773.03
585.249	14948.62
585.609	15080.14
585.969	15302.73
586.329	15482.39
586.688	15757.18
587.048	15969.83
587.408	16062.71
587.768	16292.76
588.127	16591.51
588.487	16806.42
588.846	17120.31
589.206	17242.57
589.565	17554.88
589.925	17865.83
590.284	18122.77
590.643	18383.33
591.003	18743.09
591.362	18953.26
591.721	19154.16
592.08	19556.86
592.44	19718.66
592.799	20033.23
593.158	20282.94
593.517	20619.2
593.876	20988.69
594.235	21207.89
594.593	21413.08
594.952	21870.92
595.311	22104.59
595.67	22455.31
596.029	22851.91
596.387	23245.58
596.746	23577.54
597.104	23662.74
597.463	24023.63
597.822	24476.28
598.18	24451.42
598.538	24876.49
598.897	25241.23
599.255	25453.43
599.613	26014.32
599.972	26175.67
600.33	26517.81
600.688	26755.77
601.046	27167.73
601.404	27633.26
601.762	27770.88
602.12	28240.25
602.478	28538.54
602.836	28710.52
603.194	28795.49
603.552	29209.03
603.91	29381.46
604.268	29779.19
604.625	29859.41
604.983	30314.99
605.341	30373.07
605.698	30898.71
606.056	31126.72
606.413	31492.36
606.771	31672.02
607.128	31990.88
607.485	32095.06
607.843	32441.72
608.2	32803.52
608.557	32991.76
608.914	33126.22
609.272	33623.83
609.629	33872.41
609.986	34106.53
610.343	34158.96
610.7	34651.6
611.057	34757.59
611.414	34930.69
611.771	35231.7
612.127	35649.32
612.484	35678.92
612.841	36115.75
613.198	35935.19
613.554	36251.79
613.911	36561.61
614.267	36698.78
614.624	36914.59
614.98	37047.02
615.337	37334.7
615.693	37521.58
616.05	37589.83
616.406	37952.31
616.762	37902.82
617.118	37991.18
617.475	38250.83
617.831	38407.44
618.187	38573.31
618.543	38770.82
618.899	39076.57
619.255	39039.06
619.611	39301.2
619.967	39503.9
620.323	39644.24
620.678	39657.57
621.034	39727.4
621.39	39793.84
621.746	39757.23
622.101	40333.04
622.457	40093.04
622.812	40221.63
623.168	40485.12
623.523	40690.77
623.879	40876.98
624.234	40634.04
624.589	40909.29
624.945	40970.98
625.3	41058.44
625.655	41065.22
626.01	41292.33
626.365	41339.11
626.72	41346.34
627.075	41486.45
627.43	41556.51
627.785	41422.27
628.14	41632.66
628.495	41705.65
628.85	41780.23
629.205	41630.4
629.559	42166.66
629.914	41756.95
630.269	41933.22
630.623	41873.79
630.978	41865.65
631.332	41994.46
631.687	42144.29
632.041	42045.53
632.396	42216.83
632.75	41940.9
633.104	42151.07
633.459	41961.69
633.813	41907.91
634.167	42143.38
634.521	42133.44
634.875	42210.05
635.229	42238.75
635.583	42179.54
635.937	41985.42
636.291	42055.25
636.645	42038.98
636.999	41944.52
637.352	42204.85
637.706	41987.68
638.06	42189.94
638.413	42106.77
638.767	42151.29
639.121	42104.29
639.474	41843.96
639.828	42006.44
640.181	42058.87
640.534	42107.68
640.888	42010.28
641.241	41676.28
641.594	42057.96
641.947	42081.92
642.301	41967.12
642.654	41994.91
643.007	41993.78
643.36	41931.86
643.713	41941.35
644.066	42112.65
644.419	41914.69
644.771	41636.96
645.124	41259.79
645.477	41268.15
645.83	41047.37
646.182	40984.54
646.535	40829.52
646.888	40944.54
647.24	40722.63
647.593	40904.32
647.945	40766.47
648.298	40637.21
648.65	40671.11
649.002	40542.3
649.355	40692.12
649.707	40719.01
650.059	40984.77
650.411	41312.9
650.763	41351.09
651.115	41822.49
651.467	41712.43
651.819	41638.09
652.171	41511.54
652.523	41398.32
652.875	41363.29
653.227	41351.31
653.578	41697.97
653.93	41563.06
654.282	41423.63
654.633	41395.15
654.985	41329.17
655.337	41521.25
655.688	41532.33
656.039	41534.59
656.391	41185.67
656.742	41306.34
657.094	41291.2
657.445	41552.21
657.796	41259.79
658.147	41311.54
658.498	41309.73
658.849	41295.72
659.2	41319.9
659.551	41220.92
659.902	41251.66
660.253	41132.34
660.604	41212.79
660.955	41155.61
661.306	41323.07
661.656	41294.59
662.007	41156.29
662.358	41167.59
662.708	41240.13
663.059	41222.28
663.409	40954.49
663.76	41224.31
664.11	41296.17
664.461	41304.54
664.811	41341.37
665.161	41212.33
665.511	41129.62
665.862	41261.6
666.212	41301.15
666.562	41251.43
666.912	41040.36
667.262	41145.67
667.612	41106.8
667.962	41229.96
668.312	41025.22
668.662	41284.87
669.011	41233.58
669.361	41072.23
669.711	40962.62
670.06	40960.59
670.41	40949.97
670.76	40980.93
671.109	41132.11
671.459	40908.16
671.808	40905.68
672.157	40944.09
672.507	40649.64
672.856	40733.93
673.205	40834.49
673.554	41072.9
673.904	40740.26
674.253	40981.15
674.602	40868.61
674.951	40330.1
675.3	40129.88
675.649	40817.54
675.998	40721.27
676.346	40673.14
676.695	40754.49
677.044	40426.82
677.393	40706.13
677.741	40707.94
678.09	40613.71
678.438	40638.11
678.787	40760.59
679.135	40662.97
679.484	40394.95
679.832	40498.68
680.181	40347.27
680.529	40432.69
680.877	40333.94
681.225	40270.66
681.573	40554.27
681.922	40188.41
682.27	40048.07
682.618	40153.61
682.966	40013.95
683.314	40060.73
683.661	39992.71
684.009	39726.72
684.357	39702.54
684.705	39624.35
685.053	39738.47
685.4	39626.84
685.748	39454.87
686.095	39534.41
686.443	39419.61
686.79	39215.1
687.138	39308.2
687.485	39453.96
687.832	39243.35
688.18	39414.64
688.527	38832.96
688.874	39029.57
689.221	38840.87
689.568	38934.88
689.915	38814.88
690.262	38848.78
690.609	38628
690.956	38585.96
691.303	38489.24
691.65	38411.28
691.997	38289.7
692.344	38156.6
692.69	38096.03
693.037	38018.97
693.383	37785.08
693.73	37903.72
694.077	37620.79
694.423	37724.29
694.769	37617.63
695.116	37515.71
695.462	37401.59
695.808	37460.79
696.155	37447.46
696.501	37166.79
696.847	37154.81
697.193	36903.07
697.539	37003.63
697.885	36795.5
698.231	36681.83
698.577	36733.58
698.923	36659.46
699.269	36549.63
699.614	36378.79
699.96	36245.69
700.306	36183.99
700.651	36149.42
700.997	36100.6
701.342	36000.49
701.688	35846.15
702.033	35712.14
702.379	35704.23
702.724	35607.28
703.069	35723.67
703.415	35334.07
703.76	35337.23
704.105	35386.27
704.45	35280.29
704.795	35186.05
705.14	34888.43
705.485	34920.07
705.83	34740.87
706.175	34915.78
706.52	34789.45
706.865	34698.38
707.209	34581.1
707.554	34521.66
707.899	34540.87
708.243	34329.58
708.588	34261.56
708.932	34053.65
709.277	34071.73
709.621	34115.35
709.966	33906.99
710.31	33756.03
710.654	33677.39
710.998	33797.39
711.342	33707.67
711.687	33606.88
712.031	33458.41
712.375	33357.4
712.719	33495.7
713.063	33328.25
713.407	33518.98
713.75	33248.48
714.094	33251.87
714.438	33128.93
714.782	33031.08
715.125	32918.54
715.469	33135.94
715.812	32886
716.156	32726.46
716.499	32720.35
716.843	32800.13
717.186	32501.83
717.53	32663.18
717.873	32595.39
718.216	32532.79
718.559	32466.12
718.902	32286.02
719.246	32357.43
719.589	32175.74
719.932	32052.35
720.275	32151.33
720.617	32022.97
720.96	32030.43
721.303	31923.99
721.646	31986.36
721.989	31846.25
722.331	31786.59
722.674	31710.44
723.016	31832.02
723.359	31730.55
723.701	31746.37
724.044	31495.75
724.386	31331.46
724.729	31572.81
725.071	31400.39
725.413	31208.98
725.755	31407.17
726.097	31297.57
726.439	30998.14
726.782	31015.99
727.124	31260.28
727.465	30980.74
727.807	30959.95
728.149	30897.58
728.491	30803.34
728.833	30874.08
729.175	30699.16
729.516	30682.22
729.858	30786.39
730.199	30727.41
730.541	30663.69
730.882	30618.71
731.224	30612.16
731.565	30368.78
731.906	30413.52
732.248	30453.3
732.589	30244.94
732.93	30333.98
733.271	30248.33
733.612	30171.04
733.953	30318.38
734.294	30119.52
734.635	30077.03
734.976	30032.74
735.317	29958.85
735.658	29896.7
735.999	30046.3
736.339	30020.76
736.68	30077.71
737.021	29891.5
737.361	29645.18
737.702	29937.83
738.042	29740.09
738.383	29638.4
738.723	29722.02
739.063	29701.45
739.404	29627.55
739.744	29522.47
740.084	29477.05
740.424	29523.6
740.764	29301.91
741.104	29632.75
741.444	29235.47
741.784	29279.09
742.124	29365.87
742.464	29243.38
742.804	29237.73
743.143	29080.22
743.483	29135.36
743.823	29112.77
744.162	29037.06
744.502	29153.67
744.841	28868.25
745.181	28970.17
745.52	28898.08
745.86	28912.09
746.199	28812.43
746.538	28700.8
746.877	28858.31
747.216	28813.79
747.556	28642.5
747.895	28791.87
748.234	28588.94
748.573	28576.96
748.911	28556.62
749.25	28494.25
749.589	28301.71
749.928	28406.12
750.267	28435.95
750.605	28367.93
750.944	28292
751.283	28183.3
751.621	28228.04
751.96	28146.24
752.298	28211.09
752.636	28148.27
752.975	27949.18
753.313	27944.43
753.651	27977.43
753.989	27828.51
754.327	27780.37
754.666	27646.59
755.004	27724.33
755.342	27748.28
755.679	27570.89
756.017	27452.7
756.355	27591.22
756.693	27521.17
757.031	27613.6
757.368	27251.12
757.706	27402.98
758.044	27253.61
758.381	27254.51
758.719	27058.13
759.056	27109.43
759.394	27095.87
759.731	26993.73
760.068	26824.69
760.405	26817.68
760.743	26736.78
761.08	26596.67
761.417	26611.59
761.754	26566.84
762.091	26567.3
762.428	26463.57
762.765	26309.68
763.102	26303.12
763.438	26293.4
763.775	26080.75
764.112	26142
764.449	26214.76
764.785	25950.14
765.122	25842.57
765.458	25659.07
765.795	25559.64
766.131	25611.84
766.467	25466.31
766.804	25387.21
767.14	25293.88
767.476	25392.64
767.812	25164.17
768.148	25171.4
768.485	25024.96
768.821	24887.34
769.157	24941.12
769.492	24816.83
769.828	24873.1
770.164	24547.46
770.5	24644.86
770.836	24477.18
771.171	24415.26
771.507	24249.84
771.842	24110.86
772.178	24197.19
772.513	24144.08
772.849	24059.11
773.184	24001.94
773.519	23923.52
773.855	23812.34
774.19	23617.54
774.525	23579.58
774.86	23704.09
775.195	23599.01
775.53	23492.57
775.865	23258.23
776.2	23192.7
776.535	23039.03
776.87	23042.19
777.205	22984.34
777.539	22915.87
777.874	22921.97
778.209	22676.32
778.543	22627.29
778.878	22513.62
779.212	22473.17
779.547	22385.94
779.881	22373.06
780.215	22224.59
780.55	22275.88
780.884	22170.12
781.218	22022.78
781.552	22012.61
781.886	21914.76
782.22	21818.72
782.554	21635.9
782.888	21521.33
783.222	21424.61
783.556	21376.92
783.889	21259.64
784.223	21185.74
784.557	21165.4
784.89	21262.35
785.224	20952.53
785.557	20975.35
785.891	20867.78
786.224	20851.97
786.558	20889.03
786.891	20714.34
787.224	20664.17
787.557	20504.18
787.891	20572.2
788.224	20463.5
788.557	20442.94
788.89	20403.16
789.223	20328.36
789.556	20143.28
789.888	20064.64
790.221	20046.56
790.554	19822.61
790.887	19918.43
791.219	19833.91
791.552	19797.98
791.884	19722.73
792.217	19552.34
792.549	19623.3
792.882	19515.05
793.214	19399.57
793.546	19364.1
793.879	19291.1
794.211	19195.06
794.543	19117.77
794.875	19096.98
795.207	19214.49
795.539	19028.96
795.871	18955.52
796.203	18768.18
796.535	18640.27
796.867	18740.16
797.198	18712.59
797.53	18619.26
797.862	18435.76
798.193	18515.3
798.525	18326.38
798.856	18424.46
799.188	18212.71
799.519	18222.2
799.85	18052.04
800.182	18059.72
800.513	18049.55
800.844	17902.89
801.175	18080.97
801.506	17948.99
801.837	17856.56
802.168	17919.61
802.499	17735.89
802.83	17656.12
803.161	17530.25
803.491	17599.17
803.822	17577.25
804.153	17483.92
804.483	17299.74
804.814	17322.57
805.145	17364.15
805.475	17366.41
805.805	17280.31
806.136	17168.67
806.466	17186.53
806.796	17216.36
807.126	17054.78
807.457	16992.18
807.787	16984.27
808.117	16941.33
808.447	16863.6
808.777	16830.83
809.107	16721.9
809.436	16651.17
809.766	16653.21
810.096	16548.35
810.426	16499.54
810.755	16482.82
811.085	16514.9
811.414	16450.27
811.744	16353.1
812.073	16302.93
812.403	16282.82
812.732	16193.11
813.061	16161.47
813.39	16196.72
813.719	16006.22
814.049	16089.61
814.378	16107.46
814.707	15933.45
815.036	15943.17
815.365	15895.94
815.693	15785.43
816.022	15783.62
816.351	15671.09
816.68	15641.03
817.008	15669.96
817.337	15522.61
817.665	15467.25
817.994	15614.36
818.322	15510.41
818.651	15491.43
818.979	15474.71
819.307	15527.59
819.636	15426.12
819.964	15271.32
820.292	15342.73
820.62	15352.45
820.948	15201.04
821.276	15297.08
821.604	15247.59
821.932	15300.25
822.259	15341.38
822.587	15255.95
822.915	15198.78
823.243	15341.38
823.57	15203.3
823.898	15213.24
824.225	15133.7
824.553	15191.1
824.88	15181.15
825.207	15285.33
825.535	15197.2
825.862	15252.11
826.189	15180.93
826.516	15166.47
826.843	15277.42
827.17	15293.47
827.497	15253.69
827.824	15197.2
828.151	15245.79
828.478	15139.35
828.805	15354.48
829.131	15137.77
829.458	15156.07
829.785	15121.95
830.111	15086.24
830.438	15183.19
830.764	15192.45
831.09	15105.9
831.417	15012.57
831.743	15183.64
832.069	15115.85
832.395	15097.99
832.722	15142.29
833.048	15006.92
833.374	15075.62
833.7	14989.3
834.026	14926.47
834.351	14987.04
834.677	14994.27
835.003	15036.98
835.329	14975.96
835.654	14939.58
835.98	14883.54
836.306	14908.39
836.631	14841.95
836.956	14887.38
837.282	14907.94
837.607	14763.31
837.932	14788.62
838.258	14799.7
838.583	14739.58
838.908	14659.59
839.233	14739.81
839.558	14672.92
839.883	14604.9
840.208	14496.2
840.533	14617.55
840.858	14600.38
841.182	14510.66
841.507	14558.12
841.832	14438.35
842.156	14467.05
842.481	14380.27
842.805	14380.05
843.13	14353.61
843.454	14388.86
843.778	14241.29
844.103	14226.15
844.427	14117.91
844.751	14247.17
845.075	14181.86
845.399	13969.43
845.723	14033.16
846.047	14100.96
846.371	13964.01
846.695	13997
847.019	13763.11
847.343	13755.43
847.666	13646.73
847.99	13667.75
848.313	13640.63
848.637	13494.42
848.96	13477.7
849.284	13479.5
849.607	13446.51
849.931	13358.6
850.254	13269.11
850.577	13177.37
850.9	13158.38
851.223	13047.2
851.546	13064.15
851.869	12930.59
852.192	12921.55
852.515	12852.18
852.838	12849.92
853.161	12845.17
853.483	12705.06
853.806	12730.82
854.129	12661.45
854.451	12666.87
854.774	12621.9
855.096	12539.64
855.419	12432.98
855.741	12456.48
856.063	12454.9
856.385	12415.13
856.708	12346.65
857.03	12227.11
857.352	12254.23
857.674	12176.94
857.996	12235.02
858.318	12113.44
858.64	12183.27
858.961	12134.23
859.283	12069.15
859.605	12019.88
859.926	12029.6
860.248	11972.88
860.57	11963.16
860.891	11909.83
861.212	11876.38
861.534	11907.12
861.855	11744.18
862.176	11744.41
862.498	11860.11
862.819	11783.5
863.14	11729.95
863.461	11745.76
863.782	11705.77
864.103	11757.29
864.424	11671.42
864.745	11701.02
865.065	11575.83
865.386	11504.87
865.707	11550.29
866.027	11615.82
866.348	11529.5
866.668	11586.67
866.989	11430.74
867.309	11417.86
867.63	11433.91
867.95	11422.38
868.27	11332.67
868.59	11398.43
868.91	11317.3
869.23	11350.52
869.55	11203.18
869.87	11285.89
870.19	11216.74
870.51	11298.09
870.83	11257.42
871.15	11216.51
871.469	11210.64
871.789	11213.35
872.109	11139.23
872.428	11143.29
872.748	11126.12
873.067	11102.17
873.386	11073.69
873.706	11119.79
874.025	11004.09
874.344	11012.45
874.663	11006.12
874.982	10929.51
875.301	10943.07
875.62	10900.59
875.939	10973.81
876.258	10933.13
876.577	10864.21
876.896	10887.48
877.214	10817.2
877.533	10845.22
877.852	10782.4
878.17	10794.38
878.489	10732.46
878.807	10715.74
879.125	10715.96
879.444	10684.78
879.762	10755.73
880.08	10662.18
880.398	10634.61
880.716	10640.48
881.034	10681.61
881.352	10591.44
881.67	10607.72
881.988	10554.61
882.306	10606.36
882.624	10497.89
882.941	10449.75
883.259	10489.53
883.577	10454.5
883.894	10405.46
884.212	10410.66
884.529	10429.87
884.846	10370.89
885.164	10341.51
885.481	10264.22
885.798	10307.61
886.115	10218.12
886.432	10228.06
886.75	10260.61
887.067	10182.64
887.383	10186.71
887.7	10249.98
888.017	10176.31
888.334	10100.61
888.651	10106.49
888.967	10069.65
889.284	10033.49
889.6	10003.66
889.917	9956.21
890.233	9966.83
890.55	9898.81
890.866	9909.65
891.182	9841.18
891.498	9876.44
891.815	9747.17
892.131	9786.27
892.447	9774.74
892.763	9684.12
893.079	9673.73
893.395	9641.64
893.71	9609.1
894.026	9621.53
894.342	9555.99
894.657	9551.02
894.973	9534.98
895.289	9508.08
895.604	9464.24
895.92	9417.46
896.235	9314.64
896.55	9356.22
896.865	9341.53
897.181	9264.02
897.496	9212.27
897.811	9231.25
898.126	9168.88
898.441	9095.89
898.756	9113.52
899.071	9077.36
899.386	9143.57
899.7	9000.53
900.015	8993.97
900.33	8913.3
900.644	8916.23
900.959	8953.97
901.273	8878.04
901.588	8850.93
901.902	8830.59
902.216	8709.23
902.531	8777.93
902.845	8677.6
903.159	8697.48
903.473	8628.33
903.787	8602.12
904.101	8562.8
904.415	8584.72
904.729	8518.5
905.042	8434.67
905.356	8438.28
905.67	8401.67
905.984	8370.03
906.297	8349.7
906.611	8302.92
906.924	8362.35
907.237	8282.35
907.551	8266.99
907.864	8193.32
908.177	8170.94
908.491	8145.86
908.804	8131.17
909.117	8082.58
909.43	8029.7
909.743	8022.47
910.056	8032.64
910.368	8035.81
910.681	7917.84
910.994	7912.42
911.307	7882.82
911.619	7871.29
911.932	7799.65
912.244	7739.32
912.557	7734.12
912.869	7665.65
913.181	7616.38
913.494	7684.4
913.806	7607.79
914.118	7610.96
914.43	7517.63
914.742	7546.78
915.054	7476.95
915.366	7482.15
915.678	7419.55
915.99	7322.83
916.302	7257.52
916.613	7306.11
916.925	7276.73
917.236	7273.11
917.548	7205.77
917.859	7267.92
918.171	7192.66
918.482	7136.85
918.794	7139.33
919.105	7094.59
919.416	7062.5
919.727	7010.52
920.038	7063.18
920.349	6937.08
920.66	6932.11
920.971	6925.33
921.282	6887.36
921.593	6897.76
921.903	6824.76
922.214	6775.95
922.525	6750.64
922.835	6755.84
923.146	6663.19
923.456	6662.28
923.767	6627.03
924.077	6662.96
924.387	6597.65
924.697	6537.31
925.008	6567.37
925.318	6470.42
925.628	6506.58
925.938	6436.75
926.248	6366.02
926.558	6345
926.867	6376.41
927.177	6366.92
927.487	6305
927.796	6271.33
928.106	6272.24
928.416	6188.17
928.725	6220.94
929.034	6175.29
929.344	6240.37
929.653	6118.79
929.962	6093.03
930.271	6099.36
930.581	6004.67
930.89	6046.03
931.199	5959.02
931.508	5985.92
931.817	5947.95
932.125	5922.19
932.434	5888.07
932.743	5867.28
933.051	5787.28
933.36	5784.79
933.669	5778.92
933.977	5755.64
934.286	5765.81
934.594	5758.13
934.902	5622.54
935.21	5659.6
935.519	5651.91
935.827	5642.42
936.135	5585.02
936.443	5559.49
936.751	5582.08
937.059	5504.35
937.367	5510.9
937.674	5470.9
937.982	5468.87
938.29	5432.71
938.597	5416.67
938.905	5374.86
939.213	5325.59
939.52	5337.35
939.827	5343.67
940.135	5228.42
940.442	5298.48
940.749	5242.21
941.056	5310.45
941.363	5154.53
941.67	5195.43
941.977	5173.06
942.284	5139.16
942.591	5104.36
942.898	5118.82
943.205	5067.97
943.511	5062.1
943.818	5018.71
944.125	5000.63
944.431	5004.92
944.738	4980.29
945.044	4925.83
945.35	4865.27
945.657	4859.39
945.963	4931.25
946.269	4864.14
946.575	4849.45
946.881	4801.09
947.187	4801.54
947.493	4774.2
947.799	4737.14
948.105	4736.23
948.41	4679.74
948.716	4724.25
949.022	4636.12
949.327	4635.44
949.633	4653.3
949.938	4594.31
950.244	4590.25
950.549	4533.3
950.854	4539.85
951.16	4527.88
951.465	4504.6
951.77	4517.03
952.075	4452.17
952.38	4431.15
952.685	4456.24
952.99	4398.61
953.294	4382.12
953.599	4367.2
953.904	4353.87
954.209	4304.15
954.513	4295.57
954.818	4271.16
955.122	4231.16
955.426	4234.1
955.731	4234.55
956.035	4242.01
956.339	4179.64
956.643	4204.72
956.948	4156.13
957.252	4129.69
957.556	4153.65
957.86	4094.21
958.163	4117.04
958.467	4097.6
958.771	4114.78
959.075	4074.1
959.378	3986.42
959.682	4022.13
959.985	3969.7
960.289	3964.5
960.592	3983.93
960.896	3934.44
961.199	3923.15
961.502	3899.87
961.805	3889.7
962.108	3873.2
962.411	3834.79
962.714	3828.01
963.017	3831.4
963.32	3836.59
963.623	3798.63
963.926	3786.2
964.228	3771.96
964.531	3742.13
964.833	3749.36
965.136	3739.42
965.438	3685.86
965.741	3687.45
966.043	3687.9
966.345	3601.57
966.648	3627.33
966.95	3598.63
967.252	3587.34
967.554	3584.85
967.856	3544.85
968.158	3545.98
968.46	3507.56
968.761	3505.53
969.063	3494
969.365	3521.8
969.666	3463.95
969.968	3425.31
970.269	3449.26
970.571	3415.36
970.872	3396.38
971.174	3363.84
971.475	3398.87
971.776	3389.6
972.077	3352.76
972.378	3321.35
972.679	3325.87
972.98	3329.71
973.281	3322.26
973.582	3287.23
973.883	3253.33
974.183	3265.31
974.484	3223.28
974.785	3227.12
975.085	3194.35
975.386	3231.41
975.686	3156.39
975.986	3170.17
976.287	3192.09
976.587	3124.75
976.887	3096.5
977.187	3117.29
977.487	3072.77
977.787	3083.17
978.087	3083.85
978.387	3052.43
978.687	3015.15
978.987	3034.58
979.286	3038.87
979.586	3014.92
979.885	2971.53
980.185	2965.88
980.484	2940.35
980.784	2978.31
981.083	2912.55
981.382	2920.46
981.682	2922.72
981.981	2934.02
982.28	2901.25
982.579	2829.84
982.878	2912.32
983.177	2839.56
983.475	2831.87
983.774	2847.02
984.073	2805.21
984.372	2770.18
984.67	2782.16
984.969	2798.43
985.267	2773.8
985.566	2737.87
985.864	2717.98
986.162	2727.24
986.461	2743.06
986.759	2679.79
987.057	2681.37
987.355	2644.31
987.653	2656.51
987.951	2667.36
988.249	2614.48
988.547	2649.05
988.844	2587.59
989.142	2620.13
989.44	2586.01
989.737	2561.37
990.035	2583.07
990.332	2598.89
990.63	2577.87
990.927	2545.55
991.224	2500.81
991.521	2510.53
991.819	2502.84
992.116	2467.59
992.413	2460.81
992.71	2459.46
993.006	2469.17
993.303	2421.26
993.6	2429.4
993.897	2407.71
994.193	2403.19
994.49	2395.28
994.787	2374.49
995.083	2359.8
995.379	2379.68
995.676	2349.4
995.972	2365.67
996.268	2266.47
996.565	2294.94
996.861	2307.82
997.157	2280.7
997.453	2316.63
997.749	2285
998.044	2260.14
998.34	2244.55
998.636	2253.58
998.932	2202.74
999.227	2220.82
999.523	2202.06
999.818	2194.38
1000.114	2181.72
1000.409	2166.13
1000.704	2154.83
1001	2136.98
1001.295	2100.37
1001.59	2116.41
1001.885	2131.55
1002.18	2103.53
1002.475	2063.99
1002.77	2089.97
1003.065	2061.5
1003.359	2072.12
1003.654	2041.61
1003.949	2044.55
1004.243	2024.44
1004.538	2000.48
1004.832	2014.04
1005.127	1989.64
1005.421	1979.02
1005.715	1992.35
1006.009	1945.57
1006.304	1910.09
1006.598	1924.55
1006.892	1907.83
1007.186	1918.68
1007.48	1911.22
1007.773	1901.05
1008.067	1889.53
1008.361	1872.8
1008.655	1866.48
1008.948	1850.21
1009.242	1838.45
1009.535	1815.4
1009.829	1823.99
1010.122	1833.93
1010.415	1804.78
1010.708	1792.13
1011.001	1778.8
1011.295	1777.21
1011.588	1772.02
1011.881	1738.8
1012.173	1728.63
1012.466	1752.36
1012.759	1746.03
1013.052	1712.81
1013.344	1696.76
1013.637	1693.37
1013.93	1656.99
1014.222	1689.76
1014.514	1672.81
1014.807	1655.41
1015.099	1635.3
1015.391	1635.97
1015.683	1612.02
1015.976	1609.76
1016.268	1591.23
1016.56	1601.62
1016.851	1587.84
1017.143	1587.39
1017.435	1551.46
1017.727	1539.71
1018.018	1526.37
1018.31	1511.91
1018.602	1551.23
1018.893	1551.68
1019.185	1512.59
1019.476	1508.52
1019.767	1480.95
1020.058	1495.19
1020.35	1461.29
1020.641	1426.49
1020.932	1445.02
1021.223	1442.31
1021.514	1431.46
1021.804	1430.1
1022.095	1400.05
1022.386	1395.75
1022.677	1420.84
1022.967	1372.03
1023.258	1365.47
1023.548	1359.6
1023.839	1358.02
1024.129	1338.35
1024.419	1343.55
1024.709	1318.92
1025	1303.55
1025.29	1326.83
1025.58	1301.75
1025.87	1301.29
1026.16	1274.18
1026.449	1293.16
1026.739	1257.45
1027.029	1233.95
1027.319	1263.55
1027.608	1254.52
1027.898	1263.1
1028.187	1228.3
1028.477	1206.83
1028.766	1212.48
1029.055	1178.36
1029.344	1191.24
1029.634	1192.6
1029.923	1170.68
1030.212	1169.55
1030.501	1171.35
1030.79	1149.43
1031.078	1162.09
1031.367	1140.62
1031.656	1114.86
1031.945	1122.99
1032.233	1114.41
1032.522	1115.54
1032.81	1102.65
1033.099	1100.39
1033.387	1080.96
1033.675	1072.15
1033.963	1082.54
1034.251	1058.14
1034.54	1066.05
1034.828	1091.13
1035.116	1038.93
1035.403	1051.81
1035.691	1050
1035.979	1031.24
1036.267	1023.56
1036.554	1031.24
1036.842	1010
1037.129	1013.17
1037.417	1000.74
1037.704	994.18
1037.992	978.59
1038.279	989.89
1038.566	966.16
1038.853	966.16
1039.14	966.16
