Data from hue_100_FLMS001491_00072.txt Node
Date: Tue Feb 07 17:03:37 GMT 2017
User: dcchb
Spectrometer: FLMS00149
Trigger mode: 0
Integration Time (sec): 2.000000E-2
Scans to average: 10
Electric dark correction enabled: true
Nonlinearity correction enabled: false
Boxcar width: 0
XAxis mode: Wavelengths
Number of Pixels in Spectrum: 2048
>>>>>Begin Spectral Data<<<<<
341.393	3.86
341.776	3.86
342.16	3.86
342.543	-46.31
342.927	-55.8
343.31	-70.49
343.693	-58.97
344.077	-62.36
344.46	-66.2
344.843	-61.68
345.226	-38.63
345.61	-53.09
345.993	-27.1
346.376	-4.96
346.759	8.6
347.142	26.68
347.525	37.08
347.908	65.32
348.291	84.31
348.674	109.84
349.057	111.65
349.44	148.26
349.823	127.92
350.206	163.85
350.588	193.68
350.971	225.54
351.354	228.03
351.737	254.92
352.119	255.37
352.502	276.84
352.884	268.71
353.267	308.71
353.65	300.35
354.032	315.49
354.414	313
354.797	331.53
355.179	295.37
355.562	310.97
355.944	332.21
356.326	329.27
356.709	345.54
357.091	315.49
357.473	345.54
357.855	338.31
358.238	350.74
358.62	342.83
359.002	342.38
359.384	341.7
359.766	357.52
360.148	316.16
360.53	346.67
360.912	337.63
361.294	347.35
361.676	335.37
362.057	342.6
362.439	305.77
362.821	328.82
363.203	341.7
363.584	318.42
363.966	330.17
364.348	332.43
364.729	315.49
365.111	334.69
365.493	312.32
365.874	318.65
366.256	305.54
366.637	331.3
367.019	336.28
367.4	308.25
367.781	329.5
368.163	331.08
368.544	319.55
368.925	305.54
369.306	330.4
369.688	320.91
370.069	310.97
370.45	316.84
370.831	320.46
371.212	317.52
371.593	316.39
371.974	307.35
372.355	313.23
372.736	339.67
373.117	307.58
373.498	340.34
373.879	329.72
374.26	329.5
374.641	314.36
375.021	304.19
375.402	348.48
375.783	329.95
376.163	346.67
376.544	337.41
376.925	324.53
377.305	324.98
377.686	322.49
378.066	338.08
378.447	358.42
378.827	339.89
379.208	329.05
379.588	335.6
379.968	332.66
380.349	347.58
380.729	343.73
381.109	360.91
381.489	339.67
381.87	331.3
382.25	362.49
382.63	360
383.01	341.93
383.39	354.58
383.77	376.05
384.15	373.56
384.53	377.86
384.91	370.85
385.29	352.1
385.67	354.36
386.049	374.69
386.429	353.9
386.809	367.01
387.189	380.34
387.568	381.92
387.948	371.76
388.328	390.06
388.707	386.9
389.087	374.69
389.466	366.78
389.846	374.92
390.225	397.07
390.605	404.75
390.984	394.13
391.363	378.08
391.743	403.39
392.122	402.94
392.501	388.7
392.881	403.85
393.26	398.87
393.639	381.7
394.018	390.06
394.397	406.11
394.776	411.3
395.155	397.74
395.534	409.27
395.913	411.75
396.292	398.42
396.671	407.01
397.05	419.89
397.429	431.42
397.808	396.61
398.186	428.7
398.565	421.92
398.944	428.48
399.323	404.75
399.701	405.43
400.08	428.48
400.458	423.73
400.837	412.88
401.215	435.71
401.594	439.32
401.972	440.91
402.351	428.25
402.729	451.98
403.107	461.7
403.486	437.97
403.864	445.65
404.242	454.69
404.62	449.04
404.999	464.63
405.377	456.05
405.755	480.91
406.133	456.95
406.511	472.09
406.889	475.93
407.267	472.54
407.645	474.58
408.023	494.24
408.401	474.13
408.779	487.68
409.156	491.98
409.534	474.58
409.912	503.73
410.29	489.04
410.667	495.14
411.045	512.54
411.422	507.57
411.8	505.99
412.178	535.14
412.555	528.59
412.933	521.36
413.31	553.67
413.687	520.68
414.065	546.21
414.442	539.66
414.819	560.68
415.197	560.45
415.574	548.47
415.951	535.82
416.328	543.05
416.705	554.35
417.082	575.37
417.46	545.54
417.837	584.41
418.214	560.23
418.591	565.2
418.967	571.52
419.344	596.38
419.721	599.32
420.098	580.34
420.475	603.84
420.852	591.86
421.228	611.52
421.605	605.65
421.982	608.59
422.358	599.77
422.735	604.74
423.111	619.43
423.488	635.25
423.864	636.61
424.241	646.32
424.617	647.45
424.994	640
425.37	655.59
425.746	665.53
426.123	685.87
426.499	683.61
426.875	681.8
427.251	670.96
427.627	675.25
428.003	698.07
428.379	712.99
428.756	698.53
429.132	685.87
429.507	717.28
429.883	718.19
430.259	729.03
430.635	729.03
431.011	734.01
431.387	746.66
431.763	764.06
432.138	776.72
432.514	771.75
432.89	763.38
433.265	803.83
433.641	783.04
434.016	778.75
434.392	794.34
434.767	812.2
435.143	814
435.518	825.76
435.894	843.16
436.269	858.3
436.644	865.08
437.02	851.74
437.395	863.72
437.77	861.23
438.145	881.57
438.52	890.61
438.895	884.96
439.271	903.95
439.646	908.01
440.021	900.1
440.395	929.03
440.77	920.44
441.145	930.39
441.52	910.27
441.895	950.95
442.27	972.64
442.645	951.4
443.019	947.11
443.394	967.22
443.769	980.55
444.143	977.84
444.518	995.69
444.892	955.47
445.267	983.04
445.641	1010.16
446.016	999.54
446.39	1030.04
446.764	1038.4
447.139	1025.75
447.513	1037.5
447.887	1033.43
448.262	1029.37
448.636	1050.16
449.01	1075.92
449.384	1069.36
449.758	1079.08
450.132	1087.67
450.506	1069.59
450.88	1125.86
451.254	1110.27
451.628	1118.63
452.002	1140.55
452.376	1142.58
452.75	1143.03
453.123	1148.23
453.497	1177.61
453.871	1195.91
454.244	1184.84
454.618	1207.67
454.992	1240.43
455.365	1228.46
455.739	1260.32
456.112	1257.38
456.486	1300.32
456.859	1298.96
457.232	1318.85
457.606	1307.78
457.979	1345.06
458.352	1377.61
458.725	1362.92
459.099	1407.21
459.472	1425.97
459.845	1427.1
460.218	1428.45
460.591	1444.27
460.964	1439.52
461.337	1522.23
461.71	1507.55
462.083	1514.55
462.456	1533.99
462.829	1567.2
463.201	1592.97
463.574	1592.06
463.947	1592.51
464.32	1671.16
464.692	1664.6
465.065	1686.98
465.438	1719.29
465.81	1739.86
466.183	1726.07
466.555	1791.15
466.928	1817.37
467.3	1847.42
467.672	1857.59
468.045	1885.16
468.417	1903.69
468.789	1943.69
469.161	1983.01
469.534	2002.45
469.906	2039.28
470.278	2099.39
470.65	2096.23
471.022	2169.9
471.394	2205.83
471.766	2221.2
472.138	2285.15
472.51	2329.9
472.882	2372.61
473.253	2413.06
473.625	2464.36
473.997	2542.09
474.369	2597.69
474.74	2604.24
475.112	2663.67
475.484	2721.52
475.855	2801.3
476.227	2844.23
476.598	2899.6
476.97	2977.34
477.341	3059.14
477.713	3131.46
478.084	3177.56
478.455	3305.92
478.827	3353.82
479.198	3515.4
479.569	3540.03
479.94	3639.01
480.311	3700.26
480.682	3841.95
481.053	3954.26
481.424	4045.11
481.795	4142.05
482.166	4326.68
482.537	4340.92
482.908	4509.95
483.279	4565.32
483.65	4734.35
484.021	4838.3
484.391	4948.36
484.762	5099.54
485.133	5135.47
485.503	5292.76
485.874	5431.28
486.244	5583.6
486.615	5779.75
486.985	5835.79
487.356	6027.65
487.726	6142.23
488.097	6338.83
488.467	6410.24
488.837	6610.46
489.207	6812.26
489.578	6915.54
489.948	6998.7
490.318	7205.25
490.688	7357.33
491.058	7469.2
491.428	7665.35
491.798	7864.44
492.168	8054.27
492.538	8171.32
492.908	8304.43
493.278	8499
493.648	8648.83
494.017	8733.34
494.387	8913
494.757	9023.28
495.126	9189.38
495.496	9259.21
495.866	9404.51
496.235	9632.3
496.605	9789.36
496.974	9851.51
497.344	9981.9
497.713	10230.71
498.082	10283.59
498.452	10451.04
498.821	10545.05
499.19	10623.46
499.559	10752.27
499.928	10931.25
500.298	11024.58
500.667	11159.72
501.036	11294.41
501.405	11343.44
501.774	11468.41
502.143	11575.3
502.512	11666.6
502.88	11799.7
503.249	11805.35
503.618	11909.76
503.987	12080.83
504.356	12197.66
504.724	12287.6
505.093	12363.08
505.462	12392.23
505.83	12517.43
506.199	12601.72
506.567	12867.02
506.936	12917.87
507.304	13087.13
507.672	13052.1
508.041	13198.54
508.409	13282.6
508.777	13356.73
509.145	13491.86
509.514	13395.14
509.882	13588.36
510.25	13635.14
510.618	13678.3
510.986	13715.81
511.354	13901.57
511.722	13930.5
512.09	14043.49
512.458	14032.64
512.826	14089.14
513.193	14234.89
513.561	14241.22
513.929	14359.64
514.297	14456.58
514.664	14523.25
515.032	14579.97
515.4	14659.97
515.767	14798.95
516.135	14749.91
516.502	14685.96
516.869	14881.43
517.237	14931.15
517.604	14956.91
517.972	15096.34
518.339	15097.92
518.706	15055.21
519.073	15078.94
519.44	15167.3
519.808	15359.61
520.175	15230.8
520.542	15451.36
520.909	15449.1
521.276	15388.31
521.643	15518.93
522.009	15548.31
522.376	15713.27
522.743	15694.06
523.11	15859.71
523.477	15880.27
523.843	15877.56
524.21	16055.19
524.577	16077.56
524.943	16201.4
525.31	16116.2
525.676	16165.24
526.043	16260.6
526.409	16297.89
526.776	16369.53
527.142	16409.3
527.508	16522.74
527.874	16476.19
528.241	16546.92
528.607	16538.11
528.973	16612.46
529.339	16579.24
529.705	16746.92
530.071	16700.37
530.437	16748.5
530.803	16724.77
531.169	16807.71
531.535	16699.91
531.901	16696.52
532.267	16762.74
532.632	16722.06
532.998	16733.36
533.364	16865.11
533.73	16821.27
534.095	16852
534.461	16925.22
534.826	16772.91
535.192	16760.25
535.557	16890.19
535.923	16890.42
536.288	16849.06
536.653	16855.16
537.019	16776.3
537.384	16774.94
537.749	16784.66
538.114	16863.07
538.479	16691.33
538.845	16815.39
539.21	16735.17
539.575	16777.65
539.94	16684.55
540.305	16765.45
540.67	16617.43
541.034	16634.38
541.399	16549.86
541.764	16590.99
542.129	16595.51
542.494	16588.96
542.858	16545.57
543.223	16485.46
543.587	16478.9
543.952	16404.1
544.316	16434.16
544.681	16336.08
545.045	16434.16
545.41	16465.57
545.774	16488.17
546.138	16325.46
546.503	16297.89
546.867	16259.47
547.231	16374.72
547.595	16221.51
547.959	16182.41
548.324	16179.48
548.688	16273.71
549.052	16173.6
549.416	16157.78
549.779	16097.44
550.143	16094.51
550.507	16051.8
550.871	16134.96
551.235	15986.71
551.599	16082.53
551.962	16019.93
552.326	16037.78
552.689	16010.44
553.053	15866.04
553.417	15874.62
553.78	16040.95
554.143	15899.94
554.507	15865.81
554.87	15850.9
555.234	16003.21
555.597	15868.98
555.96	15857.45
556.323	15891.57
556.686	15844.8
557.05	15879.6
557.413	15896.09
557.776	15861.29
558.139	15948.07
558.502	15870.11
558.865	15800.28
559.228	15896.32
559.59	16020.84
559.953	15987.16
560.316	16060.61
560.679	15937.9
561.041	15998.92
561.404	16062.87
561.767	16107.84
562.129	16004.11
562.492	16140.83
562.854	16059.93
563.217	16089.76
563.579	16095.41
563.941	16096.99
564.304	16165.92
564.666	16159.36
565.028	16133.83
565.39	16179.48
565.753	16249.76
566.115	16294.05
566.477	16284.11
566.839	16346.7
567.201	16368.62
567.563	16372.69
567.925	16342.86
568.287	16341.05
568.648	16289.08
569.01	16410.43
569.372	16498.11
569.734	16537.88
570.095	16492.91
570.457	16539.92
570.819	16567.26
571.18	16557.54
571.542	16559.8
571.903	16569.97
572.265	16645.23
572.626	16654.27
572.987	16705.34
573.349	16768.39
573.71	16697.88
574.071	16736.52
574.432	16816.97
574.794	16842.74
575.155	16715.05
575.516	16627.37
575.877	16879.34
576.238	16814.49
576.599	16936.97
576.96	16772.23
577.32	16811.55
577.681	16921.83
578.042	16877.99
578.403	16858.55
578.763	16880.93
579.124	16784.21
579.485	16913.47
579.845	16930.64
580.206	16903.07
580.566	16826.24
580.927	16806.58
581.287	16924.09
581.648	16901.94
582.008	16962.28
582.368	16893.36
582.728	16922.28
583.089	16782.17
583.449	16910.08
583.809	16849.29
584.169	16894.03
584.529	16856.52
584.889	16982.17
585.249	16777.65
585.609	16746.01
585.969	16887.25
586.329	16790.99
586.688	16843.64
587.048	16746.01
587.408	16742.4
587.768	16738.56
588.127	16774.26
588.487	16689.29
588.846	16787.14
589.206	16745.56
589.565	16717.09
589.925	16709.41
590.284	16701.04
590.643	16709.63
591.003	16676.86
591.362	16707.82
591.721	16795.73
592.08	16788.05
592.44	16644.77
592.799	16670.76
593.158	16683.64
593.517	16700.37
593.876	16698.33
594.235	16646.13
594.593	16692
594.952	16666.92
595.311	16570.65
595.67	16600.48
596.029	16792.11
596.387	16694.49
596.746	16626.24
597.104	16582.4
597.463	16666.02
597.822	16743.53
598.18	16661.5
598.538	16544.89
598.897	16735.85
599.255	16441.62
599.613	16762.29
599.972	16631.44
600.33	16667.37
600.688	16623.98
601.046	16710.99
601.404	16813.13
601.762	16666.24
602.12	16725
602.478	16698.11
602.836	16713.47
603.194	16577.21
603.552	16626.24
603.91	16557.77
604.268	16676.64
604.625	16612.91
604.983	16714.6
605.341	16496.76
605.698	16685
606.056	16706.92
606.413	16684.32
606.771	16663.53
607.128	16716.18
607.485	16670.76
607.843	16645
608.2	16754.6
608.557	16710.08
608.914	16722.29
609.272	16808.39
609.629	16790.31
609.986	16899.46
610.343	16725.22
610.7	16877.08
611.057	16811.32
611.414	16811.78
611.771	16888.38
612.127	16864.2
612.484	16845.45
612.841	16973.58
613.198	16862.85
613.554	16982.84
613.911	16990.75
614.267	16950.08
614.624	16947.14
614.98	16923.64
615.337	17151.2
615.693	17033.24
616.05	16956.86
616.406	17088.38
616.762	16991.66
617.118	17092.45
617.475	17000.02
617.831	17107.36
618.187	17068.04
618.543	17124.54
618.899	17194.59
619.255	17130.64
619.611	17073.92
619.967	17240.69
620.323	17214.7
620.678	17160.01
621.034	17153.46
621.39	17094.25
621.746	17091.09
622.101	17314.81
622.457	17211.31
622.812	17096.29
623.168	17209.05
623.523	17131.99
623.879	17287.92
624.234	17109.17
624.589	17177.87
624.945	17150.75
625.3	17233.23
625.655	17224.42
626.01	17288.6
626.365	17226.91
626.72	17189.62
627.075	17126.12
627.43	17183.29
627.785	17097.87
628.14	17132.67
628.495	17236.85
628.85	17128.6
629.205	17135.61
629.559	17184.42
629.914	17103.29
630.269	17123.63
630.623	17069.17
630.978	17019.68
631.332	17102.62
631.687	17120.47
632.041	16955.95
632.396	16992.79
632.75	17013.13
633.104	16944.43
633.459	16897.65
633.813	16911.66
634.167	16851.1
634.521	16857.42
634.875	16904.2
635.229	16934.48
635.583	16761.16
635.937	16829.18
636.291	16826.01
636.645	16814.49
636.999	16681.84
637.352	16736.75
637.706	16687.03
638.06	16739.24
638.413	16696.98
638.767	16589.41
639.121	16658.33
639.474	16549.86
639.828	16685.68
640.181	16513.93
640.534	16583.31
640.888	16524.1
641.241	16468.96
641.594	16543.53
641.947	16480.71
642.301	16522.97
642.654	16513.7
643.007	16582.4
643.36	16496.3
643.713	16416.31
644.066	16448.4
644.419	16286.14
644.771	16337.21
645.124	16084.79
645.477	16033.04
645.83	16119.82
646.182	16017.22
646.535	15985.58
646.888	15971.12
647.24	15791.92
647.593	15893.38
647.945	15943.32
648.298	15806.6
648.65	15703.33
649.002	15829.88
649.355	15881.63
649.707	15842.31
650.059	15956.43
650.411	16202.53
650.763	16135.18
651.115	16314.16
651.467	16204.11
651.819	16229.42
652.171	16152.81
652.523	16143.77
652.875	16189.64
653.227	16121.62
653.578	16324.1
653.93	16165.24
654.282	16150.1
654.633	16093.15
654.985	16218.57
655.337	16182.64
655.688	16150.32
656.039	16273.71
656.391	16113.26
656.742	16165.01
657.094	16129.76
657.445	16281.85
657.796	16266.71
658.147	16141.06
658.498	16194.84
658.849	16221.28
659.2	16191.9
659.551	16064
659.902	16186.71
660.253	16202.75
660.604	16140.61
660.955	16140.15
661.306	16191.68
661.656	16284.78
662.007	16273.94
662.358	16316.87
662.708	16276.2
663.059	16221.51
663.409	16149.42
663.76	16230.1
664.11	16203.66
664.461	16308.51
664.811	16330.21
665.161	16182.19
665.511	16152.36
665.862	16203.88
666.212	16221.28
666.562	16287.27
666.912	16167.95
667.262	16222.64
667.612	16153.49
667.962	16266.71
668.312	16242.07
668.662	16265.35
669.011	16270.09
669.361	16197.1
669.711	16235.52
670.06	16179.48
670.41	16125.69
670.76	16169.53
671.109	16281.39
671.459	16247.72
671.808	16118.23
672.157	16165.46
672.507	16121.85
672.856	16046.37
673.205	16093.83
673.554	16091.12
673.904	16044.56
674.253	16154.84
674.602	16109.2
674.951	15834.63
675.3	15839.15
675.649	15984.9
675.998	15977.45
676.346	16000.27
676.695	16052.7
677.044	15917.11
677.393	15924.57
677.741	15950.56
678.09	15895.19
678.438	15931.8
678.787	15941.06
679.135	15970.22
679.484	15737.23
679.832	15864.68
680.181	15734.97
680.529	15747.4
680.877	15620.62
681.225	15747.4
681.573	15745.59
681.922	15612.71
682.27	15553.96
682.618	15493.62
682.966	15548.31
683.314	15581.53
683.661	15532.71
684.009	15398.25
684.357	15402.1
684.705	15347.63
685.053	15446.16
685.4	15417.01
685.748	15297.47
686.095	15253.4
686.443	15285.04
686.79	15243.46
687.138	15303.79
687.485	15284.58
687.832	15153.74
688.18	15206.62
688.527	15118.26
688.874	15043.01
689.221	14980.41
689.568	14994.2
689.915	14923.01
690.262	14973.41
690.609	14836.91
690.956	14760.3
691.303	14843.69
691.65	14737.25
691.997	14723.69
692.344	14517.82
692.69	14571.38
693.037	14607.09
693.383	14462.01
693.73	14494.77
694.077	14344.95
694.423	14336.59
694.769	14341.56
695.116	14259.07
695.462	14232.18
695.808	14155.12
696.155	14180.43
696.501	14076.03
696.847	14118.29
697.193	13957.84
697.539	13989.02
697.885	13805.53
698.231	13775.47
698.577	13845.53
698.923	13717.62
699.269	13750.84
699.614	13616.38
699.96	13563.95
700.306	13525.08
700.651	13525.08
700.997	13458.42
701.342	13407.35
701.688	13312.66
702.033	13354.92
702.379	13255.71
702.724	13261.13
703.069	13230.4
703.415	13072.44
703.76	13141.82
704.105	13104.98
704.45	13074.25
704.795	12946.79
705.14	12911.54
705.485	12989.96
705.83	12896.62
706.175	12931.43
706.52	12788.6
706.865	12673.35
707.209	12712.9
707.554	12672.68
707.899	12661.6
708.243	12630.19
708.588	12522.85
708.932	12478.1
709.277	12473.81
709.621	12499.12
709.966	12312.23
710.31	12443.53
710.654	12357.43
710.998	12287.37
711.342	12348.16
711.687	12219.58
712.031	12246.47
712.375	12088.51
712.719	12180.48
713.063	12097.55
713.407	12212.57
713.75	12078.79
714.094	12070.43
714.438	12020.49
714.782	12013.03
715.125	11962.41
715.469	11977.1
715.812	11922.86
716.156	11876.99
716.499	11846.48
716.843	11884.45
717.186	11769.42
717.53	11850.55
717.873	11875.86
718.216	11782.08
718.559	11758.35
718.902	11658.01
719.246	11709.54
719.589	11679.48
719.932	11646.04
720.275	11660.05
720.617	11549.77
720.96	11693.04
721.303	11627.28
721.646	11628.18
721.989	11648.52
722.331	11632.02
722.674	11667.05
723.016	11525.59
723.359	11533.04
723.701	11518.81
724.044	11471.35
724.386	11455.98
724.729	11511.12
725.071	11482.65
725.413	11540.95
725.755	11478.13
726.097	11366.04
726.439	11378.25
726.782	11371.69
727.124	11427.74
727.465	11340.05
727.807	11342.77
728.149	11287.4
728.491	11352.94
728.833	11269.55
729.175	11310.23
729.516	11349.09
729.858	11282.2
730.199	11327.63
730.541	11293.73
730.882	11296.89
731.224	11277.46
731.565	11285.14
731.906	11288.53
732.248	11197.01
732.589	11201.98
732.93	11141.87
733.271	11251.24
733.612	11154.52
733.953	11269.32
734.294	11177.8
734.635	11222.54
734.976	11208.98
735.317	11178.93
735.658	11158.36
735.999	11222.54
736.339	11188.87
736.68	11269.55
737.021	11267.29
737.361	11224.13
737.702	11231.58
738.042	11247.85
738.383	11225.71
738.723	11281.53
739.063	11260.28
739.404	11326.95
739.744	11289.21
740.084	11276.55
740.424	11351.81
740.764	11262.54
741.104	11403.56
741.444	11333.05
741.784	11319.72
742.124	11335.54
742.464	11425.48
742.804	11339.15
743.143	11369.66
743.483	11443.33
743.823	11370.11
744.162	11422.09
744.502	11478.13
744.841	11459.15
745.181	11571.24
745.52	11517.9
745.86	11587.28
746.199	11557.9
746.538	11655.98
746.877	11766.03
747.216	11822.08
747.556	11780.95
747.895	11880.83
748.234	11800.83
748.573	11977.1
748.911	11923.09
749.25	12075.85
749.589	12088.96
749.928	12166.25
750.267	12322.4
750.605	12296.87
750.944	12398.56
751.283	12463.64
751.621	12551.1
751.96	12613.92
752.298	12715.61
752.636	12896.4
752.975	12895.95
753.313	12979.79
753.651	13128.48
753.989	13224.3
754.327	13354.01
754.666	13315.6
755.004	13545.19
755.342	13788.13
755.679	13873.1
756.017	13897.5
756.355	14085.29
756.693	14189.25
757.031	14387.21
757.368	14452.52
757.706	14750.59
758.044	14694.77
758.381	14990.81
758.719	15093.63
759.056	15280.74
759.394	15504.92
759.731	15481.41
760.068	15713.5
760.405	15868.98
760.743	15979.93
761.08	16131.34
761.417	16279.59
761.754	16492.69
762.091	16607.49
762.428	16759.35
762.765	16875.73
763.102	17182.61
763.438	17203.86
763.775	17348.03
764.112	17573.11
764.449	17797.74
764.785	17872.76
765.122	17871.18
765.458	18041.35
765.795	18283.83
766.131	18304.62
766.467	18531.28
766.804	18602.24
767.14	18724.95
767.476	18838.61
767.812	18878.84
768.148	19100.53
768.485	19163.13
768.821	19258.04
769.157	19395.89
769.492	19499.39
769.828	19619.16
770.164	19629.55
770.5	19759.72
770.836	19850.11
771.171	19948.42
771.507	20104.34
771.842	20106.15
772.178	20223.66
772.513	20197.68
772.849	20266.15
773.184	20326.49
773.519	20449.19
773.855	20519.7
774.19	20475.18
774.525	20601.96
774.86	20612.35
775.195	20727.6
775.53	20720.83
775.865	20727.15
776.2	20604.22
776.535	20719.7
776.87	20730.77
777.205	20652.58
777.539	20771.45
777.874	20777.77
778.209	20765.12
778.543	20801.5
778.878	20719.7
779.212	20866.58
779.547	20871.33
779.881	20995.39
780.215	20801.73
780.55	20844.89
780.884	20797.89
781.218	20714.05
781.552	20776.87
781.886	20951.33
782.22	20822.07
782.554	20852.57
782.888	20713.59
783.222	20656.65
783.556	20732.12
783.889	20671.79
784.223	20596.99
784.557	20592.92
784.89	20559.7
785.224	20540.04
785.557	20579.36
785.891	20498.23
786.224	20486.48
786.558	20515.41
786.891	20324.68
787.224	20308.18
787.557	20275.41
787.891	20276.32
788.224	20181.63
788.557	20298.69
788.89	20238.35
789.223	20252.81
789.556	20058.24
789.888	20030
790.221	20084.01
790.554	19937.12
790.887	20036.32
791.219	19794.97
791.552	19838.14
791.884	19841.3
792.217	19847.18
792.549	19737.8
792.882	19677.24
793.214	19655.09
793.546	19630.91
793.879	19427.53
794.211	19442.21
794.543	19506.17
794.875	19417.36
795.207	19507.3
795.539	19325.61
795.871	19406.74
796.203	19312.05
796.535	19156.8
796.867	19018.27
797.198	19209
797.53	19111.6
797.862	18945.05
798.193	19001.1
798.525	18906.41
798.856	18943.24
799.188	18743.25
799.519	18743.25
799.85	18609.24
800.182	18621.45
800.513	18594.33
800.844	18480.66
801.175	18596.81
801.506	18614.21
801.837	18505.29
802.168	18416.48
802.499	18430.26
802.83	18306.2
803.161	18201.8
803.491	18368.34
803.822	18344.16
804.153	18211.74
804.483	18041.12
804.814	18030.27
805.145	18017.17
805.475	17985.98
805.805	17989.6
806.136	17866.66
806.466	17858.75
806.796	17877.06
807.126	17671.87
807.457	17707.8
807.787	17781.02
808.117	17683.39
808.447	17591.19
808.777	17674.58
809.107	17511.19
809.436	17463.06
809.766	17481.59
810.096	17470.52
810.426	17383.96
810.755	17346
811.085	17299.45
811.414	17298.54
811.744	17172.9
812.073	17225.1
812.403	17245.89
812.732	17018.78
813.061	17057.64
813.39	17100.13
813.719	16859.01
814.049	17074.37
814.378	16915.73
814.707	16931.55
815.036	16866.69
815.365	16754.15
815.693	16692.46
816.022	16741.04
816.351	16668.95
816.68	16570.2
817.008	16586.24
817.337	16425.34
817.665	16420.83
817.994	16434.38
818.322	16418.34
818.651	16464.67
818.979	16406.81
819.307	16476.64
819.636	16357.78
819.964	16255.41
820.292	16421.96
820.62	16194.62
820.948	16317.55
821.276	16278.91
821.604	16167.27
821.932	16313.48
822.259	16269.64
822.587	16285.01
822.915	16137.89
823.243	16276.2
823.57	16220.38
823.898	16243.88
824.225	16148.97
824.553	16212.47
824.88	16176.54
825.207	16239.14
825.535	16182.41
825.862	16239.59
826.189	16184.9
826.516	16210.66
826.843	16372.24
827.17	16209.76
827.497	16184.45
827.824	16241.85
828.151	16257.44
828.478	16298.57
828.805	16296.31
829.131	16183.09
829.458	16227.16
829.785	16167.95
830.111	16158.46
830.438	16198.23
830.764	16181.74
831.09	16318.46
831.417	16101.51
831.743	16144.45
832.069	16189.87
832.395	16100.61
832.722	16151.23
833.048	16040.04
833.374	16151
833.7	16059.93
834.026	16110.1
834.351	16074.17
834.677	16044.79
835.003	16095.64
835.329	16040.04
835.654	16012.47
835.98	15888.18
836.306	16048.63
836.631	15989.2
836.956	16055.64
837.282	15972.7
837.607	15897
837.932	15835.76
838.258	15860.84
838.583	15840.05
838.908	15725.93
839.233	15729.09
839.558	15707.62
839.883	15653.84
840.208	15587.17
840.533	15646.38
840.858	15655.2
841.182	15577.46
841.507	15547.63
841.832	15549.21
842.156	15479.38
842.481	15451.59
842.805	15398.25
843.13	15409.78
843.454	15403.9
843.778	15354.41
844.103	15240.97
844.427	15311.25
844.751	15310.35
845.075	15224.25
845.399	15146.96
845.723	15093.4
846.047	15154.87
846.371	14985.61
846.695	14976.34
847.019	14873.52
847.343	14848.44
847.666	14694.99
847.99	14672.62
848.313	14576.13
848.637	14629.46
848.96	14528.67
849.284	14527.54
849.607	14446.41
849.931	14372.52
850.254	14256.36
850.577	14241.22
850.9	14120.32
851.223	14088.01
851.546	14041.23
851.869	13942.92
852.192	14033.54
852.515	13901.34
852.838	13883.49
853.161	13880.1
853.483	13767.79
853.806	13704.96
854.129	13652.76
854.451	13631.07
854.774	13553.33
855.096	13511.3
855.419	13463.39
855.741	13439.66
856.063	13353.11
856.385	13406.89
856.708	13396.27
857.03	13248.25
857.352	13214.13
857.674	13286.44
857.996	13171.19
858.318	13155.15
858.64	13084.19
858.961	13068.82
859.283	13003.29
859.605	12910.18
859.926	12967.58
860.248	12921.03
860.57	12836.96
860.891	12844.87
861.212	12819.11
861.534	12800.81
861.855	12738.89
862.176	12686.69
862.498	12759.9
862.819	12747.48
863.14	12650.98
863.461	12659.57
863.782	12594.94
864.103	12640.59
864.424	12548.61
864.745	12518.56
865.065	12493.02
865.386	12469.06
865.707	12413.47
866.027	12457.77
866.348	12388.39
866.668	12398.78
866.989	12364.43
867.309	12298.9
867.63	12324.21
867.95	12311.78
868.27	12224.55
868.59	12195.85
868.91	12300.48
869.23	12183.2
869.55	12179.81
869.87	12203.99
870.19	12152.01
870.51	12240.14
870.83	12202.41
871.15	12177.32
871.469	12095.29
871.789	12128.06
872.109	12089.87
872.428	11933.26
872.748	12061.39
873.067	11953.6
873.386	12022.52
873.706	11980.94
874.025	11945.69
874.344	11872.24
874.663	11913.83
874.982	11946.14
875.301	11811.91
875.62	11857.33
875.939	11888.06
876.258	11851.68
876.577	11816.43
876.896	11803.32
877.214	11724
877.533	11710.21
877.852	11718.35
878.17	11671.12
878.489	11640.16
878.807	11658.24
879.125	11617.56
879.444	11644.23
879.762	11515.87
880.08	11504.12
880.398	11551.57
880.716	11461.41
881.034	11440.39
881.352	11472.48
881.67	11390.22
881.988	11436.1
882.306	11330.56
882.624	11320.85
882.941	11253.28
883.259	11229.1
883.577	11260.96
883.894	11290.79
884.212	11276.78
884.529	11263.9
884.846	11225.03
885.164	11130.57
885.481	11166.73
885.798	11150.91
886.115	11030.91
886.432	11085.82
886.75	11002.66
887.067	11022.1
887.383	11033.85
887.7	11003.79
888.017	10963.34
888.334	11010.8
888.651	10809
888.967	10868.2
889.284	10771.26
889.6	10801.31
889.917	10755.21
890.233	10731.71
890.55	10602.45
890.866	10726.51
891.182	10622.79
891.498	10625.5
891.815	10595.22
892.131	10541.43
892.447	10427.76
892.763	10367.2
893.079	10455.56
893.395	10336.47
893.71	10371.72
894.026	10302.79
894.342	10303.47
894.657	10274.77
894.973	10227.09
895.289	10226.19
895.604	10194.55
895.92	10142.35
896.235	10066.64
896.55	10031.84
896.865	10038.17
897.181	9919.08
897.496	9975.35
897.811	9984.61
898.126	9889.47
898.441	9845.63
898.756	9885.18
899.071	9782.81
899.386	9814.67
899.7	9664.17
900.015	9648.12
900.33	9552.76
900.644	9588.01
900.959	9611.96
901.273	9555.92
901.588	9524.96
901.902	9449.03
902.216	9404.06
902.531	9479.76
902.845	9339.2
903.159	9330.39
903.473	9269.83
903.787	9251.52
904.101	9231.18
904.415	9226.44
904.729	9145.76
905.042	9114.58
905.356	9154.12
905.67	9086.33
905.984	9025.31
906.297	9017.86
906.611	8910.97
906.924	8880.23
907.237	8872.32
907.551	8931.08
907.864	8782.61
908.177	8826.45
908.491	8790.07
908.804	8718.2
909.117	8656.51
909.43	8656.51
909.743	8636.17
910.056	8574.7
910.368	8543.29
910.681	8469.4
910.994	8442.5
911.307	8433.24
911.619	8336.52
911.932	8409.28
912.244	8365.44
912.557	8264.88
912.869	8249.06
913.181	8197.99
913.494	8199.12
913.806	8134.94
914.118	8199.12
914.43	8084.55
914.742	8048.62
915.054	8006.36
915.366	8018.33
915.678	7959.35
915.99	7890.43
916.302	7794.84
916.613	7833.71
916.925	7810.88
917.236	7813.82
917.548	7826.25
917.859	7750.54
918.171	7661.96
918.482	7642.75
918.794	7587.39
919.105	7703.31
919.416	7552.58
919.727	7553.94
920.038	7527.73
920.349	7480.27
920.66	7461.74
920.971	7439.14
921.282	7389.42
921.593	7356.2
921.903	7337.9
922.214	7277.79
922.525	7214.06
922.835	7200.95
923.146	7161.18
923.456	7198.47
923.767	7151.01
924.077	7127.06
924.387	7094.74
924.697	7093.39
925.008	7021.75
925.318	6999.15
925.628	6975.65
925.938	6961.41
926.248	6877.8
926.558	6867.63
926.867	6879.16
927.177	6838.7
927.487	6821.53
927.796	6713.06
928.106	6748.76
928.416	6708.31
928.725	6685.04
929.034	6652.95
929.344	6679.39
929.653	6586.96
929.962	6591.03
930.271	6535.21
930.581	6486.85
930.89	6490.01
931.199	6443.01
931.508	6469.67
931.817	6399.39
932.125	6423.57
932.434	6358.49
932.743	6273.07
933.051	6277.14
933.36	6260.19
933.669	6273.75
933.977	6240.53
934.286	6189.68
934.594	6190.81
934.902	6108.33
935.21	6132.06
935.519	6078.95
935.827	6095.67
936.135	6003.92
936.443	5987.2
936.751	5973.64
937.059	5919.86
937.367	5931.38
937.674	5915.11
937.982	5927.09
938.29	5865.17
938.597	5907.88
938.905	5774.78
939.213	5816.36
939.52	5754.67
939.827	5713.31
940.135	5695.01
940.442	5642.13
940.749	5675.35
941.056	5654.1
941.363	5561.68
941.67	5585.18
941.977	5594.67
942.284	5516.03
942.591	5504.5
942.898	5484.39
943.205	5450.72
943.511	5467.44
943.818	5389.7
944.125	5363.71
944.431	5412.08
944.738	5352.19
945.044	5322.13
945.35	5293.89
945.657	5244.62
945.963	5255.02
946.269	5206.2
946.575	5282.59
946.881	5186.09
947.187	5220.22
947.493	5147.45
947.799	5123.27
948.105	5071.52
948.41	5043.72
948.716	5078.07
949.022	5056.6
949.327	5057.73
949.633	4961.24
949.938	4918.53
950.244	4981.13
950.549	4908.13
950.854	4891.41
951.16	4894.57
951.465	4874.46
951.77	4819.77
952.075	4850.28
952.38	4783.62
952.685	4824.07
952.99	4782.26
953.294	4732.55
953.599	4697.07
953.904	4681.92
954.209	4624.98
954.513	4651.19
954.818	4634.92
955.122	4638.31
955.426	4602.83
955.731	4600.12
956.035	4559.89
956.339	4583.62
956.643	4521.7
956.948	4517.64
957.252	4461.14
957.556	4472.66
957.86	4442.16
958.163	4445.77
958.467	4397.41
958.771	4395.38
959.075	4385.89
959.378	4320.58
959.682	4366.68
959.985	4328.04
960.289	4310.41
960.592	4245.33
960.896	4239
961.199	4263.18
961.502	4212.78
961.805	4213.01
962.108	4140.47
962.411	4149.06
962.714	4123.52
963.017	4123.07
963.32	4104.54
963.623	4069.74
963.926	4080.36
964.228	4062.51
964.531	4025.22
964.833	4041.49
965.136	3977.99
965.438	3969.4
965.741	3943.64
966.043	3933.92
966.345	3922.4
966.648	3923.98
966.95	3888.95
967.252	3858.22
967.554	3831.78
967.856	3850.08
968.158	3797.88
968.46	3832.46
968.761	3776.41
969.063	3757.66
969.365	3770.31
969.666	3753.81
969.968	3740.25
970.269	3700.71
970.571	3718.56
970.872	3714.27
971.174	3614.16
971.475	3657.32
971.776	3646.02
972.077	3634.04
972.378	3593.82
972.679	3606.02
972.98	3592.24
973.281	3548.17
973.582	3555.85
973.883	3552.01
974.183	3493.71
974.484	3481.05
974.785	3492.13
975.085	3488.06
975.386	3492.8
975.686	3458.45
975.986	3401.73
976.287	3416.42
976.587	3391.34
976.887	3342.3
977.187	3373.03
977.487	3356.08
977.787	3341.17
978.087	3340.27
978.387	3263.66
978.687	3280.38
978.987	3277.44
979.286	3244
979.586	3248.52
979.885	3205.35
980.185	3214.39
980.484	3182.3
980.784	3202.42
981.083	3187.05
981.382	3170.33
981.682	3155.86
981.981	3094.62
982.28	3084.45
982.579	3123.1
982.878	3120.38
983.177	3024.34
983.475	3046.49
983.774	3036.32
984.073	2987.51
984.372	2996.77
984.67	2989.54
984.969	2989.99
985.267	2966.49
985.566	2928.3
985.864	2927.62
986.162	2923.55
986.461	2924.46
986.759	2878.36
987.057	2851.24
987.355	2878.81
987.653	2872.48
987.951	2813.27
988.249	2828.87
988.547	2822.31
988.844	2829.77
989.142	2793.84
989.44	2785.93
989.737	2765.14
990.035	2766.27
990.332	2772.82
990.63	2729.66
990.927	2719.04
991.224	2725.59
991.521	2673.16
991.819	2710.45
992.116	2720.17
992.413	2683.79
992.71	2640.4
993.006	2635.2
993.303	2656.67
993.6	2626.84
993.897	2634.97
994.193	2572.6
994.49	2584.8
994.787	2562.88
995.083	2514.75
995.379	2521.76
995.676	2553.85
995.972	2512.72
996.268	2479.95
996.565	2497.12
996.861	2460.06
997.157	2458.03
997.453	2446.73
997.749	2417.35
998.044	2424.36
998.34	2422.1
998.636	2407.63
998.932	2382.55
999.227	2367.41
999.523	2358.37
999.818	2395.88
1000.114	2354.3
1000.409	2346.39
1000.704	2291.48
1001	2317.69
1001.295	2302.1
1001.59	2289.22
1001.885	2248.77
1002.18	2253.06
1002.475	2235.66
1002.77	2209.9
1003.065	2219.39
1003.359	2215.32
1003.654	2178.26
1003.949	2156.12
1004.243	2174.65
1004.538	2183.69
1004.832	2161.54
1005.127	2132.61
1005.421	2093.74
1005.715	2110.69
1006.009	2099.39
1006.304	2067.98
1006.598	2048.77
1006.892	2065.27
1007.186	2018.04
1007.48	2013.97
1007.773	2040.19
1008.067	2018.94
1008.361	2015.55
1008.655	1972.17
1008.948	1932.84
1009.242	1970.13
1009.535	1978.49
1009.829	1955.22
1010.122	1902.79
1010.415	1926.74
1010.708	1906.4
1011.001	1919.06
1011.295	1872.51
1011.588	1883.81
1011.881	1839.51
1012.173	1860.53
1012.466	1888.1
1012.759	1834.09
1013.052	1824.6
1013.344	1830.7
1013.637	1802.23
1013.93	1799.29
1014.222	1807.2
1014.514	1766.3
1014.807	1760.19
1015.099	1740.31
1015.391	1732.17
1015.683	1746.18
1015.976	1732.85
1016.268	1727.65
1016.56	1693.98
1016.851	1672.51
1017.143	1670.03
1017.435	1665.06
1017.727	1630.25
1018.018	1656.92
1018.31	1644.26
1018.602	1650.82
1018.893	1640.87
1019.185	1585.06
1019.476	1608.33
1019.767	1593.64
1020.058	1552.74
1020.35	1571.5
1020.641	1558.84
1020.932	1518.39
1021.223	1502.12
1021.514	1516.81
1021.804	1509.8
1022.095	1515.91
1022.386	1509.8
1022.677	1462.57
1022.967	1482.24
1023.258	1470.48
1023.548	1445.63
1023.839	1423.25
1024.129	1411.28
1024.419	1434.1
1024.709	1388.9
1025	1390.49
1025.29	1408.11
1025.58	1373.09
1025.87	1416.02
1026.16	1391.39
1026.449	1355.23
1026.739	1351.17
1027.029	1334.22
1027.319	1313.43
1027.608	1312.75
1027.898	1306.65
1028.187	1317.04
1028.477	1284.73
1028.766	1291.05
1029.055	1254.44
1029.344	1240.43
1029.634	1283.6
1029.923	1275.23
1030.212	1252.18
1030.501	1230.72
1030.79	1221.45
1031.078	1208.12
1031.367	1204.5
1031.656	1195.24
1031.945	1203.15
1032.233	1216.03
1032.522	1191.4
1032.81	1191.62
1033.099	1167.22
1033.387	1165.86
1033.675	1163.6
1033.963	1135.35
1034.251	1114.11
1034.54	1121.34
1034.828	1132.64
1035.116	1081.34
1035.403	1102.58
1035.691	1091.51
1035.979	1097.61
1036.267	1094.67
1036.554	1082.02
1036.842	1053.55
1037.129	1068.91
1037.417	1070.04
1037.704	1050.38
1037.992	1044.96
1038.279	1011.51
1038.566	1022.13
1038.853	1022.13
1039.14	1022.13
