Data from hue_150_FLMS001491_00081.txt Node
Date: Tue Feb 07 16:54:38 GMT 2017
User: dcchb
Spectrometer: FLMS00149
Trigger mode: 0
Integration Time (sec): 2.000000E-2
Scans to average: 10
Electric dark correction enabled: true
Nonlinearity correction enabled: false
Boxcar width: 0
XAxis mode: Wavelengths
Number of Pixels in Spectrum: 2048
>>>>>Begin Spectral Data<<<<<
341.393	-23.62
341.776	-23.62
342.16	-23.62
342.543	-76.72
342.927	-71.52
343.31	-61.58
343.693	-82.14
344.077	-65.2
344.46	-44.63
344.843	-64.07
345.226	-20.45
345.61	-12.32
345.993	-31.07
346.376	-10.06
346.759	20.9
347.142	5.31
347.525	26.1
347.908	64.97
348.291	72.65
348.674	84.4
349.057	117.17
349.44	116.72
349.823	139.32
350.206	153.1
350.588	173.89
350.971	210.28
351.354	215.02
351.737	212.99
352.119	233.55
352.502	239.43
352.884	258.64
353.267	288.69
353.65	295.47
354.032	268.13
354.414	295.47
354.797	295.92
355.179	320.1
355.562	291.63
355.944	320.33
356.326	323.27
356.709	334.34
357.091	314.46
357.473	344.96
357.855	331.4
358.238	331.4
358.62	342.7
359.002	342.25
359.384	336.6
359.766	338.86
360.148	328.69
360.53	337.73
360.912	332.99
361.294	331.63
361.676	329.37
362.057	334.34
362.439	327.56
362.821	318.07
363.203	334.34
363.584	336.6
363.966	314.23
364.348	324.85
364.729	288.24
365.111	313.33
365.493	307.68
365.874	306.32
366.256	339.09
366.637	300.67
367.019	288.69
367.4	303.61
367.781	335.47
368.163	301.57
368.544	288.24
368.925	318.75
369.306	321.23
369.688	294.34
370.069	307.45
370.45	299.09
370.831	318.07
371.212	299.99
371.593	290.95
371.974	294.12
372.355	303.83
372.736	301.8
373.117	319.43
373.498	312.2
373.879	342.02
374.26	313.55
374.641	309.03
375.021	303.83
375.402	328.92
375.783	313.78
376.163	306.32
376.544	309.71
376.925	316.26
377.305	319.43
377.686	315.13
378.066	324.62
378.447	323.49
378.827	313.1
379.208	330.05
379.588	332.76
379.968	361.46
380.349	318.97
380.729	327.79
381.109	352.87
381.489	334.34
381.87	347.67
382.25	340.67
382.63	324.85
383.01	339.77
383.39	330.5
383.77	325.3
384.15	351.74
384.53	346.32
384.91	347.67
385.29	345.41
385.67	344.28
386.049	365.53
386.429	346.77
386.809	347
387.189	357.62
387.568	347.45
387.948	368.92
388.328	351.52
388.707	358.97
389.087	343.83
389.466	359.65
389.846	353.78
390.225	373.21
390.605	369.14
390.984	371.85
391.363	384.74
391.743	373.44
392.122	380.89
392.501	382.93
392.881	394.9
393.26	390.16
393.639	379.09
394.018	363.04
394.397	392.42
394.776	397.16
395.155	399.42
395.534	396.94
395.913	383.38
396.292	408.69
396.671	400.55
397.05	401.46
397.429	384.28
397.808	392.65
398.186	396.03
398.565	384.96
398.944	401.23
399.323	399.88
399.701	405.98
400.08	426.77
400.458	407.11
400.837	408.46
401.215	389.71
401.594	408.24
401.972	396.49
402.351	389.71
402.729	408.46
403.107	413.44
403.486	408.69
403.864	411.18
404.242	425.41
404.62	420.44
404.999	429.25
405.377	418.41
405.755	425.19
406.133	441.68
406.511	460.89
406.889	449.82
407.267	473.09
407.645	420.89
408.023	454.34
408.401	466.09
408.779	454.11
409.156	457.5
409.534	450.5
409.912	460.67
410.29	458.86
410.667	447.33
411.045	479.2
411.422	476.94
411.8	456.37
412.178	483.49
412.555	515.81
412.933	501.57
413.31	497.5
413.687	508.57
414.065	509.48
414.442	485.98
414.819	507.9
415.197	514.9
415.574	541.12
415.951	509.03
416.328	503.83
416.705	516.71
417.082	527.56
417.46	536.82
417.837	520.78
418.214	525.75
418.591	552.64
418.967	544.51
419.344	541.34
419.721	533.66
420.098	549.03
420.475	544.73
420.852	544.05
421.228	575.69
421.605	552.64
421.982	568.01
422.358	560.1
422.735	575.01
423.111	578.18
423.488	588.8
423.864	604.16
424.241	603.49
424.617	590.83
424.994	599.65
425.37	620.89
425.746	610.04
426.123	618.63
426.499	597.84
426.875	618.18
427.251	646.42
427.627	622.47
428.003	646.65
428.379	633.54
428.756	632.41
429.132	651.17
429.507	657.95
429.883	649.59
430.259	681.45
430.635	669.02
431.011	672.64
431.387	703.82
431.763	694.33
432.138	704.73
432.514	692.75
432.89	699.3
433.265	723.03
433.641	736.36
434.016	742.24
434.392	736.59
434.767	755.12
435.143	753.77
435.518	730.49
435.894	744.5
436.269	775.46
436.644	788.79
437.02	789.92
437.395	795.35
437.77	777.72
438.145	819.3
438.52	789.92
438.895	813.65
439.271	808.45
439.646	825.4
440.021	840.54
440.395	819.3
440.77	851.16
441.145	810.26
441.52	874.21
441.895	857.04
442.27	869.92
442.645	877.15
443.019	884.16
443.394	899.98
443.769	918.05
444.143	905.85
444.518	914.67
444.892	907.43
445.267	886.87
445.641	932.29
446.016	937.94
446.39	924.61
446.764	951.27
447.139	949.24
447.513	954.44
447.887	946.98
448.262	956.02
448.636	978.39
449.01	968
449.384	988.79
449.758	991.73
450.132	1003.7
450.506	1021.78
450.88	1017.94
451.254	1011.84
451.628	1043.25
452.002	1040.99
452.376	1055.68
452.75	1059.52
453.123	1066.3
453.497	1069.24
453.871	1092.74
454.244	1139.07
454.618	1120.99
454.992	1111.27
455.365	1122.12
455.739	1144.26
456.112	1159.4
456.486	1160.08
456.859	1189.46
457.232	1208.67
457.606	1215.45
457.979	1218.16
458.352	1246.86
458.725	1257.26
459.099	1241.44
459.472	1280.76
459.845	1323.47
460.218	1331.83
460.591	1336.8
460.964	1341.77
461.337	1347.2
461.71	1373.86
462.083	1432.84
462.456	1386.07
462.829	1417.48
463.201	1457.02
463.574	1461.77
463.947	1494.76
464.32	1501.54
464.692	1519.4
465.065	1522.11
465.438	1557.81
465.81	1581.99
466.183	1579.28
466.555	1631.71
466.928	1654.76
467.3	1650.24
467.672	1692.05
468.045	1702.22
468.417	1741.31
468.789	1750.8
469.161	1807.52
469.534	1844.81
469.906	1882.78
470.278	1860.4
470.65	1933.85
471.022	1951.7
471.394	1979.27
471.766	2043
472.138	2066.73
472.51	2107.63
472.882	2133.84
473.253	2188.98
473.625	2236.44
473.997	2304.69
474.369	2317.34
474.74	2366.6
475.112	2445.02
475.484	2449.54
475.855	2557.79
476.227	2548.97
476.598	2660.83
476.97	2707.61
477.341	2788.06
477.713	2837.33
478.084	2886.59
478.455	2993.25
478.827	3030.77
479.198	3149.86
479.569	3192.57
479.94	3288.16
480.311	3368.61
480.682	3459.23
481.053	3538.33
481.424	3647.47
481.795	3729.51
482.166	3823.06
482.537	3887.24
482.908	4002.04
483.279	4125.2
483.65	4220.12
484.021	4382.14
484.391	4448.13
484.762	4570.39
485.133	4607.9
485.503	4756.37
485.874	4905.29
486.244	4959.3
486.615	5110.26
486.985	5221.44
487.356	5397.03
487.726	5488.56
488.097	5623.47
488.467	5728.55
488.837	5870.02
489.207	6036.56
489.578	6112.27
489.948	6266.84
490.318	6393.84
490.688	6468.19
491.058	6624.8
491.428	6747.96
491.798	6866.37
492.168	7138.23
492.538	7124.9
492.908	7338.45
493.278	7421.84
493.648	7545.9
494.017	7697.76
494.387	7809.17
494.757	7960.81
495.126	8031.99
495.496	8221.37
495.866	8330.52
496.235	8434.69
496.605	8527.35
496.974	8679.43
497.344	8791.52
497.713	8847.56
498.082	9016.6
498.452	9118.07
498.821	9150.15
499.19	9280.09
499.559	9408.23
499.928	9511.95
500.298	9624.49
500.667	9740.2
501.036	9726.86
501.405	9929.8
501.774	9967.31
502.143	10078.27
502.512	10123.46
502.88	10241.43
503.249	10281.42
503.618	10355.77
503.987	10467.86
504.356	10591.7
504.724	10590.79
505.093	10655.43
505.462	10727.97
505.83	10807.06
506.199	10929.32
506.567	11066.04
506.936	11062.87
507.304	11227.61
507.672	11232.13
508.041	11306.03
508.409	11305.35
508.777	11419.47
509.145	11498.12
509.514	11522.97
509.882	11684.78
510.25	11632.8
510.618	11793.7
510.986	11797.77
511.354	11835.73
511.722	11912.34
512.09	11958.44
512.458	11987.14
512.826	12072.79
513.193	12106.69
513.561	12160.25
513.929	12230.75
514.297	12292.9
514.664	12382.84
515.032	12473.68
515.4	12530.18
515.767	12494.25
516.135	12572.66
516.502	12452.44
516.869	12674.58
517.237	12605.66
517.604	12658.31
517.972	12686.56
518.339	12700.57
518.706	12763.85
519.073	12773.79
519.44	12826.22
519.808	12974.24
520.175	12890.62
520.542	12983.5
520.909	13059.43
521.276	13021.47
521.643	13052.65
522.009	13154.57
522.376	13202.25
522.743	13160.44
523.11	13289.26
523.477	13377.16
523.843	13321.34
524.21	13450.83
524.577	13533.99
524.943	13575.58
525.31	13470.72
525.676	13537.84
526.043	13561.79
526.409	13632.97
526.776	13726.31
527.142	13652.86
527.508	13711.16
527.874	13698.74
528.241	13813.99
528.607	13778.51
528.973	13935.11
529.339	13852.4
529.705	13879.75
530.071	13904.38
530.437	13924.94
530.803	13929.24
531.169	13919.52
531.535	13813.76
531.901	13902.35
532.267	13871.39
532.632	13904.61
532.998	13969.46
533.364	13874.32
533.73	13917.94
534.095	13863.25
534.461	13795.68
534.826	13909.13
535.192	13881.33
535.557	13898.73
535.923	13860.31
536.288	13804.5
536.653	13814.67
537.019	13715.23
537.384	13791.61
537.749	13714.33
538.114	13760.43
538.479	13684.72
538.845	13669.36
539.21	13689.24
539.575	13664.61
539.94	13677.04
540.305	13653.99
540.67	13591.85
541.034	13516.14
541.399	13563.6
541.764	13532.86
542.129	13538.06
542.494	13507.78
542.858	13526.54
543.223	13446.31
543.587	13434.11
543.952	13411.06
544.316	13350.04
544.681	13314.34
545.045	13361.34
545.41	13287
545.774	13323.83
546.138	13245.64
546.503	13237.28
546.867	13149.6
547.231	13228.69
547.595	13159.99
547.959	13148.02
548.324	13107.79
548.688	13007.45
549.052	13022.37
549.416	13050.84
549.779	12982.82
550.143	12929.04
550.507	13014.91
550.871	12955.93
551.235	12915.25
551.599	12921.13
551.962	12913.22
552.326	12848.81
552.689	12972.65
553.053	12838.87
553.417	12809.27
553.78	12968.59
554.143	12731.3
554.507	12820.79
554.87	12782.6
555.234	12797.97
555.597	12698.76
555.96	12757.74
556.323	12722.49
556.686	12648.37
557.05	12715.03
557.413	12641.36
557.776	12703.06
558.139	12718.87
558.502	12700.8
558.865	12645.66
559.228	12693.11
559.59	12764.52
559.953	12683.17
560.316	12765.2
560.679	12653.11
561.041	12702.6
561.404	12765.43
561.767	12774.24
562.129	12714.58
562.492	12752.77
562.854	12787.12
563.217	12756.84
563.579	12821.24
563.941	12856.05
564.304	12827.57
564.666	12874.8
565.028	12941.69
565.39	12939.89
565.753	12907.12
566.115	12914.58
566.477	12906.89
566.839	12910.28
567.201	12969.04
567.563	12940.11
567.925	13028.25
568.287	12993.22
568.648	13011.3
569.01	13096.49
569.372	13119.32
569.734	12997.96
570.095	13125.64
570.457	13018.75
570.819	13059.66
571.18	13058.75
571.542	13099.88
571.903	13162.25
572.265	13127
572.626	13175.81
572.987	13214.23
573.349	13208.81
573.71	13209.71
574.071	13250.61
574.432	13284.96
574.794	13304.4
575.155	13331.74
575.516	13308.24
575.877	13283.15
576.238	13415.81
576.599	13352.08
576.96	13379.42
577.32	13289.93
577.681	13399.99
578.042	13407.22
578.403	13360.67
578.763	13320.89
579.124	13396.14
579.485	13366.99
579.845	13464.84
580.206	13379.42
580.566	13373.09
580.927	13428.23
581.287	13444.51
581.648	13383.94
582.008	13499.42
582.368	13410.83
582.728	13389.14
583.089	13374.22
583.449	13316.37
583.809	13426.43
584.169	13398.4
584.529	13330.16
584.889	13426.88
585.249	13279.31
585.609	13350.95
585.969	13413.09
586.329	13256.26
586.688	13360.44
587.048	13318.63
587.408	13270.95
587.768	13268.01
588.127	13280.44
588.487	13231.4
588.846	13287.67
589.206	13191.86
589.565	13181.01
589.925	13227.79
590.284	13249.48
590.643	13245.87
591.003	13198.64
591.362	13326.09
591.721	13187.56
592.08	13141.01
592.44	13284.28
592.799	13189.14
593.158	13191.18
593.517	13214.91
593.876	13243.61
594.235	13190.95
594.593	13174.68
594.952	13095.59
595.311	13131.97
595.67	13183.04
596.029	13230.5
596.387	13198.86
596.746	13238.63
597.104	13164.74
597.463	13204.29
597.822	13185.75
598.18	13100.33
598.538	13089.03
598.897	13067.79
599.255	13080.9
599.613	13222.14
599.972	13079.54
600.33	13165.42
600.688	13077.74
601.046	13098.75
601.404	13167.68
601.762	13159.09
602.12	13245.87
602.478	13180.11
602.836	13133.78
603.194	13023.5
603.552	13101.69
603.91	13030.28
604.268	13104.18
604.625	13115.02
604.983	13068.7
605.341	13163.83
605.698	13152.99
606.056	13194.79
606.413	13111.41
606.771	13223.04
607.128	13173.78
607.485	13089.03
607.843	13131.75
608.2	13271.85
608.557	13189.82
608.914	13145.53
609.272	13322.02
609.629	13237.51
609.986	13298.29
610.343	13284.28
610.7	13282.7
611.057	13286.32
611.414	13263.49
611.771	13310.72
612.127	13358.86
612.484	13395.47
612.841	13380.33
613.198	13402.02
613.554	13345.52
613.911	13430.04
614.267	13398.4
614.624	13396.14
614.98	13352.53
615.337	13409.93
615.693	13427.33
616.05	13411.06
616.406	13485.63
616.762	13451.06
617.118	13472.53
617.475	13412.64
617.831	13469.36
618.187	13490.38
618.543	13529.47
618.899	13596.14
619.255	13527.21
619.611	13483.37
619.967	13602.92
620.323	13575.12
620.678	13555.69
621.034	13513.88
621.39	13503.03
621.746	13518.18
622.101	13649.7
622.457	13526.31
622.812	13619.64
623.168	13568.57
623.523	13506.88
623.879	13634.1
624.234	13531.96
624.589	13633.2
624.945	13600.89
625.3	13587.55
625.655	13638.17
626.01	13568.12
626.365	13555.46
626.72	13593.43
627.075	13543.26
627.43	13521.34
627.785	13540.32
628.14	13583.71
628.495	13545.75
628.85	13554.78
629.205	13548.23
629.559	13637.95
629.914	13545.07
630.269	13515.24
630.623	13494.45
630.978	13456.93
631.332	13507.33
631.687	13463.49
632.041	13440.89
632.396	13501.68
632.75	13445.64
633.104	13416.94
633.459	13375.35
633.813	13355.69
634.167	13375.81
634.521	13326.54
634.875	13333.77
635.229	13301.01
635.583	13241.35
635.937	13257.17
636.291	13189.14
636.645	13279.99
636.999	13095.36
637.352	13266.88
637.706	13046.55
638.06	13173.33
638.413	13136.04
638.767	13051.3
639.121	13093.1
639.474	13086.32
639.828	13053.78
640.181	13170.84
640.534	13070.96
640.888	13032.76
641.241	12963.84
641.594	13041.35
641.947	13016.95
642.301	12996.61
642.654	13070.96
643.007	13042.03
643.36	12992.31
643.713	12972.43
644.066	12955.7
644.419	12959.32
644.771	12885.88
645.124	12763.85
645.477	12729.27
645.83	12659.67
646.182	12580.12
646.535	12548.03
646.888	12627.58
647.24	12492.21
647.593	12603.17
647.945	12505.77
648.298	12523.85
648.65	12467.58
649.002	12516.17
649.355	12580.57
649.707	12478.2
650.059	12593.23
650.411	12759.55
650.763	12755.03
651.115	12843.62
651.467	12818.08
651.819	12820.79
652.171	12808.59
652.523	12770.85
652.875	12763.17
653.227	12723.62
653.578	12739.67
653.93	12792.09
654.282	12673
654.633	12696.5
654.985	12784.41
655.337	12727.24
655.688	12704.41
656.039	12771.98
656.391	12640.01
656.742	12681.59
657.094	12735.15
657.445	12717.52
657.796	12734.24
658.147	12583.96
658.498	12699.89
658.849	12831.64
659.2	12722.04
659.551	12738.31
659.902	12687.69
660.253	12716.61
660.604	12811.98
660.955	12666.22
661.306	12773.79
661.656	12774.24
662.007	12735.82
662.358	12754.58
662.708	12821.7
663.059	12785.99
663.409	12685.88
663.76	12723.39
664.11	12730.85
664.461	12819.21
664.811	12804.75
665.161	12746.44
665.511	12687.24
665.862	12797.06
666.212	12744.41
666.562	12819.66
666.912	12777.63
667.262	12742.6
667.612	12863.96
667.962	12831.19
668.312	12659.44
668.662	12841.81
669.011	12778.08
669.361	12729.27
669.711	12753.45
670.06	12746.9
670.41	12781.47
670.76	12774.24
671.109	12704.19
671.459	12719.33
671.808	12661.25
672.157	12772.88
672.507	12618.31
672.856	12672.32
673.205	12742.15
673.554	12706.45
673.904	12660.12
674.253	12669.84
674.602	12669.38
674.951	12523.4
675.3	12397.75
675.649	12634.81
675.998	12565.43
676.346	12667.12
676.695	12507.81
677.044	12475.72
677.393	12547.58
677.741	12555.04
678.09	12487.47
678.438	12536.51
678.787	12477.07
679.135	12556.62
679.484	12481.82
679.832	12471.88
680.181	12405.66
680.529	12429.62
680.877	12390.52
681.225	12349.39
681.573	12477.75
681.922	12362.05
682.27	12373.35
682.618	12327.02
682.966	12245.44
683.314	12288.6
683.661	12233.69
684.009	12184.88
684.357	12105.33
684.705	12183.75
685.053	12186.91
685.4	12099.68
685.748	12101.26
686.095	12146.69
686.443	11997.99
686.79	11972
687.138	12001.83
687.485	11936.97
687.832	12002.28
688.18	11936.52
688.527	11923.64
688.874	11835.73
689.221	11800.03
689.568	11745.57
689.915	11768.62
690.262	11741.73
690.609	11670.99
690.956	11696.08
691.303	11636.42
691.65	11651.56
691.997	11580.83
692.344	11485.01
692.69	11503.99
693.037	11475.52
693.383	11329.98
693.73	11391.23
694.077	11374.05
694.423	11296.31
694.769	11292.92
695.116	11233.49
695.462	11239.37
695.808	11146.03
696.155	11220.61
696.501	11073.72
696.847	11095.19
697.193	11008.86
697.539	11050.67
697.885	10888.19
698.231	10859.26
698.577	10887.06
698.923	10906.27
699.269	10844.8
699.614	10782.88
699.96	10694.3
700.306	10774.97
700.651	10711.92
700.997	10615.65
701.342	10568.87
701.688	10528.65
702.033	10492.94
702.379	10509.22
702.724	10485.49
703.069	10482.78
703.415	10387.86
703.76	10357.81
704.105	10328.43
704.45	10270.58
704.795	10276.9
705.14	10216.12
705.485	10231.48
705.83	10099.06
706.175	10251.37
706.52	10094.99
706.865	10077.81
707.209	10065.39
707.554	10029.91
707.899	10004.82
708.243	10040.75
708.588	9967.08
708.932	9918.72
709.277	9868.78
709.621	9905.39
709.966	9787.65
710.31	9862
710.654	9805.05
710.998	9776.13
711.342	9762.12
711.687	9806.86
712.031	9683.47
712.375	9641.67
712.719	9629.69
713.063	9649.58
713.407	9601.22
713.75	9566.19
714.094	9575.68
714.438	9571.61
714.782	9546.53
715.125	9492.07
715.469	9538.85
715.812	9496.36
716.156	9491.16
716.499	9407.32
716.843	9434.44
717.186	9386.53
717.53	9473.08
717.873	9405.29
718.216	9383.14
718.559	9369.36
718.902	9254.33
719.246	9367.32
719.589	9323.48
719.932	9283.03
720.275	9233.99
720.617	9230.38
720.96	9282.58
721.303	9200.32
721.646	9249.14
721.989	9224.28
722.331	9214.79
722.674	9196.03
723.016	9165.07
723.359	9191.06
723.701	9162.58
724.044	9098.4
724.386	9062.25
724.729	9079.2
725.071	9072.42
725.413	9068.35
725.755	9043.94
726.097	9041.23
726.439	9002.59
726.782	9007.11
727.124	9034
727.465	9011.4
727.807	9006.66
728.149	8948.8
728.491	8980.89
728.833	9051.63
729.175	8987
729.516	8925.75
729.858	8953.32
730.199	8938.18
730.541	8948.8
730.882	8919.2
731.224	8965.98
731.565	8945.41
731.906	8871.97
732.248	8924.62
732.589	8903.38
732.93	8864.06
733.271	8928.01
733.612	8860.22
733.953	8978.86
734.294	8841.46
734.635	8889.14
734.976	8935.92
735.317	8924.4
735.658	8888.92
735.999	8889.37
736.339	8918.75
736.68	8991.97
737.021	8925.75
737.361	8902.93
737.702	8994.45
738.042	8983.15
738.383	8898.86
738.723	8959.88
739.063	8871.74
739.404	8973.44
739.744	8941.8
740.084	8920.78
740.424	8971.18
740.764	8925.53
741.104	8969.37
741.444	9021.57
741.784	8996.94
742.124	8974.11
742.464	9034.68
742.804	8992.42
743.143	9056.15
743.483	9105.18
743.823	9056.15
744.162	9125.97
744.502	9128.46
744.841	9103.83
745.181	9230.6
745.52	9131.4
745.86	9296.37
746.199	9229.7
746.538	9272.64
746.877	9351.96
747.216	9407.55
747.556	9419.53
747.895	9474.89
748.234	9463.14
748.573	9491.39
748.911	9521.22
749.25	9628.11
749.589	9676.69
749.928	9709.46
750.267	9801.66
750.605	9849.8
750.944	9946.29
751.283	9988.78
751.621	10079.4
751.96	10170.69
752.298	10225.38
752.636	10295.89
752.975	10362.78
753.313	10470.57
753.651	10672.15
753.989	10638.48
754.327	10725.48
754.666	10821.52
755.004	10940.62
755.342	11007.06
755.679	11195.98
756.017	11253.38
756.355	11407.72
756.693	11524.56
757.031	11616.3
757.368	11752.12
757.706	11945.34
758.044	11992.34
758.381	12185.78
758.719	12282.05
759.056	12549.61
759.394	12593.68
759.731	12648.82
760.068	12825.76
760.405	13043.61
760.743	13078.19
761.08	13290.16
761.417	13338.75
761.754	13564.73
762.091	13663.48
762.428	13860.09
762.765	13983.25
763.102	14121.78
763.438	14271.15
763.775	14447.19
764.112	14601.09
764.449	14798.59
764.785	14871.36
765.122	14914.75
765.458	15186.38
765.795	15367.84
766.131	15435.87
766.467	15587.27
766.804	15645.8
767.14	15719.02
767.476	16058.67
767.812	16053.02
768.148	16228.61
768.485	16269.97
768.821	16338.44
769.157	16504.09
769.492	16551.32
769.828	16786.56
770.164	16707.7
770.5	16912.44
770.836	17028.82
771.171	17095.26
771.507	17154.01
771.842	17222.03
772.178	17287.34
772.513	17431.75
772.849	17522.59
773.184	17421.58
773.519	17602.59
773.855	17642.36
774.19	17655.92
774.525	17781.79
774.86	17820.44
775.195	17909.47
775.53	17893.43
775.865	18020.43
776.2	17880.77
776.535	17925.97
776.87	18019.07
777.205	18021.79
777.539	17977.04
777.874	18221.78
778.209	18067.66
778.543	18083.25
778.878	18131.16
779.212	18185.85
779.547	18151.73
779.881	18202.57
780.215	18158.51
780.55	18190.14
780.884	18228.56
781.218	18231.72
781.552	18245.51
781.886	18309.69
782.22	18296.36
782.554	18360.99
782.888	18118.28
783.222	18087.77
783.556	18169.58
783.889	18025.63
784.223	18129.58
784.557	18028.34
784.89	18081.22
785.224	18081.9
785.557	18096.36
785.891	18111.05
786.224	18099.98
786.558	18054.78
786.891	17958.51
787.224	17904.95
787.557	17917.38
787.891	17907.66
788.224	17844.62
788.557	17864.28
788.89	17910.15
789.223	17919.64
789.556	17808.23
789.888	17808.91
790.221	17784.05
790.554	17627.22
790.887	17693.21
791.219	17628.8
791.552	17563.94
791.884	17531.86
792.217	17544.28
792.549	17501.57
792.882	17489.82
793.214	17212.54
793.546	17384.29
793.879	17320.56
794.211	17231.3
794.543	17308.58
794.875	17207.57
795.207	17210.96
795.539	17190.62
795.871	17134.13
796.203	17153.56
796.535	17010.51
796.867	16941.81
797.198	16921.93
797.53	17019.55
797.862	16854.36
798.193	16916.5
798.525	16761.71
798.856	16834.25
799.188	16617.76
799.519	16617.76
799.85	16588.38
800.182	16647.58
800.513	16583.41
800.844	16443.52
801.175	16563.29
801.506	16436.74
801.837	16434.48
802.168	16401.72
802.499	16330.76
802.83	16294.15
803.161	16237.88
803.491	16253.47
803.822	16217.54
804.153	16196.3
804.483	16002.4
804.814	16054.61
805.145	16040.82
805.475	16019.8
805.805	15968.05
806.136	15867.72
806.466	16023.42
806.796	15856.42
807.126	15852.13
807.457	15729.64
807.787	15763.54
808.117	15653.49
808.447	15665.24
808.777	15655.75
809.107	15525.35
809.436	15512.93
809.766	15499.37
810.096	15498.91
810.426	15481.29
810.755	15477.9
811.085	15455.98
811.414	15480.16
811.744	15301.86
812.073	15351.57
812.403	15324.68
812.732	15233.61
813.061	15189.77
813.39	15104.12
813.719	15116.33
814.049	15138.92
814.378	15136.89
814.707	15028.19
815.036	15109.32
815.365	14941.64
815.693	14806.5
816.022	14956.1
816.351	14875.65
816.68	14812.15
817.008	14887.63
817.337	14686.28
817.665	14705.94
817.994	14783
818.322	14688.77
818.651	14627.52
818.979	14620.29
819.307	14667.52
819.636	14678.37
819.964	14550.46
820.292	14609.67
820.62	14546.4
820.948	14575.55
821.276	14563.8
821.604	14533.06
821.932	14566.28
822.259	14520.86
822.587	14484.48
822.915	14549.79
823.243	14483.12
823.57	14380.53
823.898	14546.62
824.225	14444.03
824.553	14458.26
824.88	14498.04
825.207	14552.05
825.535	14448.09
825.862	14496.45
826.189	14453.74
826.516	14561.31
826.843	14585.94
827.17	14529
827.497	14586.17
827.824	14614.64
828.151	14539.84
828.478	14496.91
828.805	14557.02
829.131	14489.22
829.458	14559.05
829.785	14465.27
830.111	14408.77
830.438	14547.98
830.764	14585.27
831.09	14589.79
831.417	14458.49
831.743	14539.17
832.069	14418.26
832.395	14427.53
832.722	14455.78
833.048	14460.75
833.374	14428.66
833.7	14311.15
834.026	14422.56
834.351	14452.16
834.677	14394.99
835.003	14444.93
835.329	14428.89
835.654	14373.07
835.98	14246.52
836.306	14375.1
836.631	14281.77
836.956	14264.82
837.282	14352.5
837.607	14365.84
837.932	14185.5
838.258	14261.43
838.583	14183.02
838.908	14091.72
839.233	14110.02
839.558	14080.19
839.883	14051.27
840.208	14009.46
840.533	14046.75
840.858	13947.99
841.182	14083.81
841.507	13980.54
841.832	13866.42
842.156	13983.02
842.481	13925.62
842.805	13837.94
843.13	13825.51
843.454	13801.56
843.778	13715.68
844.103	13778.73
844.427	13699.87
844.751	13712.07
845.075	13649.92
845.399	13618.74
845.723	13525.63
846.047	13481.79
846.371	13433.21
846.695	13469.14
847.019	13303.27
847.343	13308.69
847.666	13267.79
847.99	13170.84
848.313	13175.36
848.637	13105.76
848.96	13100.79
849.284	13004.74
849.607	12970.62
849.931	12908.02
850.254	12872.09
850.577	12757.29
850.9	12711.64
851.223	12635.26
851.546	12621.93
851.869	12551.87
852.192	12532.44
852.515	12518.65
852.838	12379.9
853.161	12368.83
853.483	12309.85
853.806	12349.84
854.129	12297.87
854.451	12248.38
854.774	12191.43
855.096	12105.78
855.419	12038.89
855.741	12112.79
856.063	12062.39
856.385	11948.27
856.708	12025.79
857.03	11947.82
857.352	11950.99
857.674	11837.77
857.996	11821.27
858.318	11741.05
858.64	11749.41
858.961	11726.81
859.283	11667.6
859.605	11565.91
859.926	11680.71
860.248	11643.42
860.57	11486.59
860.891	11606.14
861.212	11501.96
861.534	11445.46
861.855	11352.58
862.176	11428.29
862.498	11492.24
862.819	11432.35
863.14	11317.56
863.461	11287.5
863.782	11339.02
864.103	11279.82
864.424	11219.93
864.745	11227.16
865.065	11199.59
865.386	11203.89
865.707	11132.93
866.027	11166.15
866.348	11194.85
866.668	11133.61
866.989	11125.02
867.309	11043.89
867.63	11148.29
867.95	11050.44
868.27	10931.58
868.59	11041.86
868.91	11021.97
869.23	10941.52
869.55	10920.96
869.87	10963.89
870.19	10885.48
870.51	10979.94
870.83	10914.18
871.15	10896.1
871.469	10808.42
871.789	10866.27
872.109	10861.3
872.428	10784.01
872.748	10863.1
873.067	10796.89
873.386	10869.66
873.706	10760.96
874.025	10722.77
874.344	10654.07
874.663	10734.29
874.982	10662.21
875.301	10689.55
875.62	10615.88
875.939	10637.8
876.258	10615.2
876.577	10553.51
876.896	10585.6
877.214	10540.17
877.533	10490.23
877.852	10498.59
878.17	10438.71
878.489	10472.61
878.807	10477.35
879.125	10490.46
879.444	10474.64
879.762	10393.74
880.08	10413.4
880.398	10410.23
880.716	10456.11
881.034	10383.79
881.352	10361.65
881.67	10307.86
881.988	10251.37
882.306	10274.65
882.624	10148.77
882.941	10189.45
883.259	10100.19
883.577	10185.83
883.894	10153.07
884.212	10110.81
884.529	10127.08
884.846	10122.33
885.164	10033.75
885.481	10004.14
885.798	10110.36
886.115	10004.82
886.432	9925.73
886.75	9941.32
887.067	9903.13
887.383	9861.1
887.7	9868.1
888.017	9837.14
888.334	9853.41
888.651	9836.01
888.967	9751.04
889.284	9697.49
889.6	9728.44
889.917	9662.91
890.233	9675.11
890.55	9635.34
890.866	9557.83
891.182	9556.02
891.498	9482.58
891.815	9510.15
892.131	9471.05
892.447	9442.8
892.763	9365.74
893.079	9389.47
893.395	9390.15
893.71	9392.63
894.026	9332.07
894.342	9297.27
894.657	9231.73
894.973	9219.98
895.289	9231.28
895.604	9173.43
895.92	9085.52
896.235	9071.74
896.55	9064.96
896.865	9070.38
897.181	8981.12
897.496	8975.47
897.811	8897.51
898.126	8910.61
898.441	8905.87
898.756	8826.55
899.071	8824.97
899.386	8798.3
899.7	8789.03
900.015	8659.32
900.33	8583.84
900.644	8671.52
900.959	8682.6
901.273	8639.89
901.588	8553.33
901.902	8541.13
902.216	8480.12
902.531	8424.07
902.845	8422.04
903.159	8339.1
903.473	8297.07
903.787	8232.21
904.101	8252.1
904.415	8255.94
904.729	8214.13
905.042	8179.56
905.356	8161.03
905.67	8209.39
905.984	8129.16
906.297	8106.34
906.611	8110.41
906.924	8013.01
907.237	7970.52
907.551	7997.87
907.864	7947.93
908.177	7893.92
908.491	7893.24
908.804	7819.79
909.117	7820.47
909.43	7690.08
909.743	7730.53
910.056	7686.01
910.368	7695.96
910.681	7712.23
910.994	7601.27
911.307	7588.39
911.619	7543.64
911.932	7544.32
912.244	7444.21
912.557	7464.78
912.869	7406.02
913.181	7404.44
913.494	7369.64
913.806	7351.11
914.118	7307.94
914.43	7247.61
914.742	7262.97
915.054	7236.08
915.366	7168.74
915.678	7130.32
915.99	7127.16
916.302	7043.54
916.613	7042.19
916.925	7005.58
917.236	7017.1
917.548	6937.78
917.859	6991.57
918.171	6944.79
918.482	6933.04
918.794	6848.07
919.105	6851.68
919.416	6817.56
919.727	6815.98
920.038	6751.35
920.349	6750.67
920.66	6733.5
920.971	6731.24
921.282	6702.08
921.593	6596.78
921.903	6573.27
922.214	6581.63
922.525	6534.63
922.835	6514.52
923.146	6444.46
923.456	6469.32
923.767	6443.56
924.077	6416.22
924.387	6371.24
924.697	6322.43
925.008	6316.56
925.318	6328.99
925.628	6331.25
925.938	6260.51
926.248	6202.89
926.558	6173.28
926.867	6124.47
927.177	6179.16
927.487	6147.75
927.796	6120.63
928.106	6055.55
928.416	6032.95
928.725	6013.51
929.034	5996.79
929.344	5952.5
929.653	5982.55
929.962	5929.9
930.271	5919.51
930.581	5834.76
930.89	5827.76
931.199	5776.91
931.508	5803.58
931.817	5812.39
932.125	5816.46
932.434	5741.43
932.743	5722.67
933.051	5671.15
933.36	5644.71
933.669	5655.33
933.977	5649.23
934.286	5638.83
934.594	5554.32
934.902	5552.51
935.21	5526.97
935.519	5489.46
935.827	5489.91
936.135	5489.01
936.443	5409.69
936.751	5404.49
937.059	5395
937.367	5391.38
937.674	5426.64
937.982	5328.33
938.29	5274.32
938.597	5298.28
938.905	5231.16
939.213	5230.26
939.52	5176.02
939.827	5217.15
940.135	5168.11
940.442	5187.1
940.749	5130.83
941.056	5104.84
941.363	5007.44
941.67	5029.81
941.977	4984.84
942.284	4994.33
942.591	4978.06
942.898	4965.63
943.205	4938.74
943.511	4910.04
943.818	4927.67
944.125	4908.91
944.431	4845.86
944.738	4872.75
945.044	4798.4
945.35	4774.45
945.657	4766.32
945.963	4770.16
946.269	4705.07
946.575	4778.52
946.881	4698.75
947.187	4638.18
947.493	4662.82
947.799	4656.94
948.105	4639.99
948.41	4574.91
948.716	4614.23
949.022	4588.24
949.327	4557.28
949.633	4546.43
949.938	4475.7
950.244	4445.65
950.549	4448.58
950.854	4452.2
951.16	4398.87
951.465	4408.13
951.77	4381.47
952.075	4376.27
952.38	4376.04
952.685	4309.6
952.99	4235.93
953.294	4285.42
953.599	4252.43
953.904	4222.6
954.209	4256.5
954.513	4251.3
954.818	4252.88
955.122	4206.56
955.426	4168.14
955.731	4132.89
956.035	4131.76
956.339	4171.98
956.643	4066.67
956.948	4101.47
957.252	4084.98
957.556	4059.89
957.86	4090.4
958.163	4043.85
958.467	4030.74
958.771	3978.09
959.075	3946.45
959.378	3936.51
959.682	3895.15
959.985	3907.81
960.289	3884.3
960.592	3830.07
960.896	3849.28
961.199	3879.78
961.502	3826.23
961.805	3824.19
962.108	3784.19
962.411	3814.7
962.714	3748.71
963.017	3758.21
963.32	3750.52
963.623	3728.6
963.926	3708.94
964.228	3701.48
964.531	3712.11
964.833	3664.88
965.136	3654.25
965.438	3620.36
965.741	3607.7
966.043	3556.18
966.345	3596.85
966.648	3568.38
966.95	3581.04
967.252	3546.46
967.554	3507.37
967.856	3517.08
968.158	3463.07
968.46	3459.46
968.761	3439.12
969.063	3436.86
969.365	3434.82
969.666	3389.4
969.968	3405
970.269	3412
970.571	3374.26
970.872	3383.07
971.174	3312.12
971.475	3329.74
971.776	3293.59
972.077	3287.03
972.378	3283.19
972.679	3292
972.98	3244.55
973.281	3255.39
973.582	3244.55
973.883	3224.89
974.183	3203.42
974.484	3191.44
974.785	3159.8
975.085	3178.56
975.386	3174.27
975.686	3160.48
975.986	3095.62
976.287	3098.11
976.587	3080.71
976.887	3067.6
977.187	3082.52
977.487	3064.44
977.787	3006.81
978.087	3018.79
978.387	2975.63
978.687	2983.54
978.987	2999.58
979.286	2955.97
979.586	2941.28
979.885	2939.7
980.185	2903.77
980.484	2912.58
980.784	2910.54
981.083	2897.66
981.382	2866.25
981.682	2817.89
981.981	2831
982.28	2828.51
982.579	2818.12
982.878	2836.65
983.177	2781.06
983.475	2784.45
983.774	2772.02
984.073	2755.07
984.372	2728.63
984.67	2718.46
984.969	2739.93
985.267	2700.61
985.566	2696.54
985.864	2672.59
986.162	2685.69
986.461	2626.03
986.759	2631.91
987.057	2602.53
987.355	2586.26
987.653	2568.63
987.951	2590.78
988.249	2579.25
988.547	2590.33
988.844	2527.05
989.142	2541.52
989.44	2546.94
989.737	2509.65
990.035	2504
990.332	2517.33
990.63	2504
990.927	2499.03
991.224	2469.65
991.521	2486.83
991.819	2431.46
992.116	2441.63
992.413	2385.36
992.71	2426.94
993.006	2411.12
993.303	2419.26
993.6	2366.83
993.897	2366.38
994.193	2379.94
994.49	2346.49
994.787	2334.97
995.083	2313.95
995.379	2315.76
995.676	2294.74
995.972	2305.36
996.268	2303.33
996.565	2267.4
996.861	2260.84
997.157	2245.03
997.453	2250.68
997.749	2203.44
998.044	2195.54
998.34	2212.48
998.636	2182.43
998.932	2179.94
999.227	2182.43
999.523	2170.9
999.818	2146.27
1000.114	2125.93
1000.409	2127.29
1000.704	2096.56
1001	2111.02
1001.295	2051.58
1001.59	2097.46
1001.885	2071.24
1002.18	2053.17
1002.475	2050
1002.77	2034.41
1003.065	1999.61
1003.359	2019.95
1003.654	2007.52
1003.949	1965.03
1004.243	1979.5
1004.538	1972.04
1004.832	1962.1
1005.127	1930.01
1005.421	1898.37
1005.715	1910.12
1006.009	1911.48
1006.304	1914.64
1006.598	1910.8
1006.892	1899.27
1007.186	1859.73
1007.48	1858.37
1007.773	1857.24
1008.067	1834.87
1008.361	1864.7
1008.655	1851.36
1008.948	1791.03
1009.242	1782.21
1009.535	1785.38
1009.829	1779.95
1010.122	1792.16
1010.415	1753.74
1010.708	1736.11
1011.001	1728.43
1011.295	1724.36
1011.588	1747.86
1011.881	1717.36
1012.173	1716
1012.466	1674.87
1012.759	1679.84
1013.052	1646.17
1013.344	1678.03
1013.637	1666.51
1013.93	1641.88
1014.222	1648.66
1014.514	1627.87
1014.807	1616.12
1015.099	1587.64
1015.391	1602.56
1015.683	1593.29
1015.976	1609.79
1016.268	1567.08
1016.56	1539.28
1016.851	1531.15
1017.143	1532.5
1017.435	1527.98
1017.727	1524.37
1018.018	1487.76
1018.31	1484.82
1018.602	1483.01
1018.893	1459.06
1019.185	1466.06
1019.476	1498.38
1019.767	1454.76
1020.058	1471.71
1020.35	1431.94
1020.641	1428.1
1020.932	1401.66
1021.223	1412.28
1021.514	1375.67
1021.804	1406.4
1022.095	1377.25
1022.386	1358.04
1022.677	1376.8
1022.967	1338.83
1023.258	1344.03
1023.548	1321.21
1023.839	1338.61
1024.129	1319.63
1024.419	1312.85
1024.709	1301.77
1025	1266.52
1025.29	1292.28
1025.58	1267.88
1025.87	1274.43
1026.16	1246.63
1026.449	1262.9
1026.739	1251.38
1027.029	1229.23
1027.319	1252.28
1027.608	1219.52
1027.898	1198.5
1028.187	1184.26
1028.477	1179.29
1028.766	1182.68
1029.055	1169.8
1029.344	1177.71
1029.634	1170.93
1029.923	1168.67
1030.212	1139.07
1030.501	1143.36
1030.79	1156.24
1031.078	1103.36
1031.367	1114.21
1031.656	1118.73
1031.945	1104.49
1032.233	1109.69
1032.522	1102.23
1032.81	1091.84
1033.099	1067.88
1033.387	1050.03
1033.675	1061.78
1033.963	1056.36
1034.251	1043.02
1034.54	1055.9
1034.828	1025.4
1035.116	1032.63
1035.403	1045.74
1035.691	1039.18
1035.979	1022.23
1036.267	1032.85
1036.554	1001.22
1036.842	979.3
1037.129	982.69
1037.417	970.71
1037.704	990.82
1037.992	969.81
1038.279	953.76
1038.566	961.67
1038.853	961.67
1039.14	961.67
