Data from hue_260_FLMS001491_00032.txt Node
Date: Tue Feb 07 15:58:54 GMT 2017
User: dcchb
Spectrometer: FLMS00149
Trigger mode: 0
Integration Time (sec): 2.000000E-2
Scans to average: 10
Electric dark correction enabled: true
Nonlinearity correction enabled: false
Boxcar width: 0
XAxis mode: Wavelengths
Number of Pixels in Spectrum: 2048
>>>>>Begin Spectral Data<<<<<
341.393	-18.45
341.776	-18.45
342.16	-18.45
342.543	-59.12
342.927	-67.26
343.31	-70.87
343.693	-48.28
344.077	-63.87
344.46	-51.67
344.843	-51.21
345.226	-38.33
345.61	-39.69
345.993	-22.74
346.376	0.76
346.759	15.23
347.142	16.81
347.525	33.98
347.908	39.63
348.291	64.94
348.674	93.87
349.057	121.44
349.44	127.99
349.823	134.09
350.206	153.75
350.588	196.92
350.971	186.07
351.354	217.93
351.737	233.75
352.119	228.1
352.502	259.96
352.884	277.14
353.267	266.29
353.65	253.64
354.032	292.51
354.414	280.98
354.797	278.95
355.179	302.9
355.562	303.35
355.944	329.57
356.326	314.88
356.709	334.09
357.091	325.95
357.473	332.51
357.855	332.73
358.238	327.08
358.62	338.61
359.002	316.01
359.384	322.56
359.766	324.82
360.148	327.76
360.53	334.77
360.912	330.7
361.294	318.49
361.676	317.82
362.057	342.9
362.439	327.08
362.821	323.24
363.203	318.49
363.584	323.47
363.966	324.14
364.348	325.27
364.729	304.71
365.111	309.46
365.493	332.05
365.874	309.46
366.256	279.63
366.637	301.09
367.019	328.21
367.4	304.03
367.781	313.07
368.163	302.9
368.544	298.16
368.925	302.68
369.306	301.77
369.688	301.55
370.069	309.23
370.45	316.23
370.831	334.77
371.212	299.51
371.593	287.76
371.974	309.46
372.355	320.3
372.736	326.63
373.117	340.87
373.498	324.14
373.879	282.79
374.26	319.17
374.641	306.29
375.021	303.81
375.402	313.3
375.783	311.71
376.163	306.97
376.544	304.94
376.925	311.26
377.305	313.97
377.686	325.5
378.066	320.98
378.447	324.6
378.827	334.77
379.208	316.01
379.588	310.59
379.968	323.92
380.349	340.19
380.729	317.59
381.109	314.88
381.489	319.17
381.87	347.19
382.25	333.41
382.63	339.28
383.01	309.23
383.39	335.9
383.77	363.24
384.15	340.64
384.53	334.31
384.91	343.58
385.29	347.42
385.67	357.59
386.049	344.48
386.429	353.07
386.809	332.28
387.189	376.57
387.568	357.82
387.948	367.31
388.328	371.37
388.707	361.21
389.087	364.37
389.466	368.66
389.846	349.45
390.225	367.98
390.605	370.92
390.984	363.01
391.363	337.48
391.743	375.22
392.122	371.83
392.501	369.79
392.881	385.61
393.26	377.48
393.639	354.65
394.018	371.6
394.397	354.65
394.776	382
395.155	383.58
395.534	369.57
395.913	375.22
396.292	396.01
396.671	411.37
397.05	395.55
397.429	391.49
397.808	400.75
398.186	397.59
398.565	413.86
398.944	394.42
399.323	385.84
399.701	400.98
400.08	406.85
400.458	414.54
400.837	398.27
401.215	414.31
401.594	410.47
401.972	397.36
402.351	428.77
402.729	419.06
403.107	420.86
403.486	410.47
403.864	454.54
404.242	448.66
404.62	437.14
404.999	417.7
405.377	438.27
405.755	449.56
406.133	459.28
406.511	441.2
406.889	453.41
407.267	442.78
407.645	478.94
408.023	473.74
408.401	489.11
408.779	479.62
409.156	478.94
409.534	483.24
409.912	504.25
410.29	499.73
410.667	511.48
411.045	490.69
411.422	536.34
411.8	521.65
412.178	538.83
412.555	530.69
412.933	543.57
413.31	557.81
413.687	558.94
414.065	573.63
414.442	569.34
414.819	559.17
415.197	571.82
415.574	589.9
415.951	610.69
416.328	598.26
416.705	593.06
417.082	612.95
417.46	616.11
417.837	633.51
418.214	627.86
418.591	632.16
418.967	654.08
419.344	656.11
419.721	669.22
420.098	660.41
420.475	675.77
420.852	680.29
421.228	706.51
421.605	689.56
421.982	746.73
422.358	702.89
422.735	721.87
423.111	738.14
423.488	763.23
423.864	751.25
424.241	769.56
424.617	784.7
424.994	760.97
425.37	804.81
425.746	822.66
426.123	805.94
426.499	816.11
426.875	828.54
427.251	851.59
427.627	854.75
428.003	880.29
428.379	868.08
428.756	883.23
429.132	915.31
429.507	891.13
429.883	932.94
430.259	944.92
430.635	939.5
431.011	955.99
431.387	960.74
431.763	985.82
432.138	974.3
432.514	1032.83
432.89	1003.9
433.265	1040.06
433.641	1056.1
434.016	1048.42
434.392	1043.67
434.767	1086.38
435.143	1122.99
435.518	1135.2
435.894	1136.78
436.269	1157.12
436.644	1164.35
437.02	1202.54
437.395	1198.25
437.77	1241.86
438.145	1249.09
438.52	1260.16
438.895	1249.54
439.271	1262.65
439.646	1286.6
440.021	1314.85
440.395	1322.99
440.77	1342.87
441.145	1357.11
441.52	1369.09
441.895	1349.2
442.27	1383.1
442.645	1396.88
443.019	1420.39
443.394	1421.74
443.769	1458.58
444.143	1435.08
444.518	1480.72
444.892	1475.3
445.267	1473.49
445.641	1492.25
446.016	1522.76
446.39	1508.97
446.764	1501.29
447.139	1522.53
447.513	1540.61
447.887	1588.29
448.262	1560.27
448.636	1585.13
449.01	1591
449.384	1579.7
449.758	1609.31
450.132	1667.61
450.506	1618.12
450.88	1653.83
451.254	1644.34
451.628	1663.32
452.002	1696.76
452.376	1720.72
452.75	1694.5
453.123	1718.68
453.497	1738.12
453.871	1738.8
454.244	1795.97
454.618	1812.92
454.992	1838.91
455.365	1831.9
455.739	1843.88
456.112	1879.81
456.486	1886.14
456.859	1916.42
457.232	1916.64
457.606	1957.77
457.979	1958.45
458.352	2012.24
458.725	2035.96
459.099	2014.04
459.472	2060.6
459.845	2074.83
460.218	2069.41
460.591	2109.63
460.964	2130.88
461.337	2170.88
461.71	2202.96
462.083	2210.42
462.456	2234.38
462.829	2247.71
463.201	2259.01
463.574	2233.7
463.947	2280.25
464.32	2358.89
464.692	2333.36
465.065	2398.21
465.438	2405.9
465.81	2423.98
466.183	2426.01
466.555	2470.53
466.928	2534.03
467.3	2493.8
467.672	2506.46
468.045	2596.4
468.417	2595.27
468.789	2639.11
469.161	2684.08
469.534	2660.35
469.906	2729.05
470.278	2729.73
470.65	2763.4
471.022	2812.44
471.394	2890.4
471.766	2891.76
472.138	2909.61
472.51	2962.49
472.882	2992.1
473.253	3002.72
473.625	3079.1
473.997	3132.66
474.369	3121.36
474.74	3169.94
475.112	3190.96
475.484	3228.7
475.855	3295.37
476.227	3307.79
476.598	3397.06
476.97	3441.35
477.341	3489.94
477.713	3541.01
478.084	3537.84
478.455	3605.64
478.827	3649.93
479.198	3697.16
479.569	3751.4
479.94	3834.33
480.311	3848.8
480.682	3914.56
481.053	3978.51
481.424	4041.33
481.795	4076.14
482.166	4129.47
482.537	4116.59
482.908	4242.46
483.279	4268.67
483.65	4368.33
484.021	4417.14
484.391	4437.03
484.762	4458.72
485.133	4524.03
485.503	4557.48
485.874	4663.92
486.244	4701.43
486.615	4725.16
486.985	4802.9
487.356	4838.38
487.726	4901.2
488.097	4927.64
488.467	5014.19
488.837	5088.54
489.207	5124.24
489.578	5188.87
489.948	5206.73
490.318	5294.63
490.688	5290.79
491.058	5379.15
491.428	5411.69
491.798	5442.43
492.168	5575.98
492.538	5540.73
492.908	5602.88
493.278	5693.04
493.648	5709.31
494.017	5723.55
494.387	5785.7
494.757	5825.69
495.126	5836.32
495.496	5884
495.866	5888.29
496.235	5932.36
496.605	5956.76
496.974	6032.92
497.344	6007.38
497.713	5984.11
498.082	6104.33
498.452	6123.09
498.821	6154.5
499.19	6203.76
499.559	6226.14
499.928	6235.85
500.298	6250.77
500.667	6351.56
501.036	6315.17
501.405	6324.21
501.774	6375.28
502.143	6374.38
502.512	6410.99
502.88	6467.26
503.249	6456.86
503.618	6458.22
503.987	6507.94
504.356	6547.26
504.724	6523.98
505.093	6568.73
505.462	6593.13
505.83	6638.1
506.199	6709.29
506.567	6705.22
506.936	6724.2
507.304	6782.51
507.672	6724.2
508.041	6772.11
508.409	6825.44
508.777	6825.67
509.145	6888.49
509.514	6884.42
509.882	6908.83
510.25	6951.99
510.618	6916.29
510.986	6972.56
511.354	6949.51
511.722	7004.65
512.09	7009.84
512.458	7019.34
512.826	7033.57
513.193	7085.55
513.561	7141.14
513.929	7111.31
514.297	7145.43
514.664	7135.04
515.032	7168.71
515.4	7215.94
515.767	7209.61
516.135	7217.3
516.502	7097.07
516.869	7267.69
517.237	7268.59
517.604	7200.35
517.972	7281.48
518.339	7287.12
518.706	7286.22
519.073	7312.21
519.44	7322.83
519.808	7406.44
520.175	7359.89
520.542	7341.81
520.909	7426.1
521.276	7373.45
521.643	7390.17
522.009	7444.63
522.376	7489.61
522.743	7509.49
523.11	7515.59
523.477	7559.89
523.843	7593.33
524.21	7646.89
524.577	7707.68
524.943	7632.43
525.31	7669.04
525.676	7641.47
526.043	7725.08
526.409	7689.6
526.776	7777.28
527.142	7747
527.508	7793.1
527.874	7777.73
528.241	7758.52
528.607	7828.81
528.973	7811.4
529.339	7795.36
529.705	7837.84
530.071	7839.2
530.437	7916.03
530.803	7909.26
531.169	7913.77
531.535	7849.82
531.901	7867.9
532.267	7824.96
532.632	7927.79
532.998	7939.31
533.364	8011.4
533.73	7968.24
534.095	7989.25
534.461	7960.55
534.826	7917.62
535.192	7964.62
535.557	8023.6
535.923	7907.45
536.288	7939.31
536.653	7914.68
537.019	7894.57
537.384	7849.82
537.749	7917.39
538.114	7982.7
538.479	7890.27
538.845	7932.31
539.21	7886.21
539.575	7903.61
539.94	7900.89
540.305	7898.18
540.67	7887.79
541.034	7931.85
541.399	7941.12
541.764	7921.68
542.129	7829.48
542.494	7905.41
542.858	7901.57
543.223	7931.63
543.587	7919.42
543.952	7906.77
544.316	7889.37
544.681	7836.49
545.045	7813.21
545.41	7880.78
545.774	7852.76
546.138	7865.41
546.503	7805.98
546.867	7833.78
547.231	7910.84
547.595	7897.28
547.959	7882.36
548.324	7877.39
548.688	7802.59
549.052	7830.39
549.416	7851.4
549.779	7842.36
550.143	7823.16
550.507	7888.01
550.871	7819.09
551.235	7795.36
551.599	7832.87
551.962	7810.5
552.326	7726.44
552.689	7832.2
553.053	7755.14
553.417	7811.18
553.78	7786.32
554.143	7799.65
554.507	7815.02
554.87	7837.84
555.234	7872.42
555.597	7838.3
555.96	7795.59
556.323	7791.74
556.686	7839.88
557.05	7844.62
557.413	7871.97
557.776	7835.58
558.139	7921.91
558.502	7907.45
558.865	7879.65
559.228	7861.12
559.59	7890.72
559.953	7903.83
560.316	7925.3
560.679	7889.14
561.041	7930.72
561.404	7948.35
561.767	8008.91
562.129	7984.96
562.492	8080.32
562.854	7988.8
563.217	8010.5
563.579	8032.42
563.941	8051.85
564.304	8113.77
564.666	8112.41
565.028	8107.44
565.39	8101.11
565.753	8154.45
566.115	8137.05
566.477	8168.01
566.839	8185.18
567.201	8223.15
567.563	8212.52
567.925	8299.98
568.287	8293.43
568.648	8272.41
569.01	8363.71
569.372	8371.16
569.734	8370.26
570.095	8384.27
570.457	8456.13
570.819	8462.24
571.18	8492.06
571.542	8438.51
571.903	8530.48
572.265	8459.07
572.626	8550.14
572.987	8538.84
573.349	8577.71
573.71	8562.35
574.071	8553.08
574.432	8569.12
574.794	8709.23
575.155	8660.2
575.516	8617.71
575.877	8673.08
576.238	8683.25
576.599	8715.34
576.96	8770.7
577.32	8775.67
577.681	8773.19
578.042	8817.03
578.403	8857.48
578.763	8835.11
579.124	8874.88
579.485	8875.11
579.845	8950.13
580.206	8864.26
580.566	8928.89
580.927	8943.58
581.287	9038.04
581.648	8967.31
582.008	9001.88
582.368	8997.14
582.728	8984.93
583.089	9028.32
583.449	9001.43
583.809	9069
584.169	9088.43
584.529	9017.02
584.889	9124.59
585.249	9090.92
585.609	9115.55
585.969	9153.29
586.329	9138.15
586.688	9132.27
587.048	9114.2
587.408	9130.92
587.768	9165.95
588.127	9239.62
588.487	9147.19
588.846	9287.98
589.206	9151.93
589.565	9210.46
589.925	9269.67
590.284	9297.92
590.643	9321.2
591.003	9311.48
591.362	9313.74
591.721	9364.13
592.08	9277.81
592.44	9394.64
592.799	9341.08
593.158	9381.53
593.517	9437.35
593.876	9379.73
594.235	9390.57
594.593	9340.63
594.952	9418.59
595.311	9427.86
595.67	9368.43
596.029	9433.96
596.387	9490.68
596.746	9484.36
597.104	9435.99
597.463	9496.56
597.822	9470.57
598.18	9419.72
598.538	9417.92
598.897	9553.28
599.255	9411.59
599.613	9534.98
599.972	9512.15
600.33	9497.46
600.688	9509.21
601.046	9537.91
601.404	9629.21
601.762	9505.82
602.12	9544.92
602.478	9581.08
602.836	9610.45
603.194	9521.64
603.552	9562.77
603.91	9540.4
604.268	9532.72
604.625	9471.47
604.983	9570.91
605.341	9515.99
605.698	9599.83
606.056	9619.94
606.413	9612.26
606.771	9643.45
607.128	9547.63
607.485	9565.26
607.843	9628.53
608.2	9671.47
608.557	9693.16
608.914	9597.35
609.272	9650
609.629	9691.58
609.986	9731.81
610.343	9664.01
610.7	9771.13
611.057	9700.62
611.414	9689.77
611.771	9785.82
612.127	9786.04
612.484	9802.99
612.841	9823.1
613.198	9750.56
613.554	9770
613.911	9779.26
614.267	9887.06
614.624	9852.48
614.98	9855.42
615.337	9873.5
615.693	9882.99
616.05	9856.32
616.406	9917.34
616.762	9865.36
617.118	9814.97
617.475	9871.01
617.831	9818.58
618.187	9929.99
618.543	9926.83
618.899	9992.36
619.255	9948.98
619.611	9902.2
619.967	9888.86
620.323	9942.87
620.678	9948.3
621.034	9955.53
621.39	9922.76
621.746	9917.79
622.101	9981.97
622.457	10007.51
622.812	9936.09
623.168	9981.07
623.523	9928.86
623.879	9990.1
624.234	9895.19
624.589	9958.47
624.945	9994.85
625.3	10010.22
625.655	9830.33
626.01	9922.08
626.365	9939.71
626.72	9919.37
627.075	9901.97
627.43	9938.81
627.785	9869.88
628.14	9906.72
628.495	9941.74
628.85	9911.69
629.205	9844.35
629.559	9923.89
629.914	9853.84
630.269	9936.55
630.623	9851.58
630.978	9786.27
631.332	9873.5
631.687	9801.41
632.041	9841.41
632.396	9887.28
632.75	9720.96
633.104	9820.84
633.459	9744.01
633.813	9752.37
634.167	9829.2
634.521	9724.35
634.875	9734.97
635.229	9760.51
635.583	9688.87
635.937	9691.58
636.291	9678.47
636.645	9682.99
636.999	9655.65
637.352	9653.16
637.706	9654.75
638.06	9669.21
638.413	9600.96
638.767	9594.41
639.121	9654.07
639.474	9556.22
639.828	9563.9
640.181	9541.98
640.534	9583.79
640.888	9561.87
641.241	9529.1
641.594	9532.04
641.947	9499.5
642.301	9477.35
642.654	9555.54
643.007	9539.04
643.36	9466.95
643.713	9480.29
644.066	9560.06
644.419	9420.63
644.771	9393.74
645.124	9283.23
645.477	9270.8
645.83	9221.76
646.182	9173.63
646.535	9149.67
646.888	9184.48
647.24	9130.47
647.593	9167.3
647.945	9164.36
648.298	9177.92
648.65	9091.37
649.002	9055.21
649.355	9151.93
649.707	9136.79
650.059	9212.95
650.411	9276.45
650.763	9297.02
651.115	9349.67
651.467	9281.2
651.819	9341.76
652.171	9326.85
652.523	9286.17
652.875	9328.65
653.227	9277.58
653.578	9348.09
653.93	9306.05
654.282	9270.58
654.633	9240.52
654.985	9316
655.337	9298.6
655.688	9387.41
656.039	9344.7
656.391	9292.27
656.742	9263.57
657.094	9269.45
657.445	9382.44
657.796	9332.95
658.147	9257.69
658.498	9221.99
658.849	9336.34
659.2	9341.31
659.551	9263.34
659.902	9247.75
660.253	9318.03
660.604	9316.68
660.955	9319.39
661.306	9327.98
661.656	9261.54
662.007	9306.51
662.358	9328.88
662.708	9265.15
663.059	9344.25
663.409	9231.25
663.76	9355.77
664.11	9320.74
664.461	9317.58
664.811	9367.97
665.161	9300.63
665.511	9236.45
665.862	9273.29
666.212	9273.29
666.562	9358.48
666.912	9322.55
667.262	9298.37
667.612	9330.23
667.962	9286.62
668.312	9297.69
668.662	9340.86
669.011	9358.71
669.361	9259.73
669.711	9263.57
670.06	9244.81
670.41	9260.18
670.76	9287.52
671.109	9242.55
671.459	9273.51
671.808	9261.54
672.157	9248.88
672.507	9172.05
672.856	9204.36
673.205	9213.4
673.554	9245.94
673.904	9185.83
674.253	9262.89
674.602	9213.18
674.951	9111.26
675.3	8977.02
675.649	9176.79
675.998	9144.25
676.346	9161.88
676.695	9206.62
677.044	9122.33
677.393	9172.5
677.741	9134.53
678.09	9086.17
678.438	9067.64
678.787	9096.57
679.135	9099.05
679.484	9020.86
679.832	9086.63
680.181	8964.37
680.529	9023.58
680.877	9021.32
681.225	8987.87
681.573	9029.68
681.922	8940.41
682.27	8879.85
682.618	8915.33
682.966	8886.63
683.314	8966.18
683.661	8808.67
684.009	8803.24
684.357	8772.96
684.705	8778.16
685.053	8786.29
685.4	8795.33
685.748	8721.89
686.095	8768.89
686.443	8696.58
686.79	8701.78
687.138	8695.45
687.485	8691.61
687.832	8588.56
688.18	8632.85
688.527	8614.55
688.874	8606.64
689.221	8570.71
689.568	8564.15
689.915	8565.06
690.262	8479.18
690.609	8490.03
690.956	8409.13
691.303	8520.31
691.65	8400.77
691.997	8409.36
692.344	8384.05
692.69	8337.49
693.037	8353.76
693.383	8314.44
693.73	8248.91
694.077	8239.87
694.423	8171.17
694.769	8149.93
695.116	8148.35
695.462	8088.01
695.808	8061.34
696.155	8097.5
696.501	8013.21
696.847	7949.71
697.193	7952.42
697.539	7991.97
697.885	7931.63
698.231	7895.24
698.577	7868.13
698.923	7877.17
699.269	7847.56
699.614	7832.2
699.96	7767.11
700.306	7760.11
700.651	7740.22
700.997	7722.59
701.342	7680.11
701.688	7719.88
702.033	7647.57
702.379	7649.38
702.724	7576.38
703.069	7598.3
703.415	7562.6
703.76	7536.16
704.105	7503.16
704.45	7524.63
704.795	7493
705.14	7427.46
705.485	7411.64
705.83	7379.78
706.175	7331.64
706.52	7329.61
706.865	7273.57
707.209	7279.44
707.554	7249.61
707.899	7313.79
708.243	7218.43
708.588	7211.19
708.932	7147.24
709.277	7212.32
709.621	7124.19
709.966	7100.69
710.31	7061.59
710.654	7016.62
710.998	7041.03
711.342	7061.82
711.687	7050.29
712.031	6983.63
712.375	6963.97
712.719	6958.55
713.063	6936.17
713.407	6981.14
713.75	6901.37
714.094	6949.96
714.438	6865.67
714.782	6876.74
715.125	6834.03
715.469	6875.61
715.812	6823.18
716.156	6803.3
716.499	6777.76
716.843	6817.08
717.186	6798.55
717.53	6780.25
717.873	6844.2
718.216	6749.06
718.559	6765.33
718.902	6691.43
719.246	6741.6
719.589	6730.98
719.932	6694.6
720.275	6669.06
720.617	6659.12
720.96	6721.94
721.303	6695.05
721.646	6698.67
721.989	6653.02
722.331	6723.98
722.674	6661.15
723.016	6642.4
723.359	6616.86
723.701	6627.93
724.044	6586.58
724.386	6646.24
724.729	6606.01
725.071	6594.26
725.413	6606.24
725.755	6585.67
726.097	6565.11
726.439	6576.86
726.782	6577.54
727.124	6613.47
727.465	6561.04
727.807	6572.57
728.149	6509.52
728.491	6536.41
728.833	6525.11
729.175	6524.66
729.516	6538.22
729.858	6516.3
730.199	6537.54
730.541	6516.98
730.882	6508.16
731.224	6512.46
731.565	6462.74
731.906	6491.89
732.248	6509.74
732.589	6454.38
732.93	6459.12
733.271	6546.58
733.612	6477.2
733.953	6513.13
734.294	6533.92
734.635	6487.82
734.976	6453.47
735.317	6493.25
735.658	6522.63
735.999	6497.99
736.339	6479.24
736.68	6512.91
737.021	6537.54
737.361	6427.49
737.702	6483.08
738.042	6451.21
738.383	6494.6
738.723	6527.82
739.063	6487.82
739.404	6541.16
739.744	6488.73
740.084	6494.83
740.424	6552.23
740.764	6479.46
741.104	6525.11
741.444	6500.7
741.784	6503.64
742.124	6603.3
742.464	6549.74
742.804	6595.84
743.143	6590.42
743.483	6618.67
743.823	6520.82
744.162	6634.03
744.502	6617.31
744.841	6625.45
745.181	6659.12
745.52	6722.85
745.86	6677.88
746.199	6736.4
746.538	6710.64
746.877	6806.46
747.216	6786.8
747.556	6803.97
747.895	6888.49
748.234	6915.61
748.573	6946.12
748.911	6958.32
749.25	7062.95
749.589	7070.41
749.928	7069.73
750.267	7183.85
750.605	7235.6
750.944	7219.33
751.283	7314.47
751.621	7391.53
751.96	7399.44
752.298	7490.06
752.636	7560.56
752.975	7595.82
753.313	7667.45
753.651	7697.28
753.989	7783.61
754.327	7915.36
754.666	7912.19
755.004	8057.27
755.342	8134.56
755.679	8199.87
756.017	8230.83
756.355	8396.7
756.693	8482.35
757.031	8596.24
757.368	8669.69
757.706	8753.75
758.044	8916.01
758.381	9031.03
758.719	9049.11
759.056	9260.18
759.394	9351.25
759.731	9433.96
760.068	9540.4
760.405	9694.75
760.743	9734.07
761.08	9943.78
761.417	10022.42
761.754	10059.93
762.091	10205.47
762.428	10409.3
762.765	10391.45
763.102	10614.49
763.438	10681.16
763.775	10812.68
764.112	10925.67
764.449	11121.15
764.785	11172.9
765.122	11202.5
765.458	11364.76
765.795	11471.87
766.131	11566.33
766.467	11648.14
766.804	11775.14
767.14	11866.89
767.476	12040.22
767.812	12064.17
768.148	12122.03
768.485	12163.83
768.821	12317.73
769.157	12412.64
769.492	12612.41
769.828	12614.67
770.164	12607.66
770.5	12797.71
770.836	12780.77
771.171	12872.74
771.507	12963.81
771.842	13024.38
772.178	13079.74
772.513	13137.37
772.849	13216.69
773.184	13193.41
773.519	13348.66
773.855	13296.23
774.19	13365.38
774.525	13441.31
774.86	13455.1
775.195	13506.17
775.53	13543.68
775.865	13562.67
776.2	13480.18
776.535	13478.83
776.87	13608.31
777.205	13625.26
777.539	13617.81
777.874	13817.35
778.209	13568.09
778.543	13761.08
778.878	13635.88
779.212	13734.64
779.547	13739.61
779.881	13828.65
780.215	13776.9
780.55	13799.95
780.884	13791.36
781.218	13750.46
781.552	13813.05
781.886	13796.11
782.22	13767.41
782.554	13816.67
782.888	13693.74
783.222	13713.85
783.556	13702.32
783.889	13710.01
784.223	13646.96
784.557	13721.98
784.89	13725.37
785.224	13586.17
785.557	13618.26
785.891	13664.13
786.224	13650.35
786.558	13661.65
786.891	13537.36
787.224	13512.05
787.557	13628.65
787.891	13535.1
788.224	13556.79
788.557	13571.25
788.89	13585.49
789.223	13615.55
789.556	13513.85
789.888	13434.99
790.221	13373.74
790.554	13334.88
790.887	13378.04
791.219	13348.21
791.552	13266.4
791.884	13342.56
792.217	13295.33
792.549	13240.87
792.882	13141.43
793.214	13203.81
793.546	13137.14
793.879	13096.01
794.211	13181.21
794.543	13175.56
794.875	13040.87
795.207	13169.23
795.539	13011.95
795.871	13066.63
796.203	12919.97
796.535	12968.56
796.867	12823.93
797.198	12840.65
797.53	12857.83
797.862	12835.23
798.193	12846.07
798.525	12780.31
798.856	12845.4
799.188	12620.32
799.519	12590.71
799.85	12567.44
800.182	12655.8
800.513	12637.49
800.844	12568.34
801.175	12587.32
801.506	12476.82
801.837	12505.29
802.168	12455.58
802.499	12432.3
802.83	12388.23
803.161	12343.04
803.491	12328.8
803.822	12335.35
804.153	12332.19
804.483	12165.19
804.814	12194.34
805.145	12180.33
805.475	12249.03
805.805	12128.13
806.136	12153.44
806.466	12085.64
806.796	12115.02
807.126	11969.71
807.457	11917.51
807.787	11938.3
808.117	11903.27
808.447	11889.94
808.777	11954.57
809.107	11858.3
809.436	11819.43
809.766	11790.06
810.096	11778.08
810.426	11759.1
810.755	11680.91
811.085	11693.11
811.414	11681.81
811.744	11645.65
812.073	11576.96
812.403	11677.74
812.732	11579.44
813.061	11618.31
813.39	11508.93
813.719	11593.9
814.049	11559.33
814.378	11560.46
814.707	11481.14
815.036	11417.41
815.365	11335.61
815.693	11314.36
816.022	11309.39
816.351	11324.08
816.68	11246.12
817.008	11312.56
817.337	11144.2
817.665	11139.68
817.994	11222.39
818.322	11211.77
818.651	11180.58
818.979	11095.16
819.307	11154.82
819.636	11105.1
819.964	11059.68
820.292	11139.68
820.62	11076.4
820.948	11074.37
821.276	11110.75
821.604	11031.43
821.932	11162.28
822.259	11024.65
822.587	11079.57
822.915	10978.55
823.243	11008.38
823.57	11006.8
823.898	10983.07
824.225	11017.42
824.553	10974.49
824.88	11004.54
825.207	11112.56
825.535	11013.58
825.862	11109.85
826.189	10990.98
826.516	11070.3
826.843	11127.25
827.17	11085.89
827.497	11173.12
827.824	11113.01
828.151	11092.67
828.478	11166.57
828.805	11107.14
829.131	11098.55
829.458	11064.2
829.785	10929.97
830.111	11064.2
830.438	11068.04
830.764	11114.14
831.09	11034.6
831.417	11003.41
831.743	11075.05
832.069	11094.03
832.395	10991.43
832.722	11043.86
833.048	10967.25
833.374	10955.05
833.7	10974.26
834.026	10952.57
834.351	10955.95
834.677	10925.45
835.003	11088.15
835.329	10934.26
835.654	10979.68
835.98	10935.16
836.306	10847.03
836.631	10815.62
836.956	10870.08
837.282	10897.2
837.607	10820.14
837.932	10840.03
838.258	10822.85
838.583	10780.59
838.908	10739.24
839.233	10823.3
839.558	10642.06
839.883	10692.46
840.208	10730.65
840.533	10679.13
840.858	10641.84
841.182	10676.87
841.507	10688.84
841.832	10632.35
842.156	10546.47
842.481	10583.08
842.805	10582.63
843.13	10558.9
843.454	10524.78
843.778	10530.2
844.103	10492.69
844.427	10443.88
844.751	10478.23
845.075	10365.46
845.399	10361.85
845.723	10325.24
846.047	10344.9
846.371	10184.9
846.695	10214.96
847.019	10076.2
847.343	10141.96
847.666	10072.81
847.99	9997.79
848.313	10026.26
848.637	9948.3
848.96	9919.15
849.284	9937.45
849.607	9955.76
849.931	9841.41
850.254	9764.35
850.577	9775.42
850.9	9717.12
851.223	9681.64
851.546	9592.37
851.869	9544.92
852.192	9562.77
852.515	9532.49
852.838	9477.8
853.161	9543.79
853.483	9404.58
853.806	9428.31
854.129	9381.98
854.451	9396.67
854.774	9290.69
855.096	9268.09
855.419	9248.43
855.741	9245.49
856.063	9201.42
856.385	9146.06
856.708	9138.38
857.03	9092.95
857.352	9094.76
857.674	9044.14
857.996	8990.81
858.318	9007.98
858.64	9011.15
858.961	8993.07
859.283	8885.05
859.605	8882.56
859.926	8951.71
860.248	8900.42
860.57	8802.34
860.891	8871.72
861.212	8858.38
861.534	8753.75
861.855	8770.48
862.176	8739.97
862.498	8749.46
862.819	8736.35
863.14	8708.56
863.461	8642.12
863.782	8702.45
864.103	8678.05
864.424	8620.88
864.745	8686.41
865.065	8549.69
865.386	8551.5
865.707	8627.43
866.027	8574.55
866.348	8512.18
866.668	8471.73
866.989	8518.28
867.309	8530.26
867.63	8502.01
867.95	8443.03
868.27	8428.11
868.59	8459.07
868.91	8410.49
869.23	8393.76
869.55	8396.7
869.87	8398.06
870.19	8468.56
870.51	8396.7
870.83	8339.53
871.15	8283.26
871.469	8312.86
871.789	8300.88
872.109	8317.83
872.428	8222.69
872.748	8287.78
873.067	8251.85
873.386	8293.43
873.706	8239.42
874.025	8209.13
874.344	8189.02
874.663	8184.95
874.982	8179.76
875.301	8203.03
875.62	8209.36
875.939	8122.58
876.258	8101.34
876.577	8070.61
876.896	8102.02
877.214	8103.37
877.533	8124.84
877.852	8012.98
878.17	8097.27
878.489	8085.3
878.807	8088.46
879.125	8038.74
879.444	8028.35
879.762	7958.07
880.08	8036.71
880.398	7946.54
880.716	7898.86
881.034	7898.18
881.352	7927.33
881.67	7897.28
881.988	7906.09
882.306	7830.16
882.624	7839.2
882.941	7810.5
883.259	7832.42
883.577	7831.97
883.894	7820.9
884.212	7816.38
884.529	7714.91
884.846	7751.97
885.164	7711.97
885.481	7648.7
885.798	7701.8
886.115	7636.04
886.432	7630.39
886.75	7615.25
887.067	7575.03
887.383	7589.26
887.7	7567.12
888.017	7504.97
888.334	7564.63
888.651	7542.94
888.967	7511.75
889.284	7470.85
889.6	7401.02
889.917	7415.03
890.233	7323.96
890.55	7354.69
890.866	7357.86
891.182	7337.29
891.498	7271.98
891.815	7269.95
892.131	7269.72
892.447	7245.09
892.763	7197.86
893.079	7182.49
893.395	7217.52
893.71	7175.04
894.026	7153.12
894.342	7125.55
894.657	7116.28
894.973	7091.2
895.289	7071.54
895.604	7034.93
895.92	6973.23
896.235	6962.61
896.55	6939.34
896.865	6965.1
897.181	6945.21
897.496	6940.02
897.811	6929.17
898.126	6861.37
898.441	6842.16
898.756	6797.65
899.071	6819.34
899.386	6746.57
899.7	6710.87
900.015	6682.17
900.33	6655.05
900.644	6618.67
900.959	6641.94
901.273	6613.7
901.588	6549.29
901.902	6555.62
902.216	6526.47
902.531	6480.59
902.845	6447.6
903.159	6413.25
903.473	6415.74
903.787	6383.87
904.101	6383.19
904.415	6353.36
904.729	6314.04
905.042	6254.84
905.356	6270.65
905.67	6260.03
905.984	6293.48
906.297	6242.63
906.611	6187.72
906.924	6212.35
907.237	6152.69
907.551	6109.98
907.864	6099.13
908.177	6098.46
908.491	6051.45
908.804	6049.87
909.117	6008.74
909.43	5964.45
909.743	5957.67
910.056	5972.36
910.368	5916.31
910.681	5871.34
910.994	5921.74
911.307	5874.05
911.619	5817.78
911.932	5783.66
912.244	5694.62
912.557	5758.58
912.869	5723.32
913.181	5721.29
913.494	5679.26
913.806	5639.26
914.118	5639.03
914.43	5624.12
914.742	5592.71
915.054	5565.81
915.366	5567.4
915.678	5532.37
915.99	5476.1
916.302	5472.03
916.613	5460.96
916.925	5434.07
917.236	5436.33
917.548	5402.2
917.859	5377.8
918.171	5337.8
918.482	5346.38
918.794	5336.89
919.105	5297.8
919.416	5272.04
919.727	5267.74
920.038	5249.44
920.349	5227.07
920.66	5161.76
920.971	5187.07
921.282	5156.33
921.593	5105.26
921.903	5063.68
922.214	5100.06
922.525	5046.28
922.835	5044.47
923.146	5008.99
923.456	4961.99
923.767	4973.74
924.077	4988.2
924.387	4973.29
924.697	4889
925.008	4934.87
925.318	4918.37
925.628	4820.3
925.938	4840.18
926.248	4838.83
926.558	4820.07
926.867	4839.05
927.177	4751.6
927.487	4759.28
927.796	4766.74
928.106	4717.25
928.416	4698.49
928.725	4702.56
929.034	4681.09
929.344	4685.16
929.653	4637.25
929.962	4591.15
930.271	4573.52
930.581	4526.52
930.89	4554.32
931.199	4530.81
931.508	4540.98
931.817	4490.14
932.125	4521.1
932.434	4495.56
932.743	4452.85
933.051	4397.03
933.36	4384.15
933.669	4378.73
933.977	4359.52
934.286	4387.77
934.594	4352.29
934.902	4337.37
935.21	4315.45
935.519	4267.32
935.827	4240.2
936.135	4234.1
936.443	4212.86
936.751	4203.59
937.059	4195.91
937.367	4148
937.674	4194.78
937.982	4144.16
938.29	4100.09
938.597	4126.3
938.905	4062.35
939.213	4013.09
939.52	4038.85
939.827	4054.67
940.135	3997.27
940.442	3989.81
940.749	4005.63
941.056	4011.5
941.363	3933.54
941.67	3929.7
941.977	3930.6
942.284	3901.68
942.591	3866.42
942.898	3844.28
943.205	3842.24
943.511	3817.61
943.818	3838.63
944.125	3789.36
944.431	3806.99
944.738	3768.57
945.044	3769.7
945.35	3686.32
945.657	3738.97
945.963	3725.64
946.269	3694
946.575	3698.29
946.881	3646.32
947.187	3656.49
947.493	3608.58
947.799	3631.18
948.105	3619.88
948.41	3579.88
948.716	3620.1
949.022	3560.67
949.327	3551.86
949.633	3536.49
949.938	3534
950.244	3537.84
950.549	3458.07
950.854	3465.98
951.16	3462.14
951.465	3451.52
951.77	3387.57
952.075	3445.64
952.38	3373.1
952.685	3403.39
952.99	3390.96
953.294	3359.32
953.599	3303.5
953.904	3283.84
954.209	3314.8
954.513	3313.44
954.818	3240.9
955.122	3257.4
955.426	3261.92
955.731	3231.41
956.035	3286.1
956.339	3222.37
956.643	3251.75
956.948	3189.83
957.252	3182.37
957.556	3169.27
957.86	3184.63
958.163	3168.36
958.467	3121.36
958.771	3134.92
959.075	3119.55
959.378	3048.82
959.682	3104.41
959.985	3038.2
960.289	3072.77
960.592	3086.33
960.896	3035.03
961.199	3030.74
961.502	2993.23
961.805	2985.54
962.108	2985.09
962.411	2962.94
962.714	2970.4
963.017	2945.54
963.32	2927.24
963.623	2924.53
963.926	2892.66
964.228	2889.95
964.531	2888.14
964.833	2883.4
965.136	2863.96
965.438	2865.32
965.741	2797.53
966.043	2847.47
966.345	2804.08
966.648	2757.75
966.95	2757.75
967.252	2755.94
967.554	2778.99
967.856	2765.44
968.158	2735.15
968.46	2746.68
968.761	2721.14
969.063	2695.38
969.365	2714.14
969.666	2678.43
969.968	2659.68
970.269	2649.51
970.571	2648.83
970.872	2690.64
971.174	2632.33
971.475	2630.98
971.776	2606.12
972.077	2636.4
972.378	2576.97
972.679	2598.89
972.98	2569.06
973.281	2538.1
973.582	2529.28
973.883	2565.44
974.183	2515.95
974.484	2500.13
974.785	2490.19
975.085	2464.2
975.386	2461.26
975.686	2488.83
975.986	2473.01
976.287	2438.44
976.587	2437.76
976.887	2437.76
977.187	2385.11
977.487	2390.98
977.787	2383.52
978.087	2387.82
978.387	2353.7
978.687	2347.82
978.987	2323.19
979.286	2352.79
979.586	2341.04
979.885	2332.9
980.185	2330.64
980.484	2277.31
980.784	2304.88
981.083	2276.64
981.382	2292.45
981.682	2254.49
981.981	2263.3
982.28	2244.77
982.579	2281.61
982.878	2221.04
983.177	2234.38
983.475	2214.94
983.774	2179.24
984.073	2169.07
984.372	2162.97
984.67	2188.73
984.969	2154.6
985.267	2145.79
985.566	2131.78
985.864	2114.15
986.162	2092.01
986.461	2087.71
986.759	2085.68
987.057	2081.16
987.355	2088.84
987.653	2107.15
987.951	2068.28
988.249	2064.66
988.547	2019.92
988.844	2022.63
989.142	2011.11
989.44	1994.16
989.737	2001.61
990.035	2012.24
990.332	1994.16
990.63	1971.56
990.927	1970.43
991.224	1946.47
991.521	1929.3
991.819	1946.93
992.116	1945.12
992.413	1938.56
992.71	1917.1
993.006	1901.5
993.303	1897.66
993.6	1911.67
993.897	1913.71
994.193	1902.86
994.49	1865.8
994.787	1854.5
995.083	1846.14
995.379	1847.49
995.676	1842.75
995.972	1807.72
996.268	1834.61
996.565	1817.89
996.861	1817.21
997.157	1790.77
997.453	1806.14
997.749	1809.3
998.044	1763.65
998.34	1781.51
998.636	1728.63
998.932	1726.59
999.227	1727.72
999.523	1734.28
999.818	1711.23
1000.114	1706.48
1000.409	1689.31
1000.704	1681.4
1001	1676.42
1001.295	1668.06
1001.59	1681.4
1001.885	1631.68
1002.18	1639.14
1002.475	1625.58
1002.77	1632.58
1003.065	1595.75
1003.359	1623.77
1003.654	1609.31
1003.949	1595.3
1004.243	1562.53
1004.538	1575.41
1004.832	1567.5
1005.127	1545.35
1005.421	1521.63
1005.715	1554.62
1006.009	1526.82
1006.304	1509.88
1006.598	1491.34
1006.892	1510.1
1007.186	1521.63
1007.48	1497.45
1007.773	1486.37
1008.067	1508.07
1008.361	1466.49
1008.655	1470.55
1008.948	1448.63
1009.242	1458.35
1009.535	1438.92
1009.829	1464.68
1010.122	1402.08
1010.415	1409.99
1010.708	1404.34
1011.001	1400.5
1011.295	1388.07
1011.588	1365.7
1011.881	1365.7
1012.173	1359.6
1012.466	1374.74
1012.759	1357.11
1013.052	1338.13
1013.344	1325.47
1013.637	1293.38
1013.93	1335.64
1014.222	1326.6
1014.514	1296.55
1014.807	1333.83
1015.099	1292.48
1015.391	1305.81
1015.683	1286.15
1015.976	1268.53
1016.268	1287.73
1016.56	1304.01
1016.851	1237.34
1017.143	1272.82
1017.435	1219.94
1017.727	1211.35
1018.018	1218.13
1018.31	1211.13
1018.602	1212.93
1018.893	1189.43
1019.185	1184.91
1019.476	1165.7
1019.767	1170
1020.058	1188.98
1020.35	1174.29
1020.641	1134.07
1020.932	1158.7
1021.223	1160.05
1021.514	1139.04
1021.804	1116.44
1022.095	1137.23
1022.386	1109.43
1022.677	1099.94
1022.967	1112.37
1023.258	1101.3
1023.548	1093.16
1023.839	1094.97
1024.129	1073.5
1024.419	1088.64
1024.709	1078.93
1025	1050.45
1025.29	1074.86
1025.58	1030.34
1025.87	1054.52
1026.16	1042.09
1026.449	1034.86
1026.739	1030.34
1027.029	1041.87
1027.319	1009.55
1027.608	974.07
1027.898	1019.94
1028.187	984.92
1028.477	1003.9
1028.766	975.43
1029.055	988.53
1029.344	960.74
1029.634	938.59
1029.923	962.55
1030.212	942.43
1030.501	957.8
1030.79	934.07
1031.078	950.12
1031.367	913.73
1031.656	911.7
1031.945	912.15
1032.233	903.79
1032.522	877.35
1032.81	878.03
1033.099	891.81
1033.387	896.78
1033.675	889.33
1033.963	890
1034.251	882.77
1034.54	846.62
1034.828	873.06
1035.116	862.89
1035.403	871.7
1035.691	828.99
1035.979	828.09
1036.267	832.15
1036.554	841.19
1036.842	838.03
1037.129	803.91
1037.417	805.26
1037.704	819.05
1037.992	793.74
1038.279	785.83
1038.566	801.65
1038.853	801.65
1039.14	801.65
