Data from hue_160_FLMS001491_00080.txt Node
Date: Tue Feb 07 16:51:41 GMT 2017
User: dcchb
Spectrometer: FLMS00149
Trigger mode: 0
Integration Time (sec): 2.000000E-2
Scans to average: 10
Electric dark correction enabled: true
Nonlinearity correction enabled: false
Boxcar width: 0
XAxis mode: Wavelengths
Number of Pixels in Spectrum: 2048
>>>>>Begin Spectral Data<<<<<
341.393	-20.41
341.776	-20.41
342.16	-20.41
342.543	-73.97
342.927	-67.87
343.31	-66.96
343.693	-59.28
344.077	-82.33
344.46	-58.6
344.843	-45.72
345.226	-30.35
345.61	-35.1
345.993	-33.52
346.376	-5.72
346.759	18.01
347.142	26.6
347.525	32.92
347.908	44
348.291	65.24
348.674	92.36
349.057	138.46
349.44	121.06
349.823	145.69
350.206	157.44
350.588	176.65
350.971	218
351.354	229.08
351.737	228.85
352.119	234.73
352.502	245.8
352.884	271.33
353.267	277.89
353.65	282.86
354.032	299.58
354.414	292.35
354.797	309.75
355.179	314.27
355.562	319.02
355.944	330.54
356.326	332.35
356.709	306.59
357.091	331.9
357.473	324.89
357.855	335.97
358.238	338.45
358.62	337.1
359.002	323.54
359.384	325.34
359.766	353.14
360.148	331.9
360.53	342.97
360.912	323.08
361.294	342.52
361.676	330.54
362.057	311.79
362.439	325.57
362.821	326.7
363.203	315.18
363.584	324.21
363.966	327.15
364.348	323.99
364.729	307.27
365.111	304.78
365.493	317.66
365.874	294.84
366.256	313.14
366.637	326.47
367.019	309.53
367.4	297.1
367.781	305.46
368.163	296.64
368.544	294.84
368.925	299.58
369.306	312.92
369.688	309.75
370.069	307.49
370.45	313.59
370.831	326.47
371.212	328.73
371.593	337.32
371.974	313.14
372.355	317.66
372.736	320.6
373.117	303.42
373.498	300.71
373.879	312.24
374.26	320.6
374.641	330.99
375.021	316.08
375.402	342.75
375.783	318.34
376.163	343.65
376.544	307.94
376.925	345.68
377.305	322.18
377.686	323.08
378.066	314.05
378.447	321.95
378.827	337.77
379.208	306.36
379.588	309.07
379.968	309.75
380.349	316.53
380.729	352.24
381.109	324.44
381.489	332.8
381.87	328.73
382.25	321.95
382.63	342.52
383.01	334.84
383.39	343.2
383.77	337.55
384.15	369.19
384.53	335.74
384.91	337.55
385.29	342.29
385.67	345.01
386.049	350.43
386.429	346.59
386.809	339.13
387.189	353.14
387.568	329.86
387.948	345.91
388.328	340.71
388.707	357.21
389.087	348.62
389.466	354.04
389.846	359.24
390.225	365.57
390.605	367.6
390.984	360.82
391.363	352.24
391.743	361.5
392.122	371.45
392.501	363.76
392.881	363.54
393.26	367.83
393.639	359.92
394.018	372.12
394.397	367.6
394.776	369.41
395.155	361.5
395.534	361.5
395.913	359.24
396.292	377.77
396.671	385.23
397.05	379.81
397.429	393.59
397.808	381.16
398.186	374.83
398.565	385.23
398.944	399.47
399.323	387.04
399.701	407.38
400.08	387.94
400.458	414.16
400.837	410.09
401.215	391.11
401.594	389.98
401.972	401.05
402.351	408.05
402.729	409.64
403.107	408.96
403.486	397.89
403.864	397.43
404.242	413.25
404.62	404.44
404.999	406.47
405.377	403.76
405.755	417.09
406.133	403.99
406.511	419.35
406.889	437.66
407.267	448.05
407.645	426.13
408.023	445.57
408.401	428.62
408.779	425.23
409.156	427.04
409.534	429.3
409.912	428.17
410.29	444.21
410.667	430.43
411.045	438.11
411.422	462.52
411.8	436.3
412.178	480.82
412.555	482.4
412.933	462.52
413.31	483.08
413.687	473.59
414.065	464.55
414.442	502.29
414.819	506.36
415.197	489.18
415.574	496.87
415.951	498.9
416.328	483.76
416.705	499.35
417.082	481.27
417.46	493.48
417.837	519.46
418.214	512.68
418.591	533.25
418.967	520.37
419.344	526.47
419.721	541.16
420.098	533.25
420.475	528.96
420.852	526.47
421.228	516.98
421.605	547.71
421.982	553.81
422.358	578.22
422.735	553.81
423.111	573.25
423.488	567.37
423.864	559.46
424.241	584.09
424.617	586.58
424.994	582.74
425.37	579.35
425.746	578.22
426.123	591.33
426.499	588.16
426.875	582.06
427.251	608.27
427.627	626.58
428.003	591.78
428.379	623.42
428.756	605.34
429.132	619.8
429.507	610.53
429.883	655.96
430.259	660.48
430.635	653.7
431.011	655.96
431.387	660.25
431.763	665.67
432.138	685.79
432.514	698.22
432.89	675.39
433.265	706.13
433.641	714.26
434.016	702.06
434.392	732.57
434.767	731.44
435.143	716.97
435.518	718.33
435.894	739.34
436.269	729.18
436.644	769.85
437.02	797.2
437.395	773.24
437.77	790.64
438.145	794.03
438.52	799.91
438.895	792
439.271	830.64
439.646	808.27
440.021	800.59
440.395	822.05
440.77	813.02
441.145	829.96
441.52	855.5
441.895	845.33
442.27	852.34
442.645	855.73
443.019	858.21
443.394	871.32
443.769	867.03
444.143	867.48
444.518	897.53
444.892	877.19
445.267	879.45
445.641	903.18
446.016	907.02
446.39	939.11
446.764	912.9
447.139	922.39
447.513	930.07
447.887	935.27
448.262	916.52
448.636	947.25
449.01	973.24
449.384	976.17
449.758	964.42
450.132	956.06
450.506	972.79
450.88	1003.52
451.254	1009.39
451.628	996.97
452.002	1010.52
452.376	1016.17
452.75	1027.25
453.123	1047.81
453.497	1081.71
453.871	1088.04
454.244	1076.96
454.618	1081.48
454.992	1134.14
455.365	1097.75
455.739	1144.76
456.112	1149.05
456.486	1130.75
456.859	1186.34
457.232	1192.67
457.606	1187.69
457.979	1213.91
458.352	1228.37
458.725	1218.2
459.099	1262.95
459.472	1294.36
459.845	1270.63
460.218	1312.66
460.591	1310.63
460.964	1294.81
461.337	1348.82
461.71	1368.03
462.083	1391.76
462.456	1413.9
462.829	1403.51
463.201	1425.88
463.574	1450.29
463.947	1439.44
464.32	1474.24
464.692	1477.4
465.065	1500
465.438	1542.71
465.81	1571.41
466.183	1602.15
466.555	1612.54
466.928	1656.61
467.3	1630.39
467.672	1661.35
468.045	1684.4
468.417	1725.08
468.789	1746.32
469.161	1766.44
469.534	1831.29
469.906	1843.95
470.278	1842.37
470.65	1906.32
471.022	1948.13
471.394	1981.57
471.766	2009.59
472.138	2055.24
472.51	2095.24
472.882	2143.6
473.253	2184.73
473.625	2246.42
473.997	2301.79
474.369	2300.43
474.74	2361.22
475.112	2402.35
475.484	2475.12
475.855	2535.91
476.227	2574.55
476.598	2684.38
476.97	2709.46
477.341	2779.74
477.713	2869.91
478.084	2901.1
478.455	2979.74
478.827	3007.76
479.198	3196
479.569	3200.3
479.94	3296.34
480.311	3336.34
480.682	3456.34
481.053	3567.97
481.424	3635.31
481.795	3730.23
482.166	3815.42
482.537	3899.04
482.908	4052.7
483.279	4070.1
483.65	4234.62
484.021	4299.7
484.391	4473.03
484.762	4468.51
485.133	4632.12
485.503	4727.04
485.874	4873.25
486.244	5005
486.615	5131.32
486.985	5216.97
487.356	5337.87
487.726	5476.85
488.097	5653.34
488.467	5674.58
488.837	5885.65
489.207	5982.6
489.578	6118.41
489.948	6227.11
490.318	6395.02
490.688	6434.79
491.058	6577.16
491.428	6697.83
491.798	6837.49
492.168	7072.96
492.538	7091.49
492.908	7263.24
493.278	7481.99
493.648	7493.07
494.017	7612.61
494.387	7806.28
494.757	7893.28
495.126	7989.1
495.496	8131.92
495.866	8172.14
496.235	8361.07
496.605	8407.39
496.974	8535.07
497.344	8612.36
497.713	8775.74
498.082	8825.23
498.452	9000.14
498.821	9105.23
499.19	9112.23
499.559	9247.6
499.928	9370.08
500.298	9436.97
500.667	9572.11
501.036	9601.48
501.405	9686
501.774	9836.73
502.143	9917.41
502.512	9975.03
502.88	10038.76
503.249	10092.77
503.618	10130.06
503.987	10247.34
504.356	10388.36
504.724	10403.95
505.093	10450.73
505.462	10479.65
505.83	10537.96
506.199	10647.79
506.567	10818.63
506.936	10810.04
507.304	10917.16
507.672	11003.26
508.041	11079.86
508.409	11171.84
508.777	11231.27
509.145	11271.95
509.514	11278.73
509.882	11330.03
510.25	11350.14
510.618	11361.21
510.986	11469.91
511.354	11625.84
511.722	11637.59
512.09	11769.34
512.458	11696.8
512.826	11793.07
513.193	11846.4
513.561	11863.12
513.929	11938.37
514.297	12018.6
514.664	12057.01
515.032	12048.43
515.4	12161.42
515.767	12109.67
516.135	12191.7
516.502	12123.68
516.869	12317.57
517.237	12305.14
517.604	12290.91
517.972	12325.71
518.339	12399.15
518.706	12480.28
519.073	12370.9
519.44	12439.38
519.808	12487.51
520.175	12543.1
520.542	12675.75
520.909	12729.54
521.276	12608.64
521.643	12715.98
522.009	12780.84
522.376	12778.8
522.743	12857.44
523.11	12873.49
523.477	12952.36
523.843	13016.76
524.21	12980.38
524.577	13130.66
524.943	13052.69
525.31	13148.51
525.676	13176.53
526.043	13175.63
526.409	13194.61
526.776	13273.25
527.142	13275.96
527.508	13246.59
527.874	13260.15
528.241	13298.11
528.607	13175.18
528.973	13302.86
529.339	13230.77
529.705	13419.24
530.071	13414.94
530.437	13337.66
530.803	13368.17
531.169	13413.36
531.535	13353.7
531.901	13358.9
532.267	13254.95
532.632	13354.83
532.998	13367.04
533.364	13325.68
533.73	13329.52
534.095	13382.63
534.461	13321.16
534.826	13338.34
535.192	13261.5
535.557	13327.94
535.923	13294.04
536.288	13233.93
536.653	13236.64
537.019	13246.81
537.384	13194.61
537.749	13104.67
538.114	13171.11
538.479	13123.43
538.845	13095.18
539.21	13030.32
539.575	13103.54
539.94	13014.5
540.305	13094.05
540.67	12959.81
541.034	12969.53
541.399	12865.35
541.764	12827.61
542.129	12934.96
542.494	12825.35
542.858	12818.8
543.223	12753.94
543.587	12797.78
543.952	12696.09
544.316	12657.68
544.681	12608.41
545.045	12690.44
545.41	12627.85
545.774	12570.45
546.138	12548.07
546.503	12518.7
546.867	12446.16
547.231	12473.05
547.595	12430.79
547.959	12352.82
548.324	12344.01
548.688	12317.35
549.052	12285.48
549.416	12192.15
549.779	12266.5
550.143	12239.38
550.507	12205.03
550.871	12157.58
551.235	12092.04
551.599	12123
551.962	12142.66
552.326	12067.86
552.689	12119.38
553.053	12036.45
553.417	11989.67
553.78	12079.16
554.143	11981.54
554.507	12010.69
554.87	11980.18
555.234	11985.6
555.597	11966.39
555.96	11847.53
556.323	11899.96
556.686	11874.87
557.05	11903.8
557.413	11875.32
557.776	11774.31
558.139	11849.11
558.502	11810.92
558.865	11800.75
559.228	11849.56
559.59	11760.3
559.953	11736.57
560.316	11861.54
560.679	11806.17
561.041	11865.38
561.404	11826.51
561.767	11881.65
562.129	11763.91
562.492	11852.05
562.854	11788.55
563.217	11782.22
563.579	11933.63
563.941	11799.17
564.304	11824.48
564.666	11876.45
565.028	11866.51
565.39	11883.68
565.753	11837.58
566.115	11953.97
566.477	11953.74
566.839	11937.92
567.201	11936.79
567.563	11979.73
567.925	11998.26
568.287	11975.43
568.648	11904.48
569.01	12010.91
569.372	12031.03
569.734	12026.28
570.095	12107.41
570.457	12082.1
570.819	12076.9
571.18	12067.18
571.542	12069.44
571.903	12088.43
572.265	12090.23
572.626	12236.22
572.987	12121.19
573.349	12178.59
573.71	12147.41
574.071	12186.5
574.432	12258.59
574.794	12282.54
575.155	12283.9
575.516	12172.04
575.877	12206.39
576.238	12300.4
576.599	12202.77
576.96	12164.13
577.32	12256.78
577.681	12203.68
578.042	12248.42
578.403	12226.5
578.763	12217.91
579.124	12278.93
579.485	12228.76
579.845	12269.66
580.206	12224.24
580.566	12158.71
580.927	12176.11
581.287	12238.48
581.648	12177.91
582.008	12267.86
582.368	12160.06
582.728	12214.3
583.089	12241.19
583.449	12143.11
583.809	12148.54
584.169	12242.09
584.529	12198.03
584.889	12245.71
585.249	12076.22
585.609	12170.46
585.969	12167.97
586.329	12098.14
586.688	12154.86
587.048	12038.26
587.408	12139.72
587.768	12101.98
588.127	12062.89
588.487	12043
588.846	12179.04
589.206	12009.33
589.565	12009.78
589.925	12080.97
590.284	12028.31
590.643	12019.73
591.003	12131.59
591.362	12068.99
591.721	12054.98
592.08	12079.61
592.44	12047.75
592.799	12063.79
593.158	12053.4
593.517	11981.99
593.876	12049.78
594.235	11941.54
594.593	11988.99
594.952	11933.17
595.311	11952.16
595.67	11954.42
596.029	11987.64
596.387	11917.36
596.746	11976.79
597.104	11968.2
597.463	11941.08
597.822	11972.5
598.18	11867.19
598.538	11861.76
598.897	11930.46
599.255	11853.18
599.613	11981.54
599.972	11891.59
600.33	11977.92
600.688	11944.7
601.046	12030.35
601.404	12034.19
601.762	11968.43
602.12	12038.71
602.478	11927.07
602.836	11942.67
603.194	12006.17
603.552	11933.85
603.91	11889.56
604.268	11952.61
604.625	11891.37
604.983	11855.44
605.341	11923.46
605.698	11980.41
606.056	12014.75
606.413	11876.45
606.771	11933.17
607.128	11940.86
607.485	11922.78
607.843	11946.28
608.2	12043
608.557	11943.34
608.914	12019.95
609.272	12031.48
609.629	12008.88
609.986	12065.83
610.343	11948.54
610.7	12095.88
611.057	12028.99
611.414	12078.71
611.771	12021.99
612.127	12081.19
612.484	12101.76
612.841	12082.1
613.198	12077.13
613.554	12043
613.911	12029.22
614.267	12127.97
614.624	12033.29
614.98	12107.41
615.337	12178.37
615.693	12140.63
616.05	12161.42
616.406	12195.99
616.762	12198.48
617.118	12141.76
617.475	12175.88
617.831	12188.76
618.187	12179.27
618.543	12261.08
618.899	12304.01
619.255	12255.88
619.611	12190.57
619.967	12286.84
620.323	12333.62
620.678	12255.43
621.034	12302.88
621.39	12317.8
621.746	12224.24
622.101	12362.77
622.457	12274.63
622.812	12275.31
623.168	12348.31
623.523	12351.92
623.879	12320.28
624.234	12268.99
624.589	12250
624.945	12314.41
625.3	12259.27
625.655	12169.33
626.01	12223.79
626.365	12318.48
626.72	12194.86
627.075	12243.45
627.43	12179.5
627.785	12169.1
628.14	12237.8
628.495	12195.09
628.85	12241.19
629.205	12169.55
629.559	12239.61
629.914	12241.64
630.269	12154.86
630.623	12168.65
630.978	12113.51
631.332	12218.82
631.687	12181.98
632.041	12096.11
632.396	12129.1
632.75	12103.57
633.104	12088.88
633.459	11991.25
633.813	11996.68
634.167	12049.78
634.521	12052.27
634.875	12008.43
635.229	12036
635.583	11919.16
635.937	11993.06
636.291	11923.91
636.645	11939.28
636.999	11971.14
637.352	12006.62
637.706	11891.14
638.06	11915.32
638.413	11877.13
638.767	11885.94
639.121	11918.03
639.474	11784.25
639.828	11826.74
640.181	11859.73
640.534	11786.06
640.888	11868.54
641.241	11789.9
641.594	11815.89
641.947	11800.52
642.301	11799.39
642.654	11756
643.007	11822.22
643.36	11740.41
643.713	11799.39
644.066	11826.06
644.419	11651.83
644.771	11601.21
645.124	11550.36
645.477	11523.47
645.83	11519.85
646.182	11458.39
646.535	11357.6
646.888	11331.61
647.24	11353.53
647.593	11405.73
647.945	11347.88
648.298	11328.45
648.65	11314.21
649.002	11283.93
649.355	11367.77
649.707	11358.5
650.059	11351.95
650.411	11500.42
650.763	11644.82
651.115	11582.22
651.467	11552.17
651.819	11548.78
652.171	11536.35
652.523	11550.59
652.875	11503.81
653.227	11494.77
653.578	11592.84
653.93	11629.23
654.282	11504.26
654.633	11539.29
654.985	11557.59
655.337	11554.2
655.688	11535.45
656.039	11620.64
656.391	11509.01
656.742	11554.65
657.094	11550.36
657.445	11619.06
657.796	11572.28
658.147	11502.68
658.498	11570.92
658.849	11569.57
659.2	11583.13
659.551	11567.31
659.902	11582.22
660.253	11532.96
660.604	11634.2
660.955	11533.64
661.306	11625.16
661.656	11558.72
662.007	11601.88
662.358	11599.85
662.708	11643.69
663.059	11678.04
663.409	11508.1
663.76	11618.83
664.11	11666.97
664.461	11524.37
664.811	11607.99
665.161	11552.39
665.511	11572.96
665.862	11598.49
666.212	11645.95
666.562	11640.75
666.912	11656.57
667.262	11566.18
667.612	11572.51
667.962	11635.33
668.312	11573.41
668.662	11698.38
669.011	11675.55
669.361	11583.81
669.711	11546.74
670.06	11557.14
670.41	11546.29
670.76	11456.58
671.109	11562.56
671.459	11614.99
671.808	11524.82
672.157	11587.87
672.507	11459.52
672.856	11504.03
673.205	11509.01
673.554	11455
673.904	11433.75
674.253	11605.5
674.602	11523.92
674.951	11291.61
675.3	11284.6
675.649	11393.08
675.998	11450.02
676.346	11409.57
676.695	11469.46
677.044	11372.29
677.393	11421.78
677.741	11377.71
678.09	11404.38
678.438	11320.08
678.787	11380.87
679.135	11458.16
679.484	11322.12
679.832	11310.82
680.181	11342.46
680.529	11313.08
680.877	11243.25
681.225	11204.15
681.573	11330.48
681.922	11155.57
682.27	11131.61
682.618	11198.05
682.966	11106.98
683.314	11205.74
683.661	11059.3
684.009	11049.36
684.357	11043.25
684.705	11080.32
685.053	11059.07
685.4	11005.29
685.748	10898.17
686.095	10879.19
686.443	10855.24
686.79	10931.17
687.138	10909.7
687.485	10815.01
687.832	10831.28
688.18	10810.04
688.527	10791.74
688.874	10741.79
689.221	10719.42
689.568	10658.18
689.915	10671.06
690.262	10640.55
690.609	10603.27
690.956	10606.66
691.303	10504.06
691.65	10455.93
691.997	10515.13
692.344	10450.05
692.69	10347.91
693.037	10389.26
693.383	10364.4
693.73	10330.96
694.077	10316.95
694.423	10311.07
694.769	10228.14
695.116	10188.14
695.462	10194.92
695.808	10160.34
696.155	10141.81
696.501	10031.76
696.847	9992.66
697.193	9951.08
697.539	10069.04
697.885	10001.25
698.231	9849.84
698.577	9842.61
698.923	9868.14
699.269	9765.55
699.614	9728.26
699.96	9651.88
700.306	9717.64
700.651	9646.46
700.997	9668.6
701.342	9612.11
701.688	9587.02
702.033	9502.96
702.379	9486.91
702.724	9514.71
703.069	9445.1
703.415	9334.37
703.76	9382.06
704.105	9338.44
704.45	9339.8
704.795	9231.33
705.14	9244.21
705.485	9240.36
705.83	9179.35
706.175	9175.73
706.52	9071.56
706.865	9103.64
707.209	9079.92
707.554	9105
707.899	9032.46
708.243	8989.52
708.588	8957.43
708.932	8899.36
709.277	8910.66
709.621	8900.71
709.966	8870.66
710.31	8858.45
710.654	8772.58
710.998	8756.99
711.342	8769.19
711.687	8739.59
712.031	8740.94
712.375	8691.9
712.719	8711.34
713.063	8678.57
713.407	8725.12
713.75	8651.68
714.094	8719.47
714.438	8603.32
714.782	8599.03
715.125	8575.98
715.469	8533.72
715.812	8588.18
716.156	8521.06
716.499	8492.14
716.843	8545.02
717.186	8456.43
717.53	8487.16
717.873	8468.18
718.216	8476.32
718.559	8439.26
718.902	8352.03
719.246	8416.43
719.589	8347.96
719.932	8357.68
720.275	8363.78
720.617	8376.21
720.96	8282.42
721.303	8342.31
721.646	8351.57
721.989	8241.29
722.331	8321.74
722.674	8328.07
723.016	8298.02
723.359	8302.08
723.701	8275.19
724.044	8239.71
724.386	8222.31
724.729	8223.89
725.071	8252.82
725.413	8279.49
725.755	8247.4
726.097	8193.61
726.439	8166.95
726.782	8173.05
727.124	8249.66
727.465	8165.82
727.807	8211.01
728.149	8138.25
728.491	8131.92
728.833	8119.72
729.175	8178.47
729.516	8128.08
729.858	8147.74
730.199	8182.31
730.541	8089.89
730.882	8120.62
731.224	8120.85
731.565	8045.37
731.906	8156.33
732.248	8090.34
732.589	8069.77
732.93	8131.92
733.271	7999.27
733.612	8090.56
733.953	8088.76
734.294	8072.71
734.635	8061.19
734.976	8078.59
735.317	8074.75
735.658	8055.08
735.999	8086.5
736.339	8093.73
736.68	8147.06
737.021	8127.85
737.361	8090.11
737.702	8173.95
738.042	8102.99
738.383	8083.78
738.723	8156.1
739.063	8182.99
739.404	8203.56
739.744	8175.31
740.084	8103.67
740.424	8219.83
740.764	8155.42
741.104	8228.41
741.444	8197.91
741.784	8168.53
742.124	8187.28
742.464	8220.96
742.804	8277.45
743.143	8267.96
743.483	8295.08
743.823	8272.71
744.162	8312.71
744.502	8324
744.841	8357.22
745.181	8427.05
745.52	8415.08
745.86	8488.75
746.199	8482.64
746.538	8511.34
746.877	8582.3
747.216	8584.34
747.556	8564
747.895	8746.82
748.234	8743.65
748.573	8729.64
748.911	8747.5
749.25	8919.02
749.589	8939.36
749.928	8989.07
750.267	9113.36
750.605	9161.04
750.944	9181.61
751.283	9288.5
751.621	9401.26
751.96	9419.34
752.298	9484.88
752.636	9594.25
752.975	9567.36
753.313	9743.4
753.651	9880.8
753.989	9888.48
754.327	10031.3
754.666	10126.22
755.004	10234.46
755.342	10317.85
755.679	10505.19
756.017	10560.78
756.355	10769.14
756.693	10726.88
757.031	10932.07
757.368	11113.54
757.706	11260.2
758.044	11359.4
758.381	11517.82
758.719	11602.11
759.056	11797.81
759.394	11925.94
759.731	11965.94
760.068	12186.28
760.405	12365.93
760.743	12453.39
761.08	12617.45
761.417	12796.66
761.754	13041.85
762.091	13167.94
762.428	13287.04
762.765	13379.92
763.102	13635.96
763.438	13663.3
763.775	13796.85
764.112	14067.13
764.449	14235.71
764.785	14306.45
765.122	14381.02
765.458	14622.6
765.795	14745.53
766.131	14876.6
766.467	14997.5
766.804	15075.24
767.14	15175.58
767.476	15429.81
767.812	15409.02
768.148	15598.84
768.485	15809.23
768.821	15764.03
769.157	16097.13
769.492	16034.31
769.828	16159.96
770.164	16196.57
770.5	16294.87
770.836	16452.6
771.171	16458.48
771.507	16560.85
771.842	16619.83
772.178	16800.62
772.513	16901.41
772.849	17018.24
773.184	17031.57
773.519	17145.47
773.855	17115.64
774.19	17173.94
774.525	17312.24
774.86	17369.19
775.195	17413.48
775.53	17489.41
775.865	17478.57
776.2	17443.76
776.535	17396.76
776.87	17487.38
777.205	17482.41
777.539	17538
777.874	17707.26
778.209	17681.95
778.543	17664.78
778.878	17590.2
779.212	17737.32
779.547	17731.89
779.881	17711.78
780.215	17790.87
780.55	17808.27
780.884	17722.4
781.218	17775.96
781.552	17833.58
781.886	17783.42
782.22	17843.98
782.554	17767.6
782.888	17642.86
783.222	17695.74
783.556	17635.17
783.889	17744.55
784.223	17695.96
784.557	17631.78
784.89	17706.81
785.224	17592.01
785.557	17625.91
785.891	17462.3
786.224	17558.79
786.558	17629.07
786.891	17562.18
787.224	17478.79
787.557	17525.57
787.891	17526.7
788.224	17389.08
788.557	17521.73
788.89	17445.35
789.223	17547.04
789.556	17406.7
789.888	17415.97
790.221	17326.93
790.554	17289.42
790.887	17233.37
791.219	17273.6
791.552	17233.15
791.884	17149.08
792.217	17150.44
792.549	17084.68
792.882	16986.15
793.214	16982.99
793.546	17033.38
793.879	16952.7
794.211	16807.17
794.543	16969.88
794.875	16900.28
795.207	16912.25
795.539	16870.22
795.871	16827.74
796.203	16630
796.535	16616.22
796.867	16671.81
797.198	16662.54
797.53	16644.46
797.862	16458.48
798.193	16524.69
798.525	16495.31
798.856	16558.82
799.188	16262.78
799.519	16275.43
799.85	16224.36
800.182	16177.81
800.513	16268.2
800.844	16081.54
801.175	16231.37
801.506	16187.07
801.837	16147.98
802.168	16117.92
802.499	16043.12
802.83	15969.9
803.161	15990.7
803.491	15907.53
803.822	15859.85
804.153	15836.35
804.483	15767.2
804.814	15661.21
805.145	15639.74
805.475	15656.47
805.805	15566.98
806.136	15618.5
806.466	15630.48
806.796	15545.06
807.126	15474.32
807.457	15449.47
807.787	15418.28
808.117	15418.28
808.447	15354.78
808.777	15354.78
809.107	15285.86
809.436	15279.53
809.766	15244.95
810.096	15186.87
810.426	15104.39
810.755	15096.93
811.085	15117.5
811.414	15113.88
811.744	15000.89
812.073	15063.26
812.403	14913.89
812.732	15003.38
813.061	14922.7
813.39	14869.59
813.719	14797.96
814.049	14913.66
814.378	14833.44
814.707	14800.22
815.036	14729.71
815.365	14744.4
815.693	14588.7
816.022	14761.8
816.351	14589.38
816.68	14547.12
817.008	14609.26
817.337	14462.83
817.665	14375.37
817.994	14558.42
818.322	14356.84
818.651	14291.53
818.979	14335.15
819.307	14387.8
819.636	14350.06
819.964	14318.42
820.292	14290.63
820.62	14298.31
820.948	14239.78
821.276	14280.68
821.604	14301.47
821.932	14299.67
822.259	14195.26
822.587	14258.54
822.915	14185.32
823.243	14270.74
823.57	14197.97
823.898	14258.99
824.225	14250.63
824.553	14166.34
824.88	14101.25
825.207	14323.85
825.535	14151.2
825.862	14263.28
826.189	14145.55
826.516	14298.54
826.843	14252.44
827.17	14245.88
827.497	14314.13
827.824	14166.11
828.151	14348.03
828.478	14227.8
828.805	14343.96
829.131	14192.78
829.458	14221.93
829.785	14130.63
830.111	14221.02
830.438	14304.64
830.764	14236.84
831.09	14273.45
831.417	14238.43
831.743	14196.17
832.069	14215.15
832.395	14159.56
832.722	14154.81
833.048	14144.87
833.374	14184.64
833.7	14110.29
834.026	14157.75
834.351	14144.64
834.677	14157.07
835.003	14189.39
835.329	14158.2
835.654	14092.21
835.98	14087.92
836.306	14062.16
836.631	14082.27
836.956	14098.99
837.282	14051.76
837.607	13927.25
837.932	13994.59
838.258	13968.38
838.583	13999.79
838.908	13894.25
839.233	13897.42
839.558	13833.46
839.883	13840.24
840.208	13777.42
840.533	13759.79
840.858	13744.43
841.182	13764.31
841.507	13766.12
841.832	13670.76
842.156	13622.62
842.481	13621.27
842.805	13518.9
843.13	13565
843.454	13550.53
843.778	13433.25
844.103	13427.15
844.427	13456.3
844.751	13501.5
845.075	13432.8
845.399	13403.64
845.723	13303.76
846.047	13309.86
846.371	13206.81
846.695	13173.82
847.019	13133.37
847.343	13042.07
847.666	12991.23
847.99	12899.93
848.313	12936.54
848.637	12760.72
848.96	12788.29
849.284	12784
849.607	12703.55
849.931	12658.58
850.254	12570.22
850.577	12536.32
850.9	12479.83
851.223	12448.42
851.546	12390.79
851.869	12323.67
852.192	12410.68
852.515	12200.96
852.838	12161.64
853.161	12198.93
853.483	12135.43
853.806	12030.12
854.129	12099.72
854.451	12004.36
854.774	11964.36
855.096	11883.68
855.419	11848.88
855.741	11908.32
856.063	11748.77
856.385	11702.9
856.708	11724.14
857.03	11689.57
857.352	11671.94
857.674	11593.3
857.996	11576.35
858.318	11523.92
858.64	11571.15
858.961	11558.27
859.283	11448.44
859.605	11413.87
859.926	11404.15
860.248	11328.22
860.57	11244.83
860.891	11319.41
861.212	11216.58
861.534	11205.96
861.855	11186.3
862.176	11175.68
862.498	11178.39
862.819	11148.56
863.14	11178.17
863.461	11147.21
863.782	11121.22
864.103	11092.97
864.424	11064.27
864.745	11164.61
865.065	10997.83
865.386	11026.76
865.707	11018.4
866.027	10948.79
866.348	10961
866.668	10929.36
866.989	10964.61
867.309	10862.47
867.63	10889.13
867.95	10836.48
868.27	10786.54
868.59	10833.54
868.91	10761.45
869.23	10817.05
869.55	10737.27
869.87	10777.27
870.19	10642.59
870.51	10757.16
870.83	10780.89
871.15	10622.7
871.469	10590.16
871.789	10661.34
872.109	10638.97
872.428	10537.51
872.748	10601.46
873.067	10594.68
873.386	10578.86
873.706	10524.4
874.025	10533.89
874.344	10491.86
874.663	10500.44
874.982	10459.09
875.301	10455.25
875.62	10472.87
875.939	10407.34
876.258	10429.26
876.577	10384.29
876.896	10360.33
877.214	10316.04
877.533	10426.32
877.852	10328.25
878.17	10282.6
878.489	10283.27
878.807	10328.02
879.125	10245.08
879.444	10273.33
879.762	10252.09
880.08	10172.32
880.398	10216.38
880.716	10187.01
881.034	10125.99
881.352	10120.57
881.67	10070.17
881.988	10085.31
882.306	10026.78
882.624	10060.23
882.941	9961.93
883.259	9910.86
883.577	9992.44
883.894	9903.85
884.212	9866.11
884.529	9855.49
884.846	9849.61
885.164	9863.62
885.481	9842.61
885.798	9809.61
886.115	9716.74
886.432	9683.74
886.75	9768.71
887.067	9761.93
887.383	9736.62
887.7	9729.39
888.017	9642.39
888.334	9608.72
888.651	9626.57
888.967	9630.41
889.284	9521.71
889.6	9523.29
889.917	9471.32
890.233	9435.39
890.55	9450.98
890.866	9426.35
891.182	9415.28
891.498	9277.88
891.815	9383.19
892.131	9342.73
892.447	9316.97
892.763	9287.14
893.079	9254.38
893.395	9206.24
893.71	9147.03
894.026	9204.21
894.342	9121.05
894.657	9056.41
894.973	9037.21
895.289	9007.15
895.604	8984.78
895.92	8892.58
896.235	8895.74
896.55	8859.58
896.865	8816.87
897.181	8842.18
897.496	8775.29
897.811	8670.21
898.126	8719.02
898.441	8662.75
898.756	8680.61
899.071	8577.1
899.386	8625.01
899.7	8547.28
900.015	8546.37
900.33	8447.16
900.644	8419.14
900.959	8469.31
901.273	8465.02
901.588	8348.41
901.902	8353.38
902.216	8324.23
902.531	8327.17
902.845	8362.2
903.159	8232.26
903.473	8200.84
903.787	8222.31
904.101	8127.85
904.415	8100.73
904.729	8101.19
905.042	7987.74
905.356	7982.09
905.67	7993.84
905.984	7973.51
906.297	7977.35
906.611	7899.83
906.924	7843.79
907.237	7872.49
907.551	7830.46
907.864	7806.05
908.177	7766.73
908.491	7800.63
908.804	7666.39
909.117	7639.73
909.43	7574.87
909.743	7527.64
910.056	7506.4
910.368	7512.73
910.681	7509.56
910.994	7436.12
911.307	7401.09
911.619	7389.57
911.932	7343.47
912.244	7308.89
912.557	7338.27
912.869	7253.3
913.181	7213.07
913.494	7249.46
913.806	7167.65
914.118	7165.84
914.43	7121.32
914.742	7083.36
915.054	7063.7
915.366	7049.24
915.678	7020.31
915.99	7001.33
916.302	6929.24
916.613	6911.39
916.925	6860.31
917.236	6875
917.548	6821.44
917.859	6835.23
918.171	6825.51
918.482	6712.75
918.794	6751.39
919.105	6716.59
919.416	6643.6
919.727	6707.78
920.038	6639.3
920.349	6591.17
920.66	6583.03
920.971	6584.84
921.282	6559.08
921.593	6460.55
921.903	6512.3
922.214	6442.02
922.525	6394.11
922.835	6406.09
923.146	6345.3
923.456	6407.44
923.767	6292.19
924.077	6315.24
924.387	6296.26
924.697	6224.17
925.008	6210.61
925.318	6177.17
925.628	6149.15
925.938	6150.73
926.248	6092.42
926.558	6055.59
926.867	6106.89
927.177	6040
927.487	6032.31
927.796	5995.03
928.106	5940.56
928.416	5945.08
928.725	5921.36
929.034	5905.31
929.344	5897.18
929.653	5926.1
929.962	5815.37
930.271	5769.5
930.581	5780.12
930.89	5743.73
931.199	5689.27
931.508	5678.2
931.817	5692.66
932.125	5632.1
932.434	5670.74
932.743	5583.29
933.051	5555.72
933.36	5539.67
933.669	5546.45
933.977	5510.74
934.286	5538.09
934.594	5496.96
934.902	5407.7
935.21	5413.57
935.519	5463.74
935.827	5376.96
936.135	5401.37
936.443	5331.99
936.751	5257.64
937.059	5310.75
937.367	5257.19
937.674	5246.57
937.982	5253.35
938.29	5236.63
938.597	5179.91
938.905	5141.72
939.213	5083.86
939.52	5076.41
939.827	5067.82
940.135	5063.75
940.442	5073.92
940.749	5059.01
941.056	5020.14
941.363	4954.15
941.67	4990.98
941.977	4940.14
942.284	4940.59
942.591	4881.61
942.898	4908.73
943.205	4860.14
943.511	4814.27
943.818	4849.75
944.125	4764.32
944.431	4776.07
944.738	4754.61
945.044	4736.3
945.35	4651.33
945.657	4690.88
945.963	4668.73
946.269	4634.38
946.575	4633.25
946.881	4572.69
947.187	4620.15
947.493	4587.15
947.799	4534.27
948.105	4527.27
948.41	4496.76
948.716	4569.75
949.022	4478.46
949.327	4456.31
949.633	4412.69
949.938	4432.81
950.244	4416.99
950.549	4389.19
950.854	4332.47
951.16	4369.76
951.465	4322.75
951.77	4286.82
952.075	4290.44
952.38	4254.28
952.685	4332.24
952.99	4218.35
953.294	4216.09
953.599	4174.06
953.904	4195.3
954.209	4197.79
954.513	4169.76
954.818	4122.98
955.122	4151.23
955.426	4082.31
955.731	4111.91
956.035	4047.05
956.339	4055.64
956.643	4066.26
956.948	4019.26
957.252	4020.16
957.556	3954.18
957.86	3987.4
958.163	3938.36
958.467	3936.1
958.771	3900.62
959.075	3864.91
959.378	3830.56
959.682	3888.41
959.985	3829.21
960.289	3816.33
960.592	3812.26
960.896	3797.12
961.199	3790.79
961.502	3772.49
961.805	3768.42
962.108	3739.27
962.411	3721.64
962.714	3662.43
963.017	3707.4
963.32	3674.86
963.623	3647.07
963.926	3619.95
964.228	3635.99
964.531	3630.79
964.833	3595.77
965.136	3538.37
965.438	3544.24
965.741	3527.75
966.043	3527.75
966.345	3488.2
966.648	3472.38
966.95	3489.78
967.252	3477.58
967.554	3450.69
967.856	3448.2
968.158	3430.8
968.46	3445.04
968.761	3394.64
969.063	3354.19
969.365	3366.85
969.666	3329.79
969.968	3343.8
970.269	3272.61
970.571	3344.25
970.872	3273.97
971.174	3285.27
971.475	3282.33
971.776	3197.13
972.077	3248.88
972.378	3214.08
972.679	3274.19
972.98	3185.83
973.281	3159.85
973.582	3162.33
973.883	3181.54
974.183	3143.8
974.484	3132.05
974.785	3111.03
975.085	3118.72
975.386	3087.53
975.686	3072.16
975.986	3093.63
976.287	3040.08
976.587	2998.72
976.887	3026.52
977.187	2999.62
977.487	2959.63
977.787	2922.34
978.087	2918.72
978.387	2976.57
978.687	2956.46
978.987	2911.04
979.286	2894.99
979.586	2890.47
979.885	2836.92
980.185	2864.26
980.484	2846.18
980.784	2843.47
981.083	2818.84
981.382	2822.91
981.682	2830.82
981.981	2788.33
982.28	2780.42
982.579	2758.05
982.878	2759.63
983.177	2739.97
983.475	2732.74
983.774	2698.39
984.073	2697.03
984.372	2666.3
984.67	2699.07
984.969	2692.06
985.267	2650.48
985.566	2625.4
985.864	2612.06
986.162	2642.57
986.461	2567.55
986.759	2624.49
987.057	2549.47
987.355	2569.13
987.653	2570.48
987.951	2551.5
988.249	2558.05
988.547	2523.48
988.844	2535.91
989.142	2532.29
989.44	2476.93
989.737	2482.8
990.035	2468.57
990.332	2451.16
990.63	2453.2
990.927	2462.69
991.224	2437.61
991.521	2394.89
991.819	2416.14
992.116	2405.29
992.413	2382.24
992.71	2365.74
993.006	2364.61
993.303	2366.65
993.6	2330.72
993.897	2319.19
994.193	2283.49
994.49	2309.7
994.787	2269.47
995.083	2271.96
995.379	2288.46
995.676	2273.32
995.972	2272.41
996.268	2237.84
996.565	2213.66
996.861	2192.41
997.157	2194
997.453	2174.34
997.749	2188.35
998.044	2140.44
998.34	2159.87
998.636	2173.21
998.932	2152.19
999.227	2145.64
999.523	2112.87
999.818	2104.96
1000.114	2112.19
1000.409	2092.3
1000.704	2055.47
1001	2052.53
1001.295	2080.78
1001.59	2027.22
1001.885	2061.8
1002.18	2026.32
1002.475	2018.86
1002.77	2015.24
1003.065	1997.62
1003.359	2002.59
1003.654	1993.1
1003.949	1944.29
1004.243	1954.68
1004.538	1948.58
1004.832	1931.18
1005.127	1886.66
1005.421	1888.69
1005.715	1877.62
1006.009	1871.74
1006.304	1862.71
1006.598	1874.23
1006.892	1845.98
1007.186	1837.4
1007.48	1837.62
1007.773	1792.2
1008.067	1793.1
1008.361	1803.95
1008.655	1757.4
1008.948	1775.93
1009.242	1773.44
1009.535	1772.31
1009.829	1715.59
1010.122	1758.98
1010.415	1721.01
1010.708	1745.87
1011.001	1743.39
1011.295	1693.44
1011.588	1674.69
1011.881	1673.78
1012.173	1658.42
1012.466	1654.12
1012.759	1642.6
1013.052	1636.72
1013.344	1642.82
1013.637	1624.75
1013.93	1590.85
1014.222	1585.88
1014.514	1596.72
1014.807	1604.18
1015.099	1601.24
1015.391	1551.98
1015.683	1570.74
1015.976	1537.52
1016.268	1534.13
1016.56	1519.44
1016.851	1502.49
1017.143	1509.95
1017.435	1497.07
1017.727	1497.29
1018.018	1489.83
1018.31	1480.57
1018.602	1461.81
1018.893	1469.95
1019.185	1436.73
1019.476	1437.63
1019.767	1422.72
1020.058	1414.36
1020.35	1407.58
1020.641	1397.86
1020.932	1416.84
1021.223	1385.43
1021.514	1349.5
1021.804	1403.73
1022.095	1332.78
1022.386	1357.63
1022.677	1361.02
1022.967	1340.69
1023.258	1314.47
1023.548	1318.99
1023.839	1287.35
1024.129	1295.94
1024.419	1286.9
1024.709	1266.56
1025	1273.34
1025.29	1250.07
1025.58	1262.27
1025.87	1236.73
1026.16	1246.22
1026.449	1227.69
1026.739	1202.38
1027.029	1197.64
1027.319	1203.74
1027.608	1207.13
1027.898	1202.61
1028.187	1177.3
1028.477	1172.55
1028.766	1170.97
1029.055	1155.38
1029.344	1173.01
1029.634	1157.64
1029.923	1129.39
1030.212	1109.05
1030.501	1114.93
1030.79	1120.8
1031.078	1107.7
1031.367	1096.85
1031.656	1107.02
1031.945	1105.66
1032.233	1068.83
1032.522	1068.6
1032.81	1084.42
1033.099	1052.11
1033.387	1055.04
1033.675	1063.4
1033.963	1027.92
1034.251	1029.96
1034.54	1031.99
1034.828	1020.69
1035.116	1015.04
1035.403	1018.43
1035.691	1015.5
1035.979	1017.98
1036.267	984.54
1036.554	974.14
1036.842	980.02
1037.129	978.89
1037.417	958.55
1037.704	968.94
1037.992	963.29
1038.279	951.99
1038.566	942.28
1038.853	942.28
1039.14	942.28
