Data from hue_26_FLMS001491_00073.txt Node
Date: Tue Feb 07 17:14:29 GMT 2017
User: dcchb
Spectrometer: FLMS00149
Trigger mode: 0
Integration Time (sec): 2.000000E-2
Scans to average: 10
Electric dark correction enabled: true
Nonlinearity correction enabled: false
Boxcar width: 0
XAxis mode: Wavelengths
Number of Pixels in Spectrum: 2048
>>>>>Begin Spectral Data<<<<<
341.393	-18.56
341.776	-18.56
342.16	-18.56
342.543	-61.04
342.927	-61.72
343.31	-53.36
343.693	-76.41
344.077	-93.13
344.46	-46.81
344.843	-55.39
345.226	-39.12
345.61	-18.78
345.993	-31.44
346.376	-1.84
346.759	-0.03
347.142	18.28
347.525	44.26
347.908	67.31
348.291	90.36
348.674	88.33
349.057	107.77
349.44	129.69
349.823	130.59
350.206	156.58
350.588	194.99
350.971	212.85
351.354	228.44
351.737	237.03
352.119	270.7
352.502	247.87
352.884	269.12
353.267	312.96
353.65	291.72
354.032	289.23
354.414	307.31
354.797	311.15
355.179	338.27
355.562	331.26
355.944	339.4
356.326	347.53
356.709	360.87
357.091	335.56
357.473	356.35
357.855	346.18
358.238	341.43
358.62	323.58
359.002	367.19
359.384	346.18
359.766	336.69
360.148	360.19
360.53	347.53
360.912	334.88
361.294	339.85
361.676	341.88
362.057	338.04
362.439	315.67
362.821	329.23
363.203	342.56
363.584	338.27
363.966	331.71
364.348	341.88
364.729	333.75
365.111	301.66
365.493	322.9
365.874	291.26
366.256	308.44
366.637	318.61
367.019	326.52
367.4	340.98
367.781	314.31
368.163	326.74
368.544	324.26
368.925	327.65
369.306	325.39
369.688	318.16
370.069	321.09
370.45	302.79
370.831	318.38
371.212	339.4
371.593	317.7
371.974	339.85
372.355	323.81
372.736	333.3
373.117	325.84
373.498	298.49
373.879	322.68
374.26	318.16
374.641	332.17
375.021	331.04
375.402	316.35
375.783	328.55
376.163	311.6
376.544	349.57
376.925	331.71
377.305	326.97
377.686	322.22
378.066	320.19
378.447	329.68
378.827	341.66
379.208	330.58
379.588	348.66
379.968	345.73
380.349	338.72
380.729	341.43
381.109	323.81
381.489	330.81
381.87	338.49
382.25	348.21
382.63	337.59
383.01	357.25
383.39	358.61
383.77	347.99
384.15	348.44
384.53	353.41
384.91	345.05
385.29	338.04
385.67	366.06
386.049	375.33
386.429	369.45
386.809	377.81
387.189	362
387.568	369.23
387.948	383.24
388.328	364.26
388.707	363.35
389.087	345.73
389.466	380.3
389.846	380.3
390.225	359.96
390.605	376.46
390.984	371.04
391.363	354.99
391.743	373.75
392.122	370.13
392.501	382.56
392.881	385.27
393.26	376.23
393.639	364.26
394.018	377.81
394.397	384.59
394.776	388.89
395.155	385.05
395.534	384.37
395.913	375.78
396.292	403.12
396.671	392.73
397.05	409
397.429	384.59
397.808	395.22
398.186	369.45
398.565	398.83
398.944	415.55
399.323	389.34
399.701	418.04
400.08	383.24
400.458	398.15
400.837	398.15
401.215	416.01
401.594	410.13
401.972	406.06
402.351	419.17
402.729	406.97
403.107	410.58
403.486	415.78
403.864	429.11
404.242	399.51
404.62	414.88
404.999	415.1
405.377	446.29
405.755	419.85
406.133	443.12
406.511	420.53
406.889	432.28
407.267	435.21
407.645	437.47
408.023	446.29
408.401	460.75
408.779	442.67
409.156	441.99
409.534	449.9
409.912	460.3
410.29	462.56
410.667	466.85
411.045	466.85
411.422	462.33
411.8	471.6
412.178	477.7
412.555	467.98
412.933	474.99
413.31	464.59
413.687	455.78
414.065	482.67
414.442	473.18
414.819	487.19
415.197	475.21
415.574	523.57
415.951	499.17
416.328	507.08
416.705	517.7
417.082	480.19
417.46	498.26
417.837	507.98
418.214	502.56
418.591	504.59
418.967	521.31
419.344	518.15
419.721	510.92
420.098	524.93
420.475	521.99
420.852	530.35
421.228	536.23
421.605	554.99
421.982	536.45
422.358	526.51
422.735	533.29
423.111	538.49
423.488	553.86
423.864	564.25
424.241	582.78
424.617	545.27
424.994	557.7
425.37	555.89
425.746	581.88
426.123	586.4
426.499	574.65
426.875	585.72
427.251	584.59
427.627	576
428.003	589.79
428.379	628.2
428.756	599.05
429.132	608.32
429.507	636.34
429.883	611.03
430.259	622.55
430.635	613.97
431.011	622.33
431.387	619.84
431.763	632.5
432.138	634.76
432.514	633.18
432.89	651.25
433.265	654.19
433.641	660.07
434.016	662.1
434.392	666.39
434.767	670.01
435.143	666.85
435.518	705.04
435.894	710.01
436.269	702.33
436.644	704.81
437.02	720.86
437.395	721.76
437.77	714.08
438.145	730.12
438.52	714.3
438.895	731.93
439.271	732.61
439.646	739.84
440.021	742.55
440.395	745.49
440.77	738.71
441.145	756.34
441.52	780.52
441.895	783
442.27	797.69
442.645	776.9
443.019	800.85
443.394	809.22
443.769	780.29
444.143	785.26
444.518	801.98
444.892	783.45
445.267	799.05
445.641	818.03
446.016	794.75
446.39	786.62
446.764	847.63
447.139	801.08
447.513	828.2
447.887	860.29
448.262	844.92
448.636	833.62
449.01	849.44
449.384	861.19
449.758	837.69
450.132	849.21
450.506	861.19
450.88	866.84
451.254	877.01
451.628	884.24
452.002	905.48
452.376	905.03
452.75	916.11
453.123	918.82
453.497	929.44
453.871	940.29
454.244	937.8
454.618	932.15
454.992	947.97
455.365	940.51
455.739	942.77
456.112	1011.47
456.486	996.56
456.859	1011.92
457.232	990.23
457.606	1002.43
457.979	1030
458.352	1049.66
458.725	1078.36
459.099	1039.27
459.472	1047.85
459.845	1062.54
460.218	1070
460.591	1108.19
460.964	1108.42
461.337	1099.38
461.71	1113.16
462.083	1164.46
462.456	1136.21
462.829	1157
463.201	1187.29
463.574	1170.56
463.947	1196.1
464.32	1213.73
464.692	1224.8
465.065	1234.29
465.438	1243.78
465.81	1278.58
466.183	1280.84
466.555	1295.53
466.928	1298.47
467.3	1291.01
467.672	1332.82
468.045	1346.83
468.417	1358.58
468.789	1382.76
469.161	1384.57
469.534	1426.37
469.906	1462.08
470.278	1472.93
470.65	1446.49
471.022	1498.69
471.394	1531
471.766	1549.31
472.138	1585.69
472.51	1600.61
472.882	1564.22
473.253	1631.79
473.625	1635.41
473.997	1680.38
474.369	1695.75
474.74	1718.12
475.112	1763.99
475.484	1794.95
475.855	1797.21
476.227	1814.16
476.598	1903.88
476.97	1947.27
477.341	1939.13
477.713	1982.29
478.084	1990.2
478.455	2058.45
478.827	2083.31
479.198	2126.47
479.569	2133.93
479.94	2203.53
480.311	2225.68
480.682	2278.33
481.053	2323.53
481.424	2345.67
481.795	2423.86
482.166	2482.17
482.537	2483.3
482.908	2531.43
483.279	2613.24
483.65	2643.29
484.021	2682.39
484.391	2741.14
484.762	2745.21
485.133	2781.37
485.503	2855.72
485.874	2939.78
486.244	2969.84
486.615	3024.07
486.985	3047.8
487.356	3122.38
487.726	3164.63
488.097	3213.45
488.467	3239.89
488.837	3309.94
489.207	3350.62
489.578	3405.76
489.948	3482.37
490.318	3488.69
490.688	3563.04
491.058	3558.3
491.428	3660.44
491.798	3740.44
492.168	3774.34
492.538	3798.74
492.908	3854.56
493.278	3951.05
493.648	3951.28
494.017	4028.11
494.387	4024.27
494.757	4112.18
495.126	4147.66
495.496	4160.09
495.866	4193.31
496.235	4254.55
496.605	4280.99
496.974	4329.12
497.344	4347.65
497.713	4382.68
498.082	4457.48
498.452	4512.17
498.821	4507.88
499.19	4537.71
499.559	4563.02
499.928	4592.17
500.298	4653.41
500.667	4651.15
501.036	4684.82
501.405	4758.26
501.774	4759.85
502.143	4790.81
502.512	4863.57
502.88	4843.69
503.249	4866.96
503.618	4934.31
503.987	4911.26
504.356	4948.32
504.724	4998.48
505.093	5042.78
505.462	5007.3
505.83	5089.1
506.199	5117.13
506.567	5205.71
506.936	5151.02
507.304	5190.12
507.672	5241.64
508.041	5269.21
508.409	5335.88
508.777	5363.9
509.145	5362.09
509.514	5390.56
509.882	5428.3
510.25	5449.55
510.618	5492.71
510.986	5480.28
511.354	5575.19
511.722	5551.69
512.09	5594.63
512.458	5602.99
512.826	5600.73
513.193	5617.45
513.561	5698.58
513.929	5702.19
514.297	5752.36
514.664	5786.49
515.032	5792.81
515.4	5816.54
515.767	5829.65
516.135	5893.38
516.502	5820.61
516.869	5947.16
517.237	5940.83
517.604	5959.59
517.972	6050.21
518.339	5987.84
518.706	6019.7
519.073	6043.65
519.44	6077.55
519.808	6113.48
520.175	6077.55
520.542	6218.79
520.909	6169.53
521.276	6171.79
521.643	6202.97
522.009	6278.45
522.376	6335.85
522.743	6325.91
523.11	6395.96
523.477	6439.12
523.843	6521.61
524.21	6544.66
524.577	6544.88
524.943	6535.39
525.31	6585.56
525.676	6601.15
526.043	6652.9
526.409	6710.76
526.776	6777.65
527.142	6734.48
527.508	6817.65
527.874	6823.52
528.241	6916.85
528.607	6927.93
528.973	7003.18
529.339	6938.32
529.705	7012.22
530.071	7097.64
530.437	7093.12
530.803	7092.67
531.169	7226.45
531.535	7201.82
531.901	7182.61
532.267	7226.9
532.632	7274.36
532.998	7324.3
533.364	7347.8
533.73	7427.35
534.095	7404.52
534.461	7388.7
534.826	7478.87
535.192	7503.28
535.557	7542.6
535.923	7566.55
536.288	7588.25
536.653	7644.52
537.019	7670.05
537.384	7695.36
537.749	7661.01
538.114	7752.08
538.479	7774
538.845	7783.72
539.21	7827.56
539.575	7859.88
539.94	7914.34
540.305	7938.29
540.67	7961.57
541.034	7957.95
541.399	7973.77
541.764	8004.06
542.129	8089.02
542.494	8068.23
542.858	8082.02
543.223	8172.64
543.587	8244.05
543.952	8141.23
544.316	8202.24
544.681	8239.53
545.045	8312.97
545.41	8368.11
545.774	8375.12
546.138	8350.26
546.503	8431.84
546.867	8410.37
547.231	8487.88
547.595	8553.42
547.959	8526.75
548.324	8567.88
548.688	8605.4
549.052	8642.68
549.416	8641.33
549.779	8679.52
550.143	8612.17
550.507	8796.12
550.871	8783.24
551.235	8782.57
551.599	8895.11
551.962	8842.68
552.326	8912.51
552.689	8907.31
553.053	8938.95
553.417	8908.66
553.78	9051.03
554.143	8980.75
554.507	9110.24
554.87	9065.5
555.234	9177.81
555.597	9106.62
555.96	9199.5
556.323	9118.83
556.686	9208.32
557.05	9294.42
557.413	9293.51
557.776	9313.63
558.139	9440.85
558.502	9345.94
558.865	9390.23
559.228	9472.72
559.59	9592.94
559.953	9440.85
560.316	9636.1
560.679	9568.53
561.041	9724.01
561.404	9660.96
561.767	9759.72
562.129	9706.16
562.492	9833.84
562.854	9738.02
563.217	9830.22
563.579	9841.52
563.941	9892.37
564.304	9952.93
564.666	9960.39
565.028	10027.73
565.39	9977.34
565.753	10086.03
566.115	10158.8
566.477	10156.99
566.839	10208.29
567.201	10215.52
567.563	10267.95
567.925	10287.61
568.287	10342.07
568.648	10345.46
569.01	10473.14
569.372	10497.32
569.734	10417.78
570.095	10618.22
570.457	10635.4
570.819	10659.58
571.18	10591.11
571.542	10719.24
571.903	10756.07
572.265	10791.78
572.626	10865.22
572.987	10912
573.349	10955.62
573.71	10968.72
574.071	10999.91
574.432	11133.01
574.794	11207.59
575.155	11205.78
575.516	11230.18
575.877	11441.7
576.238	11399.45
576.599	11544.75
576.96	11567.35
577.32	11673.11
577.681	11761.47
578.042	11908.81
578.403	11890.51
578.763	12011.86
579.124	12091.86
579.485	12153.55
579.845	12380.89
580.206	12532.98
580.566	12515.8
580.927	12695.23
581.287	12855.45
581.648	12963.7
582.008	13106.75
582.368	13230.13
582.728	13384.25
583.089	13523.46
583.449	13689.1
583.809	13877.57
584.169	14054.07
584.529	14207.51
584.889	14518.46
585.249	14601.85
585.609	14781.73
585.969	15045.68
586.329	15247.03
586.688	15497.87
587.048	15618.09
587.408	15865.32
587.768	16155.25
588.127	16272.99
588.487	16532.19
588.846	16905.97
589.206	17020.77
589.565	17255.11
589.925	17652.61
590.284	17894.64
590.643	18237.01
591.003	18481.29
591.362	18730.55
591.721	18913.6
592.08	19302.06
592.44	19624.77
592.799	19882.84
593.158	20132.32
593.517	20544.29
593.876	20737.73
594.235	20988.57
594.593	21336.59
594.952	21622.23
595.311	21909.45
595.67	22250.01
596.029	22705.82
596.387	22993.04
596.746	23328.62
597.104	23347.83
597.463	23779.91
597.822	24080.24
598.18	24442.49
598.538	24671.64
598.897	25110.05
599.255	25237.05
599.613	25831.16
599.972	26022.79
600.33	26352.05
600.688	26498.94
601.046	26932.14
601.404	27251.01
601.762	27435.86
602.12	27788.85
602.478	28166.01
602.836	28430.41
603.194	28636.28
603.552	28935.26
603.91	29040.79
604.268	29649.14
604.625	29610.27
604.983	30030.59
605.341	30109.01
605.698	30546.97
606.056	30838.03
606.413	31012.49
606.771	31384.23
607.128	31603.66
607.485	31716.43
607.843	31979.47
608.2	32332.23
608.557	32656.06
608.914	32777.87
609.272	33107.35
609.629	33450.84
609.986	33855.13
610.343	33808.57
610.7	34169.69
611.057	34250.37
611.414	34525.17
611.771	34620.76
612.127	34918.83
612.484	35180.29
612.841	35447.18
613.198	35439.27
613.554	35781.4
613.911	36081.51
614.267	36105.24
614.624	36191.34
614.98	36476.75
615.337	36817.31
615.693	36997.42
616.05	37003.29
616.406	37344.07
616.762	37378.65
617.118	37478.76
617.475	37678.3
617.831	37831.07
618.187	38015.02
618.543	38185.86
618.899	38476.93
619.255	38490.94
619.611	38676.47
619.967	38797.14
620.323	39059.06
620.678	39010.7
621.034	39091.15
621.39	39156.91
621.746	39152.61
622.101	39669.66
622.457	39516.22
622.812	39728.42
623.168	39936.77
623.523	39886.61
623.879	40118.69
624.234	39943.1
624.589	40273.49
624.945	40320.27
625.3	40377.44
625.655	40576.53
626.01	40567.27
626.365	40695.85
626.72	40662.86
627.075	40755.96
627.43	40832.57
627.785	40742.18
628.14	40962.51
628.495	40974.04
628.85	41077.54
629.205	40906.69
629.559	41186.23
629.914	41140.13
630.269	41229.62
630.623	41189.4
630.978	41209.28
631.332	41270.07
631.687	41413.8
632.041	41244.54
632.396	41388.71
632.75	41345.78
633.104	41533.79
633.459	41305.78
633.813	41271.43
634.167	41226.23
634.521	41358.88
634.875	41579.22
635.229	41387.13
635.583	41357.75
635.937	41337.19
636.291	41285.21
636.645	41345.78
636.999	41313.91
637.352	41363.18
637.706	41340.58
638.06	41397.08
638.413	41368.38
638.767	41129.29
639.121	41364.53
639.474	41208.15
639.828	41408.6
640.181	41287.25
640.534	41207.7
640.888	41192.56
641.241	41142.17
641.594	41195.05
641.947	41302.16
642.301	41350.97
642.654	41372.9
643.007	41319.56
643.36	41215.39
643.713	41106.91
644.066	41291.77
644.419	41066.69
644.771	40829.86
645.124	40537.44
645.477	40571.33
645.83	40249.31
646.182	40158.24
646.535	40026.26
646.888	40139.03
647.24	39986.04
647.593	40285.01
647.945	40226.26
648.298	39969.54
648.65	39828.98
649.002	39889.09
649.355	40024.23
649.707	40060.16
650.059	40286.82
650.411	40575.85
650.763	40628.28
651.115	41059.68
651.467	40875.96
651.819	40920.25
652.171	40749.63
652.523	40807.49
652.875	40754.15
653.227	40715.74
653.578	40954.15
653.93	40734.72
654.282	40722.06
654.633	40595.51
654.985	40629.41
655.337	40648.17
655.688	40713.93
656.039	40862.4
656.391	40413.82
656.742	40554.39
657.094	40650.2
657.445	40740.82
657.796	40596.87
658.147	40534.27
658.498	40548.96
658.849	40537.21
659.2	40601.39
659.551	40348.29
659.902	40547.15
660.253	40485.46
660.604	40570.88
660.955	40435.07
661.306	40614.27
661.656	40500.15
662.007	40483.43
662.358	40473.71
662.708	40533.14
663.059	40288.4
663.409	40282.75
663.76	40540.6
664.11	40506.7
664.461	40449.08
664.811	40406.37
665.161	40503.54
665.511	40256.99
665.862	40412.69
666.212	40580.83
666.562	40578.34
666.912	40567.27
667.262	40411.56
667.612	40420.6
667.962	40394.62
668.312	40349.42
668.662	40605.46
669.011	40427.84
669.361	40398.68
669.711	40326.14
670.06	40263.77
670.41	40219.48
670.76	40298.35
671.109	40306.48
671.459	40212.47
671.808	40144.45
672.157	40338.8
672.507	39954.63
672.856	40018.35
673.205	40062.65
673.554	40220.38
673.904	40058.58
674.253	40149.42
674.602	40152.59
674.951	39485.26
675.3	39379.28
675.649	40086.15
675.998	39941.75
676.346	39995.76
676.695	40108.97
677.044	39803.67
677.393	39932.48
677.741	39994.4
678.09	39932.71
678.438	39766.84
678.787	39950.33
679.135	39791.24
679.484	39721.19
679.832	39801.19
680.181	39579.27
680.529	39836.66
680.877	39728.19
681.225	39527.97
681.573	39760.73
681.922	39570
682.27	39357.13
682.618	39365.94
682.966	39259.5
683.314	39353.51
683.661	39098.15
684.009	39079.62
684.357	38880.53
684.705	38924.37
685.053	38954.88
685.4	38845.73
685.748	38672.18
686.095	38774.77
686.443	38531.61
686.79	38598.28
687.138	38656.58
687.485	38630.82
687.832	38406.65
688.18	38479.64
688.527	38295.69
688.874	38282.58
689.221	38274.22
689.568	38036.94
689.915	37962.82
690.262	38041.23
690.609	38054.56
690.956	37711.52
691.303	37834.68
691.65	37584.52
691.997	37635.37
692.344	37441.93
692.69	37354.92
693.037	37398.31
693.383	37100.47
693.73	37333.45
694.077	36951.32
694.423	36994.48
694.769	37007.13
695.116	36917.19
695.462	36749.29
695.808	36697.09
696.155	36731.44
696.501	36442.18
696.847	36541.16
697.193	36219.81
697.539	36415.06
697.885	36062.07
698.231	36114.73
698.577	36112.92
698.923	35957.44
699.269	35738.69
699.614	35614.18
699.96	35592.71
700.306	35491.02
700.651	35359.27
700.997	35281.98
701.342	35280.17
701.688	35270.91
702.033	35214.64
702.379	35069.33
702.724	35041.54
703.069	35149.56
703.415	34646.29
703.76	34639.96
704.105	34732.39
704.45	34623.24
704.795	34424.83
705.14	34237.26
705.485	34203.82
705.83	34076.59
706.175	34184.61
706.52	34123.14
706.865	34087.66
707.209	33995.24
707.554	33813.77
707.899	33841.34
708.243	33701.68
708.588	33650.39
708.932	33385.08
709.277	33496.27
709.621	33447.68
709.966	33111.64
710.31	33380.56
710.654	33091.08
710.998	33138.54
711.342	33176.27
711.687	32927.92
712.031	32838.88
712.375	32788.26
712.719	32764.99
713.063	32716.4
713.407	32820.58
713.75	32587.82
714.094	32557.08
714.438	32374.04
714.782	32562.73
715.125	32240.71
715.469	32397.76
715.812	32242.97
716.156	32078.45
716.499	32068.06
716.843	32008.85
717.186	31907.16
717.53	32044.78
717.873	32019.92
718.216	31838.68
718.559	31700.61
718.902	31619.93
719.246	31629.42
719.589	31467.62
719.932	31514.4
720.275	31390.56
720.617	31369.99
720.96	31391.46
721.303	31225.37
721.646	31218.81
721.989	31136.78
722.331	31269.43
722.674	31147.18
723.016	31148.31
723.359	31217.91
723.701	31084.8
724.044	30920.06
724.386	30732.72
724.729	30951.02
725.071	30847.3
725.413	30718.49
725.755	30875.32
726.097	30669.67
726.439	30538.38
726.782	30575.44
727.124	30660.18
727.465	30485.72
727.807	30520.07
728.149	30342.68
728.491	30244.15
728.833	30345.16
729.175	30222.23
729.516	30236.24
729.858	30146.75
730.199	30123.7
730.541	29893.2
730.882	30135.22
731.224	29990.6
731.565	29881.67
731.906	29931.61
732.248	29927.77
732.589	29752.86
732.93	29577.27
733.271	29698.85
733.612	29663.82
733.953	29733.2
734.294	29659.53
734.635	29497.95
734.976	29618.4
735.317	29337.73
735.658	29371.63
735.999	29435.81
736.339	29456.82
736.68	29443.49
737.021	29374.34
737.361	29243.04
737.702	29320.78
738.042	29106.55
738.383	29140.67
738.723	29151.07
739.063	28981.58
739.404	29128.47
739.744	28971.87
740.084	28851.64
740.424	29076.27
740.764	28947.23
741.104	28968.25
741.444	28835.37
741.784	28716.96
742.124	28853
742.464	28734.13
742.804	28740.01
743.143	28567.13
743.483	28783.85
743.823	28511.09
744.162	28406.46
744.502	28389.73
744.841	28378.89
745.181	28581.59
745.52	28360.58
745.86	28398.55
746.199	28462.73
746.538	28276.97
746.877	28330.07
747.216	28276.52
747.556	28087.59
747.895	28239
748.234	28102.51
748.573	28153.81
748.911	28029.97
749.25	28071.32
749.589	27785.91
749.928	27926.47
750.267	28019.57
750.605	27903.19
750.944	27736.64
751.283	27773.93
751.621	27688.96
751.96	27561.28
752.298	27558.8
752.636	27685.35
752.975	27448.52
753.313	27377.11
753.651	27489.87
753.989	27279.25
754.327	27247.39
754.666	27163.55
755.004	27192.03
755.342	27165.59
755.679	27102.54
756.017	26966.27
756.355	27062.99
756.693	26924.91
757.031	26934.86
757.368	26889.21
757.706	26642.66
758.044	26666.16
758.381	26702.09
758.719	26688.76
759.056	26646.5
759.394	26528.09
759.731	26331.93
760.068	26328.32
760.405	26266.63
760.743	26258.72
761.08	26267.08
761.417	26112.96
761.754	26003.36
762.091	25951.38
762.428	25982.57
762.765	25704.61
763.102	25907.54
763.438	25712.52
763.775	25594.78
764.112	25632.74
764.449	25517.72
764.785	25395.24
765.122	25406.08
765.458	25184.62
765.795	25134.23
766.131	25243.15
766.467	25072.08
766.804	24886.1
767.14	24859.21
767.476	24858.98
767.812	24681.58
768.148	24797.06
768.485	24588.03
768.821	24457.18
769.157	24510.51
769.492	24461.48
769.828	24443.85
770.164	24193.23
770.5	24044.54
770.836	24034.37
771.171	23844.32
771.507	23885.9
771.842	23623.76
772.178	23715.73
772.513	23745.11
772.849	23609.29
773.184	23413.37
773.519	23362.75
773.855	23394.16
774.19	23332.24
774.525	23138.12
774.86	23251.56
775.195	23123.21
775.53	23068.07
775.865	22885.02
776.2	22664.91
776.535	22549.44
776.87	22605.48
777.205	22466.95
777.539	22373.17
777.874	22437.12
778.209	22224.02
778.543	22173.4
778.878	22029.67
779.212	22047.53
779.547	22024.03
779.881	21921.43
780.215	21736.8
780.55	21902.67
780.884	21622.45
781.218	21636.01
781.552	21640.31
781.886	21508.56
782.22	21290.94
782.554	21265.63
782.888	21146.53
783.222	21046.2
783.556	20960.78
783.889	20850.72
784.223	20756.26
784.557	20757.84
784.89	20755.13
785.224	20641.91
785.557	20587.68
785.891	20465.42
786.224	20377.97
786.558	20332.77
786.891	20279.44
787.224	20208.48
787.557	20066.56
787.891	20077.86
788.224	20048.48
788.557	20037.41
788.89	19975.27
789.223	19890.52
789.556	19695.05
789.888	19697.98
790.221	19543.41
790.554	19452.79
790.887	19566.69
791.219	19271.1
791.552	19360.14
791.884	19268.62
792.217	19211.9
792.549	19217.55
792.882	18967.38
793.214	18933.26
793.546	18949.53
793.879	18763.77
794.211	18638.35
794.543	18808.06
794.875	18695.53
795.207	18818.91
795.539	18563.1
795.871	18520.39
796.203	18437.45
796.535	18436.32
796.867	18292.15
797.198	18322.43
797.53	18229.1
797.862	18088.54
798.193	18193.17
798.525	18014.64
798.856	18078.59
799.188	17902.55
799.519	17857.58
799.85	17683.8
800.182	17762.44
800.513	17763.35
800.844	17525.39
801.175	17606.97
801.506	17599.73
801.837	17488.78
802.168	17543.01
802.499	17439.29
802.83	17293.53
803.161	17260.76
803.491	17178.73
803.822	17218.28
804.153	17083.36
804.483	16938.06
804.814	16929.02
805.145	16929.02
805.475	17001.56
805.805	16823.26
806.136	16861
806.466	16856.93
806.796	16823.26
807.126	16612.64
807.457	16622.81
807.787	16536.71
808.117	16461.23
808.447	16399.09
808.777	16411.74
809.107	16392.31
809.436	16311.63
809.766	16276.61
810.096	16217.85
810.426	16239.77
810.755	16198.64
811.085	16134.91
811.414	16107.8
811.744	15945.99
812.073	16000.45
812.403	15946.9
812.732	15918.88
813.061	15969.72
813.39	15733.57
813.719	15825.09
814.049	15816.51
814.378	15763.85
814.707	15608.15
815.036	15576.96
815.365	15607.24
815.693	15428.27
816.022	15404.09
816.351	15392.79
816.68	15314.6
817.008	15364.99
817.337	15228.5
817.665	15214.94
817.994	15227.37
818.322	15172.23
818.651	15156.64
818.979	15076.19
819.307	15156.86
819.636	15060.37
819.964	15034.15
820.292	15077.09
820.62	15026.47
820.948	14962.06
821.276	15063.53
821.604	14973.59
821.932	14982.18
822.259	14976.75
822.587	14951.22
822.915	14930.65
823.243	14909.64
823.57	14929.07
823.898	14907.38
824.225	14886.13
824.553	14864.89
824.88	14876.19
825.207	14908.73
825.535	14828.73
825.862	14833.48
826.189	14828.28
826.516	14911.22
826.843	14874.16
827.17	14983.08
827.497	14910.99
827.824	14915.29
828.151	14910.54
828.478	14785.12
828.805	14855.17
829.131	14899.69
829.458	14841.62
829.785	14784.44
830.111	14781.05
830.438	14934.95
830.764	14878.22
831.09	14856.3
831.417	14785.57
831.743	14825.8
832.069	14796.42
832.395	14749.41
832.722	14804.1
833.048	14727.95
833.374	14761.62
833.7	14648.85
834.026	14678.91
834.351	14702.18
834.677	14698.57
835.003	14686.59
835.329	14661.06
835.654	14724.78
835.98	14626.93
836.306	14655.41
836.631	14504.45
836.956	14583.77
837.282	14552.58
837.607	14433.26
837.932	14485.69
838.258	14418.35
838.583	14453.6
838.908	14398.69
839.233	14416.09
839.558	14349.42
839.883	14344
840.208	14282.31
840.533	14242.31
840.858	14295.42
841.182	14134.97
841.507	14214.97
841.832	14168.64
842.156	14216.1
842.481	14151.92
842.805	14183.1
843.13	14113.5
843.454	14015.65
843.778	14011.13
844.103	14040.96
844.427	13916.67
844.751	13881.41
845.075	13871.7
845.399	13859.49
845.723	13785.82
846.047	13751.25
846.371	13644.36
846.695	13629.67
847.019	13602.78
847.343	13545.38
847.666	13382.67
847.99	13298.83
848.313	13290.47
848.637	13327.76
848.96	13226.97
849.284	13254.99
849.607	13164.15
849.931	13059.06
850.254	12965.05
850.577	12919.18
850.9	12865.85
851.223	12870.82
851.546	12744.04
851.869	12639.19
852.192	12741.11
852.515	12635.35
852.838	12568.91
853.161	12612.75
853.483	12474.22
853.806	12415.69
854.129	12401.23
854.451	12377.05
854.774	12337.5
855.096	12303.15
855.419	12323.72
855.741	12201.91
856.063	12160.56
856.385	12103.83
856.708	12041.24
857.03	11977.74
857.352	12080.78
857.674	12055.7
857.996	11945.65
858.318	11891.86
858.64	11869.72
858.961	11792.88
859.283	11812.54
859.605	11686.67
859.926	11771.64
860.248	11709.04
860.57	11648.25
860.891	11654.81
861.212	11639.44
861.534	11645.32
861.855	11543.62
862.176	11546.33
862.498	11624.52
862.819	11561.25
863.14	11506.79
863.461	11526.22
863.782	11441.25
864.103	11369.84
864.424	11401.25
864.745	11416.17
865.065	11303.18
865.386	11271.99
865.707	11288.49
866.027	11281.48
866.348	11268.15
866.668	11258.43
866.989	11220.47
867.309	11137.31
867.63	11204.2
867.95	11181.37
868.27	11087.14
868.59	11163.29
868.91	11021.6
869.23	11073.13
869.55	11044.65
869.87	11088.49
870.19	11071.55
870.51	11050.75
870.83	11052.56
871.15	10968.27
871.469	10935.5
871.789	10917.42
872.109	10916.07
872.428	10838.56
872.748	10836.07
873.067	10860.25
873.386	10864.54
873.706	10868.16
874.025	10809.18
874.344	10771.44
874.663	10825
874.982	10755.62
875.301	10783.42
875.62	10672.01
875.939	10706.36
876.258	10673.14
876.577	10648.96
876.896	10622.52
877.214	10562.18
877.533	10678.34
877.852	10542.75
878.17	10575.74
878.489	10553.82
878.807	10566.02
879.125	10541.39
879.444	10527.38
879.762	10461.62
880.08	10457.32
880.398	10521.95
880.716	10440.83
881.034	10423.2
881.352	10382.52
881.67	10404.9
881.988	10347.95
882.306	10338.91
882.624	10317.21
882.941	10280.38
883.259	10151.12
883.577	10207.61
883.894	10256.2
884.212	10151.8
884.529	10172.36
884.846	10159.93
885.164	10130.78
885.481	10121.51
885.798	10087.62
886.115	10038.58
886.432	10004
886.75	9990.22
887.067	9938.69
887.383	9855.98
887.7	9940.05
888.017	9817.34
888.334	9975.98
888.651	9803.78
888.967	9867.06
889.284	9800.17
889.6	9754.74
889.917	9784.35
890.233	9695.31
890.55	9662.77
890.866	9676.33
891.182	9592.26
891.498	9535.54
891.815	9560.85
892.131	9533.05
892.447	9523.11
892.763	9409.89
893.079	9478.14
893.395	9470.46
893.71	9434.53
894.026	9380.06
894.342	9405.6
894.657	9277.92
894.973	9289.45
895.289	9245.6
895.604	9252.38
895.92	9173.97
896.235	9157.7
896.55	9142.56
896.865	9134.19
897.181	9079.96
897.496	9070.24
897.811	9019.85
898.126	8950.24
898.441	8939.17
898.756	8983.46
899.071	8833.64
899.386	8874.09
899.7	8782.11
900.015	8768.33
900.33	8696.92
900.644	8775.56
900.959	8724.71
901.273	8695.56
901.588	8605.17
901.902	8568.11
902.216	8538.05
902.531	8496.7
902.845	8542.8
903.159	8486.75
903.473	8468.45
903.787	8475.23
904.101	8417.38
904.415	8415.12
904.729	8401.56
905.042	8289.02
905.356	8315.23
905.67	8244.5
905.984	8231.17
906.297	8241.56
906.611	8154.56
906.924	8141.45
907.237	8137.16
907.551	8088.57
907.864	8039.31
908.177	8049.48
908.491	7980.78
908.804	7903.72
909.117	7890.16
909.43	7836.15
909.743	7838.41
910.056	7850.84
910.368	7775.81
910.681	7686.32
910.994	7677.74
911.307	7657.17
911.619	7607
911.932	7672.09
912.244	7619.66
912.557	7572.88
912.869	7543.73
913.181	7478.19
913.494	7475.48
913.806	7367.69
914.118	7355.71
914.43	7322.72
914.742	7351.19
915.054	7282.94
915.366	7260.12
915.678	7194.81
915.99	7231.19
916.302	7159.11
916.613	7160.69
916.925	7157.3
917.236	7113.23
917.548	7072.55
917.859	7042.05
918.171	7009.73
918.482	6966.79
918.794	6930.64
919.105	6962.95
919.416	6888.6
919.727	6874.37
920.038	6825.55
920.349	6763.86
920.66	6744.88
920.971	6763.64
921.282	6727.93
921.593	6681.15
921.903	6644.32
922.214	6565.9
922.525	6610.42
922.835	6618.33
923.146	6496.3
923.456	6530.2
923.767	6481.84
924.077	6449.75
924.387	6465.79
924.697	6432.34
925.008	6382.18
925.318	6377.21
925.628	6347.6
925.938	6332.69
926.248	6287.72
926.558	6249.98
926.867	6208.17
927.177	6219.02
927.487	6202.07
927.796	6103.77
928.106	6161.39
928.416	6065.35
928.725	6047.72
929.034	6010.44
929.344	6013.6
929.653	6041.62
929.962	5970.89
930.271	5925.01
930.581	5922.53
930.89	5887.27
931.199	5858.12
931.508	5848.63
931.817	5834.17
932.125	5823.55
932.434	5801.63
932.743	5736.09
933.051	5696.09
933.36	5756.66
933.669	5613.16
933.977	5586.27
934.286	5651.8
934.594	5619.26
934.902	5518.24
935.21	5537.68
935.519	5511.69
935.827	5514.85
936.135	5463.1
936.443	5448.19
936.751	5464.01
937.059	5452.94
937.367	5408.42
937.674	5373.84
937.982	5400.06
938.29	5293.62
938.597	5325.26
938.905	5249.78
939.213	5179.04
939.52	5237.35
939.827	5202.55
940.135	5158.93
940.442	5190.34
940.749	5161.87
941.056	5156.9
941.363	5107.41
941.67	5094.3
941.977	5055.43
942.284	5022.66
942.591	5022.89
942.898	4982.89
943.205	4956.45
943.511	4974.53
943.818	4966.85
944.125	4908.77
944.431	4906.28
944.738	4838.71
945.044	4853.63
945.35	4845.27
945.657	4812.73
945.963	4763.01
946.269	4747.19
946.575	4761.65
946.881	4737.7
947.187	4675.56
947.493	4628.1
947.799	4642.79
948.105	4672.62
948.41	4629.23
948.716	4617.03
949.022	4575.44
949.327	4571.6
949.633	4484.15
949.938	4538.84
950.244	4533.19
950.549	4451.15
950.854	4528.89
951.16	4463.13
951.465	4410.93
951.77	4425.62
952.075	4404.83
952.38	4346.3
952.685	4373.87
952.99	4291.84
953.294	4324.83
953.599	4269.69
953.904	4245.51
954.209	4229.24
954.513	4228.11
954.818	4223.36
955.122	4196.25
955.426	4170.26
955.731	4147.21
956.035	4130.71
956.339	4113.31
956.643	4095.23
956.948	4048.68
957.252	4073.99
957.556	4073.99
957.86	4022.92
958.163	4038.74
958.467	3991.96
958.771	4052.75
959.075	3939.3
959.378	3930.04
959.682	3970.94
959.985	3908.34
960.289	3896.14
960.592	3883.49
960.896	3870.83
961.199	3886.88
961.502	3841.68
961.805	3818.18
962.108	3815.46
962.411	3758.29
962.714	3765.75
963.017	3732.3
963.32	3712.42
963.623	3744.73
963.926	3671.29
964.228	3680.33
964.531	3658.63
964.833	3656.37
965.136	3649.82
965.438	3626.09
965.741	3608.46
966.043	3568.69
966.345	3560.1
966.648	3583.38
966.95	3549.71
967.252	3534.57
967.554	3521.69
967.856	3515.59
968.158	3426.55
968.46	3453.21
968.761	3440.79
969.063	3461.8
969.365	3432.65
969.666	3407.34
969.968	3409.83
970.269	3396.27
970.571	3350.39
970.872	3315.14
971.174	3329.38
971.475	3307.91
971.776	3308.13
972.077	3302.48
972.378	3289.83
972.679	3275.59
972.98	3255.93
973.281	3244.41
973.582	3215.25
973.883	3207.35
974.183	3207.35
974.484	3178.42
974.785	3161.92
975.085	3161.24
975.386	3125.54
975.686	3097.29
975.986	3089.83
976.287	3087.35
976.587	3089.16
976.887	3058.65
977.187	3057.52
977.487	3027.01
977.787	3041.7
978.087	3034.92
978.387	2984.07
978.687	2988.59
978.987	2981.59
979.286	2951.31
979.586	2952.66
979.885	2972.77
980.185	2895.49
980.484	2928.93
980.784	2884.42
981.083	2857.52
981.382	2844.87
981.682	2852.33
981.981	2816.17
982.28	2877.18
982.579	2801.71
982.878	2814.14
983.177	2787.24
983.475	2790.86
983.774	2773.23
984.073	2741.82
984.372	2735.95
984.67	2713.12
984.969	2758.77
985.267	2716.06
985.566	2710.41
985.864	2682.61
986.162	2670.41
986.461	2655.04
986.759	2646.91
987.057	2627.93
987.355	2590.41
987.653	2627.7
987.951	2590.19
988.249	2590.19
988.547	2563.29
988.844	2605.33
989.142	2550.87
989.44	2556.06
989.737	2569.4
990.035	2519.23
990.332	2498.66
990.63	2471.09
990.927	2478.78
991.224	2477.19
991.521	2457.08
991.819	2467.25
992.116	2440.59
992.413	2458.89
992.71	2397.2
993.006	2401.94
993.303	2412.11
993.6	2370.08
993.897	2331.66
994.193	2374.82
994.49	2358.55
994.787	2331.44
995.083	2328.72
995.379	2341.83
995.676	2315.39
995.972	2307.26
996.268	2288.95
996.565	2259.35
996.861	2243.53
997.157	2275.84
997.453	2242.4
997.749	2233.81
998.044	2236.75
998.34	2187.71
998.636	2183.42
998.932	2182.06
999.227	2191.1
999.523	2188.16
999.818	2182.74
1000.114	2150.88
1000.409	2105
1000.704	2122.63
1001	2094.61
1001.295	2062.52
1001.59	2074.95
1001.885	2029.75
1002.18	2041.27
1002.475	2069.75
1002.77	2025.23
1003.065	2025.68
1003.359	2016.19
1003.654	2046.02
1003.949	1990.65
1004.243	1987.04
1004.538	1946.81
1004.832	1964.67
1005.127	1968.96
1005.421	1934.84
1005.715	1920.15
1006.009	1927.38
1006.304	1877.66
1006.598	1880.6
1006.892	1884.22
1007.186	1853.48
1007.48	1914.72
1007.773	1867.95
1008.067	1837.44
1008.361	1851.45
1008.655	1804.22
1008.948	1804.44
1009.242	1798.34
1009.535	1799.92
1009.829	1809.42
1010.122	1775.29
1010.415	1775.52
1010.708	1761.96
1011.001	1748.4
1011.295	1745.69
1011.588	1757.21
1011.881	1714.95
1012.173	1698.23
1012.466	1731.45
1012.759	1697.78
1013.052	1683.77
1013.344	1644.45
1013.637	1674.28
1013.93	1672.02
1014.222	1643.77
1014.514	1605.58
1014.807	1583.66
1015.099	1601.29
1015.391	1601.29
1015.683	1590.21
1015.976	1557.67
1016.268	1570.1
1016.56	1587.27
1016.851	1604
1017.143	1565.13
1017.435	1558.57
1017.727	1554.28
1018.018	1520.61
1018.31	1506.82
1018.602	1503.21
1018.893	1498.24
1019.185	1451.23
1019.476	1479.25
1019.767	1457.79
1020.058	1433.15
1020.35	1425.02
1020.641	1403.1
1020.932	1441.29
1021.223	1428.86
1021.514	1440.39
1021.804	1411.69
1022.095	1388.64
1022.386	1367.85
1022.677	1381.63
1022.967	1344.34
1023.258	1328.52
1023.548	1356.32
1023.839	1338.47
1024.129	1341.86
1024.419	1295.53
1024.709	1314.97
1025	1296.21
1025.29	1296.43
1025.58	1284.91
1025.87	1282.2
1026.16	1277.45
1026.449	1256.89
1026.739	1226.15
1027.029	1267.74
1027.319	1225.25
1027.608	1195.19
1027.898	1215.98
1028.187	1202.88
1028.477	1181.41
1028.766	1188.87
1029.055	1200.17
1029.344	1188.64
1029.634	1186.38
1029.923	1147.96
1030.212	1157
1030.501	1154.52
1030.79	1141.41
1031.078	1138.47
1031.367	1104.12
1031.656	1113.16
1031.945	1126.04
1032.233	1106.38
1032.522	1102.32
1032.81	1089.21
1033.099	1094.18
1033.387	1079.04
1033.675	1069.32
1033.963	1068.64
1034.251	1059.15
1034.54	1039.72
1034.828	1019.83
1035.116	1036.78
1035.403	1027.29
1035.691	1014.18
1035.979	1016.22
1036.267	1023
1036.554	987.97
1036.842	1017.57
1037.129	994.07
1037.417	960.4
1037.704	994.07
1037.992	959.72
1038.279	980.06
1038.566	968.53
1038.853	968.53
1039.14	968.53
