Data from hue_100_FLMS001491_00053.txt Node
Date: Tue Feb 07 17:03:22 GMT 2017
User: dcchb
Spectrometer: FLMS00149
Trigger mode: 0
Integration Time (sec): 2.000000E-2
Scans to average: 10
Electric dark correction enabled: true
Nonlinearity correction enabled: false
Boxcar width: 0
XAxis mode: Wavelengths
Number of Pixels in Spectrum: 2048
>>>>>Begin Spectral Data<<<<<
341.393	-24.29
341.776	-24.29
342.16	-24.29
342.543	-44.41
342.927	-81.24
343.31	-69.72
343.693	-56.38
344.077	-60.68
344.46	-45.54
344.843	-53.44
345.226	-53.9
345.61	-25.2
345.993	-4.18
346.376	-3.73
346.759	1.02
347.142	13.45
347.525	31.07
347.908	49.38
348.291	75.37
348.674	85.99
349.057	116.49
349.44	129.6
349.823	131.18
350.206	163.72
350.588	194.91
350.971	208.24
351.354	197.85
351.737	229.71
352.119	229.49
352.502	248.92
352.884	301.8
353.267	280.56
353.65	268.58
354.032	267.68
354.414	307.45
354.797	322.82
355.179	314.68
355.562	299.31
355.944	325.53
356.326	344.51
356.709	348.13
357.091	339.77
357.473	337.05
357.855	343.15
358.238	355.81
358.62	327.56
359.002	328.01
359.384	341.57
359.766	321.23
360.148	350.84
360.53	335.02
360.912	334.57
361.294	332.53
361.676	314.23
362.057	334.34
362.439	336.15
362.821	326.21
363.203	327.34
363.584	333.66
363.966	342.7
364.348	349.93
364.729	317.39
365.111	335.92
365.493	310.84
365.874	304.96
366.256	319.65
366.637	339.77
367.019	299.31
367.4	315.36
367.781	308.13
368.163	312.42
368.544	310.84
368.925	322.59
369.306	319.88
369.688	305.87
370.069	310.61
370.45	309.94
370.831	322.36
371.212	338.86
371.593	330.27
371.974	313.55
372.355	313.55
372.736	304.29
373.117	318.3
373.498	314.68
373.879	312.65
374.26	319.43
374.641	311.07
375.021	328.69
375.402	327.11
375.783	318.97
376.163	337.73
376.544	333.66
376.925	341.35
377.305	330.5
377.686	313.1
378.066	338.18
378.447	333.89
378.827	327.34
379.208	355.58
379.588	327.56
379.968	351.74
380.349	346.54
380.729	344.96
381.109	340.22
381.489	341.12
381.87	340.22
382.25	347.45
382.63	346.54
383.01	343.15
383.39	322.14
383.77	363.49
384.15	339.77
384.53	356.71
384.91	361.01
385.29	350.61
385.67	355.36
386.049	364.17
386.429	365.3
386.809	348.8
387.189	369.59
387.568	376.37
387.948	349.93
388.328	383.83
388.707	360.78
389.087	376.37
389.466	365.53
389.846	345.87
390.225	372.76
390.605	400.1
390.984	360.78
391.363	372.31
391.743	360.78
392.122	390.39
392.501	379.99
392.881	392.19
393.26	383.15
393.639	393.32
394.018	365.75
394.397	382.93
394.776	413.89
395.155	405.75
395.534	381.12
395.913	382.25
396.292	401.23
396.671	413.89
397.05	402.59
397.429	391.29
397.808	401.23
398.186	389.71
398.565	404.17
398.944	425.19
399.323	388.8
399.701	387
400.08	404.17
400.458	417.5
400.837	417.73
401.215	423.83
401.594	424.06
401.972	413.89
402.351	415.24
402.729	411.18
403.107	421.57
403.486	431.97
403.864	422.25
404.242	442.59
404.62	419.99
404.999	429.71
405.377	442.14
405.755	436.71
406.133	416.37
406.511	435.13
406.889	433.77
407.267	448.46
407.645	448.01
408.023	431.74
408.401	439.65
408.779	459.08
409.156	440.78
409.534	449.14
409.912	462.25
410.29	461.34
410.667	493.21
411.045	485.3
411.422	476.48
411.8	493.21
412.178	477.16
412.555	495.69
412.933	509.25
413.31	506.54
413.687	490.95
414.065	491.85
414.442	486.65
414.819	496.15
415.197	513.32
415.574	519.87
415.951	527.78
416.328	508.8
416.705	535.92
417.082	521.46
417.46	550.61
417.837	526.65
418.214	530.27
418.591	512.42
418.967	542.25
419.344	561
419.721	561.68
420.098	542.47
420.475	558.29
420.852	545.41
421.228	561.68
421.605	572.3
421.982	556.71
422.358	570.27
422.735	564.62
423.111	587.89
423.488	557.61
423.864	585.18
424.241	601.23
424.617	604.84
424.994	603.26
425.37	607.55
425.746	608.68
426.123	609.59
426.499	586.99
426.875	632.64
427.251	624.96
427.627	632.41
428.003	645.97
428.379	636.25
428.756	628.35
429.132	638.74
429.507	651.62
429.883	652.3
430.259	665.41
430.635	654.11
431.011	669.02
431.387	659.53
431.763	700.66
432.138	692.3
432.514	697.27
432.89	697.27
433.265	715.57
433.641	706.54
434.016	723.03
434.392	721.45
434.767	748.34
435.143	725.52
435.518	726.42
435.894	747.89
436.269	756.93
436.644	766.19
437.02	770.71
437.395	771.17
437.77	775.69
438.145	788.34
438.52	793.31
438.895	827.44
439.271	817.27
439.646	820.43
440.021	813.2
440.395	808.91
440.77	820.2
441.145	823.82
441.52	830.15
441.895	819.3
442.27	848.45
442.645	890.94
443.019	859.53
443.394	875.34
443.769	886.42
444.143	862.46
444.518	862.69
444.892	895.46
445.267	869.92
445.641	906.98
446.016	909.92
446.39	892.29
446.764	874.21
447.139	914.67
447.513	916.25
447.887	923.93
448.262	942.69
448.636	927.32
449.01	935.91
449.384	928.22
449.758	946.08
450.132	968.22
450.506	975.68
450.88	939.98
451.254	963.25
451.628	993.31
452.002	1011.61
452.376	1002.8
452.75	1011.16
453.123	1037.83
453.497	1039.86
453.871	1037.83
454.244	1070.37
454.618	1086.41
454.992	1095.9
455.365	1092.74
455.739	1115.56
456.112	1101.1
456.486	1150.37
456.859	1128.9
457.232	1160.99
457.606	1155.34
457.979	1176.35
458.352	1201.21
458.725	1202.79
459.099	1220.19
459.472	1233.98
459.845	1236.24
460.218	1255.9
460.591	1264.94
460.964	1262.23
461.337	1324.82
461.71	1295.9
462.083	1342.45
462.456	1346.97
462.829	1351.49
463.201	1373.41
463.574	1373.41
463.947	1385.16
464.32	1438.04
464.692	1467.87
465.065	1470.58
465.438	1470.58
465.81	1509.68
466.183	1497.93
466.555	1543.58
466.928	1579.28
467.3	1577.02
467.672	1631.93
468.045	1644.36
468.417	1666.96
468.789	1706.51
469.161	1709.22
469.534	1726.4
469.906	1777.92
470.278	1810.91
470.65	1814.75
471.022	1859.5
471.394	1885.94
471.766	1900.85
472.138	1960.51
472.51	2013.62
472.882	2027.63
473.253	2092.26
473.625	2113.05
473.997	2193.28
474.369	2171.13
474.74	2248.87
475.112	2317.34
475.484	2387.39
475.855	2377.23
476.227	2460.16
476.598	2534.28
476.97	2554.17
477.341	2648.4
477.713	2717.56
478.084	2744
478.455	2881.85
478.827	2897.89
479.198	2995.51
479.569	3026.47
479.94	3159.58
480.311	3199.35
480.682	3328.61
481.053	3433.92
481.424	3488.16
481.795	3592.33
482.166	3678.43
482.537	3750.75
482.908	3881.37
483.279	4006.56
483.65	4088.37
484.021	4195.26
484.391	4327.23
484.762	4415.36
485.133	4503.72
485.503	4573.33
485.874	4760.44
486.244	4838.4
486.615	4984.16
486.985	5138.96
487.356	5281.56
487.726	5394.32
488.097	5511.83
488.467	5609.91
488.837	5767.42
489.207	5919.05
489.578	6069.11
489.948	6149.33
490.318	6368.31
490.688	6399.49
491.058	6550.22
491.428	6774.17
491.798	6855.53
492.168	7032.47
492.538	7139.59
492.908	7285.12
493.278	7403.08
493.648	7566.69
494.017	7713.13
494.387	7873.13
494.757	7941.15
495.126	8142.5
495.496	8206.68
495.866	8381.14
496.235	8454.13
496.605	8609.83
496.974	8784.29
497.344	8931.4
497.713	8983.38
498.082	9126.2
498.452	9238.74
498.821	9302.02
499.19	9436.25
499.559	9608
499.928	9708.78
500.298	9823.13
500.667	9974.31
501.036	10001.43
501.405	10115.55
501.774	10212.73
502.143	10290.01
502.512	10304.47
502.88	10587.18
503.249	10550.8
503.618	10678.25
503.987	10683.9
504.356	10840.28
504.724	10978.81
505.093	11035.76
505.462	11033.5
505.83	11170.21
506.199	11266.94
506.567	11414.95
506.936	11429.42
507.304	11579.02
507.672	11604.33
508.041	11695.17
508.409	11874.6
508.777	11883.42
509.145	12060.13
509.514	11996.63
509.882	12069.17
510.25	12130.19
510.618	12207.25
510.986	12203.41
511.354	12365.44
511.722	12412.44
512.09	12451.31
512.458	12553.68
512.826	12590.52
513.193	12673.45
513.561	12692.89
513.929	12835.26
514.297	12883.62
514.664	12902.82
515.032	12950.96
515.4	13051.75
515.767	13103.95
516.135	13129.71
516.502	13052.43
516.869	13266.43
517.237	13345.52
517.604	13193.44
517.972	13322.25
518.339	13316.37
518.706	13287.45
519.073	13383.72
519.44	13421.91
519.808	13475.92
520.175	13468.46
520.542	13632.07
520.909	13685.63
521.276	13696.25
521.643	13746.64
522.009	13773.08
522.376	13752.52
522.743	13896.92
523.11	13955.45
523.477	14057.14
523.843	14020.99
524.21	14148.67
524.577	14211.49
524.943	14220.08
525.31	14237.7
525.676	14376.68
526.043	14335.33
526.409	14267.53
526.776	14419.62
527.142	14346.4
527.508	14408.1
527.874	14503.23
528.241	14403.58
528.607	14554.76
528.973	14521.77
529.339	14467.98
529.705	14518.38
530.071	14635.43
530.437	14654.87
530.803	14653.06
531.169	14618.71
531.535	14689.44
531.901	14638.15
532.267	14641.76
532.632	14638.6
532.998	14636.34
533.364	14634.3
533.73	14663.46
534.095	14755.43
534.461	14631.59
534.826	14650.12
535.192	14629.11
535.557	14679.95
535.923	14555.21
536.288	14626.4
536.653	14656.22
537.019	14585.04
537.384	14555.89
537.749	14587.07
538.114	14561.76
538.479	14475.89
538.845	14463.46
539.21	14387.53
539.575	14380.07
539.94	14360.41
540.305	14412.84
540.67	14357.93
541.034	14279.51
541.399	14280.19
541.764	14299.4
542.129	14243.13
542.494	14221.66
542.858	14279.29
543.223	14213.75
543.587	14199.51
543.952	14079.29
544.316	14164.26
544.681	14111.61
545.045	14135.79
545.41	14066.64
545.774	14061.66
546.138	14025.28
546.503	14034.09
546.867	13971.95
547.231	13946.19
547.595	13904.83
547.959	13962.23
548.324	13809.47
548.688	13753.88
549.052	13826.19
549.416	13773.54
549.779	13789.81
550.143	13802.91
550.507	13766.76
550.871	13690.37
551.235	13593.43
551.599	13767.43
551.962	13618.06
552.326	13701.67
552.689	13689.47
553.053	13607.89
553.417	13533.77
553.78	13581.9
554.143	13512.75
554.507	13564.95
554.87	13615.8
555.234	13678.85
555.597	13531.51
555.96	13440.89
556.323	13503.71
556.686	13511.17
557.05	13669.81
557.413	13415.58
557.776	13535.35
558.139	13504.62
558.502	13491.28
558.865	13429.82
559.228	13570.6
559.59	13440.44
559.953	13423.94
560.316	13594.11
560.679	13522.24
561.041	13632.97
561.404	13594.56
561.767	13621
562.129	13464.84
562.492	13582.13
562.854	13588.46
563.217	13540.77
563.579	13442.02
563.941	13589.81
564.304	13593.65
564.666	13718.62
565.028	13649.25
565.39	13658.06
565.753	13738.73
566.115	13722.01
566.477	13712.07
566.839	13720.2
567.201	13768.79
567.563	13725.63
567.925	13907.09
568.287	13845.17
568.648	13900.31
569.01	13814.67
569.372	13884.49
569.734	13833.2
570.095	13879.97
570.457	13965.17
570.819	13985.73
571.18	13954.55
571.542	14035.9
571.903	13981.67
572.265	14071.61
572.626	14048.56
572.987	14001.33
573.349	13990.48
573.71	14049.69
574.071	14057.14
574.432	14075.9
574.794	14155.67
575.155	14189.8
575.516	13988.45
575.877	14133.3
576.238	14063.47
576.599	13990.48
576.96	14117.03
577.32	14035
577.681	14103.47
578.042	14174.88
578.403	14184.37
578.763	14089.01
579.124	14139.85
579.485	14210.13
579.845	14226.63
580.206	14158.38
580.566	14217.59
580.927	14113.41
581.287	14244.48
581.648	14128.78
582.008	14216.46
582.368	14110.93
582.728	14139.18
583.089	14163.58
583.449	14136.92
583.809	14211.94
584.169	14161.32
584.529	14052.85
584.889	14222.56
585.249	14073.87
585.609	14092.85
585.969	14144.83
586.329	14137.82
586.688	14120.87
587.048	14057.82
587.408	14027.31
587.768	14060.53
588.127	14045.39
588.487	14045.17
588.846	14131.04
589.206	13975.11
589.565	13983.25
589.925	14058.05
590.284	14094.43
590.643	14006.98
591.003	14006.98
591.362	14040.2
591.721	13981.21
592.08	14075.68
592.44	13994.77
592.799	14027.09
593.158	13916.36
593.517	14002.23
593.876	14007.43
594.235	13979.18
594.593	13870.48
594.952	13940.31
595.311	13877.49
595.67	13915.91
596.029	14011.72
596.387	14002.23
596.746	14018.73
597.104	13876.13
597.463	13891.73
597.822	13939.86
598.18	13848.79
598.538	13876.13
598.897	13912.97
599.255	13827.09
599.613	14004.26
599.972	13839.3
600.33	13952.06
600.688	13847.21
601.046	13945.28
601.404	13905.51
601.762	13900.54
602.12	13943.25
602.478	13925.85
602.836	13915.91
603.194	13838.85
603.552	13850.82
603.91	13856.02
604.268	13897.15
604.625	13759.98
604.983	13922.46
605.341	13822.35
605.698	13884.27
606.056	13990.48
606.413	13876.13
606.771	13894.21
607.128	13910.71
607.485	13833.2
607.843	13866.42
608.2	13995
608.557	13985.96
608.914	13864.83
609.272	13969.92
609.629	14021.89
609.986	13947.09
610.343	14044.94
610.7	14050.82
611.057	14100.99
611.414	14141.66
611.771	14107.54
612.127	14124.94
612.484	14069.8
612.841	14127.2
613.198	14089.46
613.554	14109.57
613.911	14225.5
614.267	14114.54
614.624	14129.91
614.98	14116.13
615.337	14246.97
615.693	14194.77
616.05	14203.36
616.406	14303.01
616.762	14153.64
617.118	14211.49
617.475	14180.31
617.831	14256.91
618.187	14383.92
618.543	14259.63
618.899	14402.67
619.255	14301.21
619.611	14315.89
619.967	14376.23
620.323	14410.58
620.678	14322.67
621.034	14268.44
621.39	14277.25
621.746	14282.45
622.101	14319.96
622.457	14215.78
622.812	14352.73
623.168	14406.97
623.523	14403.12
623.879	14394.31
624.234	14225.73
624.589	14385.27
624.945	14335.1
625.3	14364.26
625.655	14327.65
626.01	14329
626.365	14350.24
626.72	14377.36
627.075	14365.84
627.43	14239.51
627.785	14267.53
628.14	14245.16
628.495	14237.48
628.85	14311.83
629.205	14281.77
629.559	14333.3
629.914	14190.02
630.269	14295.78
630.623	14232.28
630.978	14216.91
631.332	14253.98
631.687	14278.61
632.041	14188.21
632.396	14185.28
632.75	14163.36
633.104	14199.29
633.459	14090.36
633.813	14153.64
634.167	14141.66
634.521	14072.96
634.875	14057.82
635.229	14054.43
635.583	13998.39
635.937	13988.45
636.291	14014.89
636.645	13966.75
636.999	13892.63
637.352	13934.66
637.706	13858.51
638.06	13956.36
638.413	13881.1
638.767	13829.13
639.121	13962.01
639.474	13738.28
639.828	13853.53
640.181	13842.91
640.534	13804.95
640.888	13792.07
641.241	13753.42
641.594	13779.86
641.947	13755.46
642.301	13745.97
642.654	13767.43
643.007	13830.26
643.36	13785.97
643.713	13717.49
644.066	13726.08
644.419	13656.25
644.771	13547.33
645.124	13453.09
645.477	13506.42
645.83	13479.53
646.182	13305.3
646.535	13329.03
646.888	13403.38
647.24	13246.77
647.593	13331.74
647.945	13315.24
648.298	13237.96
648.65	13230.5
649.002	13193.89
649.355	13308.92
649.707	13305.53
650.059	13300.33
650.411	13449.93
650.763	13494.67
651.115	13654.22
651.467	13563.37
651.819	13538.06
652.171	13536.93
652.523	13532.19
652.875	13540.1
653.227	13473.43
653.578	13591.17
653.93	13557.27
654.282	13521.79
654.633	13492.41
654.985	13501.9
655.337	13516.14
655.688	13575.35
656.039	13585.97
656.391	13483.6
656.742	13504.16
657.094	13471.85
657.445	13600.21
657.796	13462.58
658.147	13539.64
658.498	13461.23
658.849	13486.31
659.2	13569.47
659.551	13485.86
659.902	13547.1
660.253	13472.75
660.604	13458.97
660.955	13449.02
661.306	13538.97
661.656	13558.17
662.007	13551.85
662.358	13530.83
662.708	13596.82
663.059	13549.81
663.409	13455.35
663.76	13483.6
664.11	13635.91
664.461	13599.08
664.811	13619.42
665.161	13622.35
665.511	13509.81
665.862	13556.82
666.212	13621.22
666.562	13540.77
666.912	13511.17
667.262	13553.43
667.612	13527.67
667.962	13522.92
668.312	13494.22
668.662	13647.66
669.011	13572.86
669.361	13557.04
669.711	13563.82
670.06	13497.16
670.41	13522.24
670.76	13484.28
671.109	13508.46
671.459	13378.97
671.808	13464.39
672.157	13552.3
672.507	13376.71
672.856	13425.3
673.205	13453.54
673.554	13415.13
673.904	13439.53
674.253	13513.66
674.602	13423.49
674.951	13216.49
675.3	13146.89
675.649	13343.04
675.998	13395.47
676.346	13375.35
676.695	13425.07
677.044	13344.85
677.393	13399.76
677.741	13307.56
678.09	13324.06
678.438	13268.92
678.787	13266.2
679.135	13281.12
679.484	13197.05
679.832	13247.22
680.181	13185.75
680.529	13195.02
680.877	13094.68
681.225	13137.85
681.573	13200.44
681.922	13056.04
682.27	13118.19
682.618	13094.23
682.966	12980.34
683.314	13035.7
683.661	12946.21
684.009	12939.21
684.357	12869.15
684.705	12834.13
685.053	12926.78
685.4	12847.23
685.748	12771.3
686.095	12743.51
686.443	12740.79
686.79	12745.09
687.138	12669.16
687.485	12683.62
687.832	12623.06
688.18	12685.66
688.527	12588.48
688.874	12542.16
689.221	12518.2
689.568	12488.6
689.915	12442.5
690.262	12506.45
690.609	12475.94
690.956	12299.22
691.303	12307.36
691.65	12258.77
691.997	12254.03
692.344	12202.28
692.69	12152.34
693.037	12123.86
693.383	11999.35
693.73	12103.07
694.077	12016.29
694.423	12017.42
694.769	11904.66
695.116	11944.88
695.462	11961.38
695.808	11816.53
696.155	11846.36
696.501	11768.84
696.847	11719.35
697.193	11668.96
697.539	11642.52
697.885	11609.75
698.231	11547.83
698.577	11525.69
698.923	11487.95
699.269	11492.47
699.614	11407.72
699.96	11318.46
700.306	11381.73
700.651	11294.73
700.997	11285.24
701.342	11193.04
701.688	11145.58
702.033	11115.75
702.379	11112.59
702.724	11094.06
703.069	11109.43
703.415	10959.37
703.76	10932.25
704.105	10925.02
704.45	10851.35
704.795	10850.68
705.14	10753.5
705.485	10861.07
705.83	10773.16
706.175	10763.9
706.52	10723.67
706.865	10674.86
707.209	10603.68
707.554	10633.96
707.899	10673.28
708.243	10562.55
708.588	10556.9
708.932	10509.89
709.277	10448.2
709.621	10450.91
709.966	10375.89
710.31	10364.59
710.654	10276
710.998	10317.13
711.342	10336.56
711.687	10271.93
712.031	10205.95
712.375	10225.61
712.719	10183.57
713.063	10182.22
713.407	10178.6
713.75	10115.55
714.094	10123.24
714.438	10026.74
714.782	10084.59
715.125	10090.47
715.469	10061.54
715.812	9998.95
716.156	9996.01
716.499	9940.42
716.843	9951.94
717.186	9851.38
717.53	9914.65
717.873	9913.07
718.216	9918.5
718.559	9817.71
718.902	9825.84
719.246	9857.48
719.589	9770.25
719.932	9781.32
720.275	9703.13
720.617	9716.69
720.96	9698.84
721.303	9815.67
721.646	9711.27
721.989	9727.31
722.331	9739.74
722.674	9703.59
723.016	9694.77
723.359	9691.38
723.701	9740.87
724.044	9668.11
724.386	9638.73
724.729	9617.94
725.071	9600.76
725.413	9600.76
725.755	9593.31
726.097	9523.25
726.439	9524.38
726.782	9559.18
727.124	9584.49
727.465	9571.61
727.807	9494.33
728.149	9491.16
728.491	9522.8
728.833	9567.77
729.175	9520.31
729.516	9495
729.858	9486.42
730.199	9557.38
730.541	9469.69
730.882	9445.74
731.224	9484.38
731.565	9433.09
731.906	9496.13
732.248	9515.34
732.589	9371.17
732.93	9388.34
733.271	9453.2
733.612	9423.82
733.953	9479.64
734.294	9405.29
734.635	9431.05
734.976	9465.85
735.317	9379.98
735.658	9387.21
735.999	9434.89
736.339	9378.17
736.68	9504.72
737.021	9455.01
737.361	9460.2
737.702	9504.04
738.042	9414.1
738.383	9440.32
738.723	9500.2
739.063	9448.9
739.404	9573.42
739.744	9466.76
740.084	9496.36
740.424	9517.83
740.764	9539.52
741.104	9535
741.444	9519.41
741.784	9448.45
742.124	9631.95
742.464	9596.02
742.804	9518.05
743.143	9585.85
743.483	9665.17
743.823	9611.16
744.162	9617.94
744.502	9671.5
744.841	9684.6
745.181	9799.86
745.52	9756.01
745.86	9866.07
746.199	9875.79
746.538	9916.69
746.877	9967.08
747.216	10041.88
747.556	9942.45
747.895	10060.41
748.234	10096.12
748.573	10124.37
748.911	10221.09
749.25	10301.99
749.589	10339.05
749.928	10404.13
750.267	10539.95
750.605	10521.42
750.944	10594.18
751.283	10619.95
751.621	10762.77
751.96	10818.81
752.298	10875.53
752.636	11031.91
752.975	11081.4
753.313	11186.49
753.651	11300.15
753.989	11332.47
754.327	11439.59
754.666	11567.04
755.004	11691.56
755.342	11811.55
755.679	11960.93
756.017	11983.75
756.355	12306.91
756.693	12303.74
757.031	12516.85
757.368	12575.6
757.706	12767.46
758.044	12849.27
758.381	13044.06
758.719	13162.7
759.056	13342.59
759.394	13415.81
759.731	13574.22
760.068	13776.25
760.405	13868.67
760.743	13964.04
761.08	14236.8
761.417	14320.87
761.754	14531.71
762.091	14635.43
762.428	14824.81
762.765	14971.02
763.102	15155.65
763.438	15331.91
763.775	15372.82
764.112	15622.53
764.449	15800.6
764.785	15887.83
765.122	15959.47
765.458	16125.11
765.795	16279.23
766.131	16429.74
766.467	16544.54
766.804	16634.48
767.14	16735.27
767.476	16955.83
767.812	17009.38
768.148	17276.27
768.485	17206.44
768.821	17361.69
769.157	17464.96
769.492	17520.1
769.828	17629.03
770.164	17790.38
770.5	17840.1
770.836	17963.48
771.171	17937.72
771.507	18081.9
771.842	18120.77
772.178	18262.01
772.513	18294.1
772.849	18401.44
773.184	18377.93
773.519	18525.95
773.855	18521.66
774.19	18661.32
774.525	18690.69
774.86	18700.19
775.195	18814.76
775.53	18782.44
775.865	18828.77
776.2	18819.28
776.535	18820.64
776.87	18817.25
777.205	18896.57
777.539	18882.33
777.874	18962.78
778.209	18948.32
778.543	19026.51
778.878	19012.95
779.212	19116.9
779.547	18985.15
779.881	19131.14
780.215	19038.26
780.55	19178.59
780.884	19054.08
781.218	19039.61
781.552	19242.54
781.886	19033.06
782.22	19146.28
782.554	18979.73
782.888	18908.54
783.222	18984.25
783.556	18960.52
783.889	18887.98
784.223	18822.44
784.557	18852.95
784.89	18887.53
785.224	18817.25
785.557	18808.88
785.891	18680.75
786.224	18675.78
786.558	18740.86
786.891	18674.65
787.224	18625.39
787.557	18661.77
787.891	18553.3
788.224	18697.25
788.557	18650.92
788.89	18600.98
789.223	18589.23
789.556	18446.18
789.888	18468.55
790.221	18487.99
790.554	18344.72
790.887	18364.6
791.219	18326.18
791.552	18251.84
791.884	18151.95
792.217	18170.93
792.549	18127.32
792.882	18076.25
793.214	18059.07
793.546	18165.06
793.879	18001.22
794.211	17913.09
794.543	17916.7
794.875	17926.42
795.207	17977.72
795.539	17911.05
795.871	17842.81
796.203	17749.02
796.535	17679.2
796.867	17602.81
797.198	17651.17
797.53	17638.97
797.862	17539.76
798.193	17484.4
798.525	17398.98
798.856	17483.27
799.188	17277.62
799.519	17195.37
799.85	17261.81
800.182	17157.4
800.513	17257.29
800.844	17071.53
801.175	17191.07
801.506	17187.91
801.837	17048.93
802.168	16999.21
802.499	17028.82
802.83	16888.03
803.161	16819.11
803.491	16867.92
803.822	16856.62
804.153	16765.77
804.483	16578.89
804.814	16657.3
805.145	16624.99
805.475	16625.66
805.805	16503.18
806.136	16484.2
806.466	16452.79
806.796	16508.38
807.126	16398.33
807.457	16310.19
807.787	16295.73
808.117	16262.74
808.447	16244.88
808.777	16239.46
809.107	16146.58
809.436	16076.75
809.766	16122.63
810.096	16043.53
810.426	15990.88
810.755	16034.49
811.085	16011.67
811.414	15951.33
811.744	15825.91
812.073	15796.76
812.403	15866.14
812.732	15739.13
813.061	15759.7
813.39	15669.98
813.719	15575.07
814.049	15788.85
814.378	15640.83
814.707	15545.24
815.036	15604.9
815.365	15524.22
815.693	15320.61
816.022	15437.22
816.351	15415.75
816.68	15329.43
817.008	15345.02
817.337	15213.72
817.665	15191.13
817.994	15197.91
818.322	15199.49
818.651	15135.31
818.979	15096.89
819.307	15099.15
819.636	15100.51
819.964	15051.92
820.292	15079.49
820.62	15049.66
820.948	15039.27
821.276	15132.14
821.604	15048.98
821.932	15035.65
822.259	15089.89
822.587	15059.6
822.915	14914.52
823.243	15018.02
823.57	14997.68
823.898	15048.98
824.225	14979.61
824.553	14943.9
824.88	14973.28
825.207	14991.13
825.535	15038.59
825.862	15036.78
826.189	14935.09
826.516	14971.92
826.843	15046.05
827.17	15019.61
827.497	15002.43
827.824	15013.73
828.151	15008.53
828.478	14973.05
828.805	15073.39
829.131	15050.11
829.458	14934.18
829.785	14882.21
830.111	14953.84
830.438	14948.87
830.764	14982.77
831.09	15004.69
831.417	14843.11
831.743	14970.11
832.069	14981.19
832.395	14888.99
832.722	14943.22
833.048	14865.03
833.374	14879.72
833.7	14840.63
834.026	14861.42
834.351	14823.68
834.677	14809.44
835.003	14838.37
835.329	14835.2
835.654	14748.65
835.98	14761.76
836.306	14785.71
836.631	14751.36
836.956	14771.25
837.282	14793.85
837.607	14684.7
837.932	14669.78
838.258	14689.67
838.583	14641.99
838.908	14482.44
839.233	14646.06
839.558	14563.12
839.883	14491.26
840.208	14398.83
840.533	14514.31
840.858	14444.48
841.182	14498.26
841.507	14462.11
841.832	14421.43
842.156	14365.38
842.481	14313.63
842.805	14273.41
843.13	14281.09
843.454	14215.56
843.778	14187.31
844.103	14158.84
844.427	14130.81
844.751	14113.87
845.075	14099.4
845.399	14024.38
845.723	13852.63
846.047	13996.81
846.371	13863.48
846.695	13849.47
847.019	13667.32
847.343	13699.19
847.666	13668.91
847.99	13559.76
848.313	13564.5
848.637	13565.18
848.96	13418.52
849.284	13325.41
849.607	13344.62
849.931	13286.77
850.254	13104.63
850.577	13109.82
850.9	13095.59
851.223	13092.42
851.546	12948.7
851.869	12926.55
852.192	12936.04
852.515	12785.09
852.838	12799.32
853.161	12770.4
853.483	12696.28
853.806	12684.53
854.129	12633.45
854.451	12632.32
854.774	12545.09
855.096	12561.59
855.419	12548.03
855.741	12511.2
856.063	12447.92
856.385	12418.77
856.708	12340.13
857.03	12341.26
857.352	12307.36
857.674	12202.96
857.996	12163.41
858.318	12085.67
858.64	12087.7
858.961	12048.61
859.283	12079.34
859.605	11988.05
859.926	12017.2
860.248	11937.2
860.57	11869.41
860.891	11911.66
861.212	11881.38
861.534	11861.27
861.855	11797.54
862.176	11753.02
862.498	11698.11
862.819	11664.89
863.14	11661.95
863.461	11717.32
863.782	11682.74
864.103	11662.18
864.424	11664.67
864.745	11635.74
865.065	11573.37
865.386	11463.09
865.707	11479.59
866.027	11538.79
866.348	11462.86
866.668	11512.35
866.989	11383.54
867.309	11355.97
867.63	11387.61
867.95	11418.8
868.27	11407.04
868.59	11303.32
868.91	11366.82
869.23	11353.49
869.55	11228.29
869.87	11313.49
870.19	11320.72
870.51	11321.17
870.83	11285.01
871.15	11218.58
871.469	11222.64
871.789	11223.77
872.109	11113.27
872.428	11048.86
872.748	11144
873.067	11105.13
873.386	11066.71
873.706	11082.08
874.025	10982.65
874.344	10914.85
874.663	10995.98
874.982	10983.33
875.301	10987.85
875.62	10949.66
875.939	10950.33
876.258	10955.53
876.577	10911.92
876.896	10867.17
877.214	10853.84
877.533	10890.45
877.852	10864.46
878.17	10772.26
878.489	10810.22
878.807	10771.13
879.125	10726.61
879.444	10735.88
879.762	10687.06
880.08	10729.32
880.398	10722.77
880.716	10635.77
881.034	10638.03
881.352	10618.14
881.67	10576.78
881.988	10509.89
882.306	10595.77
882.624	10575.88
882.941	10454.08
883.259	10476.9
883.577	10417.69
883.894	10440.52
884.212	10397.58
884.529	10407.3
884.846	10394.87
885.164	10287.53
885.481	10269.45
885.798	10329.11
886.115	10204.59
886.432	10211.6
886.75	10215.89
887.067	10173.86
887.383	10122.33
887.7	10188.55
888.017	10181.09
888.334	10071.94
888.651	10043.46
888.967	10096.8
889.284	10002.79
889.6	10021.54
889.917	9911.49
890.233	9902.68
890.55	9854.32
890.866	9926.63
891.182	9810.7
891.498	9798.73
891.815	9745.39
892.131	9707.65
892.447	9704.26
892.763	9619.07
893.079	9696.36
893.395	9577.71
893.71	9583.36
894.026	9583.59
894.342	9568
894.657	9492.97
894.973	9497.72
895.289	9416.59
895.604	9424.5
895.92	9387.66
896.235	9330.04
896.55	9290.94
896.865	9283.03
897.181	9309.47
897.496	9285.29
897.811	9178.85
898.126	9163.94
898.441	9232.86
898.756	9074.68
899.071	9062.93
899.386	9079.65
899.7	8972.76
900.015	8942.7
900.33	8905.64
900.644	8944.51
900.959	8874.23
901.273	8867
901.588	8828.81
901.902	8820.67
902.216	8751.07
902.531	8717.4
902.845	8678.08
903.159	8594.46
903.473	8581.36
903.787	8580.45
904.101	8548.81
904.415	8575.93
904.729	8475.6
905.042	8440.12
905.356	8413
905.67	8368.03
905.984	8379.78
906.297	8393.56
906.611	8279.9
906.924	8304.08
907.237	8254.36
907.551	8202.61
907.864	8201.25
908.177	8168.26
908.491	8102.5
908.804	8090.97
909.117	8022.73
909.43	8041.26
909.743	7964.42
910.056	7966.23
910.368	7941.6
910.681	7866.57
910.994	7819.12
911.307	7863.86
911.619	7751.77
911.932	7832.45
912.244	7747.48
912.557	7716.97
912.869	7627.26
913.181	7648.27
913.494	7606.69
913.806	7566.24
914.118	7495.51
914.43	7458
914.742	7437.43
915.054	7437.43
915.366	7425.23
915.678	7380.71
915.99	7376.19
916.302	7286.93
916.613	7265.01
916.925	7229.75
917.236	7257.1
917.548	7150.89
917.859	7140.94
918.171	7198.12
918.482	7099.59
918.794	7072.7
919.105	7037.89
919.416	7027.27
919.727	6982.98
920.038	6976.88
920.349	6888.52
920.66	6892.59
920.971	6849.65
921.282	6853.27
921.593	6790.89
921.903	6727.39
922.214	6772.59
922.525	6732.82
922.835	6714.74
923.146	6677.45
923.456	6675.19
923.767	6632.71
924.077	6551.35
924.387	6556.55
924.697	6454.41
925.008	6489.66
925.318	6495.99
925.628	6407.63
925.938	6406.95
926.248	6336.22
926.558	6399.72
926.867	6372.83
927.177	6312.26
927.487	6289.67
927.796	6268.2
928.106	6220.51
928.416	6231.81
928.725	6164.24
929.034	6150.23
929.344	6164.24
929.653	6155.43
929.962	6075.21
930.271	6046.28
930.581	6030.46
930.89	5960.18
931.199	6017.36
931.508	5959.05
931.817	5940.97
932.125	5929.9
932.434	5896.23
932.743	5853.07
933.051	5817.14
933.36	5804.93
933.669	5813.07
933.977	5782.11
934.286	5723.13
934.594	5737.59
934.902	5646.07
935.21	5673.64
935.519	5694.88
935.827	5621.43
936.135	5634.99
936.443	5556.8
936.751	5524.94
937.059	5549.8
937.367	5516.13
937.674	5522.45
937.982	5495.11
938.29	5459.86
938.597	5420.31
938.905	5392.74
939.213	5352.29
939.52	5357.49
939.827	5329.46
940.135	5324.72
940.442	5272.52
940.749	5240.88
941.056	5264.61
941.363	5198.62
941.67	5196.36
941.977	5164.5
942.284	5079.53
942.591	5179.86
942.898	5096.7
943.205	5099.41
943.511	5075.46
943.818	5069.13
944.125	4998.85
944.431	5007.21
944.738	5021
945.044	4970.15
945.35	4912.07
945.657	4860.78
945.963	4851.51
946.269	4862.36
946.575	4874.56
946.881	4799.99
947.187	4781.91
947.493	4745.3
947.799	4768.35
948.105	4751.4
948.41	4730.61
948.716	4708.46
949.022	4690.39
949.327	4670.95
949.633	4613.78
949.938	4586.21
950.244	4610.61
950.549	4520.22
950.854	4549.82
951.16	4497.62
951.465	4474.35
951.77	4516.38
952.075	4510.95
952.38	4431.86
952.685	4481.13
952.99	4408.58
953.294	4404.29
953.599	4418.08
953.904	4355.7
954.209	4354.35
954.513	4330.39
954.818	4345.08
955.122	4312.09
955.426	4260.11
955.731	4244.52
956.035	4255.37
956.339	4261.02
956.643	4232.54
956.948	4177.86
957.252	4147.8
957.556	4156.61
957.86	4144.18
958.163	4114.13
958.467	4141.47
958.771	4119.55
959.075	4062.83
959.378	4054.24
959.682	4065.77
959.985	4065.99
960.289	3991.65
960.592	4002.27
960.896	3955.49
961.199	3967.92
961.502	3940.12
961.805	3871.42
962.108	3906.68
962.411	3871.88
962.714	3848.83
963.017	3816.51
963.32	3852.44
963.623	3837.98
963.926	3800.01
964.228	3769.51
964.531	3756.17
964.833	3748.94
965.136	3691.09
965.438	3709.17
965.741	3685.67
966.043	3670.98
966.345	3656.97
966.648	3673.24
966.95	3599.34
967.252	3606.57
967.554	3588.04
967.856	3593.92
968.158	3560.02
968.46	3557.08
968.761	3574.03
969.063	3511.89
969.365	3519.57
969.666	3499
969.968	3508.27
970.269	3427.37
970.571	3461.04
970.872	3440.7
971.174	3450.42
971.475	3344.66
971.776	3346.24
972.077	3366.8
972.378	3359.12
972.679	3363.41
972.98	3353.02
973.281	3324.09
973.582	3301.5
973.883	3304.21
974.183	3292
974.484	3310.31
974.785	3290.42
975.085	3259.46
975.386	3220.82
975.686	3182.18
975.986	3194.61
976.287	3174.27
976.587	3132.23
976.887	3159.8
977.187	3180.59
977.487	3126.58
977.787	3083.87
978.087	3073.25
978.387	3057.21
978.687	3027.83
978.987	3059.47
979.286	3014.72
979.586	3040.26
979.885	3005.01
980.185	3006.59
980.484	2963.65
980.784	2948.74
981.083	2973.37
981.382	2965.23
981.682	2911.67
981.981	2918
982.28	2893.82
982.579	2868.51
982.878	2864.67
983.177	2851.34
983.475	2843.43
983.774	2849.3
984.073	2808.4
984.372	2809.53
984.67	2754.16
984.969	2771.34
985.267	2779.25
985.566	2792.58
985.864	2748.97
986.162	2742.41
986.461	2763.2
986.759	2695.64
987.057	2700.38
987.355	2671.91
987.653	2670.1
987.951	2673.72
988.249	2658.57
988.547	2662.42
988.844	2579.93
989.142	2635.75
989.44	2626.94
989.737	2605.69
990.035	2596.88
990.332	2545.13
990.63	2548.75
990.927	2532.93
991.224	2544.9
991.521	2546.03
991.819	2521.18
992.116	2475.98
992.413	2482.08
992.71	2474.4
993.006	2447.05
993.303	2442.08
993.6	2425.36
993.897	2428.98
994.193	2416.09
994.49	2419.94
994.787	2413.83
995.083	2412.25
995.379	2371.8
995.676	2352.82
995.972	2380.39
996.268	2319.15
996.565	2334.51
996.861	2324.12
997.157	2295.19
997.453	2294.06
997.749	2305.82
998.044	2259.49
998.34	2232.82
998.636	2240.28
998.932	2221.75
999.227	2191.92
999.523	2205.7
999.818	2186.04
1000.114	2210.9
1000.409	2174.97
1000.704	2172.94
1001	2179.49
1001.295	2129.55
1001.59	2143.11
1001.885	2134.52
1002.18	2105.82
1002.475	2097.46
1002.77	2088.87
1003.065	2060.85
1003.359	2051.36
1003.654	2056.1
1003.949	2022.88
1004.243	2049.1
1004.538	1986.05
1004.832	2007.97
1005.127	1957.12
1005.421	1978.59
1005.715	1980.4
1006.009	1990.8
1006.304	1972.04
1006.598	1941.3
1006.892	1943.56
1007.186	1920.06
1007.48	1931.14
1007.773	1887.75
1008.067	1877.13
1008.361	1870.57
1008.655	1865.15
1008.948	1859.95
1009.242	1811.59
1009.535	1828.09
1009.829	1817.47
1010.122	1828.99
1010.415	1821.08
1010.708	1780.41
1011.001	1764.13
1011.295	1743.34
1011.588	1775.66
1011.881	1727.75
1012.173	1731.14
1012.466	1712.38
1012.759	1715.1
1013.052	1706.51
1013.344	1691.59
1013.637	1679.62
1013.93	1656.34
1014.222	1667.19
1014.514	1638.94
1014.807	1656.57
1015.099	1642.1
1015.391	1618.6
1015.683	1603.01
1015.976	1621.77
1016.268	1584.25
1016.56	1599.84
1016.851	1574.99
1017.143	1557.13
1017.435	1542.9
1017.727	1533.18
1018.018	1551.03
1018.31	1517.14
1018.602	1524.59
1018.893	1520.07
1019.185	1533.18
1019.476	1512.62
1019.767	1507.87
1020.058	1478.27
1020.35	1468.1
1020.641	1453.63
1020.932	1416.57
1021.223	1443.92
1021.514	1442.56
1021.804	1385.39
1022.095	1408.21
1022.386	1425.61
1022.677	1387.2
1022.967	1384.94
1023.258	1382.9
1023.548	1365.95
1023.839	1337.48
1024.129	1354.43
1024.419	1332.73
1024.709	1330.25
1025	1306.75
1025.29	1326.41
1025.58	1282.11
1025.87	1290.7
1026.16	1285.95
1026.449	1261.32
1026.739	1288.44
1027.029	1253.41
1027.319	1255
1027.608	1243.7
1027.898	1244.15
1028.187	1254.77
1028.477	1201.44
1028.766	1243.24
1029.055	1195.11
1029.344	1176.35
1029.634	1184.94
1029.923	1158.5
1030.212	1159.4
1030.501	1156.69
1030.79	1164.6
1031.078	1145.85
1031.367	1142.91
1031.656	1152.63
1031.945	1116.69
1032.233	1112.63
1032.522	1135.68
1032.81	1110.14
1033.099	1105.17
1033.387	1091.16
1033.675	1103.36
1033.963	1056.81
1034.251	1081.44
1034.54	1078.73
1034.828	1044.38
1035.116	1073.08
1035.403	1013.42
1035.691	1032.63
1035.979	1033.31
1036.267	1025.62
1036.554	1018.62
1036.842	1024.04
1037.129	1016.36
1037.417	989.47
1037.704	978.39
1037.992	994.66
1038.279	970.71
1038.566	969.58
1038.853	969.58
1039.14	969.58
