Data from hue_30_FLMS001491_90.txt Node
Date: Mon Feb 06 15:06:13 GMT 2017
User: dcchb
Spectrometer: FLMS00149
Trigger mode: 0
Integration Time (sec): 2.000000E-2
Scans to average: 10
Electric dark correction enabled: true
Nonlinearity correction enabled: false
Boxcar width: 0
XAxis mode: Wavelengths
Number of Pixels in Spectrum: 2048
>>>>>Begin Spectral Data<<<<<
341.393	-26.72
341.776	-26.72
342.16	-26.72
342.543	-79.38
342.927	-71.92
343.31	-64.01
343.693	-64.24
344.077	-50.9
344.46	-28.53
344.843	-78.25
345.226	-59.26
345.61	-17.91
345.993	-0.51
346.376	-16.33
346.759	3.33
347.142	18.02
347.525	44.24
347.908	45.14
348.291	70.22
348.674	87.85
349.057	111.13
349.44	145.25
349.823	142.99
350.206	154.06
350.588	187.28
350.971	235.19
351.354	239.26
351.737	240.39
352.119	251.46
352.502	282.65
352.884	278.58
353.267	305.47
353.65	314.74
354.032	318.81
354.414	293.72
354.797	315.87
355.179	328.52
355.562	338.47
355.944	316.77
356.326	326.49
356.709	319.26
357.091	347.73
357.473	336.66
357.855	351.12
358.238	332.59
358.62	366.49
359.002	358.8
359.384	354.28
359.766	334.17
360.148	356.77
360.53	347.96
360.912	361.06
361.294	329.65
361.676	339.6
362.057	339.82
362.439	318.13
362.821	337.56
363.203	313.83
363.584	327.84
363.966	333.04
364.348	333.95
364.729	338.69
365.111	327.39
365.493	325.58
365.874	339.6
366.256	328.75
366.637	332.36
367.019	337.56
367.4	329.43
367.781	327.62
368.163	321.97
368.544	325.58
368.925	322.19
369.306	316.55
369.688	324.45
370.069	325.58
370.45	335.75
370.831	333.27
371.212	317
371.593	324.23
371.974	328.3
372.355	315.42
372.736	330.1
373.117	324
373.498	319.26
373.879	333.72
374.26	330.33
374.641	319.48
375.021	321.74
375.402	318.35
375.783	356.32
376.163	348.63
376.544	331.46
376.925	334.17
377.305	354.28
377.686	326.26
378.066	342.76
378.447	321.52
378.827	337.34
379.208	353.15
379.588	350.22
379.968	354.06
380.349	356.09
380.729	361.29
381.109	361.06
381.489	348.63
381.87	342.76
382.25	357
382.63	346.6
383.01	364.91
383.39	338.69
383.77	337.34
384.15	337.34
384.53	357.67
384.91	370.1
385.29	375.07
385.67	366.26
386.049	380.27
386.429	357
386.809	348.63
387.189	365.36
387.568	361.06
387.948	385.24
388.328	369.65
388.707	384.34
389.087	383.44
389.466	378.46
389.846	390.67
390.225	384.11
390.605	362.42
390.984	376.66
391.363	363.78
391.743	390.67
392.122	374.4
392.501	384.11
392.881	400.84
393.26	391.12
393.639	387.05
394.018	379.59
394.397	390.22
394.776	416.2
395.155	408.07
395.534	383.66
395.913	399.93
396.292	416.66
396.671	428.63
397.05	419.59
397.429	433.38
397.808	409.65
398.186	392.7
398.565	408.29
398.944	401.97
399.323	423.89
399.701	389.99
400.08	422.76
400.458	418.92
400.837	434.73
401.215	413.72
401.594	408.52
401.972	435.41
402.351	426.6
402.729	440.16
403.107	443.1
403.486	443.77
403.864	425.47
404.242	446.49
404.62	433.83
404.999	433.6
405.377	451.68
405.755	452.36
406.133	469.54
406.511	436.77
406.889	457.56
407.267	447.84
407.645	471.8
408.023	479.7
408.401	475.41
408.779	466.82
409.156	486.26
409.534	487.61
409.912	477.22
410.29	504.56
410.667	506.37
411.045	503.43
411.422	487.16
411.8	511.12
412.178	506.82
412.555	520.83
412.933	521.96
413.31	509.31
413.687	525.35
414.065	530.1
414.442	515.41
414.819	521.96
415.197	530.33
415.574	539.59
415.951	526.26
416.328	559.02
416.705	540.04
417.082	540.04
417.46	552.92
417.837	550.89
418.214	548.18
418.591	565.13
418.967	565.13
419.344	574.84
419.721	540.27
420.098	556.54
420.475	593.15
420.852	581.4
421.228	586.14
421.605	574.62
421.982	579.36
422.358	591.11
422.735	608.52
423.111	608.97
423.488	606.71
423.864	597.67
424.241	608.06
424.617	626.14
424.994	627.72
425.37	607.16
425.746	640.15
426.123	631.34
426.499	636.76
426.875	629.53
427.251	642.86
427.627	639.47
428.003	643.54
428.379	642.64
428.756	679.02
429.132	653.94
429.507	680.38
429.883	669.3
430.259	690.32
430.635	680.6
431.011	717.66
431.387	719.7
431.763	716.99
432.138	720.83
432.514	709.08
432.89	733.94
433.265	742.3
433.641	748.85
434.016	750.21
434.392	763.77
434.767	755.4
435.143	761.73
435.518	778.91
435.894	765.57
436.269	774.16
436.644	799.24
437.02	806.48
437.395	804.44
437.77	829.98
438.145	831.33
438.52	821.84
438.895	836.31
439.271	836.08
439.646	839.24
440.021	853.93
440.395	846.47
440.77	851.67
441.145	860.26
441.52	896.42
441.895	874.5
442.27	876.76
442.645	861.16
443.019	890.99
443.394	881.5
443.769	899.58
444.143	881.5
444.518	895.51
444.892	906.59
445.267	909.52
445.641	917.43
446.016	900.71
446.39	936.42
446.764	970.54
447.139	943.65
447.513	971.44
447.887	960.6
448.262	934.16
448.636	961.73
449.01	968.73
449.384	982.06
449.758	979.58
450.132	999.47
450.506	1003.98
450.88	1007.37
451.254	1009.41
451.628	1038.79
452.002	1024.55
452.376	1063.42
452.75	1034.94
453.123	1042.85
453.497	1039.01
453.871	1087.15
454.244	1101.84
454.618	1100.25
454.992	1089.41
455.365	1102.29
455.739	1118.33
456.112	1159.24
456.486	1147.03
456.859	1161.27
457.232	1153.81
457.606	1152.91
457.979	1184.32
458.352	1209.86
458.725	1222.74
459.099	1206.92
459.472	1240.59
459.845	1258.67
460.218	1277.2
460.591	1294.6
460.964	1298.67
461.337	1308.61
461.71	1335.95
462.083	1352.45
462.456	1336.63
462.829	1357.42
463.201	1375.27
463.574	1410.08
463.947	1390.64
464.32	1431.09
464.692	1453.01
465.065	1454.82
465.438	1461.15
465.81	1498.66
466.183	1525.78
466.555	1528.49
466.928	1546.34
467.3	1561.48
467.672	1593.57
468.045	1624.08
468.417	1620.92
468.789	1633.12
469.161	1675.15
469.534	1683.74
469.906	1739.78
470.278	1718.32
470.65	1754.02
471.022	1808.48
471.394	1833.34
471.766	1878.54
472.138	1877.63
472.51	1888.03
472.882	1928.93
473.253	1926.67
473.625	2010.96
473.997	2050.51
474.369	2016.61
474.74	2088.02
475.112	2090.06
475.484	2184.29
475.855	2197.85
476.227	2197.4
476.598	2298.87
476.97	2318.3
477.341	2371.86
477.713	2402.59
478.084	2468.13
478.455	2504.06
478.827	2521.69
479.198	2632.64
479.569	2614.34
479.94	2725.07
480.311	2756.03
480.682	2821.11
481.053	2888.68
481.424	2919.87
481.795	2953.99
482.166	3044.84
482.537	3091.84
482.908	3136.81
483.279	3184.27
483.65	3274.89
484.021	3349.46
484.391	3412.96
484.762	3446.41
485.133	3537.7
485.503	3552.84
485.874	3634.42
486.244	3733.4
486.615	3811.59
486.985	3865.83
487.356	3908.54
487.726	3996.22
488.097	4074.41
488.467	4123.22
488.837	4217.01
489.207	4334.74
489.578	4341.3
489.948	4444.12
490.318	4531.12
490.688	4566.38
491.058	4671.69
491.428	4751.23
491.798	4788.52
492.168	4880.49
492.538	4921.85
492.908	4977.21
493.278	5075.29
493.648	5078.45
494.017	5245
494.387	5238.68
494.757	5339.69
495.126	5390.99
495.496	5441.83
495.866	5520.48
496.235	5589.63
496.605	5609.29
496.974	5680.47
497.344	5743.07
497.713	5806.12
498.082	5834.59
498.452	5914.59
498.821	5937.87
499.19	6037.07
499.559	6075.26
499.928	6108.94
500.298	6131.31
500.667	6214.7
501.036	6253.56
501.405	6337.4
501.774	6318.2
502.143	6352.54
502.512	6409.04
502.88	6533.56
503.249	6530.39
503.618	6542.82
503.987	6630.28
504.356	6710.05
504.724	6742.14
505.093	6732.42
505.462	6814
505.83	6838.41
506.199	6928.12
506.567	6990.72
506.936	7023.26
507.304	7126.54
507.672	7108.23
508.041	7209.02
508.409	7193.2
508.777	7258.74
509.145	7333.54
509.514	7296.93
509.882	7347.09
510.25	7403.59
510.618	7423.25
510.986	7494.21
511.354	7546.64
511.722	7623.7
512.09	7660.31
512.458	7689.91
512.826	7726.29
513.193	7784.15
513.561	7773.75
513.929	7895.78
514.297	7946.4
514.664	7977.13
515.032	7998.38
515.4	8045.38
515.767	8088.77
516.135	8166.06
516.502	8093.06
516.869	8193.17
517.237	8224.59
517.604	8190.69
517.972	8312.27
518.339	8360.85
518.706	8341.19
519.073	8399.95
519.44	8489.89
519.808	8515.65
520.175	8518.82
520.542	8634.29
520.909	8641.07
521.276	8672.71
521.643	8782.76
522.009	8823.67
522.376	8853.5
522.743	8891.46
523.11	9037.45
523.477	9076.32
523.843	9074.51
524.21	9172.58
524.577	9191.34
524.943	9243.09
525.31	9276.76
525.676	9346.59
526.043	9453.03
526.409	9508.17
526.776	9517.89
527.142	9580.71
527.508	9630.2
527.874	9696.41
528.241	9759.23
528.607	9788.39
528.973	9795.17
529.339	9852.57
529.705	9930.3
530.071	10035.84
530.437	10035.84
530.803	10133.69
531.169	10141.15
531.535	10070.64
531.901	10187.7
532.267	10301.59
532.632	10312.67
532.998	10342.27
533.364	10420.69
533.73	10438.77
534.095	10597.86
534.461	10598.08
534.826	10604.41
535.192	10679.21
535.557	10735.93
535.923	10797.4
536.288	10735.48
536.653	10826.78
537.019	10812.09
537.384	10803.05
537.749	10972.76
538.114	10967.11
538.479	11086.88
538.845	11062.25
539.21	11111.97
539.575	11210.04
539.94	11151.97
540.305	11251.63
540.67	11322.36
541.034	11276.03
541.399	11374.79
541.764	11488.91
542.129	11498.17
542.494	11518.51
542.858	11521.67
543.223	11610.94
543.587	11700.88
543.952	11615.91
544.316	11735
544.681	11754.21
545.045	11777.03
545.41	11824.94
545.774	11880.76
546.138	11924.6
546.503	12019.06
546.867	12019.06
547.231	12128.21
547.595	12164.82
547.959	12185.16
548.324	12256.8
548.688	12207.76
549.052	12182
549.416	12290.47
549.779	12292.28
550.143	12423.8
550.507	12536.56
550.871	12522.78
551.235	12500.18
551.599	12603.23
551.962	12604.58
552.326	12650.68
552.689	12826.27
553.053	12763.22
553.417	12737.24
553.78	12869.21
554.143	12891.13
554.507	12892.03
554.87	13002.54
555.234	13083.67
555.597	12929.1
555.96	13080.5
556.323	13165.93
556.686	13048.19
557.05	13266.04
557.413	13276.2
557.776	13308.97
558.139	13363.66
558.502	13475.07
558.865	13439.59
559.228	13511.9
559.59	13682.52
559.953	13606.82
560.316	13789.41
560.679	13732.24
561.041	13824.66
561.404	13813.59
561.767	13894.27
562.129	13894.27
562.492	13969.07
562.854	14089.97
563.217	13971.55
563.579	14053.36
563.941	14130.87
564.304	14271.21
564.666	14344.65
565.028	14304.88
565.39	14396.85
565.753	14484.99
566.115	14466.91
566.477	14567.24
566.839	14569.05
567.201	14712.33
567.563	14678.88
567.925	14769.27
568.287	14742.61
568.648	14843.4
569.01	14914.35
569.372	14994.58
569.734	15000.91
570.095	15090.62
570.457	15128.13
570.819	15188.24
571.18	15195.02
571.542	15390.5
571.903	15453.77
572.265	15413.78
572.626	15501.23
572.987	15566.09
573.349	15618.52
573.71	15712.3
574.071	15863.26
574.432	15764.5
574.794	16084.49
575.155	16064.15
575.516	16047.43
575.877	16189.35
576.238	16295.56
576.599	16437.48
576.96	16504.82
577.32	16466.18
577.681	16693.52
578.042	16856.9
578.403	16912.27
578.763	16935.77
579.124	17173.73
579.485	17315.42
579.845	17395.87
580.206	17544.79
580.566	17594.51
580.927	17784.56
581.287	17940.26
581.648	18184.78
582.008	18321.5
582.368	18489.85
582.728	18579.12
583.089	18871.09
583.449	18956.28
583.809	19217.52
584.169	19400.11
584.529	19556.49
584.889	19975.01
585.249	20015.46
585.609	20196.7
585.969	20419.29
586.329	20645.28
586.688	20862.67
587.048	21108.99
587.408	21389.21
587.768	21562.31
588.127	21854.28
588.487	22005.47
588.846	22374.5
589.206	22545.79
589.565	22745.56
589.925	23110.3
590.284	23412.21
590.643	23680
591.003	23926.09
591.362	24243.83
591.721	24540.09
592.08	24852.4
592.44	25115.67
592.799	25391.37
593.158	25664.58
593.517	25918.58
593.876	26340.95
594.235	26479.47
594.593	26832.46
594.952	27147.25
595.311	27318.1
595.67	27784.98
596.029	28105.42
596.387	28388.12
596.746	28635.57
597.104	28863.37
597.463	29118.05
597.822	29561.2
598.18	29666.96
598.538	30043.22
598.897	30475.98
599.255	30343.55
599.613	31112.8
599.972	31159.12
600.33	31383.07
600.688	31741.71
601.046	32005.43
601.404	32325.2
601.762	32670.27
602.12	33032.75
602.478	33293.98
602.836	33485.62
603.194	33571.26
603.552	33873.63
603.91	34043.34
604.268	34411.02
604.625	34573.95
604.983	34720.84
605.341	34982.98
605.698	35363.08
606.056	35598.56
606.413	35694.82
606.771	36041.93
607.128	36372.32
607.485	36382.94
607.843	36641.01
608.2	37044.39
608.557	37283.71
608.914	37352.41
609.272	37691.83
609.629	37926.4
609.986	38186.51
610.343	38267.19
610.7	38679.15
611.057	38812.26
611.414	38919.37
611.771	39012.25
612.127	39299.7
612.484	39411.56
612.841	39722.74
613.198	39646.13
613.554	39914.37
613.911	40143.52
614.267	40341.93
614.624	40440.01
614.98	40583.74
615.337	40853.78
615.693	40835.71
616.05	40990.96
616.406	41352.53
616.762	41350.72
617.118	41505.97
617.475	41610.15
617.831	41825.96
618.187	41894.89
618.543	42027.09
618.899	42454.65
619.255	42463.01
619.611	42461.65
619.967	42661.65
620.323	42862.55
620.678	42678.6
621.034	42796.78
621.39	42799.95
621.746	42938.93
622.101	43306.15
622.457	43171.69
622.812	43284.23
623.168	43475.64
623.523	43615.29
623.879	43644.45
624.234	43415.53
624.589	43680.38
624.945	43827.72
625.3	43822.07
625.655	44026.58
626.01	43913.59
626.365	44121.5
626.72	44049.86
627.075	44115.85
627.43	44325.33
627.785	44243.3
628.14	44361.26
628.495	44524.42
628.85	44338.21
629.205	44340.25
629.559	44611.65
629.914	44334.15
630.269	44572.56
630.623	44504.54
630.978	44407.36
631.332	44601.48
631.687	44662.27
632.041	44476.06
632.396	44642.84
632.75	44517.42
633.104	44661.59
633.459	44382.51
633.813	44524.42
634.167	44559.45
634.521	44524.2
634.875	44607.36
635.229	44497.3
635.583	44415.5
635.937	44624.31
636.291	44441.94
636.645	44557.42
636.999	44597.41
637.352	44695.72
637.706	44442.62
638.06	44606.68
638.413	44600.35
638.767	44508.6
639.121	44581.37
639.474	44282.62
639.828	44310.64
640.181	44373.24
640.534	44403.97
640.888	44406.23
641.241	44228.84
641.594	44263.41
641.947	44380.7
642.301	44290.08
642.654	44295.05
643.007	44436.06
643.36	44244.88
643.713	43991.78
644.066	44311.77
644.419	44114.94
644.771	43775.74
645.124	43447.61
645.477	43312.25
645.83	43095.08
646.182	43060.51
646.535	42898.25
646.888	43070
647.24	42762.66
647.593	43026.61
647.945	43030.45
648.298	42840.62
648.65	42783.68
649.002	42794.07
649.355	42949.77
649.707	42800.85
650.059	42875.88
650.411	43497.56
650.763	43441.29
651.115	43857.32
651.467	43792.24
651.819	43915.17
652.171	43798.79
652.523	43561.28
652.875	43527.84
653.227	43587.5
653.578	43677.89
653.93	43594.05
654.282	43490.33
654.633	43378.92
654.985	43386.37
655.337	43503.43
655.688	43453.94
656.039	43571.91
656.391	43156.1
656.742	43304.12
657.094	43348.63
657.445	43511.57
657.796	43387.28
658.147	43291.01
658.498	43328.07
658.849	43387.5
659.2	43259.82
659.551	43200.84
659.902	43255.08
660.253	43226.83
660.604	43279.71
660.955	43245.59
661.306	43308.18
661.656	43083.78
662.007	43221.41
662.358	43167.85
662.708	43078.81
663.059	43080.39
663.409	42865.26
663.76	43196.77
664.11	43234.74
664.461	43246.49
664.811	43182.54
665.161	43026.38
665.511	43060.96
665.862	43144.8
666.212	43295.08
666.562	43170.56
666.912	43174.4
667.262	43063.9
667.612	43075.87
667.962	43007.63
668.312	43065.25
668.662	43189.32
669.011	43156.77
669.361	43048.53
669.711	42983.9
670.06	42960.85
670.41	42637.92
670.76	42825.94
671.109	42931.02
671.459	42939.38
671.808	42881.3
672.157	43030.9
672.507	42648.09
672.856	42674.98
673.205	42881.3
673.554	42884.01
673.904	42683.34
674.253	43088.3
674.602	42892.6
674.951	42196.57
675.3	41995
675.649	42876.1
675.998	42543.91
676.346	42738.25
676.695	42800.63
677.044	42544.36
677.393	42653.51
677.741	42670.23
678.09	42509.33
678.438	42516.57
678.787	42454.87
679.135	42544.36
679.484	42307.76
679.832	42372.61
680.181	42184.37
680.529	42328.55
680.877	42182.79
681.225	42092.85
681.573	42504.36
681.922	42094.66
682.27	41988.9
682.618	42110.02
682.966	41828.9
683.314	42064.15
683.661	41893.31
684.009	41585.06
684.357	41517.95
684.705	41482.69
685.053	41582.35
685.4	41508.68
685.748	41237.96
686.095	41379.19
686.443	41140.33
686.79	41141.23
687.138	41217.39
687.485	41207.45
687.832	40965.42
688.18	41051.52
688.527	40773.56
688.874	40966.32
689.221	40775.37
689.568	40602.27
689.915	40499.22
690.262	40646.33
690.609	40445.89
690.956	40365.21
691.303	40315.95
691.65	40095.39
691.997	40007.25
692.344	39933.13
692.69	39843.87
693.037	40008.16
693.383	39510.54
693.73	39732.46
694.077	39339.93
694.423	39463.76
694.769	39306.03
695.116	39256.99
695.462	39217.9
695.808	39040.72
696.155	39074.62
696.501	38902.88
696.847	38791.69
697.193	38572.04
697.539	38701.98
697.885	38518.03
698.231	38395.32
698.577	38302.44
698.923	38278.26
699.269	38273.97
699.614	37878.72
699.96	38002.11
700.306	37889.79
700.651	37772.06
700.997	37679.4
701.342	37534.55
701.688	37509.24
702.033	37410.71
702.379	37486.19
702.724	37239.87
703.069	37508.11
703.415	36982.47
703.76	36967.79
704.105	36959.42
704.45	36861.8
704.795	36757.4
705.14	36526.21
705.485	36471.98
705.83	36367.8
706.175	36416.16
706.52	36352.21
706.865	36139.33
707.209	36300.23
707.554	36071.31
707.899	36308.59
708.243	35883.29
708.588	35910.86
708.932	35617.54
709.277	35732.56
709.621	35643.53
709.966	35370.31
710.31	35520.82
710.654	35311.33
710.998	35263.88
711.342	35345.45
711.687	35220.71
712.031	35011
712.375	35034.73
712.719	34989.08
713.063	34869.31
713.407	34970.78
713.75	34666.38
714.094	34671.12
714.438	34728.75
714.782	34642.87
715.125	34485.14
715.469	34467.51
715.812	34264.58
716.156	34140.51
716.499	34231.81
716.843	34326.5
717.186	33995.66
717.53	34098.93
717.873	34085.15
718.216	34061.87
718.559	33836.12
718.902	33542.56
719.246	33824.82
719.589	33548.67
719.932	33444.71
720.275	33610.59
720.617	33560.87
720.96	33473.19
721.303	33530.36
721.646	33343.02
721.989	33220.54
722.331	33376.69
722.674	33164.5
723.016	33157.94
723.359	32943.26
723.701	33228.67
724.044	32869.81
724.386	32815.35
724.729	32961.56
725.071	32696.94
725.413	32846.09
725.755	32598.18
726.097	32665.98
726.439	32527.68
726.782	32415.59
727.124	32530.61
727.465	32481.12
727.807	32367.91
728.149	32372.43
728.491	32148.25
728.833	32149.83
729.175	32236.84
729.516	32086.78
729.858	32063.73
730.199	32132.88
730.541	32010.63
730.882	31877.98
731.224	31950.74
731.565	31765.66
731.906	31859.44
732.248	31813.34
732.589	31504.88
732.93	31552.11
733.271	31504.65
733.612	31617.42
733.953	31580.36
734.294	31529.96
734.635	31397.76
734.976	31459.46
735.317	31350.76
735.658	31225.79
735.999	31292
736.339	31241.83
736.68	31301.27
737.021	31247.94
737.361	31024.89
737.702	31134.49
738.042	31022.18
738.383	30866.93
738.723	31000.71
739.063	30875.06
739.404	30900.83
739.744	30798.68
740.084	30712.81
740.424	30837.55
740.764	30720.94
741.104	30810.88
741.444	30464.91
741.784	30507.62
742.124	30594.39
742.464	30546.26
742.804	30546.71
743.143	30262.88
743.483	30331.12
743.823	30199.83
744.162	30061.07
744.502	30281.41
744.841	30216.55
745.181	30163.22
745.52	29974.97
745.86	30022.88
746.199	30057.46
746.538	30054.52
746.877	30118.47
747.216	29898.37
747.556	29920.06
747.895	29824.24
748.234	29719.84
748.573	29660.18
748.911	29585.83
749.25	29591.93
749.589	29558.04
749.928	29483.46
750.267	29526.17
750.605	29485.95
750.944	29399.85
751.283	29360.75
751.621	29393.29
751.96	29202.34
752.298	29231.27
752.636	29271.04
752.975	29043.7
753.313	29023.59
753.651	29063.13
753.989	28992.63
754.327	28732.07
754.666	28776.14
755.004	28714.44
755.342	28879.64
755.679	28644.61
756.017	28545.63
756.355	28539.08
756.693	28469.25
757.031	28560.1
757.368	28236.72
757.706	28411.17
758.044	28205.08
758.381	28321.91
758.719	28236.49
759.056	28175.47
759.394	27980.68
759.731	27882.83
760.068	27820.45
760.405	27732.55
760.743	27593.12
761.08	27593.79
761.417	27512.44
761.754	27517.86
762.091	27523.29
762.428	27361.71
762.765	27161.49
763.102	27196.52
763.438	27098.21
763.775	26976.64
764.112	27121.04
764.449	26898.22
764.785	27000.36
765.122	26656.64
765.458	26546.36
765.795	26563.09
766.131	26632.24
766.467	26416.65
766.804	26363.09
767.14	26180.27
767.476	26182.08
767.812	25954.06
768.148	26018.24
768.485	25904.57
768.821	25791.36
769.157	25688.53
769.492	25640.4
769.828	25458.03
770.164	25372.16
770.5	25300.52
770.836	25303.68
771.171	25127.87
771.507	25053.75
771.842	24963.13
772.178	24869.12
772.513	24940.08
772.849	24788.67
773.184	24648.56
773.519	24759.07
773.855	24559.75
774.19	24390.94
774.525	24373.09
774.86	24271.85
775.195	24291.28
775.53	24211.06
775.865	24156.14
776.2	23880.45
776.535	23715.25
776.87	23758.64
777.205	23697.63
777.539	23596.16
777.874	23703.28
778.209	23456.73
778.543	23439.55
778.878	23315.04
779.212	23264.64
779.547	23078.88
779.881	23200.01
780.215	23045.21
780.55	22943.07
780.884	22768.84
781.218	22790.08
781.552	22762.73
781.886	22596.86
782.22	22528.16
782.554	22299.24
782.888	22244.56
783.222	22099.25
783.556	22036.88
783.889	22068.97
784.223	21894.74
784.557	21884.79
784.89	21930.44
785.224	21740.16
785.557	21634.18
785.891	21515.08
786.224	21485.48
786.558	21497.23
786.891	21316.45
787.224	21192.83
787.557	21169.78
787.891	21108.77
788.224	21073.29
788.557	21041.42
788.89	20965.27
789.223	20937.92
789.556	20793.3
789.888	20554.21
790.221	20623.81
790.554	20474.43
790.887	20567.76
791.219	20313.76
791.552	20337.26
791.884	20280.77
792.217	20236.02
792.549	20116.02
792.882	19954
793.214	19975.92
793.546	19849.59
793.879	19885.07
794.211	19774.56
794.543	19729.37
794.875	19707.22
795.207	19702.7
795.539	19605.08
795.871	19551.97
796.203	19496.61
796.535	19292.77
796.867	19230.62
797.198	19238.08
797.53	19190.85
797.862	19094.36
798.193	19126.22
798.525	18993.79
798.856	18950.18
799.188	18835.61
799.519	18786.34
799.85	18697.53
800.182	18703.18
800.513	18716.51
800.844	18475.62
801.175	18631.09
801.506	18520.81
801.837	18457.76
802.168	18361.27
802.499	18380.48
802.83	18244.44
803.161	18168.28
803.491	18103.87
803.822	18117.89
804.153	18086.25
804.483	17834.95
804.814	17920.15
805.145	17788.18
805.475	17845.58
805.805	17776.65
806.136	17711.57
806.466	17702.53
806.796	17646.49
807.126	17537.11
807.457	17491.91
807.787	17427.51
808.117	17364.01
808.447	17246.72
808.777	17321.97
809.107	17337.57
809.436	17152.94
809.766	17219.15
810.096	17138.93
810.426	17102.32
810.755	17098.7
811.085	17028.65
811.414	17070.46
811.744	16724.93
812.073	16849.44
812.403	16840.4
812.732	16690.35
813.061	16680.41
813.39	16580.98
813.719	16570.13
814.049	16659.84
814.378	16613.74
814.707	16403.58
815.036	16381.66
815.365	16388.21
815.693	16266.41
816.022	16216.69
816.351	16247.43
816.68	16058.5
817.008	16198.61
817.337	15989.81
817.665	16042.01
817.994	16039.07
818.322	16008.11
818.651	15864.16
818.979	15860.77
819.307	15909.36
819.636	15876.14
819.964	15802.69
820.292	15869.36
820.62	15769.92
820.948	15742.35
821.276	15755.69
821.604	15624.62
821.932	15770.15
822.259	15761.56
822.587	15712.52
822.915	15684.28
823.243	15638.85
823.57	15661.68
823.898	15673.2
824.225	15545.75
824.553	15700.77
824.88	15658.51
825.207	15642.02
825.535	15544.62
825.862	15630.49
826.189	15621.45
826.516	15673.43
826.843	15699.64
827.17	15628.23
827.497	15660.77
827.824	15590.49
828.151	15702.81
828.478	15604.28
828.805	15669.36
829.131	15574.45
829.458	15567.44
829.785	15534.22
830.111	15519.54
830.438	15639.98
830.764	15494
831.09	15553.21
831.417	15509.14
831.743	15713.65
832.069	15592.98
832.395	15481.57
832.722	15499.42
833.048	15445.87
833.374	15532.87
833.7	15460.33
834.026	15410.16
834.351	15496.49
834.677	15385.75
835.003	15386.43
835.329	15382.14
835.654	15270.05
835.98	15311.86
836.306	15348.69
836.631	15282.48
836.956	15254.23
837.282	15206.1
837.607	15160.45
837.932	15130.39
838.258	15186.21
838.583	15199.77
838.908	15031.41
839.233	15118.64
839.558	15096.04
839.883	15064.41
840.208	14978.76
840.533	14999.55
840.858	14956.16
841.182	14901.25
841.507	14890.17
841.832	14866.9
842.156	14826.9
842.481	14849.72
842.805	14900.79
843.13	14723.17
843.454	14774.24
843.778	14641.14
844.103	14600.01
844.427	14579.67
844.751	14582.16
845.075	14581.71
845.399	14517.53
845.723	14368.38
846.047	14555.94
846.371	14280.47
846.695	14322.5
847.019	14181.27
847.343	14102.4
847.666	14100.14
847.99	13966.36
848.313	14028.28
848.637	13849.97
848.96	13900.37
849.284	13846.13
849.607	13700.15
849.931	13736.53
850.254	13596.2
850.577	13640.71
850.9	13465.58
851.223	13439.82
851.546	13400.95
851.869	13324.56
852.192	13363.43
852.515	13245.92
852.838	13266.49
853.161	13211.35
853.483	13120.28
853.806	12974.74
854.129	12999.83
854.451	12988.53
854.774	12906.27
855.096	12940.39
855.419	12861.07
855.741	12841.87
856.063	12730
856.385	12775.65
856.708	12749.21
857.03	12679.16
857.352	12633.74
857.674	12603.23
857.996	12631.25
858.318	12468.77
858.64	12544.92
858.961	12461.99
859.283	12451.59
859.605	12306.06
859.926	12310.81
860.248	12371.37
860.57	12222
860.891	12267.42
861.212	12153.75
861.534	12191.49
861.855	12180.64
862.176	12091.6
862.498	12195.33
862.819	12178.38
863.14	12067.2
863.461	12124.82
863.782	12016.8
864.103	11927.99
864.424	11991.49
864.745	11915.11
865.065	11878.05
865.386	11835.11
865.707	11817.49
866.027	11859.29
866.348	11747.88
866.668	11824.04
866.989	11769.35
867.309	11690.71
867.63	11696.36
867.95	11703.59
868.27	11674.44
868.59	11620.65
868.91	11680.09
869.23	11672.18
869.55	11542.01
869.87	11619.52
870.19	11542.24
870.51	11554.89
870.83	11546.08
871.15	11511.05
871.469	11495.23
871.789	11536.36
872.109	11473.77
872.428	11438.74
872.748	11374.56
873.067	11413.65
873.386	11399.87
873.706	11346.31
874.025	11398.51
874.344	11313.32
874.663	11354.45
874.982	11337.27
875.301	11254.79
875.62	11255.92
875.939	11208.69
876.258	11157.16
876.577	11177.05
876.896	11185.19
877.214	11155.13
877.533	11101.8
877.852	11084.62
878.17	11112.87
878.489	11195.13
878.807	11051.18
879.125	11078.3
879.444	11021.12
879.762	11062.7
880.08	11121.01
880.398	10969.6
880.716	10937.28
881.034	10923.27
881.352	10983.38
881.67	10914.91
881.988	10902.03
882.306	10835.14
882.624	10831.3
882.941	10851.41
883.259	10800.56
883.577	10724.41
883.894	10682.6
884.212	10670.17
884.529	10661.13
884.846	10634.47
885.164	10665.2
885.481	10572.55
885.798	10556.5
886.115	10521.47
886.432	10518.09
886.75	10437.86
887.067	10532.32
887.383	10391.99
887.7	10482.15
888.017	10424.75
888.334	10343.4
888.651	10339.78
888.967	10357.19
889.284	10224.76
889.6	10260.46
889.917	10157.42
890.233	10188.83
890.55	10114.71
890.866	10092.56
891.182	10138.66
891.498	10099.11
891.815	10014.82
892.131	10023.18
892.447	10021.83
892.763	9911.32
893.079	9931.43
893.395	9916.29
893.71	9933.02
894.026	9863.64
894.342	9874.03
894.657	9756.07
894.973	9699.12
895.289	9716.52
895.604	9705.45
895.92	9578.22
896.235	9566.92
896.55	9638.33
896.865	9573.48
897.181	9553.36
897.496	9553.36
897.811	9457.55
898.126	9440.15
898.441	9417.77
898.756	9390.43
899.071	9346.36
899.386	9299.59
899.7	9281.96
900.015	9282.86
900.33	9179.14
900.644	9173.04
900.959	9213.71
901.273	9161.51
901.588	9061.63
901.902	9044.68
902.216	9015.98
902.531	8919.93
902.845	8935.53
903.159	8872.03
903.473	8885.36
903.787	8812.14
904.101	8853.04
904.415	8765.36
904.729	8723.56
905.042	8705.93
905.356	8706.16
905.67	8614.18
905.984	8564.92
906.297	8600.17
906.611	8567.4
906.924	8497.57
907.237	8490.79
907.551	8504.13
907.864	8439.04
908.177	8394.3
908.491	8435.2
908.804	8334.64
909.117	8388.88
909.43	8225.94
909.743	8224.59
910.056	8197.02
910.368	8198.82
910.681	8117.7
910.994	8087.41
911.307	8106.62
911.619	7974.88
911.932	8017.59
912.244	7923.8
912.557	7966.74
912.869	7897.14
913.181	7868.89
913.494	7856.23
913.806	7816.24
914.118	7756.58
914.43	7710.93
914.742	7758.16
915.054	7601.33
915.366	7646.52
915.678	7624.15
915.99	7559.97
916.302	7571.72
916.613	7493.31
916.925	7472.06
917.236	7479.97
917.548	7373.08
917.859	7383.03
918.171	7329.02
918.482	7235.01
918.794	7246.53
919.105	7259.19
919.416	7213.77
919.727	7181.45
920.038	7205.4
920.349	7151.17
920.66	7116.59
920.971	7081.11
921.282	7038.18
921.593	7023.26
921.903	6995.69
922.214	6987.56
922.525	6908.01
922.835	6947.33
923.146	6837.96
923.456	6896.71
923.767	6758.41
924.077	6830.5
924.387	6728.35
924.697	6737.85
925.008	6714.8
925.318	6680.22
925.628	6681.35
925.938	6675.7
926.248	6535.82
926.558	6518.19
926.867	6504.63
927.177	6495.82
927.487	6496.27
927.796	6406.1
928.106	6432.77
928.416	6413.11
928.725	6338.31
929.034	6345.09
929.344	6343.28
929.653	6308.93
929.962	6249.72
930.271	6270.97
930.581	6219.89
930.89	6159.1
931.199	6120.69
931.508	6102.16
931.817	6109.16
932.125	6112.55
932.434	6088.82
932.743	6029.84
933.051	5964.31
933.36	5969.96
933.669	5873.91
933.977	5919.56
934.286	5894.7
934.594	5866.91
934.902	5823.75
935.21	5789.17
935.519	5789.17
935.827	5798.66
936.135	5732.45
936.443	5711.88
936.751	5665.33
937.059	5613.81
937.367	5610.19
937.674	5629.4
937.982	5552.57
938.29	5536.3
938.597	5576.07
938.905	5499.46
939.213	5471.66
939.52	5469.86
939.827	5494.49
940.135	5433.92
940.442	5405.9
940.749	5399.58
941.056	5426.47
941.363	5346.47
941.67	5249.97
941.977	5246.13
942.284	5263.08
942.591	5275.51
942.898	5213.14
943.205	5254.49
943.511	5148.73
943.818	5188.28
944.125	5120.71
944.431	5129.07
944.738	5120.49
945.044	5063.09
945.35	5076.42
945.657	4988.06
945.963	5033.03
946.269	4978.34
946.575	4948.97
946.881	4936.08
947.187	4887.72
947.493	4894.28
947.799	4907.16
948.105	4851.57
948.41	4831.45
948.716	4841.4
949.022	4811.34
949.327	4789.2
949.633	4722.08
949.938	4722.53
950.244	4726.37
950.549	4692.7
950.854	4673.72
951.16	4638.24
951.465	4611.35
951.77	4584.91
952.075	4576.77
952.38	4545.36
952.685	4534.74
952.99	4556.66
953.294	4526.15
953.599	4483.67
953.904	4499.03
954.209	4435.53
954.513	4431.47
954.818	4443.22
955.122	4378.13
955.426	4377
955.731	4322.09
956.035	4353.5
956.339	4315.31
956.643	4324.58
956.948	4298.14
957.252	4236.67
957.556	4236.67
957.86	4252.94
958.163	4210.91
958.467	4220.17
958.771	4168.87
959.075	4137.24
959.378	4100.17
959.682	4167.29
959.985	4112.6
960.289	4066.73
960.592	4068.76
960.896	4060.63
961.199	4029.89
961.502	4032.61
961.805	3951.48
962.108	3957.13
962.411	3972.72
962.714	3965.71
963.017	3932.27
963.32	3933.63
963.623	3934.08
963.926	3848.88
964.228	3852.27
964.531	3822.22
964.833	3841.2
965.136	3796.68
965.438	3800.52
965.741	3799.62
966.043	3723.01
966.345	3715.33
966.648	3711.26
966.95	3682.11
967.252	3686.17
967.554	3668.55
967.856	3612.73
968.158	3640.53
968.46	3632.62
968.761	3595.78
969.063	3593.75
969.365	3570.25
969.666	3567.76
969.968	3537.7
970.269	3490.02
970.571	3504.71
970.872	3515.78
971.174	3482.11
971.475	3444.37
971.776	3459.74
972.077	3464.26
972.378	3434.88
972.679	3426.29
972.98	3381.78
973.281	3383.13
973.582	3354.66
973.883	3387.65
974.183	3322.12
974.484	3305.39
974.785	3323.25
975.085	3274.21
975.386	3303.59
975.686	3276.02
975.986	3223.81
976.287	3250.03
976.587	3195.34
976.887	3171.16
977.187	3217.26
977.487	3192.4
977.787	3141.78
978.087	3150.82
978.387	3116.7
978.687	3129.13
978.987	3128.45
979.286	3113.99
979.586	3110.6
979.885	3072.18
980.185	3059.07
980.484	3033.08
980.784	3056.13
981.083	2983.37
981.382	2985.4
981.682	3022.69
981.981	2956.25
982.28	2926.19
982.579	2932.52
982.878	2952.41
983.177	2909.02
983.475	2906.31
983.774	2890.04
984.073	2871.96
984.372	2845.52
984.67	2841.9
984.969	2845.29
985.267	2817.5
985.566	2791.96
985.864	2817.04
986.162	2821.11
986.461	2746.31
986.759	2768.01
987.057	2729.59
987.355	2732.3
987.653	2728.23
987.951	2711.96
988.249	2710.83
988.547	2698.63
988.844	2682.81
989.142	2684.39
989.44	2660.89
989.737	2620.89
990.035	2646.2
990.332	2630.83
990.63	2633.09
990.927	2589.03
991.224	2577.73
991.521	2570.72
991.819	2576.6
992.116	2565.98
992.413	2523.94
992.71	2497.05
993.006	2503.83
993.303	2479.65
993.6	2497.28
993.897	2506.54
994.193	2436.04
994.49	2438.3
994.787	2415.93
995.083	2377.96
995.379	2426.32
995.676	2432.65
995.972	2421.35
996.268	2353.33
996.565	2349.94
996.861	2369.82
997.157	2343.84
997.453	2339.54
997.749	2373.89
998.044	2316.27
998.34	2297.51
998.636	2293.67
998.932	2254.57
999.227	2285.99
999.523	2243.27
999.818	2233.56
1000.114	2212.99
1000.409	2195.14
1000.704	2183.61
1001	2221.58
1001.295	2188.59
1001.59	2145.2
1001.885	2180.9
1002.18	2125.09
1002.475	2118.31
1002.77	2112.2
1003.065	2107.46
1003.359	2119.21
1003.654	2106.1
1003.949	2079.44
1004.243	2058.19
1004.538	2050.06
1004.832	2038.76
1005.127	2016.84
1005.421	2039.44
1005.715	2000.12
1006.009	2015.48
1006.304	2008.7
1006.598	1978.87
1006.892	1992.43
1007.186	1942.27
1007.48	1973.22
1007.773	1930.51
1008.067	1941.14
1008.361	1931.64
1008.655	1915.15
1008.948	1884.87
1009.242	1878.31
1009.535	1865.66
1009.829	1876.96
1010.122	1858.65
1010.415	1867.92
1010.708	1825.43
1011.001	1821.36
1011.295	1809.16
1011.588	1827.01
1011.881	1788.15
1012.173	1761.93
1012.466	1764.42
1012.759	1753.12
1013.052	1747.24
1013.344	1738.65
1013.637	1728.26
1013.93	1687.81
1014.222	1699.79
1014.514	1703.63
1014.807	1702.95
1015.099	1676.28
1015.391	1682.39
1015.683	1619.79
1015.976	1646.23
1016.268	1639.9
1016.56	1624.99
1016.851	1602.61
1017.143	1623.4
1017.435	1601.03
1017.727	1583.63
1018.018	1551.77
1018.31	1579.34
1018.602	1556.29
1018.893	1567.13
1019.185	1549.06
1019.476	1524.2
1019.767	1490.07
1020.058	1523.97
1020.35	1499.34
1020.641	1506.8
1020.932	1462.73
1021.223	1479.45
1021.514	1480.58
1021.804	1449.4
1022.095	1439
1022.386	1466.35
1022.677	1444.88
1022.967	1408.04
1023.258	1409.85
1023.548	1427.93
1023.839	1391.09
1024.129	1363.98
1024.419	1368.72
1024.709	1354.48
1025	1347.93
1025.29	1357.65
1025.58	1321.04
1025.87	1310.64
1026.16	1290.98
1026.449	1301.38
1026.739	1290.76
1027.029	1302.51
1027.319	1279.23
1027.608	1256.41
1027.898	1266.35
1028.187	1252.57
1028.477	1252.57
1028.766	1264.77
1029.055	1224.77
1029.344	1236.75
1029.634	1205.79
1029.923	1190.19
1030.212	1192.91
1030.501	1185.68
1030.79	1181.38
1031.078	1161.04
1031.367	1172.12
1031.656	1166.69
1031.945	1161.04
1032.233	1160.36
1032.522	1155.85
1032.81	1119.24
1033.099	1129.86
1033.387	1137.77
1033.675	1120.82
1033.963	1124.43
1034.251	1101.38
1034.54	1088.28
1034.828	1068.16
1035.116	1074.04
1035.403	1067.71
1035.691	1048.96
1035.979	1062.29
1036.267	1048.28
1036.554	1046.24
1036.842	1016.19
1037.129	1032.01
1037.417	1020.71
1037.704	1026.36
1037.992	1004.44
1038.279	962.18
1038.566	987.49
1038.853	987.49
1039.14	987.49
