Data from hue_20_FLMS001491_26.txt Node
Date: Mon Feb 06 15:33:49 GMT 2017
User: dcchb
Spectrometer: FLMS00149
Trigger mode: 0
Integration Time (sec): 2.000000E-2
Scans to average: 10
Electric dark correction enabled: true
Nonlinearity correction enabled: false
Boxcar width: 0
XAxis mode: Wavelengths
Number of Pixels in Spectrum: 2048
>>>>>Begin Spectral Data<<<<<
341.393	-9.8
341.776	-9.8
342.16	-9.8
342.543	-83.25
342.927	-73.76
343.31	-50.48
343.693	-69.24
344.077	-48.9
344.46	-70.14
344.843	-65.39
345.226	-48.9
345.61	-30.37
345.993	-14.77
346.376	-5.96
346.759	5.56
347.142	43.53
347.525	41.95
347.908	51.44
348.291	79.69
348.674	79.46
349.057	102.51
349.44	124.43
349.823	115.84
350.206	154.94
350.588	190.64
350.971	199.46
351.354	217.54
351.737	257.76
352.119	250.3
352.502	244.43
352.884	265.44
353.267	275.39
353.65	299.12
354.032	292.34
354.414	297.31
354.797	311.32
355.179	341.83
355.562	337.53
355.944	332.56
356.326	328.72
356.709	331.21
357.091	341.15
357.473	337.53
357.855	328.04
358.238	330.08
358.62	325.33
359.002	344.09
359.384	332.11
359.766	312
360.148	349.06
360.53	336.4
360.912	340.47
361.294	313.13
361.676	317.87
362.057	311.32
362.439	327.82
362.821	346.8
363.203	331.66
363.584	323.3
363.966	315.39
364.348	326.23
364.729	310.42
365.111	326.69
365.493	316.29
365.874	317.42
366.256	317.65
366.637	317.87
367.019	307.7
367.4	307.93
367.781	301.15
368.163	311.09
368.544	304.09
368.925	303.86
369.306	309.51
369.688	297.99
370.069	301.83
370.45	304.77
370.831	311.09
371.212	312.68
371.593	291.88
371.974	305.9
372.355	314.26
372.736	302.73
373.117	328.27
373.498	321.71
373.879	312.22
374.26	317.42
374.641	303.64
375.021	314.71
375.402	312.9
375.783	335.05
376.163	332.11
376.544	320.58
376.925	322.84
377.305	304.09
377.686	302.96
378.066	343.64
378.447	319.23
378.827	339.12
379.208	318.55
379.588	324.88
379.968	336.86
380.349	324.65
380.729	330.53
381.109	343.41
381.489	344.54
381.87	343.64
382.25	332.56
382.63	350.64
383.01	344.31
383.39	343.64
383.77	345.22
384.15	348.61
384.53	327.82
384.91	349.28
385.29	344.76
385.67	338.89
386.049	342.96
386.429	334.37
386.809	335.95
387.189	357.42
387.568	355.39
387.948	344.09
388.328	340.7
388.707	361.71
389.087	358.55
389.466	355.39
389.846	347.02
390.225	366.91
390.605	346.12
390.984	337.76
391.363	363.52
391.743	366.23
392.122	342.05
392.501	377.08
392.881	383.63
393.26	364.2
393.639	363.07
394.018	374.37
394.397	363.3
394.776	363.3
395.155	368.95
395.534	374.59
395.913	359.45
396.292	382.73
396.671	381.83
397.05	370.98
397.429	384.09
397.808	371.2
398.186	383.86
398.565	380.24
398.944	393.8
399.323	389.74
399.701	390.64
400.08	380.24
400.458	380.7
400.837	380.92
401.215	399.23
401.594	403.97
401.972	377.31
402.351	380.24
402.729	393.13
403.107	419.57
403.486	398.1
403.864	394.93
404.242	379.79
404.62	395.61
404.999	399
405.377	387.02
405.755	414.37
406.133	415.05
406.511	419.57
406.889	405.1
407.267	426.57
407.645	418.89
408.023	420.7
408.401	435.61
408.779	419.34
409.156	437.64
409.534	432.45
409.912	426.8
410.29	433.8
410.667	452.33
411.045	435.61
411.422	418.66
411.8	441.26
412.178	455.04
412.555	437.42
412.933	463.41
413.31	437.87
413.687	456.85
414.065	473.8
414.442	457.98
414.819	483.07
415.197	471.99
415.574	498.21
415.951	473.8
416.328	474.71
416.705	465.89
417.082	448.27
417.46	484.65
417.837	479.45
418.214	509.51
418.591	504.99
418.967	483.97
419.344	497.3
419.721	506.79
420.098	481.48
420.475	503.4
420.852	511.31
421.228	508.38
421.605	520.13
421.982	511.09
422.358	520.13
422.735	504.99
423.111	513.35
423.488	490.3
423.864	535.49
424.241	545.21
424.617	535.04
424.994	543.86
425.37	517.19
425.746	546.79
426.123	517.42
426.499	546.57
426.875	545.89
427.251	549.05
427.627	555.38
428.003	555.83
428.379	562.39
428.756	532.56
429.132	580.24
429.507	567.81
429.883	573.01
430.259	607.13
430.635	591.54
431.011	582.72
431.387	591.54
431.763	598.32
432.138	613.91
432.514	603.97
432.89	606.9
433.265	616.62
433.641	591.54
434.016	597.87
434.392	629.73
434.767	624.08
435.143	642.61
435.518	656.17
435.894	636.96
436.269	654.36
436.644	669.05
437.02	657.75
437.395	672.89
437.77	680.58
438.145	678.99
438.52	699.33
438.895	676.28
439.271	685.77
439.646	692.1
440.021	677.41
440.395	696.39
440.77	674.93
441.145	697.75
441.52	729.39
441.895	727.81
442.27	701.37
442.645	695.49
443.019	724.87
443.394	727.13
443.769	730.07
444.143	722.38
444.518	735.26
444.892	727.81
445.267	727.58
445.641	742.49
446.016	750.4
446.39	756.05
446.764	737.75
447.139	777.52
447.513	770.52
447.887	750.18
448.262	768.93
448.636	751.31
449.01	766.9
449.384	782.27
449.758	776.84
450.132	805.77
450.506	794.02
450.88	802.61
451.254	807.8
451.628	811.19
452.002	808.71
452.376	826.33
452.75	824.75
453.123	844.64
453.497	853.9
453.871	861.81
454.244	860.01
454.618	873.56
454.992	875.15
455.365	871.3
455.739	911.08
456.112	906.33
456.486	875.37
456.859	933
457.232	930.96
457.606	895.94
457.979	917.63
458.352	962.15
458.725	956.27
459.099	956.27
459.472	965.99
459.845	973.45
460.218	983.62
460.591	986.56
460.964	1038.08
461.337	1017.52
461.71	1034.46
462.083	1059.32
462.456	1042.15
462.829	1045.99
463.201	1068.14
463.574	1052.54
463.947	1067.46
464.32	1114.46
464.692	1120.34
465.065	1098.42
465.438	1123.28
465.81	1126.89
466.183	1167.34
466.555	1182.26
466.928	1185.19
467.3	1172.09
467.672	1191.07
468.045	1216.15
468.417	1234.01
468.789	1229.49
469.161	1269.03
469.534	1255.02
469.906	1291.63
470.278	1327.79
470.65	1337.06
471.022	1323.95
471.394	1387.22
471.766	1397.84
472.138	1405.3
472.51	1420.67
472.882	1449.37
473.253	1469.03
473.625	1462.7
473.997	1535.92
474.369	1541.8
474.74	1536.82
475.112	1598.97
475.484	1610.95
475.855	1656.59
476.227	1660.66
476.598	1694.79
476.97	1753.09
477.341	1738.63
477.713	1781.34
478.084	1817.95
478.455	1827.21
478.827	1875.8
479.198	1946.76
479.569	1949.47
479.94	1977.94
480.311	2024.27
480.682	2092.06
481.053	2117.83
481.424	2163.47
481.795	2187.88
482.166	2222
482.537	2212.74
482.908	2316.69
483.279	2306.07
483.65	2389.46
484.021	2430.13
484.391	2459.74
484.762	2509.45
485.133	2523.01
485.503	2563.24
485.874	2654.53
486.244	2701.99
486.615	2715.32
486.985	2761.88
487.356	2822.44
487.726	2845.72
488.097	2942.21
488.467	2926.62
488.837	2975.88
489.207	3039.61
489.578	3099.95
489.948	3117.57
490.318	3190.11
490.688	3207.97
491.058	3293.84
491.428	3319.15
491.798	3341.3
492.168	3426.27
492.538	3421.29
492.908	3465.81
493.278	3533.61
493.648	3541.52
494.017	3618.35
494.387	3613.38
494.757	3685.02
495.126	3754.17
495.496	3755.52
495.866	3758.23
496.235	3834.84
496.605	3866.71
496.974	3854.28
497.344	3938.12
497.713	3964.33
498.082	3974.27
498.452	4037.78
498.821	4095.63
499.19	4026.02
499.559	4108.06
499.928	4103.76
500.298	4176.08
500.667	4208.62
501.036	4178.56
501.405	4241.39
501.774	4267.37
502.143	4296.98
502.512	4321.84
502.88	4360.25
503.249	4359.35
503.618	4376.98
503.987	4397.09
504.356	4452.91
504.724	4481.61
505.093	4461.04
505.462	4485
505.83	4519.12
506.199	4565.44
506.567	4607.93
506.936	4597.53
507.304	4670.75
507.672	4652.22
508.041	4721.15
508.409	4669.62
508.777	4678.44
509.145	4793.69
509.514	4750.3
509.882	4817.87
510.25	4824.2
510.618	4843.18
510.986	4829.84
511.354	4857.64
511.722	4912.33
512.09	4957.3
512.458	4892.89
512.826	4946.45
513.193	4940.12
513.561	4966.11
513.929	5008.6
514.297	5033.91
514.664	5069.16
515.032	5060.35
515.4	5091.31
515.767	5108.93
516.135	5113.68
516.502	5078.43
516.869	5154.13
517.237	5153
517.604	5092.89
517.972	5177.41
518.339	5208.14
518.706	5254.24
519.073	5266.44
519.44	5264.86
519.808	5297.86
520.175	5266.22
520.542	5320.91
520.909	5367.68
521.276	5346.67
521.643	5388.7
522.009	5448.59
522.376	5483.39
522.743	5493.56
523.11	5529.04
523.477	5501.24
523.843	5568.13
524.21	5568.58
524.577	5574.68
524.943	5625.53
525.31	5661.24
525.676	5675.7
526.043	5769.03
526.409	5734.45
526.776	5845.64
527.142	5817.16
527.508	5812.87
527.874	5828.24
528.241	5869.82
528.607	5952.3
528.973	5931.74
529.339	5927.89
529.705	5968.57
530.071	6055.8
530.437	6039.3
530.803	6055.8
531.169	6119.98
531.535	6159.98
531.901	6179.64
532.267	6145.97
532.632	6228.23
532.998	6216.25
533.364	6254.21
533.73	6277.94
534.095	6338.96
534.461	6370.37
534.826	6328.34
535.192	6370.6
535.557	6525.17
535.923	6455.11
536.288	6438.84
536.653	6503.93
537.019	6492.4
537.384	6512.06
537.749	6580.53
538.114	6586.63
538.479	6609.68
538.845	6621.21
539.21	6660.08
539.575	6718.38
539.94	6678.16
540.305	6733.07
540.67	6749.12
541.034	6778.04
541.399	6769.23
541.764	6860.3
542.129	6866.85
542.494	6879.73
542.858	6918.38
543.223	6923.12
543.587	6945.5
543.952	6965.38
544.316	7001.31
544.681	7050.58
545.045	7068.43
545.41	7126.51
545.774	7172.38
546.138	7153.4
546.503	7148.2
546.867	7164.02
547.231	7306.62
547.595	7242.44
547.959	7255.32
548.324	7360.4
548.688	7314.07
549.052	7357.91
549.416	7393.17
549.779	7430.23
550.143	7433.62
550.507	7548.42
550.871	7500.06
551.235	7519.94
551.599	7533.95
551.962	7635.87
552.326	7600.17
552.689	7610.79
553.053	7643.56
553.417	7622.77
553.78	7711.58
554.143	7716.77
554.507	7770.11
554.87	7738.69
555.234	7916.54
555.597	7796.55
555.96	7833.83
556.323	7876.77
556.686	7878.35
557.05	7966.71
557.413	7890.1
557.776	7941.85
558.139	7953.83
558.502	7995.86
558.865	8080.38
559.228	8147.5
559.59	8086.93
559.953	8069.08
560.316	8140.04
560.679	8226.59
561.041	8217.55
561.404	8256.42
561.767	8281.28
562.129	8297.1
562.492	8385.23
562.854	8380.26
563.217	8385.23
563.579	8361.05
563.941	8471.33
564.304	8405.12
564.666	8496.87
565.028	8541.61
565.39	8545.91
565.753	8542.29
566.115	8601.95
566.477	8654.6
566.839	8646.69
567.201	8679.69
567.563	8673.81
567.925	8787.48
568.287	8774.15
568.648	8858.44
569.01	8850.08
569.372	8886.24
569.734	8880.13
570.095	8938.44
570.457	8946.57
570.819	9055.95
571.18	9100.24
571.542	9121.26
571.903	9135.72
572.265	9173.91
572.626	9305.66
572.987	9266.79
573.349	9327.35
573.71	9434.02
574.071	9496.39
574.432	9503.62
574.794	9665.65
575.155	9670.62
575.516	9669.04
575.877	9789.26
576.238	9773.67
576.599	9917.62
576.96	9973.21
577.32	10030.84
577.681	10188.57
578.042	10284.16
578.403	10321.68
578.763	10393.31
579.124	10519.41
579.485	10662.46
579.845	10789.01
580.206	10849.35
580.566	10951.04
580.927	11223.12
581.287	11326.85
581.648	11452.27
582.008	11630.34
582.368	11726.61
582.728	11929.77
583.089	12176.09
583.449	12301.06
583.809	12435.07
584.169	12697.43
584.529	12817.21
584.889	13242.96
585.249	13223.07
585.609	13439.34
585.969	13792.09
586.329	13999.32
586.688	14256.72
587.048	14574.67
587.408	14762.92
587.768	15044.72
588.127	15293.98
588.487	15511.15
588.846	15909.78
589.206	16052.15
589.565	16425.25
589.925	16821.62
590.284	17088.05
590.643	17403.07
591.003	17767.81
591.362	18074.47
591.721	18356.49
592.08	18769.37
592.44	19157.83
592.799	19390.82
593.158	19791.49
593.517	20170.01
593.876	20530.45
594.235	20820.84
594.593	21174.73
594.952	21525.9
595.311	21923.18
595.67	22301.93
596.029	22701.47
596.387	23165.63
596.746	23463.71
597.104	23750.48
597.463	24045.16
597.822	24503.9
598.18	24832.26
598.538	25174.17
598.897	25719.69
599.255	25860.7
599.613	26508.37
599.972	26741.36
600.33	27132.76
600.688	27402.81
601.046	27739.07
601.404	28221.32
601.762	28572.5
602.12	28972.49
602.478	29362.76
602.836	29661.28
603.194	29925.46
603.552	30217.88
603.91	30502.62
604.268	30897.18
604.625	31137.85
604.983	31722.47
605.341	31700.78
605.698	32303.47
606.056	32583.24
606.413	32853.74
606.771	33151.59
607.128	33650.33
607.485	33598.58
607.843	34039.92
608.2	34408.73
608.557	34835.16
608.914	34934.82
609.272	35364.18
609.629	35586.32
609.986	36049.59
610.343	36115.35
610.7	36551.27
611.057	36664.94
611.414	37057.92
611.771	37114.19
612.127	37428.54
612.484	37710.34
612.841	37983.55
613.198	37967.28
613.554	38322.98
613.911	38631.44
614.267	38874.83
614.624	39006.57
614.98	39138.77
615.337	39593.9
615.693	39661.92
616.05	39772.43
616.406	40274.56
616.762	40146.2
617.118	40423.71
617.475	40586.42
617.831	40893.98
618.187	41010.36
618.543	41157.25
618.899	41686.28
619.255	41543.46
619.611	41703
619.967	41996.78
620.323	42250.78
620.678	42136.43
621.034	42249.2
621.39	42441.96
621.746	42390.44
622.101	43121.49
622.457	42714.05
622.812	42938.22
623.168	43261.15
623.523	43308.16
623.879	43433.8
624.234	43295.5
624.589	43535.27
624.945	43616.4
625.3	43841.47
625.655	43906.33
626.01	43843.73
626.365	44052.99
626.72	44066.1
627.075	44162.6
627.43	44213.67
627.785	44180.9
628.14	44285.3
628.495	44465.19
628.85	44550.38
629.205	44495.02
629.559	44603.04
629.914	44527.56
630.269	44630.15
630.623	44653.2
630.978	44762.58
631.332	44796.25
631.687	44969.35
632.041	44801.45
632.396	44874.44
632.75	44650.04
633.104	44913.99
633.459	44842.13
633.813	44956.47
634.167	44887.32
634.521	44963.48
634.875	44951.28
635.229	44880.32
635.583	44813.2
635.937	44925.97
636.291	44825.18
636.645	45039.41
636.999	44965.96
637.352	45116.02
637.706	44888.9
638.06	45017.04
638.413	44883.71
638.767	44964.61
639.121	45026.75
639.474	44754.67
639.828	44756.25
640.181	44931.16
640.534	44812.97
640.888	44828.57
641.241	44720.32
641.594	44805.97
641.947	44966.42
642.301	44760.09
642.654	44772.75
643.007	44730.26
643.36	44726.2
643.713	44795.57
644.066	45043.7
644.419	44589.7
644.771	44378.64
645.124	44000.79
645.477	44066.55
645.83	43744.3
646.182	43748.37
646.535	43508.15
646.888	43622.5
647.24	43514.93
647.593	43727.13
647.945	43642.38
648.298	43327.14
648.65	43461.37
649.002	43267.25
649.355	43479.22
649.707	43452.33
650.059	43682.83
650.411	44048.7
650.763	44135.48
651.115	44411.85
651.467	44216.38
651.819	44445.53
652.171	44271.29
652.523	44359.2
652.875	44365.98
653.227	44105.65
653.578	44424.28
653.93	44202.82
654.282	44098.87
654.633	43973.67
654.985	44044.18
655.337	44065.88
655.688	44130.28
656.039	44295.02
656.391	44013.22
656.742	44028.14
657.094	44013
657.445	44260.45
657.796	44092.09
658.147	44014.58
658.498	43977.29
658.849	44004.63
659.2	44017.29
659.551	43912.88
659.902	43945.88
660.253	43964.41
660.604	44063.84
660.955	43759.89
661.306	43982.04
661.656	43876.73
662.007	43915.6
662.358	43974.35
662.708	43797.18
663.059	43843.28
663.409	43674.02
663.76	43879.44
664.11	43822.72
664.461	43898.42
664.811	43955.82
665.161	43774.13
665.511	43714.25
665.862	43788.37
666.212	43841.25
666.562	43905.88
666.912	43801.25
667.262	43800.57
667.612	43740.23
667.962	43860.91
668.312	43724.42
668.662	43843.96
669.011	43831.98
669.361	43678.77
669.711	43685.32
670.06	43597.41
670.41	43668.37
670.76	43612.78
671.109	43796.5
671.459	43672.44
671.808	43551.54
672.157	43658.65
672.507	43416.17
672.856	43499.56
673.205	43504.99
673.554	43639.67
673.904	43417.76
674.253	43658.88
674.602	43506.79
674.951	42982.29
675.3	42780.49
675.649	43443.74
675.998	43348.15
676.346	43369.4
676.695	43559
677.044	43232.22
677.393	43225.9
677.741	43461.82
678.09	43326.69
678.438	43046.69
678.787	43260.92
679.135	43175.73
679.484	43056.18
679.832	43101.61
680.181	42972.8
680.529	43097.09
680.877	42897.32
681.225	42918.33
681.573	43141.83
681.922	42763.31
682.27	42721.5
682.618	42573.49
682.966	42533.26
683.314	42699.13
683.661	42468.18
684.009	42362.64
684.357	42227.96
684.705	42217.34
685.053	42261.63
685.4	42095.08
685.748	42059.83
686.095	41955.2
686.443	41835.43
686.79	41880.4
687.138	41986.16
687.485	41930.34
687.832	41888.08
688.18	41815.09
688.527	41528.31
688.874	41580.06
689.221	41430.69
689.568	41483.8
689.915	41436.34
690.262	41295.33
690.609	41216.91
690.956	41029.57
691.303	41018.05
691.65	40759.75
691.997	40907.54
692.344	40639.75
692.69	40611.5
693.037	40606.31
693.383	40205.64
693.73	40357.27
694.077	40249.48
694.423	40133.1
694.769	40030.28
695.116	39865.53
695.462	39916.61
695.808	39758.19
696.155	39840
696.501	39620.34
696.847	39413.79
697.193	39263.29
697.539	39393.68
697.885	39152.56
698.231	38979.91
698.577	38914.6
698.923	38972.68
699.269	38679.8
699.614	38539.01
699.96	38516.42
700.306	38567.94
700.651	38402.75
700.997	38354.84
701.342	38255.41
701.688	38383.76
702.033	38048.86
702.379	37935.87
702.724	37901.07
703.069	37988.97
703.415	37480.51
703.76	37540.85
704.105	37667.4
704.45	37413.17
704.795	37301.53
705.14	37218.15
705.485	37221.08
705.83	36993.29
706.175	37167.75
706.52	37051.14
706.865	36820.64
707.209	36793.98
707.554	36686.18
707.899	36748.55
708.243	36545.17
708.588	36509.92
708.932	36247.78
709.277	36357.38
709.621	36258.4
709.966	36039.65
710.31	36301.33
710.654	35869.93
710.998	35977.05
711.342	35867.9
711.687	35751.52
712.031	35589.49
712.375	35525.53
712.719	35431.75
713.063	35511.3
713.407	35615.25
713.75	35280.12
714.094	35363.51
714.438	35217.07
714.782	35133.91
715.125	34949.73
715.469	35076.73
715.812	34966.91
716.156	34729.4
716.499	34777.76
716.843	34924.87
717.186	34521.27
717.53	34763.52
717.873	34683.3
718.216	34649.17
718.559	34473.81
718.902	34252.12
719.246	34282.86
719.589	34268.17
719.932	34050.77
720.275	34220.26
720.617	34024.78
720.96	34012.81
721.303	34027.27
721.646	33996.76
721.989	33858.01
722.331	33902.07
722.674	33780.95
723.016	33728.07
723.359	33531.01
723.701	33644.91
724.044	33430.22
724.386	33318.81
724.729	33480.84
725.071	33424.8
725.413	33373.28
725.755	33338.25
726.097	33194.07
726.439	32961.76
726.782	32973.74
727.124	33152.04
727.465	32862.55
727.807	32950.69
728.149	32846.28
728.491	32732.16
728.833	32761.99
729.175	32630.02
729.516	32683.12
729.858	32666.63
730.199	32503.69
730.541	32669.11
730.882	32515.22
731.224	32545.5
731.565	32190.71
731.906	32354.54
732.248	32359.74
732.589	32354.77
732.93	32148.45
733.271	32251.5
733.612	32082.46
733.953	32161.1
734.294	32007.89
734.635	31976.02
734.976	32027.32
735.317	31829.13
735.658	31816.71
735.999	31840.21
736.339	31886.76
736.68	31903.94
737.021	31733.54
737.361	31663.26
737.702	31803.15
738.042	31628.01
738.383	31524.51
738.723	31636.37
739.063	31504.85
739.404	31560.89
739.744	31232.99
740.084	31258.3
740.424	31238.42
740.764	31246.33
741.104	31158.19
741.444	31084.3
741.784	30987.58
742.124	31117.06
742.464	31093.79
742.804	31025.31
743.143	30956.16
743.483	30918.88
743.823	30751.42
744.162	30859.67
744.502	30752.55
744.841	30619.45
745.181	30785.55
745.52	30619.45
745.86	30763.4
746.199	30548.72
746.538	30537.64
746.877	30476.18
747.216	30459
747.556	30464.88
747.895	30457.65
748.234	30310.76
748.573	30273.7
748.911	30151.44
749.25	30163.42
749.589	30225.56
749.928	30237.76
750.267	30193.25
750.605	30089.07
750.944	30038.9
751.283	29905.12
751.621	29965.46
751.96	29720.26
752.298	29852.69
752.636	29835.97
752.975	29583.54
753.313	29603.88
753.651	29727.5
753.989	29488.41
754.327	29439.37
754.666	29413.15
755.004	29480.27
755.342	29509.65
755.679	29361.86
756.017	29192.82
756.355	29180.84
756.693	29202.76
757.031	29250.9
757.368	29121.41
757.706	28937.91
758.044	28826.73
758.381	28875.09
758.719	28814.75
759.056	28817.46
759.394	28739.05
759.731	28419.51
760.068	28337.02
760.405	28302.67
760.743	28210.92
761.08	28296.12
761.417	28155.79
761.754	28223.35
762.091	28036.92
762.428	27906.07
762.765	27926.19
763.102	27889.13
763.438	27705.85
763.775	27565.07
764.112	27627.66
764.449	27596.25
764.785	27496.82
765.122	27330.27
765.458	27212.53
765.795	27207.34
766.131	27287.56
766.467	27086.89
766.804	26968.7
767.14	26772.32
767.476	26843.5
767.812	26635.83
768.148	26624.53
768.485	26593.34
768.821	26406
769.157	26431.08
769.492	26385.44
769.828	26359.22
770.164	26136.86
770.5	26072.9
770.836	26003.75
771.171	25780.03
771.507	25759.01
771.842	25596.76
772.178	25649.41
772.513	25490.32
772.849	25460.04
773.184	25277.67
773.519	25344.11
773.855	25165.81
774.19	25187.95
774.525	24998.13
774.86	24945.02
775.195	25014.17
775.53	24825.93
775.865	24729.89
776.2	24653.05
776.535	24405.6
776.87	24461.64
777.205	24338.94
777.539	24187.3
777.874	24239.05
778.209	24128.77
778.543	24019.85
778.878	23941.66
779.212	23795.67
779.547	23647.66
779.881	23738.27
780.215	23560.65
780.55	23580.54
780.884	23396.59
781.218	23326.31
781.552	23354.56
781.886	23213.09
782.22	23113.66
782.554	23026.88
782.888	22804.74
783.222	22685.42
783.556	22732.42
783.889	22676.83
784.223	22422.15
784.557	22387.58
784.89	22512.77
785.224	22254.92
785.557	22211.31
785.891	22203.85
786.224	22092.44
786.558	22070.75
786.891	21911.88
787.224	21821.26
787.557	21836.18
787.891	21590.08
788.224	21603.42
788.557	21610.42
788.89	21529.29
789.223	21537.43
789.556	21236.19
789.888	21316.42
790.221	21195.97
790.554	20968.63
790.887	21096.08
791.219	20959.82
791.552	20968.18
791.884	20844.11
792.217	20885.69
792.549	20676.89
792.882	20607.28
793.214	20509.88
793.546	20588.53
793.879	20326.16
794.211	20265.6
794.543	20293.17
794.875	20220.4
795.207	20232.15
795.539	20102.89
795.871	20105.38
796.203	19876.23
796.535	19929.33
796.867	19733.63
797.198	19706.97
797.53	19752.39
797.862	19587.65
798.193	19575.67
798.525	19487.99
798.856	19531.61
799.188	19323.47
799.519	19297.03
799.85	19182.91
800.182	19158.28
800.513	19215.91
800.844	18948.34
801.175	19007.78
801.506	19010.26
801.837	18876.93
802.168	18824.28
802.499	18732.98
802.83	18790.38
803.161	18657.28
803.491	18573.21
803.822	18595.58
804.153	18525.3
804.483	18418.64
804.814	18234.24
805.145	18233.56
805.475	18266.78
805.805	18140.46
806.136	18188.36
806.466	18240.79
806.796	18111.3
807.126	18029.95
807.457	17755.61
807.787	17893
808.117	17906.34
808.447	17789.28
808.777	17857.07
809.107	17756.28
809.436	17663.18
809.766	17655.27
810.096	17630.86
810.426	17559.91
810.755	17516.97
811.085	17553.8
811.414	17459.34
811.744	17257.31
812.073	17301.83
812.403	17280.14
812.732	17183.19
813.061	17120.14
813.39	17009.19
813.719	17049.18
814.049	17073.14
814.378	17008.51
814.707	16931.22
815.036	16871.34
815.365	16844.9
815.693	16666.82
816.022	16586.82
816.351	16621.85
816.68	16487.17
817.008	16590.89
817.337	16483.78
817.665	16383.89
817.994	16388.18
818.322	16409.2
818.651	16287.17
818.979	16295.31
819.307	16355.87
819.636	16289.43
819.964	16230.9
820.292	16269.77
820.62	16151.58
820.948	16161.98
821.276	16191.58
821.604	16162.43
821.932	16160.85
822.259	16227.51
822.587	16145.93
822.915	16018.48
823.243	16107.74
823.57	16039.95
823.898	15997.91
824.225	15990.46
824.553	15964.02
824.88	16027.74
825.207	16091.92
825.535	15932.15
825.862	16059.15
826.189	15921.98
826.516	16071.36
826.843	16048.31
827.17	16067.06
827.497	16012.83
827.824	16003.11
828.151	16100.96
828.478	16019.83
828.805	16087.63
829.131	15959.04
829.458	16017.8
829.785	15935.54
830.111	15920.85
830.438	16070
830.764	15966.73
831.09	16015.09
831.417	15965.82
831.743	15971.02
832.069	15995.43
832.395	15877.24
832.722	15997.01
833.048	15880.4
833.374	15826.84
833.7	15851.25
834.026	15919.95
834.351	15931.25
834.677	15828.43
835.003	15844.92
835.329	15792.04
835.654	15822.1
835.98	15654.19
836.306	15739.61
836.631	15610.58
836.956	15665.27
837.282	15663.01
837.607	15649
837.932	15580.97
838.258	15641.31
838.583	15534.2
838.908	15478.15
839.233	15535.55
839.558	15422.79
839.883	15477.25
840.208	15327.65
840.533	15412.62
840.858	15308.67
841.182	15287.87
841.507	15350.92
841.832	15233.19
842.156	15340.98
842.481	15204.94
842.805	15194.54
843.13	15145.73
843.454	15100.54
843.778	15087.43
844.103	15034.32
844.427	14886.08
844.751	14959.07
845.075	14931.73
845.399	14973.08
845.723	14810.37
846.047	14795.23
846.371	14745.29
846.695	14666.42
847.019	14539.19
847.343	14523.83
847.666	14418.75
847.99	14404.96
848.313	14362.93
848.637	14258.3
848.96	14269.37
849.284	14280.44
849.607	14119.32
849.931	14106.89
850.254	13992.32
850.577	13932.2
850.9	13824.64
851.223	13861.47
851.546	13784.19
851.869	13627.58
852.192	13743.28
852.515	13564.08
852.838	13543.51
853.161	13576.96
853.483	13468.49
853.806	13368.38
854.129	13425.32
854.451	13315.72
854.774	13315.27
855.096	13315.27
855.419	13149.85
855.741	13127.25
856.063	13096.07
856.385	13126.58
856.708	12996.41
857.03	12878.45
857.352	13040.7
857.674	12979.01
857.996	12877.99
858.318	12831.44
858.64	12837.77
858.961	12783.31
859.283	12708.51
859.605	12649.53
859.926	12682.52
860.248	12645.01
860.57	12648.4
860.891	12633.03
861.212	12580.6
861.534	12492.24
861.855	12454.5
862.176	12459.47
862.498	12498.12
862.819	12439.81
863.14	12448.4
863.461	12329.76
863.782	12233.49
864.103	12318.46
864.424	12258.58
864.745	12352.36
865.065	12282.08
865.386	12143.32
865.707	12150.33
866.027	12190.1
866.348	12098.13
866.668	12130.44
866.989	12063.33
867.309	12033.72
867.63	12029.66
867.95	12044.57
868.27	11983.55
868.59	11988.98
868.91	11958.47
869.23	11987.4
869.55	11838.7
869.87	11935.65
870.19	11921.64
870.51	11920.73
870.83	11881.86
871.15	11740.85
871.469	11800.96
871.789	11835.54
872.109	11783.79
872.428	11693.62
872.748	11765.03
873.067	11737.69
873.386	11651.59
873.706	11622.66
874.025	11602.55
874.344	11614.3
874.663	11578.82
874.982	11543.34
875.301	11525.94
875.62	11469.9
875.939	11513.06
876.258	11448.43
876.577	11411.82
876.896	11393.29
877.214	11348.54
877.533	11374.76
877.852	11419.73
878.17	11415.66
878.489	11312.61
878.807	11322.78
879.125	11334.31
879.444	11319.62
879.762	11259.28
880.08	11304.02
880.398	11229.45
880.716	11220.41
881.034	11135.44
881.352	11186.29
881.67	11179.73
881.988	11237.59
882.306	11102.67
882.624	11071.71
882.941	11096.12
883.259	11055.22
883.577	11030.81
883.894	10949.68
884.212	10931.15
884.529	10886.41
884.846	10940.87
885.164	10934.54
885.481	10855.45
885.798	10830.14
886.115	10747.66
886.432	10737.49
886.75	10748.33
887.067	10727.32
887.383	10736.58
887.7	10653.65
888.017	10638.73
888.334	10616.81
888.651	10640.99
888.967	10484.16
889.284	10484.61
889.6	10472.41
889.917	10434.44
890.233	10468.34
890.55	10416.14
890.866	10317.84
891.182	10341.11
891.498	10290.49
891.815	10226.76
892.131	10234.9
892.447	10282.36
892.763	10198.97
893.079	10148.12
893.395	10157.84
893.71	10077.84
894.026	10132.98
894.342	10041.69
894.657	9880.11
894.973	10005.53
895.289	9944.06
895.604	9974.34
895.92	9845.08
896.235	9845.76
896.55	9864.97
896.865	9816.15
897.181	9783.61
897.496	9783.84
897.811	9735.7
898.126	9663.16
898.441	9581.58
898.756	9546.1
899.071	9525.54
899.386	9593.79
899.7	9525.31
900.015	9483.06
900.33	9375.71
900.644	9376.39
900.959	9424.98
901.273	9388.14
901.588	9252.33
901.902	9235.83
902.216	9206.9
902.531	9219.33
902.845	9183.4
903.159	9170.97
903.473	9087.59
903.787	9049.62
904.101	9023.18
904.415	9029.51
904.729	8986.8
905.042	8946.8
905.356	8885.33
905.67	8896.18
905.984	8816.18
906.297	8809.18
906.611	8788.38
906.924	8683.08
907.237	8700.03
907.551	8603.76
907.864	8615.06
908.177	8629.97
908.491	8523.76
908.804	8546.81
909.117	8460.71
909.43	8431.33
909.743	8365.8
910.056	8382.75
910.368	8347.49
910.681	8320.15
910.994	8305.23
911.307	8251.22
911.619	8155.18
911.932	8162.41
912.244	8167.38
912.557	8131
912.869	8054.84
913.181	8022.98
913.494	7998.12
913.806	7975.07
914.118	7973.26
914.43	7892.82
914.742	7889.2
915.054	7831.12
915.366	7790.44
915.678	7826.6
915.99	7771.69
916.302	7735.53
916.613	7649.66
916.925	7732.82
917.236	7707.51
917.548	7593.39
917.859	7605.82
918.171	7564.91
918.482	7526.5
918.794	7443.34
919.105	7415.99
919.416	7334.19
919.727	7357.46
920.038	7387.52
920.349	7311.36
920.66	7209.9
920.971	7187.07
921.282	7226.39
921.593	7173.51
921.903	7151.59
922.214	7081.54
922.525	7061.65
922.835	7050.8
923.146	7019.62
923.456	7024.14
923.767	6995.89
924.077	6919.96
924.387	6894.42
924.697	6834.09
925.008	6818.04
925.318	6873.41
925.628	6794.99
925.938	6756.12
926.248	6719.51
926.558	6712.96
926.867	6654.2
927.177	6673.41
927.487	6617.37
927.796	6526.52
928.106	6576.92
928.416	6485.85
928.725	6498.5
929.034	6471.38
929.344	6481.33
929.653	6444.94
929.962	6377.15
930.271	6388.9
930.581	6341.22
930.89	6314.55
931.199	6266.42
931.508	6264.61
931.817	6269.81
932.125	6180.77
932.434	6206.53
932.743	6131.28
933.051	6097.16
933.36	6042.92
933.669	6075.91
933.977	5994.79
934.286	5973.32
934.594	5970.15
934.902	5929.93
935.21	5923.83
935.519	5898.07
935.827	5944.84
936.135	5833.89
936.443	5826.43
936.751	5774.9
937.059	5789.82
937.367	5741.01
937.674	5705.75
937.982	5706.43
938.29	5659.65
938.597	5687.45
938.905	5625.76
939.213	5606.32
939.52	5555.7
939.827	5555.02
940.135	5522.48
940.442	5525.42
940.749	5519.09
941.056	5529.26
941.363	5435.25
941.67	5432.31
941.977	5376.27
942.284	5379.43
942.591	5346.67
942.898	5385.99
943.205	5349.15
943.511	5304.18
943.818	5242.94
944.125	5220.12
944.431	5214.69
944.738	5226.67
945.044	5143.73
945.35	5166.56
945.657	5096.05
945.963	5081.36
946.269	5061.25
946.575	5061.7
946.881	5029.16
947.187	5033
947.493	4971.31
947.799	4966.56
948.105	4949.16
948.41	4964.3
948.716	4903.52
949.022	4894.02
949.327	4853.8
949.633	4800.47
949.938	4812.44
950.244	4809.73
950.549	4736.74
950.854	4742.62
951.16	4731.54
951.465	4732.9
951.77	4714.82
952.075	4660.81
952.38	4658.32
952.685	4633.47
952.99	4586.01
953.294	4591.88
953.599	4586.24
953.904	4541.94
954.209	4477.99
954.513	4527.03
954.818	4484.09
955.122	4481.83
955.426	4455.17
955.731	4429.63
956.035	4414.49
956.339	4397.09
956.643	4375.62
956.948	4329.97
957.252	4375.39
957.556	4362.51
957.86	4325.68
958.163	4311.44
958.467	4222.86
958.771	4234.15
959.075	4215.4
959.378	4225.79
959.682	4175.85
959.985	4192.8
960.289	4173.59
960.592	4119.35
960.896	4125.91
961.199	4130.43
961.502	4099.24
961.805	4098.11
962.108	4062.18
962.411	4002.3
962.714	4004.33
963.017	3990.54
963.32	3960.26
963.623	3930.66
963.926	3962.75
964.228	3890.43
964.531	3948.96
964.833	3906.03
965.136	3824
965.438	3845.46
965.741	3828.29
966.043	3811.57
966.345	3814.96
966.648	3781.96
966.95	3784.45
967.252	3786.03
967.554	3746.26
967.856	3723.43
968.158	3707.16
968.46	3659.25
968.761	3693.38
969.063	3673.26
969.365	3601.85
969.666	3612.25
969.968	3607.96
970.269	3590.33
970.571	3572.02
970.872	3588.3
971.174	3519.14
971.475	3551.23
971.776	3521.63
972.077	3498.13
972.378	3472.82
972.679	3455.42
972.98	3489.77
973.281	3434.18
973.582	3408.64
973.883	3426.27
974.183	3370.67
974.484	3373.84
974.785	3351.92
975.085	3347.85
975.386	3334.29
975.686	3362.09
975.986	3304.24
976.287	3295.87
976.587	3273.73
976.887	3230.34
977.187	3265.82
977.487	3239.83
977.787	3215.88
978.087	3170
978.387	3199.61
978.687	3191.92
978.987	3169.78
979.286	3124.13
979.586	3150.34
979.885	3126.39
980.185	3096.11
980.484	3073.05
980.784	3057.69
981.083	3088.2
981.382	3069.44
981.682	3028.31
981.981	2999.84
982.28	3019.27
982.579	3001.64
982.878	2973.4
983.177	2914.41
983.475	2974.98
983.774	2911.7
984.073	2892.04
984.372	2886.17
984.67	2895.21
984.969	2914.64
985.267	2891.14
985.566	2829.45
985.864	2854.08
986.162	2865.83
986.461	2830.58
986.759	2817.02
987.057	2800.29
987.355	2761.88
987.653	2748.54
987.951	2774.98
988.249	2772.72
988.547	2747.64
988.844	2708.09
989.142	2716.68
989.44	2684.36
989.737	2699.96
990.035	2682.78
990.332	2685.27
990.63	2663.57
990.927	2670.81
991.224	2608.89
991.521	2610.92
991.819	2609.56
992.116	2580.86
992.413	2558.49
992.71	2568.89
993.006	2536.12
993.303	2558.94
993.6	2519.17
993.897	2516.46
994.193	2504.48
994.49	2473.97
994.787	2453.18
995.083	2445.95
995.379	2456.8
995.676	2427.87
995.972	2427.42
996.268	2416.57
996.565	2431.49
996.861	2385.84
997.157	2381.1
997.453	2386.97
997.749	2355.11
998.044	2339.06
998.34	2307.88
998.636	2327.99
998.932	2310.81
999.227	2315.79
999.523	2296.8
999.818	2283.25
1000.114	2290.93
1000.409	2268.1
1000.704	2256.81
1001	2240.31
1001.295	2221.33
1001.59	2215.68
1001.885	2173.87
1002.18	2220.42
1002.475	2160.31
1002.77	2150.82
1003.065	2151.72
1003.359	2148.11
1003.654	2114.44
1003.949	2127.99
1004.243	2089.35
1004.538	2081.67
1004.832	2099.75
1005.127	2052.74
1005.421	2043.93
1005.715	2032.63
1006.009	2025.17
1006.304	2008.9
1006.598	2014.33
1006.892	1986.53
1007.186	1979.3
1007.48	1967.32
1007.773	1976.13
1008.067	1967.32
1008.361	1949.69
1008.655	1947.43
1008.948	1892.07
1009.242	1897.27
1009.535	1877.83
1009.829	1907.66
1010.122	1867.66
1010.415	1864.05
1010.708	1861.56
1011.001	1856.36
1011.295	1826.99
1011.588	1807.33
1011.881	1808
1012.173	1822.92
1012.466	1784.28
1012.759	1765.97
1013.052	1780.43
1013.344	1786.31
1013.637	1715.8
1013.93	1748.57
1014.222	1736.37
1014.514	1738.85
1014.807	1694.79
1015.099	1658.85
1015.391	1708.57
1015.683	1704.73
1015.976	1674.9
1016.268	1669.7
1016.56	1639.42
1016.851	1663.37
1017.143	1616.6
1017.435	1603.49
1017.727	1626.99
1018.018	1609.36
1018.31	1579.53
1018.602	1576.37
1018.893	1573.66
1019.185	1568.69
1019.476	1556.48
1019.767	1537.28
1020.058	1530.72
1020.35	1515.13
1020.641	1503.83
1020.932	1492.31
1021.223	1497.73
1021.514	1485.3
1021.804	1471.51
1022.095	1437.62
1022.386	1450.5
1022.677	1433.55
1022.967	1412.99
1023.258	1408.92
1023.548	1412.99
1023.839	1383.16
1024.129	1389.03
1024.419	1409.14
1024.709	1353.1
1025	1347.22
1025.29	1359.43
1025.58	1349.94
1025.87	1289.37
1026.16	1341.12
1026.449	1335.02
1026.739	1275.59
1027.029	1302.03
1027.319	1272.65
1027.608	1273.33
1027.898	1275.81
1028.187	1278.98
1028.477	1281.24
1028.766	1288.02
1029.055	1217.06
1029.344	1245.31
1029.634	1222.48
1029.923	1215.93
1030.212	1227.91
1030.501	1212.09
1030.79	1173.9
1031.078	1175.7
1031.367	1169.38
1031.656	1163.73
1031.945	1148.81
1032.233	1160.56
1032.522	1152.2
1032.81	1121.24
1033.099	1128.25
1033.387	1119.66
1033.675	1103.16
1033.963	1089.6
1034.251	1108.13
1034.54	1088.7
1034.828	1079.89
1035.116	1067.91
1035.403	1102.71
1035.691	1069.04
1035.979	1069.27
1036.267	1040.57
1036.554	1051.41
1036.842	1051.19
1037.129	1027.23
1037.417	1020.68
1037.704	1060
1037.992	1022.04
1038.279	1005.76
1038.566	1012.09
1038.853	1012.09
1039.14	1012.09
