Data from hue_90_FLMS001491_23.txt Node
Date: Mon Feb 06 15:24:53 GMT 2017
User: dcchb
Spectrometer: FLMS00149
Trigger mode: 0
Integration Time (sec): 2.000000E-2
Scans to average: 10
Electric dark correction enabled: true
Nonlinearity correction enabled: false
Boxcar width: 0
XAxis mode: Wavelengths
Number of Pixels in Spectrum: 2048
>>>>>Begin Spectral Data<<<<<
341.393	-24
341.776	-24
342.16	-24
342.543	-51.11
342.927	-89.31
343.31	-87.27
343.693	-53.83
344.077	-57.22
344.46	-47.95
344.843	-58.12
345.226	-24
345.61	-37.56
345.993	-28.74
346.376	-2.3
346.759	16.23
347.142	10.13
347.525	27.75
347.908	61.65
348.291	61.88
348.674	86.28
349.057	133.06
349.44	142.33
349.823	147.07
350.206	145.04
350.588	213.74
350.971	206.28
351.354	230.46
351.737	247.63
352.119	232.95
352.502	251.48
352.884	276.33
353.267	280.63
353.65	279.72
354.032	297.58
354.414	308.42
354.797	304.36
355.179	316.11
355.562	307.52
355.944	331.7
356.326	328.54
356.709	318.14
357.091	322.21
357.473	344.13
357.855	324.24
358.238	337.58
358.62	342.1
359.002	340.06
359.384	350
359.766	335.54
360.148	320.18
360.53	350
360.912	334.41
361.294	331.7
361.676	330.34
362.057	351.59
362.439	338.71
362.821	324.92
363.203	325.82
363.584	336.9
363.966	333.73
364.348	333.51
364.729	318.59
365.111	328.99
365.493	307.97
365.874	311.36
366.256	325.37
366.637	313.85
367.019	324.47
367.4	317.01
367.781	326.73
368.163	305.94
368.544	326.95
368.925	306.16
369.306	321.31
369.688	331.7
370.069	316.79
370.45	310.23
370.831	296
371.212	311.59
371.593	298.03
371.974	314.3
372.355	315.88
372.736	309.78
373.117	319.95
373.498	328.08
373.879	312.72
374.26	311.59
374.641	294.41
375.021	304.81
375.402	337.35
375.783	332.6
376.163	335.32
376.544	317.01
376.925	337.35
377.305	337.12
377.686	345.03
378.066	330.8
378.447	335.77
378.827	330.34
379.208	314.3
379.588	354.3
379.968	341.42
380.349	339.84
380.729	328.54
381.109	349.55
381.489	330.34
381.87	332.38
382.25	332.15
382.63	341.19
383.01	368.31
383.39	371.47
383.77	337.35
384.15	347.97
384.53	354.3
384.91	342.77
385.29	357.91
385.67	340.97
386.049	348.2
386.429	342.1
386.809	359.04
387.189	360.17
387.568	368.76
387.948	339.61
388.328	347.52
388.707	332.6
389.087	379.83
389.466	361.76
389.846	363.11
390.225	368.76
390.605	341.64
390.984	373.06
391.363	372.83
391.743	389.33
392.122	385.48
392.501	389.33
392.881	387.07
393.26	378.93
393.639	377.12
394.018	380.96
394.397	371.7
394.776	378.48
395.155	392.49
395.534	386.39
395.913	384.35
396.292	387.97
396.671	389.78
397.05	406.95
397.429	400.63
397.808	399.04
398.186	403.56
398.565	420.29
398.944	414.86
399.323	407.4
399.701	405.14
400.08	400.85
400.458	395.88
400.837	406.73
401.215	413.28
401.594	415.77
401.972	386.61
402.351	432.04
402.729	418.7
403.107	409.21
403.486	415.77
403.864	409.44
404.242	430
404.62	415.09
404.999	440.17
405.377	431.36
405.755	442.21
406.133	427.97
406.511	455.54
406.889	446.95
407.267	447.63
407.645	445.14
408.023	445.6
408.401	442.21
408.779	466.84
409.156	471.36
409.534	474.97
409.912	472.49
410.29	475.43
410.667	508.87
411.045	480.85
411.422	462.09
411.8	473.39
412.178	491.24
412.555	488.76
412.933	474.52
413.31	503.67
413.687	502.32
414.065	524.92
414.442	489.66
414.819	490.34
415.197	490.79
415.574	522.43
415.951	504.58
416.328	514.07
416.705	534.41
417.082	519.04
417.46	536.67
417.837	547.74
418.214	534.18
418.591	528.98
418.967	531.7
419.344	548.19
419.721	544.58
420.098	554.97
420.475	548.87
420.852	571.92
421.228	553.62
421.605	540.51
421.982	558.36
422.358	557.23
422.735	583.22
423.111	569.43
423.488	590.68
423.864	591.58
424.241	599.26
424.617	596.55
424.994	616.44
425.37	597.68
425.746	607.63
426.123	595.2
426.499	594.74
426.875	633.84
427.251	616.89
427.627	622.54
428.003	661.64
428.379	647.62
428.756	659.83
429.132	634.07
429.507	668.64
429.883	670.67
430.259	649.21
430.635	678.58
431.011	661.18
431.387	712.71
431.763	704.8
432.138	700.05
432.514	714.29
432.89	706.61
433.265	736.44
433.641	730.79
434.016	719.94
434.392	731.92
434.767	743.44
435.143	723.78
435.518	764.91
435.894	769.2
436.269	775.53
436.644	772.59
437.02	767.4
437.395	800.61
437.77	785.47
438.145	799.71
438.52	787.28
438.895	807.85
439.271	820.05
439.646	818.47
440.021	810.56
440.395	841.74
440.77	847.84
441.145	846.26
441.52	859.14
441.895	860.5
442.27	860.95
442.645	864.34
443.019	882.87
443.394	851.91
443.769	885.58
444.143	868.41
444.518	885.36
444.892	905.47
445.267	880.61
445.641	931.46
446.016	918.8
446.39	902.53
446.764	935.53
447.139	924.68
447.513	929.88
447.887	942.08
448.262	921.74
448.636	938.01
449.01	941.18
449.384	980.5
449.758	966.26
450.132	981.4
450.506	997.45
450.88	967.62
451.254	994.28
451.628	989.99
452.002	1013.04
452.376	1007.61
452.75	1026.15
453.123	1044.22
453.497	1041.51
453.871	1030.21
454.244	1079.25
454.618	1099.59
454.992	1121.51
455.365	1099.36
455.739	1130.78
456.112	1142.98
456.486	1139.36
456.859	1145.01
457.232	1172.13
457.606	1173.49
457.979	1181.85
458.352	1215.97
458.725	1215.74
459.099	1235.86
459.472	1247.38
459.845	1255.07
460.218	1263.2
460.591	1287.61
460.964	1280.15
461.337	1297.78
461.71	1337.55
462.083	1365.12
462.456	1375.29
462.829	1371.22
463.201	1395.4
463.574	1403.76
463.947	1428.85
464.32	1449.86
464.692	1467.04
465.065	1486.92
465.438	1509.07
465.81	1543.42
466.183	1563.76
466.555	1617.77
466.928	1627.94
467.3	1609.86
467.672	1656.86
468.045	1667.03
468.417	1702.06
468.789	1676.52
469.161	1756.3
469.534	1779.8
469.906	1816.86
470.278	1811.21
470.65	1847.59
471.022	1863.86
471.394	1940.02
471.766	1961.71
472.138	2011.2
472.51	2034.71
472.882	2097.3
473.253	2115.61
473.625	2153.8
473.997	2233.8
474.369	2251.42
474.74	2294.59
475.112	2347.24
475.484	2377.07
475.855	2456.84
476.227	2459.1
476.598	2561.92
476.97	2591.08
477.341	2685.54
477.713	2721.92
478.084	2727.57
478.455	2849.15
478.827	2947.9
479.198	3009.82
479.569	3051.4
479.94	3191.29
480.311	3256.14
480.682	3340.89
481.053	3439.19
481.424	3510.15
481.795	3590.82
482.166	3697.26
482.537	3735.9
482.908	3829.46
483.279	3992.4
483.65	4052.96
484.021	4221.99
484.391	4305.83
484.762	4348.09
485.133	4414.53
485.503	4594.41
485.874	4644.13
486.244	4817.68
486.615	4929.77
486.985	5028.3
487.356	5195.75
487.726	5240.5
488.097	5406.82
488.467	5525.01
488.837	5659.47
489.207	5842.97
489.578	5921.38
489.948	6018.56
490.318	6155.95
490.688	6204.99
491.058	6428.49
491.428	6546.45
491.798	6708.03
492.168	6873
492.538	6939.89
492.908	7095.14
493.278	7268.24
493.648	7284.74
494.017	7467.56
494.387	7613.54
494.757	7716.59
495.126	7816.93
495.496	7905.29
495.866	8073.42
496.235	8207.65
496.605	8350.02
496.974	8450.13
497.344	8507.08
497.713	8620.52
498.082	8764.92
498.452	8878.37
498.821	8973.28
499.19	8970.34
499.559	9123.56
499.928	9217.12
500.298	9361.52
500.667	9490.78
501.036	9477.22
501.405	9663.43
501.774	9729.65
502.143	9842.18
502.512	9881.51
502.88	9996.98
503.249	9999.02
503.618	10191.33
503.987	10250.54
504.356	10330.53
504.724	10428.84
505.093	10456.18
505.462	10545.22
505.83	10588.61
506.199	10771.65
506.567	10811.42
506.936	10909.05
507.304	11066.33
507.672	11058.65
508.041	11124.64
508.409	11220.91
508.777	11300.45
509.145	11350.17
509.514	11381.58
509.882	11468.13
510.25	11527.34
510.618	11606.88
510.986	11643.95
511.354	11728.69
511.722	11841.91
512.09	11961
512.458	11893.43
512.826	12013.2
513.193	12022.01
513.561	12012.07
513.929	12053.88
514.297	12224.49
514.664	12251.16
515.032	12286.41
515.4	12346.53
515.767	12466.75
516.135	12480.31
516.502	12383.59
516.869	12650.25
517.237	12613.64
517.604	12602.56
517.972	12643.02
518.339	12664.26
518.706	12729.11
519.073	12769.57
519.44	12815.89
519.808	12860.86
520.175	12828.55
520.542	13061.76
520.909	13073.29
521.276	13038.48
521.643	13171.59
522.009	13160.52
522.376	13167.75
522.743	13262.66
523.11	13358.7
523.477	13340.85
523.843	13474.63
524.21	13513.5
524.577	13554.18
524.943	13512.14
525.31	13511.69
525.676	13658.81
526.043	13623.33
526.409	13679.82
526.776	13725.02
527.142	13749.88
527.508	13800.27
527.874	13833.72
528.241	13865.81
528.607	13862.87
528.973	13932.02
529.339	13918.24
529.705	13932.02
530.071	14019.25
530.437	14002.53
530.803	14155.52
531.169	14081.85
531.535	14041.85
531.901	14062.19
532.267	14090.43
532.632	14110.1
532.998	14026.48
533.364	14041.85
533.73	14109.42
534.095	14137.66
534.461	14148.96
534.826	14150.55
535.192	14115.97
535.557	14177.21
535.923	14164.1
536.288	14083.2
536.653	14122.07
537.019	14034.84
537.384	14046.82
537.749	14112.35
538.114	14147.61
538.479	14019.02
538.845	14020.38
539.21	13977.9
539.575	13956.88
539.94	13921.85
540.305	13944.68
540.67	13922.08
541.034	13956.88
541.399	13933.15
541.764	13922.3
542.129	13814.06
542.494	13869.65
542.858	13834.85
543.223	13840.72
543.587	13901.96
543.952	13750.33
544.316	13801.63
544.681	13758.01
545.045	13745.36
545.41	13851.34
545.774	13725.7
546.138	13674.63
546.503	13725.7
546.867	13654.74
547.231	13595.53
547.595	13608.64
547.959	13600.73
548.324	13550.34
548.688	13555.53
549.052	13496.1
549.416	13553.05
549.779	13575.19
550.143	13537.45
550.507	13541.3
550.871	13423.79
551.235	13471.02
551.599	13564.35
551.962	13496.78
552.326	13381.75
552.689	13515.08
553.053	13329.1
553.417	13398.7
553.78	13497
554.143	13464.91
554.507	13402.32
554.87	13363.9
555.234	13360.74
555.597	13351.24
555.96	13329.32
556.323	13353.5
556.686	13321.19
557.05	13417.46
557.413	13283.45
557.776	13332.49
558.139	13370.45
558.502	13268.54
558.865	13293.39
559.228	13350.34
559.59	13332.26
559.953	13376.33
560.316	13477.12
560.679	13431.24
561.041	13391.02
561.404	13446.84
561.767	13451.13
562.129	13294.07
562.492	13548.3
562.854	13426.95
563.217	13507.4
563.579	13453.84
563.941	13483.9
564.304	13509.88
564.666	13621.29
565.028	13580.84
565.39	13587.62
565.753	13592.14
566.115	13488.64
566.477	13624.68
566.839	13682.31
567.201	13624.01
567.563	13730.44
567.925	13709.43
568.287	13747.39
568.648	13750.33
569.01	13831.91
569.372	13790.1
569.734	13734.51
570.095	13865.81
570.457	13900.16
570.819	13870.78
571.18	13856.54
571.542	13889.08
571.903	13979.48
572.265	13945.35
572.626	13998.23
572.987	13988.29
573.349	14075.29
573.71	14012.24
574.071	14021.06
574.432	14060.83
574.794	14125.69
575.155	14076.88
575.516	13994.39
575.877	14184.22
576.238	14138.57
576.599	14147.16
576.96	14159.36
577.32	14150.55
577.681	14116.42
578.042	14190.09
578.403	14160.49
578.763	14131.56
579.124	14237.78
579.485	14287.94
579.845	14277.1
580.206	14192.58
580.566	14148.74
580.927	14193.03
581.287	14238.68
581.648	14186.03
582.008	14235.06
582.368	14208.62
582.728	14169.3
583.089	14193.93
583.449	14153.03
583.809	14155.07
584.169	14013.15
584.529	14162.52
584.889	14252.46
585.249	14166.82
585.609	14021.51
585.969	14179.7
586.329	14092.02
586.688	14142.86
587.048	14108.51
587.408	14144.9
587.768	14123.2
588.127	14084.33
588.487	14058.57
588.846	14148.51
589.206	14068.06
589.565	14065.58
589.925	14173.37
590.284	14076.88
590.643	14103.77
591.003	14092.02
591.362	14124.56
591.721	14075.07
592.08	14059.02
592.44	14039.59
592.799	14053.37
593.158	13959.59
593.517	14000.72
593.876	13919.82
594.235	13995.52
594.593	13997.78
594.952	14004.56
595.311	13885.92
595.67	13962.98
596.029	14129.3
596.387	14121.39
596.746	14083.43
597.104	13940.16
597.463	13948.52
597.822	14049.53
598.18	13922.3
598.538	13990.55
598.897	13998.91
599.255	13917.33
599.613	14100.83
599.972	13977.22
600.33	13997.1
600.688	13913.49
601.046	14043.66
601.404	14002.98
601.762	14019.93
602.12	14056.99
602.478	14047.05
602.836	14055.18
603.194	13904.68
603.552	14067.16
603.91	13964.11
604.268	13962.75
604.625	13958.01
604.983	14060.15
605.341	13929.08
605.698	14008.4
606.056	14121.62
606.413	14046.37
606.771	14043.2
607.128	14037.33
607.485	13981.74
607.843	14022.41
608.2	14073.26
608.557	14054.73
608.914	14065.35
609.272	14097.44
609.629	14047.5
609.986	14219.24
610.343	14060.6
610.7	14219.47
611.057	14120.04
611.414	14216.08
611.771	14194.84
612.127	14314.16
612.484	14222.41
612.841	14231.45
613.198	14225.12
613.554	14150.55
613.911	14243.42
614.267	14279.81
614.624	14217.21
614.98	14287.94
615.337	14423.31
615.693	14365.46
616.05	14322.74
616.406	14351.22
616.762	14293.14
617.118	14245.91
617.475	14283.2
617.831	14328.62
618.187	14375.17
618.543	14423.08
618.899	14521.61
619.255	14448.62
619.611	14331.33
619.967	14515.28
620.323	14510.54
620.678	14464.89
621.034	14433.25
621.39	14386.25
621.746	14358.9
622.101	14550.31
622.457	14417.66
622.812	14372.46
623.168	14429.41
623.523	14485.68
623.879	14545.34
624.234	14376.53
624.589	14466.24
624.945	14432.8
625.3	14461.5
625.655	14432.12
626.01	14516.41
626.365	14448.39
626.72	14500.14
627.075	14508.05
627.43	14438.22
627.785	14341.95
628.14	14506.47
628.495	14477.32
628.85	14376.08
629.205	14396.64
629.559	14462.4
629.914	14445
630.269	14371.56
630.623	14408.39
630.978	14312.8
631.332	14347.6
631.687	14312.8
632.041	14286.36
632.396	14293.59
632.75	14319.36
633.104	14323.42
633.459	14191.67
633.813	14268.73
634.167	14233.03
634.521	14218.79
634.875	14190.77
635.229	14204.33
635.583	14099.25
635.937	14108.06
636.291	14056.99
636.645	14094.95
636.999	14068.97
637.352	14176.53
637.706	13985.58
638.06	14030.78
638.413	14044.79
638.767	13989.19
639.121	14035.52
639.474	13854.51
639.828	13914.17
640.181	13928.18
640.534	13920.95
640.888	13833.49
641.241	13768.18
641.594	13816.32
641.947	13942.42
642.301	13842.53
642.654	13940.83
643.007	13890.67
643.36	13800.27
643.713	13809.54
644.066	13884.56
644.419	13796.66
644.771	13652.03
645.124	13604.57
645.477	13572.26
645.83	13449.55
646.182	13416.55
646.535	13388.76
646.888	13394.41
647.24	13280.74
647.593	13419.94
647.945	13357.8
648.298	13316.9
648.65	13331.58
649.002	13201.64
649.355	13270.12
649.707	13231.93
650.059	13392.15
650.411	13549.43
650.763	13602.76
651.115	13689.09
651.467	13650.67
651.819	13694.51
652.171	13661.29
652.523	13613.16
652.875	13603.67
653.227	13558.02
653.578	13678.02
653.93	13728.18
654.282	13635.53
654.633	13522.09
654.985	13599.15
655.337	13591.24
655.688	13590.79
656.039	13660.39
656.391	13579.26
656.742	13601.86
657.094	13590.56
657.445	13651.12
657.796	13512.82
658.147	13568.64
658.498	13591.92
658.849	13583.1
659.2	13550.11
659.551	13499.04
659.902	13549.88
660.253	13606.15
660.604	13602.54
660.955	13467.63
661.306	13565.25
661.656	13548.98
662.007	13528.19
662.358	13556.44
662.708	13679.15
663.059	13620.16
663.409	13588.07
663.76	13654.29
664.11	13577.45
664.461	13658.36
664.811	13568.87
665.161	13624.68
665.511	13650.9
665.862	13638.47
666.212	13678.02
666.562	13654.74
666.912	13610.22
667.262	13636.21
667.612	13610
667.962	13599.83
668.312	13600.73
668.662	13613.38
669.011	13747.84
669.361	13595.98
669.711	13556.44
670.06	13587.4
670.41	13518.47
670.76	13485.25
671.109	13590.33
671.459	13583.1
671.808	13525.93
672.157	13510.56
672.507	13485.03
672.856	13480.28
673.205	13518.7
673.554	13547.85
673.904	13478.7
674.253	13538.58
674.602	13544.01
674.951	13240.74
675.3	13265.37
675.649	13388.76
675.998	13410.68
676.346	13441.86
676.695	13459.49
677.044	13306.73
677.393	13357.57
677.741	13418.59
678.09	13329.78
678.438	13323
678.787	13360.96
679.135	13324.13
679.484	13266.28
679.832	13207.75
680.181	13279.83
680.529	13263.11
680.877	13165.04
681.225	13215.66
681.573	13238.93
681.922	13156
682.27	12988.99
682.618	13022.89
682.966	13052.72
683.314	13064.02
683.661	12959.39
684.009	12963.68
684.357	12938.37
684.705	12942.67
685.053	12930.24
685.4	12896.79
685.748	12811.15
686.095	12834.87
686.443	12805.95
686.79	12745.39
687.138	12785.16
687.485	12790.36
687.832	12800.3
688.18	12640.76
688.527	12623.35
688.874	12644.37
689.221	12620.19
689.568	12502.45
689.915	12527.09
690.262	12549.91
690.609	12442.57
690.956	12438.73
691.303	12439.86
691.65	12317.15
691.997	12287.32
692.344	12230.82
692.69	12193.31
693.037	12222.24
693.383	12045.06
693.73	12131.84
694.077	11965.97
694.423	12073.31
694.769	12052.3
695.116	11940.89
695.462	11941.34
695.808	11836.48
696.155	11883.49
696.501	11819.53
696.847	11754.68
697.193	11638.52
697.539	11677.84
697.885	11637.17
698.231	11523.27
698.577	11574.34
698.923	11520.56
699.269	11457.28
699.614	11341.35
699.96	11354.24
700.306	11364.4
700.651	11372.54
700.997	11236.5
701.342	11202.15
701.688	11218.42
702.033	11190.62
702.379	11189.95
702.724	11164.41
703.069	11127.57
703.415	10967.8
703.76	11035.83
704.105	11058.2
704.45	11031.31
704.795	10907.47
705.14	10894.13
705.485	10821.14
705.83	10842.38
706.175	10808.04
706.52	10742.05
706.865	10737.08
707.209	10681.26
707.554	10620.92
707.899	10763.97
708.243	10639.9
708.588	10603.52
708.932	10519.68
709.277	10474.48
709.621	10471.09
709.966	10437.42
710.31	10455.73
710.654	10300.7
710.998	10366.69
711.342	10289.86
711.687	10361.27
712.031	10274.94
712.375	10251.21
712.719	10282.4
713.063	10232.68
713.407	10249.41
713.75	10171.44
714.094	10153.59
714.438	10076.3
714.782	10125.34
715.125	10057.32
715.469	10100.93
715.812	9998.79
716.156	9933.26
716.499	10053.93
716.843	10010.32
717.186	9964.67
717.53	9940.71
717.873	9952.69
718.216	9961.5
718.559	9865.01
718.902	9804.67
719.246	9871.56
719.589	9848.06
719.932	9815.29
720.275	9809.42
720.617	9813.48
720.96	9807.84
721.303	9825.69
721.646	9783.43
721.989	9746.82
722.331	9806.93
722.674	9759.48
723.016	9815.74
723.359	9800.15
723.701	9723.09
724.044	9692.58
724.386	9659.82
724.729	9649.87
725.071	9622.76
725.413	9675.18
725.755	9621.17
726.097	9624.56
726.439	9560.84
726.782	9626.15
727.124	9548.63
727.465	9583.43
727.807	9606.48
728.149	9555.41
728.491	9587.05
728.833	9562.87
729.175	9545.92
729.516	9486.49
729.858	9512.93
730.199	9553.83
730.541	9529.2
730.882	9519.03
731.224	9545.92
731.565	9494.85
731.906	9481.29
732.248	9516.32
732.589	9414.85
732.93	9397
733.271	9510.22
733.612	9451.23
733.953	9501.85
734.294	9500.05
734.635	9482.42
734.976	9440.84
735.317	9456.43
735.658	9459.37
735.999	9450.33
736.339	9419.37
736.68	9455.75
737.021	9437
737.361	9416.21
737.702	9423.44
738.042	9415.76
738.383	9502.98
738.723	9472.25
739.063	9431.35
739.404	9411.24
739.744	9490.78
740.084	9456.21
740.424	9463.66
740.764	9473.61
741.104	9508.86
741.444	9507.28
741.784	9490.78
742.124	9522.19
742.464	9582.3
742.804	9553.6
743.143	9567.84
743.483	9600.38
743.823	9477.9
744.162	9576.88
744.502	9601.51
744.841	9693.94
745.181	9684.67
745.52	9668.18
745.86	9710.21
746.199	9769.87
746.538	9712.7
746.877	9806.48
747.216	9922.18
747.556	9825.91
747.895	9905.46
748.234	9850.77
748.573	9899.81
748.911	10008.28
749.25	10103.87
749.589	10052.57
749.928	10168.5
750.267	10245.79
750.605	10293.7
750.944	10339.35
751.283	10333.7
751.621	10533.24
751.96	10566.01
752.298	10600.58
752.636	10659.56
752.975	10734.59
753.313	10775.49
753.651	10924.42
753.989	10985.88
754.327	11129.83
754.666	11208.02
755.004	11346.1
755.342	11490.5
755.679	11501.8
756.017	11573.89
756.355	11724.4
756.693	11804.17
757.031	11946.99
757.368	12063.82
757.706	12170.26
758.044	12255
758.381	12426.07
758.719	12538.39
759.056	12697.7
759.394	12789.23
759.731	12810.92
760.068	12971.37
760.405	13038.48
760.743	13237.8
761.08	13556.44
761.417	13486.38
761.754	13634.18
762.091	13753.72
762.428	13901.74
762.765	14017.89
763.102	14200.49
763.438	14222.18
763.775	14387.83
764.112	14553.02
764.449	14708.72
764.785	14780.81
765.122	14912.79
765.458	15055.83
765.795	15143.51
766.131	15350.97
766.467	15365.43
766.804	15519.55
767.14	15608.81
767.476	15767.23
767.812	15897.84
768.148	16055.13
768.485	16038.41
768.821	16095.13
769.157	16267.33
769.492	16333.54
769.828	16378.51
770.164	16404.27
770.5	16543.25
770.836	16588.67
771.171	16732.17
771.507	16719.74
771.842	16915.67
772.178	16898.04
772.513	16984.14
772.849	16954.31
773.184	17058.04
773.519	17113.63
773.855	17194.76
774.19	17245.38
774.525	17240.63
774.86	17337.13
775.195	17435.66
775.53	17317.92
775.865	17389.1
776.2	17309.78
776.535	17411.48
776.87	17484.02
777.205	17472.72
777.539	17469.55
777.874	17563.11
778.209	17515.2
778.543	17476.11
778.878	17463.45
779.212	17532.6
779.547	17651.24
779.881	17571.7
780.215	17572.83
780.55	17587.97
780.884	17504.58
781.218	17567.63
781.552	17648.76
781.886	17506.16
782.22	17501.19
782.554	17526.5
782.888	17405.38
783.222	17481.31
783.556	17392.04
783.889	17343.91
784.223	17352.04
784.557	17370.35
784.89	17504.58
785.224	17390.46
785.557	17327.64
785.891	17289.45
786.224	17306.62
786.558	17409.22
786.891	17153.4
787.224	17137.13
787.557	17196.57
787.891	17133.74
788.224	17063.92
788.557	17138.49
788.89	17157.47
789.223	17085.61
789.556	17078.6
789.888	17093.75
790.221	16983.24
790.554	16942.11
790.887	16785.96
791.219	16847.65
791.552	16853.98
791.884	16828.67
792.217	16689.69
792.549	16761.32
792.882	16618.28
793.214	16582.8
793.546	16633.19
793.879	16513.87
794.211	16521.33
794.543	16538.96
794.875	16397.27
795.207	16560.43
795.539	16390.26
795.871	16354.78
796.203	16337.16
796.535	16242.47
796.867	16184.84
797.198	16147.56
797.53	16178.97
797.862	16101
798.193	16122.7
798.525	16039.99
798.856	16061.68
799.188	15874.79
799.519	15855.36
799.85	15870.05
800.182	15750.05
800.513	15850.39
800.844	15684.97
801.175	15815.36
801.506	15729.04
801.837	15668.7
802.168	15720.9
802.499	15628.93
802.83	15523.39
803.161	15513.45
803.491	15573.11
803.822	15466.44
804.153	15432.55
804.483	15341.93
804.814	15308.93
805.145	15179.67
805.475	15335.83
805.805	15183.74
806.136	15234.59
806.466	15186.45
806.796	15186
807.126	15041.14
807.457	14969.28
807.787	15024.87
808.117	14938.32
808.447	14922.05
808.777	15010.18
809.107	14901.94
809.436	14866.69
809.766	14808.61
810.096	14774.26
810.426	14719.34
810.755	14773.35
811.085	14752.34
811.414	14648.39
811.744	14604.32
812.073	14551.89
812.403	14569.97
812.732	14516.19
813.061	14487.49
813.39	14425.79
813.719	14364.78
814.049	14423.31
814.378	14313.93
814.707	14343.99
815.036	14357.09
815.365	14221.96
815.693	14151.45
816.022	14226.48
816.351	14179.92
816.68	14075.07
817.008	14210.43
817.337	13960.27
817.665	13968.63
817.994	13999.36
818.322	14022.19
818.651	13962.75
818.979	13852.93
819.307	13968.86
819.636	13839.14
819.964	13832.14
820.292	13931.34
820.62	13958.69
820.948	13750.78
821.276	13803.66
821.604	13812.02
821.932	13833.94
822.259	13845.02
822.587	13802.08
822.915	13783.78
823.243	13825.36
823.57	13793.27
823.898	13834.4
824.225	13725.25
824.553	13755.3
824.88	13692.7
825.207	13786.04
825.535	13841.63
825.862	13791.01
826.189	13812.7
826.516	13857.45
826.843	13871.23
827.17	13815.41
827.497	13817.67
827.824	13793.04
828.151	13808.63
828.478	13841.4
828.805	13835.53
829.131	13743.1
829.458	13780.39
829.785	13649.54
830.111	13810.44
830.438	13765.47
830.764	13821.06
831.09	13823.1
831.417	13716.66
831.743	13775.64
832.069	13800.72
832.395	13695.42
832.722	13748.97
833.048	13733.38
833.374	13701.97
833.7	13648.64
834.026	13725.7
834.351	13740.84
834.677	13661.75
835.003	13714.17
835.329	13692.48
835.654	13739.26
835.98	13645.02
836.306	13662.2
836.631	13544.69
836.956	13633.95
837.282	13586.27
837.607	13467.4
837.932	13576.1
838.258	13556.44
838.583	13516.21
838.908	13402.09
839.233	13419.72
839.558	13436.21
839.883	13364.8
840.208	13375.65
840.533	13328.87
840.858	13404.12
841.182	13325.93
841.507	13307.4
841.832	13210.23
842.156	13191.48
842.481	13292.04
842.805	13150.8
843.13	13174.53
843.454	13148.31
843.778	13067.64
844.103	13008.43
844.427	12946.28
844.751	13071.48
845.075	12953.06
845.399	12948.09
845.723	12851.37
846.047	12904.25
846.371	12756.68
846.695	12800.3
847.019	12655.44
847.343	12597.59
847.666	12524.37
847.99	12496.13
848.313	12603.24
848.637	12438.5
848.96	12483.02
849.284	12328.67
849.607	12249.35
849.931	12238.73
850.254	12201.22
850.577	12153.99
850.9	12030.6
851.223	11980.66
851.546	11970.49
851.869	11836.48
852.192	11968
852.515	11768.01
852.838	11696.15
853.161	11794.68
853.483	11748.8
853.806	11622.93
854.129	11638.07
854.451	11652.76
854.774	11539.54
855.096	11511.07
855.419	11458.64
855.741	11403.27
856.063	11450.73
856.385	11403.05
856.708	11308.59
857.03	11317.17
857.352	11256.38
857.674	11294.35
857.996	11223.62
858.318	11170.96
858.64	11107.69
858.961	11131.42
859.283	11133.45
859.605	11049.38
859.926	11075.37
860.248	11006.22
860.57	10976.39
860.891	10971.19
861.212	10949.27
861.534	10907.69
861.855	10827.7
862.176	10867.69
862.498	10815.04
862.819	10808.71
863.14	10721.03
863.461	10768.26
863.782	10722.84
864.103	10773.91
864.424	10665.89
864.745	10685.33
865.065	10668.83
865.386	10641.26
865.707	10642.16
866.027	10611.43
866.348	10599.68
866.668	10593.8
866.989	10502.05
867.309	10480.13
867.63	10515.84
867.95	10504.54
868.27	10474.48
868.59	10451.43
868.91	10456.18
869.23	10461.6
869.55	10369.18
869.87	10454.15
870.19	10472
870.51	10374.37
870.83	10370.53
871.15	10293.25
871.469	10307.48
871.789	10396.29
872.109	10350.87
872.428	10292.57
872.748	10269.07
873.067	10288.73
873.386	10290.53
873.706	10289.63
874.025	10133.25
874.344	10180.03
874.663	10195.85
874.982	10230.2
875.301	10170.09
875.62	10072.46
875.939	10017.55
876.258	10022.29
876.577	10011.67
876.896	10027.26
877.214	10036.98
877.533	10053.03
877.852	10003.54
878.17	9982.97
878.489	10002.63
878.807	10015.74
879.125	9937.78
879.444	9966.02
879.762	9893.93
880.08	9896.65
880.398	9850.55
880.716	9833.82
881.034	9809.19
881.352	9778.23
881.67	9836.08
881.988	9870.88
882.306	9773.49
882.624	9732.36
882.941	9658.91
883.259	9658.23
883.577	9639.93
883.894	9578.01
884.212	9573.04
884.529	9578.91
884.846	9546.83
885.164	9463.66
885.481	9444.68
885.798	9528.97
886.115	9395.19
886.432	9483.78
886.75	9388.64
887.067	9410.56
887.383	9381.41
887.7	9376.66
888.017	9304.12
888.334	9340.95
888.651	9290.33
888.967	9291.92
889.284	9156.78
889.6	9181.19
889.917	9148.87
890.233	9186.83
890.55	9091.24
890.866	9071.13
891.182	9064.58
891.498	9030.91
891.815	8992.49
892.131	9009.66
892.447	8963.56
892.763	8985.03
893.079	8916.33
893.395	8887.41
893.71	8919.5
894.026	8849.22
894.342	8849.44
894.657	8736.45
894.973	8690.8
895.289	8724.7
895.604	8723.12
895.92	8666.62
896.235	8612.16
896.55	8613.97
896.865	8619.39
897.181	8552.5
897.496	8536
897.811	8513.41
898.126	8513.63
898.441	8439.06
898.756	8439.28
899.071	8331.94
899.386	8394.09
899.7	8287.2
900.015	8301.21
900.33	8213.98
900.644	8222.34
900.959	8184.6
901.273	8157.71
901.588	8132.4
901.902	8109.12
902.216	8068.22
902.531	8054.44
902.845	8006.07
903.159	7953.42
903.473	7945.96
903.787	7890.82
904.101	7881.56
904.415	7873.2
904.729	7812.18
905.042	7722.47
905.356	7797.72
905.67	7747.78
905.984	7758.17
906.297	7726.31
906.611	7663.48
906.924	7614.45
907.237	7558.63
907.551	7577.16
907.864	7516.82
908.177	7565.41
908.491	7466.65
908.804	7455.81
909.117	7400.67
909.43	7305.53
909.743	7321.12
910.056	7363.15
910.368	7276.38
910.681	7243.38
910.994	7165.64
911.307	7219.88
911.619	7099.21
911.932	7159.32
912.244	7077.06
912.557	7061.92
912.869	7066.21
913.181	6982.15
913.494	6944.41
913.806	6960.45
914.118	6981.69
914.43	6917.06
914.742	6883.62
915.054	6829.38
915.366	6810.63
915.678	6776.5
915.99	6766.79
916.302	6800.68
916.613	6704.64
916.925	6666.67
917.236	6710.74
917.548	6610.63
917.859	6623.29
918.171	6546.9
918.482	6516.62
918.794	6527.92
919.105	6519.79
919.416	6454.93
919.727	6434.82
920.038	6454.25
920.349	6427.59
920.66	6391.88
920.971	6358.89
921.282	6337.87
921.593	6297.87
921.903	6276.63
922.214	6240.25
922.525	6204.31
922.835	6234.82
923.146	6142.85
923.456	6161.83
923.767	6085.22
924.077	6174.48
924.387	6065.56
924.697	6055.62
925.008	6066.69
925.318	6000.93
925.628	6029.86
925.938	5977.43
926.248	5913.47
926.558	5859.92
926.867	5890.2
927.177	5875.06
927.487	5816.98
927.796	5759.58
928.106	5796.87
928.416	5770.88
928.725	5762.29
929.034	5654.27
929.344	5741.5
929.653	5727.26
929.962	5638.23
930.271	5605.46
930.581	5619.92
930.89	5560.26
931.199	5525.91
931.508	5518.91
931.817	5511.23
932.125	5492.02
932.434	5489.76
932.743	5385.58
933.051	5376.99
933.36	5413.37
933.669	5346.94
933.977	5310.78
934.286	5334.28
934.594	5315.75
934.902	5225.81
935.21	5226.71
935.519	5235.75
935.827	5226.49
936.135	5199.14
936.443	5122.53
936.751	5161.4
937.059	5140.84
937.367	5095.87
937.674	5104
937.982	5065.36
938.29	5044.34
938.597	5048.86
938.905	4958.25
939.213	4995.53
939.52	4903.56
939.827	4965.7
940.135	4904.01
940.442	4877.12
940.749	4878.02
941.056	4883.22
941.363	4887.29
941.67	4834.86
941.977	4753.5
942.284	4738.59
942.591	4721.64
942.898	4720.51
943.205	4718.48
943.511	4679.83
943.818	4664.92
944.125	4644.13
944.431	4640.97
944.738	4627.41
945.044	4562.78
945.35	4559.61
945.657	4533.85
945.963	4533.85
946.269	4478.48
946.575	4492.04
946.881	4473.06
947.187	4465.83
947.493	4465.6
947.799	4400.97
948.105	4326.62
948.41	4414.76
948.716	4343.57
949.022	4371.59
949.327	4341.54
949.633	4250.02
949.938	4271.94
950.244	4276
950.549	4256.34
950.854	4260.18
951.16	4214.76
951.465	4166.4
951.77	4189
952.075	4200.3
952.38	4150.58
952.685	4165.95
952.99	4125.5
953.294	4148.55
953.599	4073.97
953.904	4059.29
954.209	4018.38
954.513	4025.16
954.818	4037.14
955.122	3981.77
955.426	3954.43
955.731	3984.03
956.035	3935
956.339	3925.05
956.643	3926.63
956.948	3916.01
957.252	3944.49
957.556	3866.75
957.86	3829.01
958.163	3832.4
958.467	3843.92
958.771	3809.8
959.075	3766.86
959.378	3767.77
959.682	3758.05
959.985	3759.41
960.289	3717.37
960.592	3692.97
960.896	3718.5
961.199	3634.89
961.502	3687.77
961.805	3598.73
962.108	3623.37
962.411	3622.46
962.714	3605.29
963.017	3596.93
963.32	3542.69
963.623	3551.28
963.926	3531.84
964.228	3546.08
964.531	3450.26
964.833	3481.22
965.136	3470.15
965.438	3445.74
965.741	3459.53
966.043	3448.91
966.345	3386.08
966.648	3416.82
966.95	3410.49
967.252	3353.32
967.554	3317.84
967.856	3374.78
968.158	3334.56
968.46	3305.41
968.761	3299.31
969.063	3287.1
969.365	3276.71
969.666	3245.52
969.968	3208.91
970.269	3192.64
970.571	3243.04
970.872	3216.14
971.174	3205.75
971.475	3168.91
971.776	3158.07
972.077	3124.62
972.378	3110.61
972.679	3113.77
972.98	3078.07
973.281	3085.98
973.582	3067.22
973.883	3049.82
974.183	3019.31
974.484	3070.84
974.785	3010.05
975.085	3029.48
975.386	3027.45
975.686	2952.42
975.986	2976.6
976.287	2976.83
976.587	2941.12
976.887	2907.68
977.187	2948.13
977.487	2870.62
977.787	2887.34
978.087	2849.37
978.387	2845.98
978.687	2861.35
978.987	2837.17
979.286	2849.83
979.586	2786.55
979.885	2806.21
980.185	2789.26
980.484	2773.22
980.784	2745.65
981.083	2765.31
981.382	2778.87
981.682	2751.98
981.981	2736.83
982.28	2692.77
982.579	2685.31
982.878	2697.06
983.177	2674.92
983.475	2652.54
983.774	2631.75
984.073	2660.9
984.372	2632.88
984.67	2605.99
984.969	2607.8
985.267	2635.82
985.566	2571.42
985.864	2537.74
986.162	2554.92
986.461	2506.56
986.759	2505.88
987.057	2515.6
987.355	2535.71
987.653	2487.35
987.951	2508.37
988.249	2462.04
988.547	2442.61
988.844	2469.05
989.142	2430.63
989.44	2426.33
989.737	2418.43
990.035	2391.76
990.332	2378.65
990.63	2365.32
990.927	2380.91
991.224	2363.06
991.521	2355.6
991.819	2354.25
992.116	2305.43
992.413	2348.6
992.71	2320.12
993.006	2290.52
993.303	2281.48
993.6	2288.94
993.897	2249.39
994.193	2278.54
994.49	2255.04
994.787	2250.07
995.083	2221.14
995.379	2225.21
995.676	2220.92
995.972	2206.68
996.268	2180.47
996.565	2198.09
996.861	2188.37
997.157	2163.06
997.453	2162.39
997.749	2121.03
998.044	2139.11
998.34	2118.09
998.636	2095.27
998.932	2084.42
999.227	2078.55
999.523	2087.81
999.818	2051.43
1000.114	2058.43
1000.409	2031.32
1000.704	2035.61
1001	2007.36
1001.295	2003.52
1001.59	2017.76
1001.885	1992.9
1002.18	1968.27
1002.475	1973.47
1002.77	1953.58
1003.065	1906.35
1003.359	1944.77
1003.654	1932.11
1003.949	1915.61
1004.243	1898.89
1004.538	1896.18
1004.832	1897.53
1005.127	1864.09
1005.421	1867.25
1005.715	1849.4
1006.009	1823.64
1006.304	1822.96
1006.598	1821.38
1006.892	1798.1
1007.186	1828.84
1007.48	1822.06
1007.773	1761.72
1008.067	1764.88
1008.361	1752.45
1008.655	1750.19
1008.948	1721.72
1009.242	1737.54
1009.535	1701.38
1009.829	1712.45
1010.122	1650.54
1010.415	1710.2
1010.708	1700.7
1011.001	1700.7
1011.295	1661.16
1011.588	1673.36
1011.881	1619.12
1012.173	1619.8
1012.466	1626.58
1012.759	1611.44
1013.052	1605.11
1013.344	1595.4
1013.637	1573.93
1013.93	1591.78
1014.222	1550.2
1014.514	1563.76
1014.807	1553.59
1015.099	1545.68
1015.391	1526.25
1015.683	1532.35
1015.976	1496.64
1016.268	1515.4
1016.56	1512.23
1016.851	1476.08
1017.143	1488.51
1017.435	1473.59
1017.727	1467.04
1018.018	1453.48
1018.31	1456.19
1018.602	1442.18
1018.893	1460.26
1019.185	1410.32
1019.476	1399.69
1019.767	1405.34
1020.058	1395.85
1020.35	1353.14
1020.641	1389.98
1020.932	1348.17
1021.223	1333.26
1021.514	1348.4
1021.804	1332.58
1022.095	1330.77
1022.386	1326.48
1022.677	1325.35
1022.967	1316.08
1023.258	1287.61
1023.548	1299.36
1023.839	1257.78
1024.129	1308.62
1024.419	1263.2
1024.709	1235.63
1025	1265.69
1025.29	1218.23
1025.58	1242.86
1025.87	1232.24
1026.16	1213.49
1026.449	1205.12
1026.739	1201.06
1027.029	1194.73
1027.319	1192.69
1027.608	1216.87
1027.898	1161.73
1028.187	1161.96
1028.477	1163.77
1028.766	1156.99
1029.055	1145.01
1029.344	1126.71
1029.634	1118.35
1029.923	1117.67
1030.212	1107.5
1030.501	1105.47
1030.79	1117.89
1031.078	1060.49
1031.367	1079.48
1031.656	1075.18
1031.945	1069.99
1032.233	1070.89
1032.522	1047.61
1032.81	1045.81
1033.099	1024.79
1033.387	1020.95
1033.675	1011.46
1033.963	1015.3
1034.251	1014.39
1034.54	1033.83
1034.828	1015.07
1035.116	987.5
1035.403	978.46
1035.691	995.41
1035.979	985.24
1036.267	954.06
1036.554	965.81
1036.842	959.48
1037.129	987.05
1037.417	939.82
1037.704	945.92
1037.992	938.69
1038.279	961.97
1038.566	935.75
1038.853	935.75
1039.14	935.75
