Data from hue_120_FLMS001491_00082.txt Node
Date: Tue Feb 07 17:00:08 GMT 2017
User: dcchb
Spectrometer: FLMS00149
Trigger mode: 0
Integration Time (sec): 2.000000E-2
Scans to average: 10
Electric dark correction enabled: true
Nonlinearity correction enabled: false
Boxcar width: 0
XAxis mode: Wavelengths
Number of Pixels in Spectrum: 2048
>>>>>Begin Spectral Data<<<<<
341.393	-12.12
341.776	-12.12
342.16	-12.12
342.543	-65.22
342.927	-74.26
343.31	-73.36
343.693	-80.82
344.077	-54.83
344.46	-41.27
344.843	-62.51
345.226	-52.57
345.61	-21.84
345.993	-20.25
346.376	-3.53
346.759	15.23
347.142	37.15
347.525	39.86
347.908	53.87
348.291	66.3
348.674	82.12
349.057	116.47
349.44	116.01
349.823	146.52
350.206	150.36
350.588	182.23
350.971	203.24
351.354	218.61
351.737	239.17
352.119	261.55
352.502	268.55
352.884	250.47
353.267	263.81
353.65	290.25
354.032	275.33
354.414	316.69
354.797	295.9
355.179	336.35
355.562	328.21
355.944	322.34
356.326	331.6
356.709	332.05
357.091	348.32
357.473	337.93
357.855	350.81
358.238	331.6
358.62	350.36
359.002	339.74
359.384	345.61
359.766	359.85
360.148	327.76
360.53	330.47
360.912	323.47
361.294	339.96
361.676	320.53
362.057	372.05
362.439	330.47
362.821	360.75
363.203	311.26
363.584	338.15
363.966	314.43
364.348	323.47
364.729	329.34
365.111	323.01
365.493	326.18
365.874	315.56
366.256	312.17
366.637	309.23
367.019	303.58
367.4	324.82
367.781	303.81
368.163	326.4
368.544	327.08
368.925	318.49
369.306	316.69
369.688	330.47
370.069	323.24
370.45	310.81
370.831	318.27
371.212	317.36
371.593	313.97
371.974	320.08
372.355	320.3
372.736	329.57
373.117	337.93
373.498	331.83
373.879	331.83
374.26	339.28
374.641	314.2
375.021	325.27
375.402	332.05
375.783	316.91
376.163	326.86
376.544	333.41
376.925	326.86
377.305	327.99
377.686	326.18
378.066	327.53
378.447	351.04
378.827	313.75
379.208	347.65
379.588	347.19
379.968	354.43
380.349	351.71
380.729	349.23
381.109	338.38
381.489	340.19
381.87	343.8
382.25	353.07
382.63	336.8
383.01	327.76
383.39	340.19
383.77	335.9
384.15	346.74
384.53	354.65
384.91	377.93
385.29	346.29
385.67	370.92
386.049	359.4
386.429	348.32
386.809	372.5
387.189	357.36
387.568	360.98
387.948	356.46
388.328	364.37
388.707	377.48
389.087	371.83
389.466	370.92
389.846	377.7
390.225	399.17
390.605	375.89
390.984	384.48
391.363	395.33
391.743	383.58
392.122	382.9
392.501	377.93
392.881	393.75
393.26	386.52
393.639	379.74
394.018	389.68
394.397	408.21
394.776	396.23
395.155	400.3
395.534	379.96
395.913	402.33
396.292	427.42
396.671	398.49
397.05	429.23
397.429	390.13
397.808	419.28
398.186	407.98
398.565	414.76
398.944	408.21
399.323	414.99
399.701	406.18
400.08	420.86
400.458	431.03
400.837	439.17
401.215	449.56
401.594	420.86
401.972	422.67
402.351	419.96
402.729	417.25
403.107	436.46
403.486	430.58
403.864	415.22
404.242	431.03
404.62	436.23
404.999	452.05
405.377	451.82
405.755	453.63
406.133	452.05
406.511	458.38
406.889	470.35
407.267	490.69
407.645	477.13
408.023	471.94
408.401	472.39
408.779	484.37
409.156	486.85
409.534	483.01
409.912	485.72
410.29	496.57
410.667	508.32
411.045	494.99
411.422	494.31
411.8	511.94
412.178	533.63
412.555	510.35
412.933	495.21
413.31	497.92
413.687	548.77
414.065	526.4
414.442	533.4
414.819	536.79
415.197	543.35
415.574	549.45
415.951	548.54
416.328	539.05
416.705	554.42
417.082	548.77
417.46	578.15
417.837	566.62
418.214	571.37
418.591	563.46
418.967	541.99
419.344	586.96
419.721	570.92
420.098	593.52
420.475	586.06
420.852	584.25
421.228	589.45
421.605	594.42
421.982	600.29
422.358	610.69
422.735	602.78
423.111	609.56
423.488	637.58
423.864	620.41
424.241	625.61
424.617	653.4
424.994	641.42
425.37	643.91
425.746	654.76
426.123	655.89
426.499	659.05
426.875	639.39
427.251	682.33
427.627	681.87
428.003	682.33
428.379	698.82
428.756	678.48
429.132	687.3
429.507	697.02
429.883	704.92
430.259	736.11
430.635	691.14
431.011	732.04
431.387	723.91
431.763	758.26
432.138	747.18
432.514	744.25
432.89	775.66
433.265	769.1
433.641	747.86
434.016	784.7
434.392	810.01
434.767	797.58
435.143	814.07
435.518	801.65
435.894	826.05
436.269	796.9
436.644	823.34
437.02	848.65
437.395	841.64
437.77	869.67
438.145	859.95
438.52	859.72
438.895	899.5
439.271	849.33
439.646	895.43
440.021	897.91
440.395	907.41
440.77	912.6
441.145	914.19
441.52	932.26
441.895	939.27
442.27	908.99
442.645	915.54
443.019	941.53
443.394	945.14
443.769	966.61
444.143	968.19
444.518	962.32
444.892	974.07
445.267	956.44
445.641	994.86
446.016	968.42
446.39	1003.45
446.764	1017.01
447.139	1009.78
447.513	1001.87
447.887	1004.8
448.262	1035.31
448.636	1010.91
449.01	1038.25
449.384	1031.47
449.758	1064.92
450.132	1080.28
450.506	1068.31
450.88	1088.87
451.254	1071.24
451.628	1068.08
452.002	1106.5
452.376	1112.82
452.75	1110.11
453.123	1121.64
453.497	1150.34
453.871	1165.7
454.244	1170.9
454.618	1198.25
454.992	1190.11
455.365	1198.02
455.739	1237.79
456.112	1239.37
456.486	1276.66
456.859	1271.46
457.232	1239.37
457.606	1261.29
457.979	1296.55
458.352	1330.67
458.725	1340.39
459.099	1335.19
459.472	1350.11
459.845	1372.93
460.218	1397.11
460.591	1391.69
460.964	1428.3
461.337	1461.52
461.71	1484.79
462.083	1512.81
462.456	1509.2
462.829	1524.56
463.201	1541.74
463.574	1560.27
463.947	1588.52
464.32	1593.72
464.692	1603.21
465.065	1591.23
465.438	1668.74
465.81	1662.41
466.183	1675.75
466.555	1725.24
466.928	1763.65
467.3	1761.17
467.672	1780.38
468.045	1828.74
468.417	1865.35
468.789	1873.48
469.161	1909.41
469.534	1926.59
469.906	1989.64
470.278	2026.25
470.65	2023.31
471.022	2073.7
471.394	2154.15
471.766	2169.97
472.138	2181.04
472.51	2235.05
472.882	2279.35
473.253	2322.28
473.625	2376.07
473.997	2431.66
474.369	2460.13
474.74	2536.97
475.112	2591.66
475.484	2613.8
475.855	2695.61
476.227	2715.04
476.598	2839.11
476.97	2876.39
477.341	2982.38
477.713	3065.99
478.084	3079.78
478.455	3164.97
478.827	3208.59
479.198	3356.83
479.569	3402.03
479.94	3524.74
480.311	3583.04
480.682	3674.11
481.053	3765.41
481.424	3898.51
481.795	3969.7
482.166	4085.85
482.537	4208.79
482.908	4315.9
483.279	4406.3
483.65	4481.77
484.021	4677.48
484.391	4751.6
484.762	4831.37
485.133	4939.62
485.503	5084.47
485.874	5190.91
486.244	5308.42
486.615	5511.8
486.985	5649.88
487.356	5783.44
487.726	5904.79
488.097	6073.37
488.467	6152.47
488.837	6325.79
489.207	6463.87
489.578	6644.88
489.948	6735.27
490.318	6882.62
490.688	7039.22
491.058	7186.79
491.428	7394.24
491.798	7486.89
492.168	7721.92
492.538	7821.8
492.908	7981.57
493.278	8114.22
493.648	8193.99
494.017	8387.89
494.387	8568.9
494.757	8639.18
495.126	8827.2
495.496	8969.79
495.866	9001.2
496.235	9166.4
496.605	9352.83
496.974	9506.95
497.344	9647.29
497.713	9713.95
498.082	9837.11
498.452	10013.15
498.821	10083.66
499.19	10181.06
499.559	10327.95
499.928	10456.53
500.298	10596.87
500.667	10744.66
501.036	10794.15
501.405	10889.29
501.774	10986.69
502.143	11097.65
502.512	11194.37
502.88	11347.13
503.249	11391.42
503.618	11486.79
503.987	11498.99
504.356	11635.26
504.724	11703.51
505.093	11797.74
505.462	11902.14
505.83	12038.64
506.199	12105.76
506.567	12301
506.936	12275.02
507.304	12401.57
507.672	12513.88
508.041	12573.77
508.409	12717.04
508.777	12764.04
509.145	12940.31
509.514	12879.29
509.882	12948.67
510.25	13042.23
510.618	13098.95
510.986	13170.59
511.354	13231.83
511.722	13408.55
512.09	13421.65
512.458	13437.7
512.826	13520.86
513.193	13581.65
513.561	13575.1
513.929	13727.86
514.297	13848.08
514.664	13818.25
515.032	13823.45
515.4	14029.32
515.767	14035.42
516.135	14120.84
516.502	13995.65
516.869	14254.4
517.237	14161.52
517.604	14159.71
517.972	14247.62
518.339	14393.15
518.706	14411.91
519.073	14495.07
519.44	14551.79
519.808	14646.03
520.175	14476.77
520.542	14713.6
520.909	14752.92
521.276	14707.04
521.643	14801.05
522.009	14905.91
522.376	14871.78
522.743	14877.43
523.11	14969.41
523.477	15069.97
523.843	15158.33
524.21	15282.39
524.577	15281.72
524.943	15296.18
525.31	15358.78
525.676	15483.97
526.043	15406.23
526.409	15453.01
526.776	15573.91
527.142	15580.92
527.508	15563.52
527.874	15648.03
528.241	15718.32
528.607	15637.64
528.973	15778.43
529.339	15669.5
529.705	15780.69
530.071	15768.94
530.437	15834.92
530.803	15829.27
531.169	15898.2
531.535	15757.18
531.901	15827.69
532.267	15956.95
532.632	15892.32
532.998	15921.93
533.364	15929.61
533.73	15882.83
534.095	15958.76
534.461	15871.08
534.826	15983.85
535.192	15842.61
535.557	15954.24
535.923	15893
536.288	15978.87
536.653	15905.66
537.019	15734.13
537.384	15817.07
537.749	15918.08
538.114	15804.41
538.479	15784.53
538.845	15844.87
539.21	15747.92
539.575	15752.44
539.94	15641.03
540.305	15817.52
540.67	15625.44
541.034	15674.02
541.399	15737.75
541.764	15610.52
542.129	15675.38
542.494	15588.15
542.858	15559.22
543.223	15482.16
543.587	15579.34
543.952	15471.77
544.316	15489.62
544.681	15374.37
545.045	15443.52
545.41	15474.48
545.774	15449.4
546.138	15326.91
546.503	15322.62
546.867	15276.52
547.231	15323.98
547.595	15344.77
547.959	15291.89
548.324	15234.94
548.688	15251.66
549.052	15218.67
549.416	15110.42
549.779	15181.61
550.143	15097.54
550.507	15149.52
550.871	15104.55
551.235	14992.91
551.599	15114.04
551.962	15139.35
552.326	15049.41
552.689	15015.06
553.053	14939.58
553.417	14920.14
553.78	15103.87
554.143	14920.82
554.507	14918.11
554.87	14860.94
555.234	15038.56
555.597	14859.36
555.96	14902.74
556.323	14889.18
556.686	14974.15
557.05	14974.61
557.413	14916.98
557.776	14952.91
558.139	14847.15
558.502	14994.27
558.865	14958.11
559.228	14973.93
559.59	14891.22
559.953	14863.42
560.316	15055.96
560.679	15018.9
561.041	15015.28
561.404	15021.16
561.767	15064.32
562.129	14930.09
562.492	15113.13
562.854	15041.27
563.217	14977.09
563.579	15088.95
563.941	15235.16
564.304	15193.58
564.666	15179.8
565.028	15159.01
565.39	15198.56
565.753	15158.56
566.115	15244.43
566.477	15298.67
566.839	15307.03
567.201	15306.12
567.563	15337.99
567.925	15342.28
568.287	15360.36
568.648	15376.63
569.01	15395.39
569.372	15393.13
569.734	15395.16
570.095	15487.36
570.457	15539.34
570.819	15460.92
571.18	15509.73
571.542	15561.03
571.903	15589.28
572.265	15628.15
572.626	15646.23
572.987	15519.45
573.349	15555.83
573.71	15728.48
574.071	15676.96
574.432	15733.68
574.794	15830.4
575.155	15768.03
575.516	15760.57
575.877	15734.36
576.238	15721.71
576.599	15760.35
576.96	15713.8
577.32	15840.35
577.681	15831.08
578.042	15890.51
578.403	15749.5
578.763	15814.13
579.124	15848.93
579.485	15937.74
579.845	15823.4
580.206	15735.72
580.566	15821.82
580.927	15865.2
581.287	15855.04
581.648	15785.88
582.008	15920.8
582.368	15840.35
582.728	15925.32
583.089	15890.51
583.449	15817.3
583.809	15949.72
584.169	15864.75
584.529	15808.71
584.889	15806
585.249	15771.65
585.609	15772.55
585.969	15794.92
586.329	15733
586.688	15778.88
587.048	15711.76
587.408	15720.58
587.768	15737.3
588.127	15664.98
588.487	15604.87
588.846	15762.16
589.206	15564.87
589.565	15730.52
589.925	15752.89
590.284	15630.18
590.643	15723.74
591.003	15696.4
591.362	15823.85
591.721	15643.52
592.08	15695.49
592.44	15719.45
592.799	15766.45
593.158	15670.63
593.517	15623.18
593.876	15669.05
594.235	15683.06
594.593	15664.76
594.952	15609.17
595.311	15630.63
595.67	15597.87
596.029	15752.21
596.387	15660.24
596.746	15712.67
597.104	15654.14
597.463	15621.37
597.822	15686.68
598.18	15523.52
598.538	15607.81
598.897	15660.69
599.255	15479.23
599.613	15747.24
599.972	15551.31
600.33	15664.76
600.688	15569.39
601.046	15565.33
601.404	15616.85
601.762	15670.41
602.12	15755.38
602.478	15687.36
602.836	15719.67
603.194	15677.86
603.552	15583.86
603.91	15551.54
604.268	15613.46
604.625	15614.59
604.983	15667.47
605.341	15613.69
605.698	15608.04
606.056	15730.74
606.413	15667.92
606.771	15716.51
607.128	15609.17
607.485	15652.78
607.843	15656.62
608.2	15761.7
608.557	15719.67
608.914	15757.41
609.272	15722.61
609.629	15843.06
609.986	15961.02
610.343	15760.12
610.7	15908.37
611.057	15840.35
611.414	15807.58
611.771	15806.67
612.127	15869.72
612.484	15844.64
612.841	15988.14
613.198	15846.67
613.554	15865.2
613.911	16046.22
614.267	15999.66
614.624	15915.6
614.98	16038.08
615.337	16039.21
615.693	16016.16
616.05	15970.51
616.406	16119.43
616.762	16024.07
617.118	16071.75
617.475	15982.04
617.831	16141.81
618.187	16011.42
618.543	16094.35
618.899	16062.94
619.255	16113.11
619.611	16067.91
619.967	16114.01
620.323	16149.72
620.678	16139.55
621.034	16114.01
621.39	15954.69
621.746	16020.23
622.101	16286.89
622.457	16131.41
622.812	16169.15
623.168	16217.29
623.523	16249.83
623.879	16196.04
624.234	16158.98
624.589	16249.83
624.945	16268.13
625.3	16182.26
625.655	16119.66
626.01	16131.86
626.365	16164.86
626.72	16131.86
627.075	16155.14
627.43	16212.77
627.785	16107.23
628.14	16127.12
628.495	16186.55
628.85	16103.62
629.205	16083.96
629.559	16201.24
629.914	16174.35
630.269	16017.74
630.623	16092.54
630.978	15917.41
631.332	16074.69
631.687	16154.91
632.041	16016.84
632.396	16109.49
632.75	15982.72
633.104	15961.92
633.459	15991.08
633.813	15884.19
634.167	15933.9
634.521	15810.29
634.875	15927.58
635.229	15841.93
635.583	15814.13
635.937	15776.85
636.291	15836.05
636.645	15807.58
636.999	15770.74
637.352	15752.21
637.706	15721.93
638.06	15793.79
638.413	15691.2
638.767	15754.02
639.121	15689.62
639.474	15582.05
639.828	15611.43
640.181	15652.1
640.534	15624.53
640.888	15592.22
641.241	15565.78
641.594	15557.64
641.947	15698.66
642.301	15480.36
642.654	15537.76
643.007	15554.7
643.36	15506.8
643.713	15496.85
644.066	15515.61
644.419	15468.38
644.771	15387.02
645.124	15215.73
645.477	15287.14
645.83	15065.45
646.182	15041.05
646.535	14963.31
646.888	14980.71
647.24	14943.65
647.593	15036.75
647.945	14956.08
648.298	14998.11
648.65	14859.58
649.002	14876.08
649.355	14983.65
649.707	14942.29
650.059	15005.34
650.411	15121.04
650.763	15199.91
651.115	15293.92
651.467	15318.78
651.819	15236.97
652.171	15242.62
652.523	15324.43
652.875	15246.01
653.227	15208.72
653.578	15323.75
653.93	15230.19
654.282	15170.53
654.633	15123.08
654.985	15198.1
655.337	15229.74
655.688	15204.88
656.039	15277.2
656.391	15103.87
656.742	15210.53
657.094	15157.2
657.445	15258.89
657.796	15292.79
658.147	15161.27
658.498	15256.63
658.849	15225.67
659.2	15227.93
659.551	15210.98
659.902	15222.96
660.253	15185
660.604	15173.47
660.955	15100.25
661.306	15275.84
661.656	15222.28
662.007	15326.46
662.358	15233.13
662.708	15234.49
663.059	15163.53
663.409	15106.13
663.76	15342.51
664.11	15250.53
664.461	15321.94
664.811	15264.99
665.161	15290.53
665.511	15234.49
665.862	15246.24
666.212	15318.1
666.562	15275.84
666.912	15298.44
667.262	15260.25
667.612	15319.46
667.962	15285.56
668.312	15206.46
668.662	15332.34
669.011	15282.39
669.361	15271.55
669.711	15254.15
670.06	15163.3
670.41	15169.4
670.76	15196.3
671.109	15190.19
671.459	15125.11
671.808	15118.11
672.157	15168.73
672.507	15078.78
672.856	15105.45
673.205	15111.78
673.554	15252.79
673.904	15117.43
674.253	15204.43
674.602	15136.64
674.951	14908.62
675.3	14789.07
675.649	15077.88
675.998	15041.05
676.346	15076.52
676.695	15029.29
677.044	14966.47
677.393	14998.11
677.741	14956.75
678.09	14951.1
678.438	14930.31
678.787	14972.12
679.135	14884.21
679.484	14860.71
679.832	14879.02
680.181	14860.48
680.529	14839.47
680.877	14748.62
681.225	14741.39
681.573	14841.5
681.922	14689.42
682.27	14605.35
682.618	14707.95
682.966	14590.89
683.314	14646.48
683.661	14688.06
684.009	14518.57
684.357	14487.61
684.705	14493.71
685.053	14496.65
685.4	14437.9
685.748	14379.37
686.095	14425.02
686.443	14352.25
686.79	14340.05
687.138	14344.57
687.485	14327.39
687.832	14277.9
688.18	14295.3
688.527	14157.68
688.874	14208.3
689.221	14093.05
689.568	14002.43
689.915	14050.79
690.262	13994.97
690.609	13903
690.956	13937.8
691.303	13886.73
691.65	13858.25
691.997	13806.05
692.344	13690.57
692.69	13661.42
693.037	13664.81
693.383	13508.88
693.73	13655.54
694.077	13421.88
694.423	13561.76
694.769	13472.27
695.116	13400.86
695.462	13322.9
695.808	13407.64
696.155	13359.96
696.501	13225.5
696.847	13258.72
697.193	13149.8
697.539	13137.14
697.885	13152.28
698.231	13004.49
698.577	13022.12
698.923	12957.71
699.269	12879.75
699.614	12759.75
699.96	12853.98
700.306	12900.31
700.651	12707.32
700.997	12756.36
701.342	12723.82
701.688	12570.38
702.033	12524.05
702.379	12548.23
702.724	12515.24
703.069	12456.03
703.415	12345.07
703.76	12289.71
704.105	12327.22
704.45	12211.97
704.795	12216.26
705.14	12237.28
705.485	12136.49
705.83	12104.4
706.175	12092.65
706.52	12079.09
706.865	12044.97
707.209	12004.06
707.554	11931.3
707.899	12078.64
708.243	11897.17
708.588	11810.85
708.932	11793.45
709.277	11740.34
709.621	11786.89
709.966	11623.96
710.31	11694.24
710.654	11583.28
710.998	11570.18
711.342	11590.29
711.687	11535.6
712.031	11548.48
712.375	11526.79
712.719	11495.83
713.063	11540.12
713.407	11518.65
713.75	11430.74
714.094	11472.33
714.438	11397.98
714.782	11437.07
715.125	11295.61
715.469	11410.63
715.812	11299.9
716.156	11275.95
716.499	11235.04
716.843	11186.68
717.186	11207.47
717.53	11288.38
717.873	11260.35
718.216	11179.68
718.559	11146.46
718.902	11061.94
719.246	11069.4
719.589	11033.92
719.932	10996.18
720.275	11001.83
720.617	10989.85
720.96	10954.37
721.303	11052
721.646	11055.61
721.989	10931.77
722.331	10960.25
722.674	10894.71
723.016	10969.29
723.359	10874.6
723.701	10890.87
724.044	10882.74
724.386	10859.69
724.729	10857.88
725.071	10829.63
725.413	10858.56
725.755	10768.39
726.097	10766.81
726.439	10762.74
726.782	10775.39
727.124	10790.31
727.465	10821.27
727.807	10756.19
728.149	10728.16
728.491	10746.24
728.833	10739.69
729.175	10778.33
729.516	10652.91
729.858	10714.38
730.199	10689.97
730.541	10726.13
730.882	10659.47
731.224	10716.87
731.565	10651.33
731.906	10697.66
732.248	10669.18
732.589	10608.85
732.93	10654.04
733.271	10626.7
733.612	10594.16
733.953	10687.71
734.294	10584.44
734.635	10647.94
734.976	10615.62
735.317	10584.89
735.658	10556.42
735.999	10556.64
736.339	10590.31
736.68	10664.21
737.021	10630.99
737.361	10555.74
737.702	10550.99
738.042	10617.21
738.383	10636.42
738.723	10640.03
739.063	10571.33
739.404	10683.87
739.744	10586.7
740.084	10569.3
740.424	10674.38
740.764	10615.4
741.104	10605.68
741.444	10677.09
741.784	10631.44
742.124	10689.97
742.464	10739.92
742.804	10703.53
743.143	10753.93
743.483	10693.36
743.823	10629.86
744.162	10766.13
744.502	10832.12
744.841	10794.6
745.181	10883.19
745.52	10825.34
745.86	10901.27
746.199	10943.07
746.538	10986.24
746.877	11098.1
747.216	11104.43
747.556	11098.78
747.895	11193.01
748.234	11124.09
748.573	11231.2
748.911	11230.52
749.25	11364.98
749.589	11370.86
749.928	11451.08
750.267	11565.2
750.605	11521.82
750.944	11673.45
751.283	11690.17
751.621	11819.43
751.96	11870.96
752.298	11995.93
752.636	12058.98
752.975	12131.74
753.313	12127.22
753.651	12400.44
753.989	12369.48
754.327	12549.13
754.666	12583.26
755.004	12673.2
755.342	12948.44
755.679	13053.98
756.017	13052.85
756.355	13307.76
756.693	13401.31
757.031	13530.58
757.368	13620.07
757.706	13788.65
758.044	13888.53
758.381	14138.47
758.719	14187.51
759.056	14455.07
759.394	14546.59
759.731	14615.97
760.068	14805.12
760.405	14928.05
760.743	15139.35
761.08	15340.02
761.417	15396.74
761.754	15606.68
762.091	15839.44
762.428	15844.64
762.765	15933.45
763.102	16251.18
763.438	16369.82
763.775	16406.43
764.112	16761
764.449	16879.64
764.785	16977.72
765.122	17060.88
765.458	17068.11
765.795	17428.78
766.131	17514.43
766.467	17755.32
766.804	17784.48
767.14	17821.54
767.476	18068.99
767.812	18078.25
768.148	18258.59
768.485	18283.67
768.821	18413.61
769.157	18516.66
769.492	18680.27
769.828	18893.6
770.164	18764.34
770.5	18918.46
770.836	19029.64
771.171	19011.34
771.507	19150.32
771.842	19201.39
772.178	19357.77
772.513	19376.07
772.849	19496.97
773.184	19610.42
773.519	19635.5
773.855	19810.86
774.19	19887.02
774.525	19777.87
774.86	19934.02
775.195	20003.17
775.53	20059.67
775.865	19973.8
776.2	19976.06
776.535	19877.08
776.87	20048.6
777.205	20032.55
777.539	20035.72
777.874	20188.03
778.209	20110.29
778.543	20111.42
778.878	20125.66
779.212	20133.34
779.547	20167.46
779.881	20310.74
780.215	20141.02
780.55	20339.89
780.884	20179.89
781.218	20202.27
781.552	20299.21
781.886	20203.4
782.22	20174.24
782.554	20238.2
782.888	20027.81
783.222	20149.16
783.556	20063.29
783.889	20001.37
784.223	19906.68
784.557	19999.56
784.89	20037.07
785.224	19963.63
785.557	19975.6
785.891	19964.98
786.224	19871.2
786.558	19964.76
786.891	19863.52
787.224	19775.61
787.557	19712.56
787.891	19770.19
788.224	19867.81
788.557	19834.82
788.89	19835.04
789.223	19739.23
789.556	19655.16
789.888	19692.67
790.221	19591.21
790.554	19520.25
790.887	19513.24
791.219	19447.03
791.552	19367.03
791.884	19284.1
792.217	19337.88
792.549	19288.62
792.882	19132.24
793.214	19223.76
793.546	19219.24
793.879	19058.57
794.211	18941.73
794.543	19029.41
794.875	19062.63
795.207	19175.4
795.539	18843.88
795.871	19171.78
796.203	18819.7
796.535	18836.88
796.867	18763.66
797.198	18688.41
797.53	18724.79
797.862	18600.95
798.193	18666.26
798.525	18551.46
798.856	18542.42
799.188	18367.51
799.519	18275.99
799.85	18145.82
800.182	18232.37
800.513	18185.6
800.844	18164.8
801.175	18269.89
801.506	18245.03
801.837	18136.11
802.168	17985.6
802.499	17987.41
802.83	17993.51
803.161	17943.79
803.491	17942.21
803.822	17932.95
804.153	17809.33
804.483	17767.08
804.814	17662.45
805.145	17686.4
805.475	17553.97
805.805	17561.43
806.136	17609.79
806.466	17501.55
806.796	17541.54
807.126	17444.82
807.457	17371.83
807.787	17410.25
808.117	17287.31
808.447	17279.63
808.777	17236.02
809.107	17154.66
809.436	17166.64
809.766	17197.82
810.096	17123.93
810.426	17084.16
810.755	17010.71
811.085	16983.59
811.414	17017.72
811.744	16856.82
812.073	16774.56
812.403	16855.23
812.732	16696.82
813.061	16719.87
813.39	16648.91
813.719	16595.35
814.049	16771.62
814.378	16593.09
814.707	16559.65
815.036	16481.23
815.365	16485.75
815.693	16358.07
816.022	16404.85
816.351	16322.14
816.68	16204.86
817.008	16264.74
817.337	16134.8
817.665	16137.74
817.994	16171.86
818.322	16141.81
818.651	16095.48
818.979	16034.24
819.307	16214.57
819.636	16050.51
819.964	15956.73
820.292	15990.62
820.62	15961.47
820.948	15929.38
821.276	15966.44
821.604	15937.97
821.932	15966.22
822.259	15994.01
822.587	15909.5
822.915	15933.68
823.243	15897.52
823.57	15958.08
823.898	15920.12
824.225	15853.23
824.553	15904.98
824.88	15909.04
825.207	16001.7
825.535	15935.71
825.862	15951.53
826.189	15914.02
826.516	15977.07
826.843	15980.46
827.17	15961.47
827.497	16059.55
827.824	15979.78
828.151	16016.61
828.478	16025.2
828.805	16005.54
829.131	15916.28
829.458	15916.5
829.785	15872.21
830.111	15961.25
830.438	15994.92
830.764	15900.91
831.09	16028.14
831.417	15923.28
831.743	15999.44
832.069	15991.3
832.395	15848.48
832.722	15954.47
833.048	15738.88
833.374	15898.42
833.7	15848.93
834.026	15873.57
834.351	15791.76
834.677	15789.73
835.003	15751.31
835.329	15763.29
835.654	15889.38
835.98	15770.52
836.306	15781.36
836.631	15689.39
836.956	15805.32
837.282	15813.23
837.607	15672.67
837.932	15649.62
838.258	15643.97
838.583	15616.62
838.908	15542.73
839.233	15571.88
839.558	15525.33
839.883	15436.74
840.208	15354.94
840.533	15384.31
840.858	15342.73
841.182	15445.1
841.507	15329.85
841.832	15238.1
842.156	15255.95
842.481	15343.41
842.805	15248.72
843.13	15232
843.454	15196.52
843.778	15041.72
844.103	15056.41
844.427	15004.21
844.751	15046.47
845.075	14930.09
845.399	14922.4
845.723	14847.6
846.047	14870.43
846.371	14726.7
846.695	14736.87
847.019	14636.76
847.343	14474.73
847.666	14481.06
847.99	14378.01
848.313	14414.4
848.637	14335.75
848.96	14270.67
849.284	14314.51
849.607	14191.8
849.931	14086.27
850.254	14129.43
850.577	13940.06
850.9	13845.6
851.223	13862.55
851.546	13834.52
851.869	13797.46
852.192	13810.12
852.515	13662.1
852.838	13561.31
853.161	13619.16
853.483	13487.19
853.806	13416.68
854.129	13441.09
854.451	13467.08
854.774	13417.13
855.096	13237.93
855.419	13316.12
855.741	13189.12
856.063	13225.27
856.385	13152.73
856.708	13091.94
857.03	12967.43
857.352	13072.96
857.674	13032.51
857.996	12935.56
858.318	12896.24
858.64	12986.18
858.961	12856.92
859.283	12832.29
859.605	12751.61
859.926	12782.35
860.248	12789.13
860.57	12709.36
860.891	12696.25
861.212	12615.8
861.534	12667.55
861.855	12550.26
862.176	12567.21
862.498	12487.89
862.819	12567.21
863.14	12496.03
863.461	12441.11
863.782	12402.47
864.103	12370.15
864.424	12357.95
864.745	12363.83
865.065	12365.18
865.386	12187.33
865.707	12263.49
866.027	12226.66
866.348	12211.06
866.668	12214.9
866.989	12184.17
867.309	12094.91
867.63	12103.95
867.95	12065.98
868.27	12007.68
868.59	12080.9
868.91	12040.9
869.23	12091.29
869.55	11944.4
869.87	12051.52
870.19	12028.02
870.51	11978.3
870.83	11999.09
871.15	11859.43
871.469	11944.63
871.789	11893.78
872.109	11932.88
872.428	11783.96
872.748	11861.92
873.067	11842.71
873.386	11815.59
873.706	11742.37
874.025	11626.9
874.344	11682.94
874.663	11680
874.982	11680.91
875.301	11668.03
875.62	11587.12
875.939	11615.37
876.258	11645.88
876.577	11661.25
876.896	11520.01
877.214	11573.57
877.533	11555.04
877.852	11445.66
878.17	11508.03
878.489	11501.48
878.807	11482.72
879.125	11482.95
879.444	11459.44
879.762	11350.97
880.08	11369.05
880.398	11301.48
880.716	11380.8
881.034	11280.92
881.352	11310.3
881.67	11334.48
881.988	11285.89
882.306	11251.77
882.624	11195.95
882.941	11141.03
883.259	11084.09
883.577	11124.76
883.894	11127.93
884.212	11042.96
884.529	11058.33
884.846	10989.4
885.164	10987.82
885.481	10918.89
885.798	10908.27
886.115	10878.22
886.432	10913.7
886.75	10887.26
887.067	10940.81
887.383	10894.49
887.7	10797.09
888.017	10821.5
888.334	10776.52
888.651	10783.76
888.967	10642.52
889.284	10689.75
889.6	10577.21
889.917	10548.73
890.233	10600.03
890.55	10446.59
890.866	10489.3
891.182	10475.29
891.498	10436.42
891.815	10427.61
892.131	10296.31
892.447	10360.26
892.763	10301.51
893.079	10259.48
893.395	10264.9
893.71	10222.41
894.026	10186.71
894.342	10208.86
894.657	10074.62
894.973	10073.94
895.289	10022.87
895.604	10039.82
895.92	9938.35
896.235	9942.87
896.55	9922.99
896.865	9876.66
897.181	9878.92
897.496	9816.32
897.811	9844.12
898.126	9740.85
898.441	9708.53
898.756	9684.12
899.071	9636.89
899.386	9607.74
899.7	9533.85
900.015	9525.48
900.33	9520.74
900.644	9413.62
900.959	9439.38
901.273	9412.72
901.588	9340.86
901.902	9352.83
902.216	9291.82
902.531	9196.23
902.845	9227.41
903.159	9120.3
903.473	9157.58
903.787	9120.52
904.101	9044.14
904.415	9075.1
904.729	9004.14
905.042	8917.59
905.356	8974.99
905.67	8908.33
905.984	8846.41
906.297	8897.48
906.611	8823.13
906.924	8847.08
907.237	8787.88
907.551	8723.92
907.864	8704.26
908.177	8648.9
908.491	8676.92
908.804	8643.7
909.117	8491.39
909.43	8441.9
909.743	8444.38
910.056	8475.12
910.368	8368.45
910.681	8337.27
910.994	8315.12
911.307	8335.01
911.619	8253.65
911.932	8248.91
912.244	8174.56
912.557	8146.76
912.869	8142.02
913.181	8141.11
913.494	8029.03
913.806	8016.37
914.118	8024.96
914.43	7925.07
914.742	7936.6
915.054	7858.64
915.366	7905.41
915.678	7763.95
915.99	7779.99
916.302	7718.75
916.613	7702.03
916.925	7701.58
917.236	7678.75
917.548	7605.76
917.859	7642.82
918.171	7530.73
918.482	7532.54
918.794	7556.72
919.105	7519.44
919.416	7447.8
919.727	7436.5
920.038	7452.54
920.349	7424.3
920.66	7304.3
920.971	7331.42
921.282	7229.27
921.593	7228.6
921.903	7162.38
922.214	7262.94
922.525	7188.6
922.835	7157.41
923.146	7053.01
923.456	7048.94
923.767	6984.53
924.077	6994.03
924.387	6960.81
924.697	6941.37
925.008	6913.58
925.318	6875.84
925.628	6920.81
925.938	6881.26
926.248	6752.22
926.558	6772.34
926.867	6771.43
927.177	6722.62
927.487	6685.78
927.796	6634.94
928.106	6602.62
928.416	6609.4
928.725	6629.97
929.034	6542.51
929.344	6580.93
929.653	6531.89
929.962	6519.91
930.271	6450.08
930.581	6397.43
930.89	6422.29
931.199	6378.22
931.508	6354.49
931.817	6350.2
932.125	6321.27
932.434	6306.59
932.743	6237.89
933.051	6176.87
933.36	6166.93
933.669	6135.52
933.977	6137.55
934.286	6130.32
934.594	6157.66
934.902	6040.38
935.21	5970.1
935.519	6019.81
935.827	6046.48
936.135	5968.29
936.443	5900.95
936.751	5909.99
937.059	5884.45
937.367	5814.4
937.674	5852.13
937.982	5784.34
938.29	5803.77
938.597	5766.03
938.905	5711.12
939.213	5674.96
939.52	5663.89
939.827	5696.43
940.135	5615.76
940.442	5584.8
940.749	5566.49
941.056	5552.93
941.363	5480.17
941.67	5500.05
941.977	5482.65
942.284	5428.19
942.591	5425.25
942.898	5425.48
943.205	5413.73
943.511	5347.29
943.818	5369.21
944.125	5315.43
944.431	5322.88
944.738	5326.72
945.044	5245.37
945.35	5232.72
945.657	5204.02
945.963	5223.9
946.269	5207.18
946.575	5159.95
946.881	5083.79
947.187	5137.58
947.493	5053.29
947.799	5109.1
948.105	5035.21
948.41	5030.01
948.716	4950.24
949.022	4980.29
949.327	4947.98
949.633	4925.38
949.938	4913.4
950.244	4926.28
950.549	4840.41
950.854	4863.46
951.16	4860.52
951.465	4811.26
951.77	4812.61
952.075	4773.07
952.38	4750.02
952.685	4721.54
952.99	4721.09
953.294	4642.45
953.599	4665.27
953.904	4629.12
954.209	4564.03
954.513	4617.82
954.818	4591.38
955.122	4562.9
955.426	4517.71
955.731	4445.84
956.035	4514.54
956.339	4465.96
956.643	4454.2
956.948	4408.1
957.252	4397.71
957.556	4431.38
957.86	4371.27
958.163	4398.39
958.467	4354.55
958.771	4334.66
959.075	4271.84
959.378	4277.71
959.682	4266.19
959.985	4250.82
960.289	4228
960.592	4192.29
960.896	4183.7
961.199	4203.82
961.502	4194.55
961.805	4161.11
962.108	4136.7
962.411	4117.94
962.714	4103.48
963.017	4062.58
963.32	4049.92
963.623	4012.41
963.926	4056.48
964.228	3980.77
964.531	3973.99
964.833	4007.44
965.136	3950.72
965.438	3942.58
965.741	3906.87
966.043	3898.74
966.345	3870.94
966.648	3859.19
966.95	3857.16
967.252	3848.35
967.554	3800.89
967.856	3790.04
968.158	3792.53
968.46	3781.68
968.761	3780.55
969.063	3738.97
969.365	3698.29
969.666	3680.89
969.968	3658.97
970.269	3667.56
970.571	3707.33
970.872	3661.46
971.174	3599.09
971.475	3629.14
971.776	3627.79
972.077	3589.37
972.378	3567.22
972.679	3530.39
972.98	3520.22
973.281	3507.11
973.582	3489.26
973.883	3509.6
974.183	3459.43
974.484	3481.35
974.785	3422.14
975.085	3432.99
975.386	3406.55
975.686	3377.85
975.986	3406.32
976.287	3363.39
976.587	3332.88
976.887	3330.17
977.187	3314.57
977.487	3335.82
977.787	3285.2
978.087	3248.81
978.387	3280.22
978.687	3243.16
978.987	3214.92
979.286	3198.42
979.586	3167.46
979.885	3173.79
980.185	3168.81
980.484	3116.61
980.784	3111.64
981.083	3147.35
981.382	3120.68
981.682	3127.91
981.981	3061.47
982.28	3054.47
982.579	3104.64
982.878	3069.16
983.177	3029.84
983.475	3015.82
983.774	2971.76
984.073	2990.06
984.372	2964.75
984.67	2973.79
984.969	2931.99
985.267	2944.19
985.566	2940.57
985.864	2885.88
986.162	2890.18
986.461	2864.64
986.759	2901.93
987.057	2863.51
987.355	2827.81
987.653	2820.58
987.951	2779.67
988.249	2776.06
988.547	2806.34
988.844	2788.03
989.142	2771.31
989.44	2784.64
989.737	2722.5
990.035	2734.7
990.332	2737.41
990.63	2734.02
990.927	2674.36
991.224	2668.26
991.521	2704.87
991.819	2593.69
992.116	2640.24
992.413	2621.48
992.71	2591.88
993.006	2634.14
993.303	2605.44
993.6	2560.47
993.897	2560.24
994.193	2561.83
994.49	2539.45
994.787	2524.09
995.083	2475.27
995.379	2512.34
995.676	2502.39
995.972	2472.34
996.268	2462.39
996.565	2450.19
996.861	2449.51
997.157	2418.33
997.453	2421.04
997.749	2412.22
998.044	2360.93
998.34	2396.18
998.636	2381.94
998.932	2349.63
999.227	2339.91
999.523	2345.11
999.818	2337.42
1000.114	2317.99
1000.409	2278.67
1000.704	2242.06
1001	2245.68
1001.295	2231.89
1001.59	2235.28
1001.885	2235.05
1002.18	2212.91
1002.475	2191.89
1002.77	2168.39
1003.065	2178.33
1003.359	2169.29
1003.654	2166.58
1003.949	2145.79
1004.243	2141.72
1004.538	2113.02
1004.832	2141.05
1005.127	2109.86
1005.421	2100.37
1005.715	2089.3
1006.009	2095.17
1006.304	2076.41
1006.598	2033.7
1006.892	2066.92
1007.186	2030.77
1007.48	2022.18
1007.773	1992.57
1008.067	1976.53
1008.361	1987.6
1008.655	1964.33
1008.948	1949.41
1009.242	1941.05
1009.535	1967.26
1009.829	1924.55
1010.122	1933.14
1010.415	1885.23
1010.708	1877.1
1011.001	1865.12
1011.295	1884.55
1011.588	1852.92
1011.881	1849.53
1012.173	1814.5
1012.466	1801.39
1012.759	1798
1013.052	1804.33
1013.344	1817.21
1013.637	1793.94
1013.93	1774.73
1014.222	1778.34
1014.514	1769.98
1014.807	1722.3
1015.099	1731.34
1015.391	1687.27
1015.683	1707.16
1015.976	1685.24
1016.268	1670.1
1016.56	1655.41
1016.851	1655.86
1017.143	1637.56
1017.435	1627.84
1017.727	1644.11
1018.018	1640.49
1018.31	1607.5
1018.602	1585.13
1018.893	1586.03
1019.185	1553.04
1019.476	1593.49
1019.767	1545.35
1020.058	1559.82
1020.35	1536.54
1020.641	1533.15
1020.932	1482.98
1021.223	1507.39
1021.514	1529.08
1021.804	1469.42
1022.095	1494.06
1022.386	1499.71
1022.677	1469.42
1022.967	1449.76
1023.258	1429.2
1023.548	1407.51
1023.839	1419.26
1024.129	1426.94
1024.419	1412.25
1024.709	1375.42
1025	1395.08
1025.29	1366.6
1025.58	1356.66
1025.87	1328.64
1026.16	1345.59
1026.449	1357.79
1026.739	1337.45
1027.029	1333.38
1027.319	1308.98
1027.608	1297.45
1027.898	1288.64
1028.187	1278.24
1028.477	1292.48
1028.766	1283.21
1029.055	1262.88
1029.344	1258.36
1029.634	1232.14
1029.923	1228.98
1030.212	1232.82
1030.501	1224.01
1030.79	1194.86
1031.078	1212.71
1031.367	1204.8
1031.656	1172.03
1031.945	1167.29
1032.233	1179.71
1032.522	1197.12
1032.81	1167.74
1033.099	1153.73
1033.387	1150.34
1033.675	1152.14
1033.963	1137.91
1034.251	1112.82
1034.54	1104.69
1034.828	1093.39
1035.116	1128.19
1035.403	1063.56
1035.691	1098.13
1035.979	1068.53
1036.267	1062.66
1036.554	1047.51
1036.842	1022.88
1037.129	1045.26
1037.417	1023.56
1037.704	1033.05
1037.992	1008.19
1038.279	1033.05
1038.566	1016.78
1038.853	1016.78
1039.14	1016.78
