Data from hue_26_FLMS001491_00034.txt Node
Date: Tue Feb 07 17:13:54 GMT 2017
User: dcchb
Spectrometer: FLMS00149
Trigger mode: 0
Integration Time (sec): 2.000000E-2
Scans to average: 10
Electric dark correction enabled: true
Nonlinearity correction enabled: false
Boxcar width: 0
XAxis mode: Wavelengths
Number of Pixels in Spectrum: 2048
>>>>>Begin Spectral Data<<<<<
341.393	-11.51
341.776	-11.51
342.16	-11.51
342.543	-50.38
342.927	-71.17
343.31	-68.68
343.693	-56.03
344.077	-64.16
344.46	-60.78
344.843	-64.39
345.226	-49.93
345.61	-30.27
345.993	-21
346.376	-10.83
346.759	-11.74
347.142	23.29
347.525	52.67
347.908	70.07
348.291	70.97
348.674	116.85
349.057	103.97
349.44	126.34
349.823	123.85
350.206	160.46
350.588	190.29
350.971	223.29
351.354	238.2
351.737	242.04
352.119	241.14
352.502	251.98
352.884	284.53
353.267	289.05
353.65	308.48
354.032	305.32
354.414	305.09
354.797	313.45
355.179	325.88
355.562	334.02
355.944	330.63
356.326	322.72
356.709	332.43
357.091	350.74
357.473	343.51
357.855	350.06
358.238	349.16
358.62	329.95
359.002	345.54
359.384	338.08
359.766	315.03
360.148	359.55
360.53	338.31
360.912	335.6
361.294	318.2
361.676	353.45
362.057	345.77
362.439	319.55
362.821	318.88
363.203	314.58
363.584	315.26
363.966	319.1
364.348	322.72
364.729	315.94
365.111	322.94
365.493	317.97
365.874	300.12
366.256	316.39
366.637	344.64
367.019	306.9
367.4	328.59
367.781	322.49
368.163	332.21
368.544	330.4
368.925	303.96
369.306	325.2
369.688	327.92
370.069	316.62
370.45	320.68
370.831	335.82
371.212	323.4
371.593	333.56
371.974	326.56
372.355	314.81
372.736	336.28
373.117	328.37
373.498	325.2
373.879	303.96
374.26	319.55
374.641	318.88
375.021	304.19
375.402	320.91
375.783	333.11
376.163	354.81
376.544	340.34
376.925	329.05
377.305	338.54
377.686	317.97
378.066	329.27
378.447	337.63
378.827	342.6
379.208	338.31
379.588	341.25
379.968	332.43
380.349	331.08
380.729	350.29
381.109	347.58
381.489	349.84
381.87	326.79
382.25	345.54
382.63	356.84
383.01	341.25
383.39	355.03
383.77	341.7
384.15	342.83
384.53	359.78
384.91	373.34
385.29	345.32
385.67	370.17
386.049	361.36
386.429	337.41
386.809	348.48
387.189	369.95
387.568	352.1
387.948	360.23
388.328	357.29
388.707	360.23
389.087	349.38
389.466	363.62
389.846	391.64
390.225	346.67
390.605	374.47
390.984	360.46
391.363	366.11
391.743	380.57
392.122	369.95
392.501	386.22
392.881	370.4
393.26	385.09
393.639	370.85
394.018	373.34
394.397	365.43
394.776	388.93
395.155	355.26
395.534	384.64
395.913	391.19
396.292	381.02
396.671	378.31
397.05	403.17
397.429	390.51
397.808	399.55
398.186	390.74
398.565	391.42
398.944	389.61
399.323	401.36
399.701	394.13
400.08	397.97
400.458	398.65
400.837	395.26
401.215	422.38
401.594	407.91
401.972	408.59
402.351	408.36
402.729	407.01
403.107	436.16
403.486	441.58
403.864	412.88
404.242	430.29
404.62	428.03
404.999	442.04
405.377	413.79
405.755	424.41
406.133	441.58
406.511	421.92
406.889	435.71
407.267	424.41
407.645	419.21
408.023	425.77
408.401	431.87
408.779	423.96
409.156	452.21
409.534	450.62
409.912	454.47
410.29	456.73
410.667	465.54
411.045	444.75
411.422	479.55
411.8	477.06
412.178	484.07
412.555	479.1
412.933	462.83
413.31	497.4
413.687	470.74
414.065	495.37
414.442	501.24
414.819	487.68
415.197	498.98
415.574	498.53
415.951	489.49
416.328	486.78
416.705	515.48
417.082	524.52
417.46	508.25
417.837	517.29
418.214	505.54
418.591	528.81
418.967	518.87
419.344	521.36
419.721	548.02
420.098	545.31
420.475	525.2
420.852	530.62
421.228	520.45
421.605	539.43
421.982	543.95
422.358	545.08
422.735	551.64
423.111	562.03
423.488	581.24
423.864	570.39
424.241	572.2
424.617	579.89
424.994	567
425.37	557.97
425.746	565.65
426.123	583.5
426.499	560.45
426.875	586.44
427.251	585.99
427.627	588.02
428.003	601.81
428.379	622.14
428.756	591.41
429.132	597.74
429.507	630.05
429.883	620.34
430.259	601.35
430.635	623.95
431.011	623.73
431.387	631.86
431.763	668.02
432.138	635.7
432.514	650.62
432.89	641.81
433.265	665.99
433.641	654.23
434.016	660.11
434.392	694.46
434.767	681.8
435.143	701.92
435.518	698.53
435.894	707.34
436.269	718.64
436.644	718.64
437.02	697.17
437.395	716.83
437.77	723.38
438.145	715.93
438.52	740.79
438.895	726.1
439.271	767.68
439.646	767.68
440.021	755.02
440.395	775.36
440.77	781.24
441.145	741.69
441.52	764.29
441.895	776.49
442.27	796.15
442.645	760.22
443.019	802.25
443.394	805.19
443.769	804.51
444.143	778.52
444.518	803.61
444.892	797.96
445.267	813.33
445.641	829.82
446.016	829.6
446.39	804.29
446.764	843.38
447.139	824.85
447.513	841.8
447.887	838.18
448.262	829.82
448.636	834.79
449.01	862.82
449.384	840.44
449.758	872.53
450.132	877.05
450.506	868.47
450.88	863.27
451.254	889.93
451.628	894.45
452.002	912.53
452.376	921.8
452.75	916.37
453.123	915.02
453.497	925.64
453.871	959.99
454.244	966.77
454.618	977.16
454.992	969.03
455.365	943.49
455.739	999.31
456.112	990.04
456.486	1010.16
456.859	1000.89
457.232	1042.02
457.606	1025.75
457.979	1027.56
458.352	1066.88
458.725	1061.23
459.099	1101.68
459.472	1100.32
459.845	1112.98
460.218	1124.5
460.591	1107.1
460.964	1103.49
461.337	1109.82
461.71	1159.98
462.083	1153.2
462.456	1172.64
462.829	1180.1
463.201	1191.4
463.574	1201.11
463.947	1209.02
464.32	1253.54
464.692	1252.18
465.065	1231.39
465.438	1232.52
465.81	1294.67
466.183	1333.76
466.555	1332.86
466.928	1331.73
467.3	1368.57
467.672	1356.36
468.045	1366.08
468.417	1380.99
468.789	1397.04
469.161	1418.73
469.534	1446.98
469.906	1489.69
470.278	1484.27
470.65	1521.78
471.022	1520.2
471.394	1557.26
471.766	1576.02
472.138	1649.24
472.51	1615.11
472.882	1642.91
473.253	1675.22
473.625	1701.89
473.997	1702.57
474.369	1724.04
474.74	1761.78
475.112	1778.05
475.484	1830.93
475.855	1857.59
476.227	1902.79
476.598	1907.53
476.97	1936.23
477.341	1996.12
477.713	2000.87
478.084	2052.84
478.455	2101.2
478.827	2157.02
479.198	2208.09
479.569	2199.96
479.94	2291.48
480.311	2307.52
480.682	2358.37
481.053	2403.57
481.424	2420.97
481.795	2477.24
482.166	2493.96
482.537	2557.69
482.908	2642.88
483.279	2686.05
483.65	2712.03
484.021	2760.17
484.391	2821.63
484.762	2828.19
485.133	2867.74
485.503	2909.54
485.874	3024.79
486.244	3057.56
486.615	3106.15
486.985	3149.99
487.356	3192.02
487.726	3241.74
488.097	3307.72
488.467	3350.43
488.837	3457.78
489.207	3446.25
489.578	3536.64
489.948	3633.82
490.318	3622.97
490.688	3684.66
491.058	3728.5
491.428	3787.94
491.798	3826.13
492.168	3939.12
492.538	3899.12
492.908	4003.07
493.278	4041.04
493.648	4033.13
494.017	4131.88
494.387	4195.61
494.757	4205.1
495.126	4288.26
495.496	4326.45
495.866	4350.63
496.235	4399.45
496.605	4438.54
496.974	4472.21
497.344	4514.92
497.713	4594.24
498.082	4609.38
498.452	4643.51
498.821	4653.23
499.19	4644.64
499.559	4716.73
499.928	4768.7
500.298	4811.19
500.667	4841.47
501.036	4858.42
501.405	4900
501.774	4918.98
502.143	4959.43
502.512	4917.4
502.88	5067.23
503.249	5033.55
503.618	5072.65
503.987	5119.43
504.356	5182.25
504.724	5161.46
505.093	5208.01
505.462	5263.83
505.83	5261.57
506.199	5303.15
506.567	5353.32
506.936	5349.25
507.304	5399.65
507.672	5452.07
508.041	5484.39
508.409	5497.95
508.777	5538.85
509.145	5543.6
509.514	5583.82
509.882	5697.27
510.25	5624.05
510.618	5649.81
510.986	5721.45
511.354	5753.08
511.722	5784.49
512.09	5806.19
512.458	5802.35
512.826	5838.28
513.193	5891.38
513.561	5870.82
513.929	5923.7
514.297	5958.95
514.664	5979.07
515.032	5970.93
515.4	6059.29
515.767	6104.94
516.135	6090.25
516.502	6064.71
516.869	6189.68
517.237	6194.65
517.604	6144.03
517.972	6231.94
518.339	6229.45
518.706	6240.75
519.073	6304.26
519.44	6312.84
519.808	6346.06
520.175	6309.68
520.542	6398.04
520.909	6461.31
521.276	6433.52
521.643	6428.09
522.009	6509.67
522.376	6519.84
522.743	6557.81
523.11	6650.01
523.477	6736.56
523.843	6721.87
524.21	6755.54
524.577	6815.65
524.943	6821.76
525.31	6841.87
525.676	6875.09
526.043	6975.42
526.409	6936.33
526.776	7057
527.142	7039.83
527.508	7046.83
527.874	7164.57
528.241	7090.9
528.607	7216.32
528.973	7247.28
529.339	7230.56
529.705	7283.66
530.071	7325.02
530.437	7408.18
530.803	7416.77
531.169	7444.56
531.535	7449.54
531.901	7465.58
532.267	7560.27
532.632	7559.59
532.998	7611.11
533.364	7708.29
533.73	7698.12
534.095	7798.23
534.461	7814.5
534.826	7783.09
535.192	7822.86
535.557	7937.21
535.923	7902.18
536.288	7905.79
536.653	7967.71
537.019	7974.04
537.384	8033.7
537.749	8018.79
538.114	8041.38
538.479	8139.46
538.845	8188.05
539.21	8157.31
539.575	8160.93
539.94	8194.6
540.305	8223.53
540.67	8238.67
541.034	8321.15
541.399	8375.16
541.764	8427.59
542.129	8450.41
542.494	8426.01
542.858	8463.07
543.223	8543.74
543.587	8627.36
543.952	8539.22
544.316	8606.12
544.681	8597.53
545.045	8709.84
545.41	8690.86
545.774	8712.55
546.138	8762.27
546.503	8746.9
546.867	8783.74
547.231	8888.14
547.595	8851.08
547.959	8955.48
548.324	8945.99
548.688	8938.08
549.052	9065.54
549.416	9011.98
549.779	9037.97
550.143	9093.56
550.507	9082.49
550.871	9135.82
551.235	9198.64
551.599	9244.29
551.962	9229.83
552.326	9276.61
552.689	9267.57
553.053	9332.42
553.417	9366.77
553.78	9423.72
554.143	9382.37
554.507	9426.66
554.87	9506.88
555.234	9490.61
555.597	9525.87
555.96	9647.67
556.323	9584.39
556.686	9600.89
557.05	9665.07
557.413	9645.86
557.776	9740.32
558.139	9782.81
558.502	9777.84
558.865	9807.89
559.228	9898.28
559.59	9862.35
559.953	9922.92
560.316	9964.72
560.679	10049.69
561.041	9993.88
561.404	10086.75
561.767	10128.79
562.129	10152.74
562.492	10223.7
562.854	10186.86
563.217	10247.65
563.579	10260.76
563.941	10370.59
564.304	10362.91
564.666	10390.25
565.028	10389.57
565.39	10474.31
565.753	10526.07
566.115	10553.18
566.477	10568.78
566.839	10623.24
567.201	10687.42
567.563	10731.94
567.925	10785.95
568.287	10738.26
568.648	10842.44
569.01	10834.08
569.372	10885.15
569.734	10922.21
570.095	11008.31
570.457	11011.25
570.819	11054.41
571.18	11109.33
571.542	11170.79
571.903	11176.9
572.265	11311.36
572.626	11281.75
572.987	11357
573.349	11434.06
573.71	11511.8
574.071	11550.9
574.432	11614.17
574.794	11700.05
575.155	11652.14
575.516	11699.59
575.877	11803.09
576.238	11888.74
576.599	12028.85
576.96	12063.65
577.32	12095.52
577.681	12251.22
578.042	12374.15
578.403	12368.05
578.763	12476.75
579.124	12559.91
579.485	12704.76
579.845	12885.55
580.206	12879.22
580.566	13047.58
580.927	13112.21
581.287	13321.47
581.648	13471.75
582.008	13548.13
582.368	13728.24
582.728	13911.74
583.089	13995.58
583.449	14174.1
583.809	14336.36
584.169	14594.66
584.529	14678.72
584.889	14942.22
585.249	15067.41
585.609	15201.87
585.969	15515.54
586.329	15679.6
586.688	15863.55
587.048	16118.91
587.408	16301.51
587.768	16518.22
588.127	16653.81
588.487	17028.49
588.846	17383.29
589.206	17491.31
589.565	17686.1
589.925	18030.95
590.284	18297.39
590.643	18595.91
591.003	18869.57
591.362	19130.13
591.721	19352.95
592.08	19663.45
592.44	19997.45
592.799	20209.43
593.158	20521.51
593.517	20829.07
593.876	20984.1
594.235	21448.26
594.593	21749.05
594.952	22015.71
595.311	22269.71
595.67	22554.22
596.029	23038.73
596.387	23258.39
596.746	23595.33
597.104	23800.52
597.463	24004.81
597.822	24450.9
598.18	24643.21
598.538	25047.04
598.897	25401.61
599.255	25524.99
599.613	26084.3
599.972	26262.6
600.33	26631.63
600.688	26777.62
601.046	27180.09
601.404	27538.73
601.762	27700.53
602.12	28015.77
602.478	28435.2
602.836	28745.7
603.194	28808.07
603.552	29086.93
603.91	29263.2
604.268	29707.03
604.625	29802.85
604.983	30268.82
605.341	30297.3
605.698	30785.65
606.056	31137.05
606.413	31276.03
606.771	31617.94
607.128	31796.24
607.485	31763.7
607.843	32320.07
608.2	32640.29
608.557	32764.35
608.914	32998.47
609.272	33348.74
609.629	33502.41
609.986	33819.24
610.343	33816.75
610.7	34281.82
611.057	34322.28
611.414	34492.21
611.771	34858.31
612.127	35145.3
612.484	35254.23
612.841	35569.7
613.198	35553.43
613.554	35854.66
613.911	36048.78
614.267	36185.96
614.624	36288.55
614.98	36595.89
615.337	36901.64
615.693	36989.1
616.05	37134.18
616.406	37448.07
616.762	37556.99
617.118	37559.03
617.475	37592.7
617.831	37932.58
618.187	38048.96
618.543	38240.59
618.899	38549.96
619.255	38613.46
619.611	38595.38
619.967	38767.81
620.323	39047.12
620.678	39151.08
621.034	38935.04
621.39	39160.79
621.746	39365.31
622.101	39821.57
622.457	39670.84
622.812	39713.55
623.168	39951.28
623.523	39909.93
623.879	40309.91
624.234	39991.73
624.589	40227.88
624.945	40318.95
625.3	40457.71
625.655	40540.42
626.01	40675.1
626.365	40648.66
626.72	40775.44
627.075	40779.05
627.43	40954.42
627.785	40856.79
628.14	40943.34
628.495	41051.36
628.85	41114.41
629.205	40948.77
629.559	41221.53
629.914	41074.87
630.269	41232.15
630.623	41241.64
630.978	41181.76
631.332	41409.55
631.687	41652.48
632.041	41243
632.396	41491.13
632.75	41455.65
633.104	41401.41
633.459	41339.72
633.813	41446.61
634.167	41392.15
634.521	41396.44
634.875	41422.65
635.229	41543.55
635.583	41307.4
635.937	41510.56
636.291	41407.51
636.645	41476.89
636.999	41448.42
637.352	41544.91
637.706	41408.42
638.06	41506.27
638.413	41378.14
638.767	41411.13
639.121	41452.26
639.474	41231.02
639.828	41328.42
640.181	41502.88
640.534	41520.05
640.888	41369.55
641.241	41229.21
641.594	41332.71
641.947	41435.53
642.301	41277.35
642.654	41423.11
643.007	41299.27
643.36	41418.59
643.713	41330.68
644.066	41440.28
644.419	41151.02
644.771	40880.52
645.124	40533.19
645.477	40529.34
645.83	40361.89
646.182	40185.62
646.535	40114.21
646.888	40255.9
647.24	39893.43
647.593	40149.01
647.945	40083.48
648.298	40040.77
648.65	39965.97
649.002	39899.3
649.355	39991.05
649.707	40051.39
650.059	40217.49
650.411	40686.4
650.763	40746.29
651.115	41082.55
651.467	40962.33
651.819	40867.19
652.171	40879.39
652.523	40845.49
652.875	40897.02
653.227	40615.22
653.578	40885.04
653.93	40796.68
654.282	40736.34
654.633	40676.23
654.985	40687.53
655.337	40773.18
655.688	40687.53
656.039	40836.91
656.391	40479.4
656.742	40538.38
657.094	40610.92
657.445	40691.37
657.796	40695.44
658.147	40666.74
658.498	40430.82
658.849	40642.56
659.2	40575.44
659.551	40513.07
659.902	40603.92
660.253	40625.61
660.604	40643.01
660.955	40395.56
661.306	40490.02
661.656	40467.65
662.007	40533.64
662.358	40497.93
662.708	40587.65
663.059	40533.41
663.409	40331.16
663.76	40523.47
664.11	40566.63
664.461	40558.95
664.811	40516.46
665.161	40582.9
665.511	40405.51
665.862	40489.12
666.212	40545.16
666.562	40617.7
666.912	40426.07
667.262	40466.75
667.612	40342.68
667.962	40499.74
668.312	40315.11
668.662	40630.36
669.011	40501.1
669.361	40331.61
669.711	40310.14
670.06	40254.55
670.41	40268.11
670.76	40298.39
671.109	40407.09
671.459	40318.5
671.808	40216.58
672.157	40357.37
672.507	40034.44
672.856	40031.96
673.205	40216.58
673.554	40298.39
673.904	40157.38
674.253	40414.54
674.602	40144.72
674.951	39589.26
675.3	39429.26
675.649	40199.18
675.998	40116.7
676.346	40104.95
676.695	40186.98
677.044	39915.12
677.393	40000.54
677.741	40086.87
678.09	39963.03
678.438	39754.45
678.787	39922.81
679.135	39752.87
679.484	39674
679.832	39633.77
680.181	39498.41
680.529	39627.67
680.877	39408.02
681.225	39532.53
681.573	39777.27
681.922	39289.83
682.27	39263.61
682.618	39269.94
682.966	39229.72
683.314	39412.09
683.661	39317.85
684.009	39043.51
684.357	39106.33
684.705	39045.77
685.053	39016.84
685.4	39028.82
685.748	38768.26
686.095	38922.15
686.443	38772.78
686.79	38703.18
687.138	38751.99
687.485	38848.48
687.832	38621.82
688.18	38451.66
688.527	38333.7
688.874	38375.28
689.221	38286.92
689.568	38201.27
689.915	38122.85
690.262	38060.26
690.609	38000.37
690.956	37902.97
691.303	37816.87
691.65	37641.06
691.997	37658.01
692.344	37424.57
692.69	37476.54
693.037	37432.48
693.383	37079.27
693.73	37276.55
694.077	37053.73
694.423	37004.24
694.769	36908.65
695.116	36891.02
695.462	36897.12
695.808	36763.57
696.155	36683.8
696.501	36434.08
696.847	36629.79
697.193	36317.25
697.539	36512.27
697.885	36254.2
698.231	36132.62
698.577	36126.75
698.923	36071.16
699.269	35928.11
699.614	35659.64
699.96	35620.77
700.306	35624.39
700.651	35535.8
700.997	35311.18
701.342	35268.92
701.688	35308.92
702.033	35092.42
702.379	35152.54
702.724	35035.93
703.069	35111.86
703.415	34682.49
703.76	34783.51
704.105	34769.04
704.45	34644.07
704.795	34378.32
705.14	34308.26
705.485	34397.75
705.83	34157.08
706.175	34256.74
706.52	34099.46
706.865	34073.02
707.209	34029.63
707.554	33888.61
707.899	33957.09
708.243	33686.81
708.588	33722.07
708.932	33542.41
709.277	33449.98
709.621	33518.68
709.966	33221.97
710.31	33234.85
710.654	33009.32
710.998	33137.67
711.342	33229.2
711.687	33034.4
712.031	32895.42
712.375	32867.62
712.719	32869.88
713.063	32758.47
713.407	32794.86
713.75	32631.02
714.094	32716.89
714.438	32524.81
714.782	32503.34
715.125	32428.31
715.469	32388.09
715.812	32264.7
716.156	32141.77
716.499	32099.74
716.843	32291.59
717.186	31979.74
717.53	32076.01
717.873	32028.55
718.216	32067.42
718.559	31741.33
718.902	31622.01
719.246	31720.99
719.589	31552.63
719.932	31470.37
720.275	31627.21
720.617	31561.67
720.96	31409.36
721.303	31351.28
721.646	31397.61
721.989	31200.32
722.331	31214.33
722.674	31209.81
723.016	31133.88
723.359	31237.16
723.701	31172.98
724.044	30973.66
724.386	30829.71
724.729	31002.36
725.071	30816.15
725.413	30912.2
725.755	30778.41
726.097	30642.6
726.439	30535.03
726.782	30600.11
727.124	30643.05
727.465	30403.96
727.807	30438.31
728.149	30354.92
728.491	30312.44
728.833	30370.97
729.175	30170.07
729.516	30262.5
729.858	30150.63
730.199	30192.44
730.541	30061.6
730.882	29926.23
731.224	30137.3
731.565	29876.06
731.906	29888.27
732.248	30056.85
732.589	29956.51
732.93	29782.06
733.271	29728.27
733.612	29888.49
733.953	29751.77
734.294	29665.45
734.635	29586.58
734.976	29637.2
735.317	29558.56
735.658	29415.96
735.999	29526.24
736.339	29338
736.68	29456.87
737.021	29254.61
737.361	29183.65
737.702	29322.86
738.042	29315.63
738.383	29138.46
738.723	29233.14
739.063	29088.29
739.404	29119.25
739.744	29030.66
740.084	29037.44
740.424	28932.59
740.764	28921.74
741.104	29227.49
741.444	28856.2
741.784	28758.58
742.124	28786.15
742.464	28680.16
742.804	28807.17
743.143	28590.22
743.483	28638.58
743.823	28427.29
744.162	28431.13
744.502	28540.28
744.841	28356.56
745.181	28494.41
745.52	28384.8
745.86	28393.84
746.199	28305.94
746.538	28166.51
746.877	28425.26
747.216	28271.36
747.556	28106.17
747.895	28179.61
748.234	28146.17
748.573	27942.1
748.911	28124.92
749.25	27935.1
749.589	27909.11
749.928	27914.99
750.267	27889.68
750.605	27769.91
750.944	27730.81
751.283	27671.38
751.621	27744.82
751.96	27513.19
752.298	27531.72
752.636	27545.96
752.975	27361.55
753.313	27458.95
753.651	27476.81
753.989	27279.75
754.327	27237.49
754.666	27189.13
755.004	27196.36
755.342	27184.16
755.679	27237.72
756.017	27067.33
756.355	27109.36
756.693	26857.61
757.031	26947.1
757.368	26764.28
757.706	26728.58
758.044	26623.95
758.381	26767.9
758.719	26588.24
759.056	26562.25
759.394	26571.29
759.731	26317.06
760.068	26323.84
760.405	26278.42
760.743	26193.22
761.08	26199.55
761.417	26011.99
761.754	25942.38
762.091	25858.54
762.428	25881.14
762.765	25650.87
763.102	25877.53
763.438	25597.31
763.775	25574.71
764.112	25565.9
764.449	25417.65
764.785	25325.68
765.122	25233.93
765.458	25119.35
765.795	25105.34
766.131	25145.79
766.467	24984.89
766.804	24801.62
767.14	24734.73
767.476	24739.48
767.812	24698.12
768.148	24534.51
768.485	24616.77
768.821	24380.62
769.157	24351.92
769.492	24301.07
769.828	24331.35
770.164	24123.22
770.5	23895.88
770.836	23967.29
771.171	23920.97
771.507	23792.16
771.842	23644.36
772.178	23589.45
772.513	23574.76
772.849	23438.95
773.184	23391.26
773.519	23401.43
773.855	23316.24
774.19	23108.11
774.525	23106.53
774.86	23115.34
775.195	22953.53
775.53	22886.64
775.865	22947.89
776.2	22690.26
776.535	22507.9
776.87	22565.07
777.205	22402.59
777.539	22328.92
777.874	22440.33
778.209	22044.41
778.543	22095.03
778.878	21971.64
779.212	21927.35
779.547	21827.46
779.881	21952.88
780.215	21626.34
780.55	21688.71
780.884	21596.06
781.218	21634.93
781.552	21551.76
781.886	21425.21
782.22	21301.37
782.554	21202.62
782.888	21103.41
783.222	21046.92
783.556	20927.6
783.889	20878.56
784.223	20727.6
784.557	20696.65
784.89	20638.12
785.224	20611
785.557	20413.71
785.891	20490.55
786.224	20436.09
786.558	20295.53
786.891	20160.84
787.224	20075.19
787.557	20093.05
787.891	20007.62
788.224	19974.4
788.557	19876.1
788.89	19924.46
789.223	19883.33
789.556	19707.52
789.888	19656.67
790.221	19571.48
790.554	19416.45
790.887	19404.93
791.219	19329.9
791.552	19306.85
791.884	19155.67
792.217	19262.78
792.549	19114.09
792.882	18852.4
793.214	18811.95
793.546	18957.71
793.879	18849.91
794.211	18725.17
794.543	18725.62
794.875	18677.94
795.207	18734.89
795.539	18447.44
795.871	18518.4
796.203	18357.05
796.535	18275.47
796.867	18290.61
797.198	18200.44
797.53	18158.18
797.862	18019.43
798.193	18153.66
798.525	18011.97
798.856	17934.23
799.188	17777.4
799.519	17781.47
799.85	17777.4
800.182	17685.42
800.513	17684.29
800.844	17518.2
801.175	17621.92
801.506	17528.14
801.837	17443.85
802.168	17413.12
802.499	17369.73
802.83	17257.19
803.161	17251.99
803.491	17222.16
803.822	17283.85
804.153	17017.42
804.483	16975.16
804.814	16837.31
805.145	16909.4
805.475	16923.18
805.805	16799.8
806.136	16846.8
806.466	16689.97
806.796	16699.69
807.126	16625.57
807.457	16543.08
807.787	16519.35
808.117	16473.93
808.447	16444.1
808.777	16393.93
809.107	16346.48
809.436	16278
809.766	16223.99
810.096	16266.71
810.426	16157.56
810.755	16217.67
811.085	16112.58
811.414	16044.79
811.744	15912.59
812.073	16019.48
812.403	15964.79
812.732	15835.53
813.061	15839.15
813.39	15795.98
813.719	15743.33
814.049	15722.76
814.378	15609.32
814.707	15501.53
815.036	15521.41
815.365	15559.15
815.693	15468.08
816.022	15405.94
816.351	15398.48
816.68	15207.98
817.008	15363.23
817.337	15109
817.665	15219.73
817.994	15251.14
818.322	15192.83
818.651	15047.53
818.979	15029.22
819.307	15106.51
819.636	15042.78
819.964	14890.24
820.292	14987.19
820.62	14984.25
820.948	14992.16
821.276	14978.38
821.604	14898.15
821.932	14967.3
822.259	14929.11
822.587	14981.32
822.915	14979.51
823.243	14848.21
823.57	14924.14
823.898	14882.56
824.225	14785.84
824.553	14884.82
824.88	14830.81
825.207	14802.79
825.535	14812.96
825.862	14854.31
826.189	14791.94
826.516	14872.84
826.843	14869.91
827.17	14872.17
827.497	14869.23
827.824	14812.05
828.151	14916.01
828.478	14782.68
828.805	14898.83
829.131	14718.27
829.458	14820.42
829.785	14726.41
830.111	14766.63
830.438	14830.81
830.764	14812.51
831.09	14742.9
831.417	14690.7
831.743	14725.05
832.069	14783.58
832.395	14742.45
832.722	14779.74
833.048	14704.71
833.374	14681.66
833.7	14590.59
834.026	14652.51
834.351	14656.13
834.677	14572.29
835.003	14626.97
835.329	14630.14
835.654	14588.78
835.98	14457.49
836.306	14522.34
836.631	14535
836.956	14585.17
837.282	14518.5
837.607	14469.24
837.932	14488.45
838.258	14382.23
838.583	14372.97
838.908	14331.61
839.233	14363.93
839.558	14300.88
839.883	14287.55
840.208	14254.78
840.533	14224.05
840.858	14226.76
841.182	14206.87
841.507	14204.61
841.832	14079.87
842.156	14048.68
842.481	14121.9
842.805	14014.33
843.13	14056.14
843.454	13970.95
843.778	13935.01
844.103	13924.85
844.427	13780.22
844.751	13821.8
845.075	13789.03
845.399	13728.69
845.723	13702.25
846.047	13763.72
846.371	13601.69
846.695	13614.8
847.019	13419.1
847.343	13426.33
847.666	13378.65
847.99	13283.51
848.313	13321.25
848.637	13209.16
848.96	13232.66
849.284	13154.92
849.607	13059.56
849.931	13043.74
850.254	12978.43
850.577	12834.48
850.9	12811.65
851.223	12787.25
851.546	12640.59
851.869	12615.05
852.192	12661.15
852.515	12592.68
852.838	12590.19
853.161	12563.3
853.483	12426.81
853.806	12327.15
854.129	12276.98
854.451	12292.57
854.774	12255.29
855.096	12267.71
855.419	12250.77
855.741	12174.16
856.063	12119.24
856.385	12189.52
856.708	12102.75
857.03	12043.99
857.352	12052.8
857.674	11894.39
857.996	11902.75
858.318	11876.31
858.64	11835.18
858.961	11800.83
859.283	11839.25
859.605	11691.46
859.926	11779.14
860.248	11638.35
860.57	11707.28
860.891	11618.24
861.212	11612.59
861.534	11630.89
861.855	11567.17
862.176	11511.8
862.498	11478.81
862.819	11457.57
863.14	11478.36
863.461	11480.62
863.782	11401.75
864.103	11499.6
864.424	11416.44
864.745	11400.84
865.065	11289.43
865.386	11262.32
865.707	11305.03
866.027	11207.18
866.348	11196.56
866.668	11209.66
866.989	11226.39
867.309	11083.79
867.63	11179.83
867.95	11107.97
868.27	11164.01
868.59	11117.91
868.91	11029.78
869.23	11002.21
869.55	10997.47
869.87	11065.26
870.19	11060.06
870.51	11024.36
870.83	10985.71
871.15	10974.64
871.469	10916.34
871.789	10947.52
872.109	10909.11
872.428	10897.35
872.748	10851.25
873.067	10811.48
873.386	10787.3
873.706	10805.61
874.025	10717.25
874.344	10738.94
874.663	10741.88
874.982	10762.22
875.301	10717.25
875.62	10711.14
875.939	10732.39
876.258	10642.45
876.577	10608.32
876.896	10591.6
877.214	10583.24
877.533	10549.12
877.852	10580.07
878.17	10627.53
878.489	10610.36
878.807	10504.37
879.125	10538.04
879.444	10582.79
879.762	10483.81
880.08	10462.11
880.398	10413.53
880.716	10411.49
881.034	10370.59
881.352	10386.63
881.67	10351.38
881.988	10300.53
882.306	10301.21
882.624	10216.24
882.941	10231.16
883.259	10220.08
883.577	10211.05
883.894	10113.42
884.212	10176.02
884.529	10130.82
884.846	10134.66
885.164	10087.43
885.481	10038.85
885.798	10033.87
886.115	9947.78
886.432	10006.53
886.75	9920.43
887.067	9916.14
887.383	9857.16
887.7	9901.67
888.017	9812.86
888.334	9870.72
888.651	9718.63
888.967	9807.21
889.284	9792.3
889.6	9754.79
889.917	9725.63
890.233	9726.54
890.55	9684.96
890.866	9673.21
891.182	9593.66
891.498	9614.45
891.815	9545.53
892.131	9520.22
892.447	9489.26
892.763	9468.24
893.079	9438.41
893.395	9459.88
893.71	9401.8
894.026	9414.46
894.342	9343.72
894.657	9321.58
894.973	9294.91
895.289	9215.59
895.604	9274.8
895.92	9136.72
896.235	9183.28
896.55	9205.2
896.865	9110.96
897.181	9083.39
897.496	9093.33
897.811	9074.58
898.126	9023.51
898.441	9000
898.756	8964.52
899.071	8877.75
899.386	8927.69
899.7	8777.18
900.015	8768.15
900.33	8677.3
900.644	8698.99
900.959	8697.19
901.273	8664.19
901.588	8656.28
901.902	8571.31
902.216	8517.53
902.531	8556.85
902.845	8544.42
903.159	8448.83
903.473	8431.43
903.787	8363.18
904.101	8390.3
904.415	8362.51
904.729	8303.75
905.042	8265.33
905.356	8246.8
905.67	8211.55
905.984	8196.63
906.297	8243.41
906.611	8118.44
906.924	8145.11
907.237	8119.12
907.551	8021.95
907.864	8051.78
908.177	8019.69
908.491	7971.56
908.804	7925
909.117	7914.61
909.43	7906.25
909.743	7799.36
910.056	7729.98
910.368	7799.36
910.681	7707.83
910.994	7886.13
911.307	7685.91
911.619	7608.63
911.932	7685.01
912.244	7557.78
912.557	7598.01
912.869	7574.5
913.181	7435.52
913.494	7469.2
913.806	7412.25
914.118	7392.81
914.43	7329.76
914.742	7322.53
915.054	7276.21
915.366	7227.62
915.678	7232.14
915.99	7260.16
916.302	7127.28
916.613	7116.66
916.925	7133.61
917.236	7045.93
917.548	7069.88
917.859	7062.2
918.171	6987.4
918.482	6980.85
918.794	6997.8
919.105	6880.96
919.416	6847.52
919.727	6857.91
920.038	6797.8
920.349	6745.15
920.66	6734.3
920.971	6748.54
921.282	6714.19
921.593	6596.22
921.903	6608.2
922.214	6634.87
922.525	6586.06
922.835	6618.37
923.146	6543.12
923.456	6507.64
923.767	6520.97
924.077	6436
924.387	6455.21
924.697	6382.67
925.008	6358.04
925.318	6337.47
925.628	6403.24
925.938	6293.86
926.248	6234.43
926.558	6271.26
926.867	6216.8
927.177	6172.73
927.487	6179.96
927.796	6153.07
928.106	6140.19
928.416	6128.89
928.725	6112.17
929.034	6043.02
929.344	6005.51
929.653	5966.18
929.962	5930.71
930.271	5952.63
930.581	5885.28
930.89	5893.19
931.199	5885.96
931.508	5862.46
931.817	5827.43
932.125	5795.79
932.434	5762.8
932.743	5754.44
933.051	5735.46
933.36	5692.52
933.669	5624.5
933.977	5615.46
934.286	5632.41
934.594	5602.58
934.902	5559.19
935.21	5547.89
935.519	5507.44
935.827	5490.49
936.135	5463.37
936.443	5441.23
936.751	5435.58
937.059	5403.26
937.367	5387.9
937.674	5345.86
937.982	5344.28
938.29	5328.46
938.597	5296.37
938.905	5261.57
939.213	5234
939.52	5171.18
939.827	5181.57
940.135	5154.45
940.442	5158.97
940.749	5140.9
941.056	5132.08
941.363	5059.54
941.67	5118.75
941.977	5011.41
942.284	5034.68
942.591	4997.4
942.898	4940.45
943.205	4980.45
943.511	4963.27
943.818	4908.81
944.125	4861.81
944.431	4879.66
944.738	4900.45
945.044	4838.53
945.35	4783.39
945.657	4775.93
945.963	4803.5
946.269	4716.27
946.575	4745.2
946.881	4720.79
947.187	4719.44
947.493	4672.89
947.799	4638.76
948.105	4607.8
948.41	4601.48
948.716	4576.62
949.022	4555.83
949.327	4558.31
949.633	4506.11
949.938	4529.61
950.244	4495.94
950.549	4484.87
950.854	4472.89
951.16	4421.14
951.465	4454.81
951.77	4421.37
952.075	4389.5
952.38	4346.34
952.685	4377.98
952.99	4321.03
953.294	4294.59
953.599	4260.24
953.904	4245.78
954.209	4246.23
954.513	4241.94
954.818	4194.25
955.122	4218.66
955.426	4166.91
955.731	4126.01
956.035	4131.66
956.339	4128.27
956.643	4122.39
956.948	4035.16
957.252	4088.04
957.556	4023.19
957.86	4058.44
958.163	4065.67
958.467	4002.17
958.771	3994.94
959.075	3919.01
959.378	3947.93
959.682	3979.8
959.985	3944.09
960.289	3890.31
960.592	3841.95
960.896	3880.14
961.199	3817.09
961.502	3872.91
961.805	3791.1
962.108	3756.75
962.411	3786.58
962.714	3773.25
963.017	3727.15
963.32	3750.88
963.623	3738.45
963.926	3702.97
964.228	3693.7
964.531	3686.47
964.833	3656.64
965.136	3645.34
965.438	3604.21
965.741	3613.7
966.043	3575.06
966.345	3560.37
966.648	3547.72
966.95	3588.39
967.252	3487.38
967.554	3510.2
967.856	3489.19
968.158	3530.09
968.46	3439.47
968.761	3418.91
969.063	3416.87
969.365	3419.81
969.666	3420.26
969.968	3378.46
970.269	3370.32
970.571	3366.93
970.872	3325.8
971.174	3293.49
971.475	3309.08
971.776	3276.31
972.077	3305.69
972.378	3274.5
972.679	3220.04
972.98	3233.38
973.281	3220.27
973.582	3241.28
973.883	3179.37
974.183	3190.89
974.484	3192.92
974.785	3138.69
975.085	3184.79
975.386	3142.3
975.686	3087.16
975.986	3099.37
976.287	3057.56
976.587	3059.82
976.887	3041.97
977.187	3048.97
977.487	3043.32
977.787	2983.89
978.087	3019.6
978.387	3002.2
978.687	2971.69
978.987	2947.06
979.286	2940.73
979.586	2929.2
979.885	2949.99
980.185	2914.29
980.484	2915.42
980.784	2895.76
981.083	2865.93
981.382	2871.8
981.682	2815.99
981.981	2846.94
982.28	2831.58
982.579	2794.97
982.878	2817.34
983.177	2747.29
983.475	2813.05
983.774	2745.25
984.073	2770.34
984.372	2715.2
984.67	2698.7
984.969	2741.18
985.267	2734.86
985.566	2681.75
985.864	2665.71
986.162	2661.19
986.461	2667.29
986.759	2627.97
987.057	2658.25
987.355	2623.22
987.653	2620.96
987.951	2573.28
988.249	2606.73
988.547	2609.66
988.844	2566.73
989.142	2580.96
989.44	2560.17
989.737	2530.8
990.035	2504.36
990.332	2492.83
990.63	2498.48
990.927	2478.82
991.224	2463.68
991.521	2462.55
991.819	2476.56
992.116	2431.81
992.413	2424.36
992.71	2430.23
993.006	2433.4
993.303	2401.08
993.6	2366.73
993.897	2317.02
994.193	2366.73
994.49	2359.27
994.787	2344.13
995.083	2316.34
995.379	2327.86
995.676	2310.01
995.972	2327.86
996.268	2294.87
996.565	2237.92
996.861	2273.85
997.157	2237.02
997.453	2226.62
997.749	2242.89
998.044	2223.91
998.34	2193.85
998.636	2152.05
998.932	2161.09
999.227	2165.15
999.523	2147.98
999.818	2140.3
1000.114	2127.19
1000.409	2102.78
1000.704	2128.77
1001	2094.2
1001.295	2113.4
1001.59	2063.91
1001.885	2089.68
1002.18	2074.31
1002.475	2065.27
1002.77	2046.06
1003.065	2023.24
1003.359	1993.41
1003.654	2008.1
1003.949	1947.08
1004.243	1975.78
1004.538	1996.8
1004.832	1987.08
1005.127	1947.53
1005.421	1934.43
1005.715	1937.82
1006.009	1895.11
1006.304	1908.21
1006.598	1872.51
1006.892	1905.95
1007.186	1854.2
1007.48	1866.18
1007.773	1846.97
1008.067	1847.88
1008.361	1824.6
1008.655	1813.98
1008.948	1805.16
1009.242	1802.68
1009.535	1809.23
1009.829	1800.64
1010.122	1769.46
1010.415	1772.85
1010.708	1726.97
1011.001	1746.86
1011.295	1733.53
1011.588	1708.22
1011.881	1694.88
1012.173	1688.11
1012.466	1682.23
1012.759	1708.9
1013.052	1665.73
1013.344	1691.27
1013.637	1687.43
1013.93	1656.92
1014.222	1630.03
1014.514	1613.98
1014.807	1605.85
1015.099	1614.43
1015.391	1617.82
1015.683	1574.44
1015.976	1595.68
1016.268	1555.23
1016.56	1559.97
1016.851	1557.26
1017.143	1524.04
1017.435	1514.55
1017.727	1523.59
1018.018	1503.93
1018.31	1496.92
1018.602	1488.56
1018.893	1498.51
1019.185	1472.52
1019.476	1452.41
1019.767	1443.59
1020.058	1452.41
1020.35	1421.22
1020.641	1415.8
1020.932	1404.05
1021.223	1413.31
1021.514	1413.08
1021.804	1381.45
1022.095	1347.55
1022.386	1376.93
1022.677	1351.17
1022.967	1337.38
1023.258	1331.96
1023.548	1341.9
1023.839	1338.51
1024.129	1342.13
1024.419	1333.99
1024.709	1339.19
1025	1301.9
1025.29	1301.22
1025.58	1265.52
1025.87	1276.36
1026.16	1249.92
1026.449	1265.29
1026.739	1246.08
1027.029	1229.59
1027.319	1262.35
1027.608	1194.33
1027.898	1228
1028.187	1206.31
1028.477	1175.35
1028.766	1193.66
1029.055	1195.91
1029.344	1169.02
1029.634	1166.31
1029.923	1158.18
1030.212	1154.11
1030.501	1166.31
1030.79	1144.62
1031.078	1141
1031.367	1144.84
1031.656	1127.44
1031.945	1136.26
1032.233	1116.59
1032.522	1090.83
1032.81	1090.83
1033.099	1068.01
1033.387	1088.8
1033.675	1045.18
1033.963	1060.1
1034.251	1076.82
1034.54	1040.44
1034.828	1038.18
1035.116	1044.05
1035.403	1049.48
1035.691	1015.58
1035.979	1005.41
1036.267	1009.48
1036.554	1011.06
1036.842	998.86
1037.129	997.95
1037.417	963.15
1037.704	979.65
1037.992	988.46
1038.279	969.25
1038.566	962.02
1038.853	962.02
1039.14	962.02
