Data from hue_10_FLMS001491_19.txt Node
Date: Mon Feb 06 15:31:30 GMT 2017
User: dcchb
Spectrometer: FLMS00149
Trigger mode: 0
Integration Time (sec): 2.000000E-2
Scans to average: 10
Electric dark correction enabled: true
Nonlinearity correction enabled: false
Boxcar width: 0
XAxis mode: Wavelengths
Number of Pixels in Spectrum: 2048
>>>>>Begin Spectral Data<<<<<
341.393	-26.33
341.776	-26.33
342.16	-26.33
342.543	-66.33
342.927	-81.92
343.31	-69.72
343.693	-81.47
344.077	-67
344.46	-55.03
344.843	-51.41
345.226	-29.04
345.61	-44.63
345.993	-14.8
346.376	6.89
346.759	22.94
347.142	25.2
347.525	40.79
347.908	52.77
348.291	61.35
348.674	91.41
349.057	111.75
349.44	132.54
349.823	120.11
350.206	146.78
350.588	181.13
350.971	211.63
351.354	201.24
351.737	228.36
352.119	249.6
352.502	260.22
352.884	264.96
353.267	275.36
353.65	280.11
354.032	271.52
354.414	298.18
354.797	312.87
355.179	301.57
355.562	311.97
355.944	305.87
356.326	344.74
356.709	322.59
357.091	348.35
357.473	318.3
357.855	336.83
358.238	347.22
358.62	339.54
359.002	307
359.384	322.36
359.766	331.4
360.148	345.41
360.53	328.92
360.912	324.62
361.294	317.17
361.676	331.63
362.057	322.14
362.439	326.88
362.821	331.4
363.203	315.58
363.584	316.49
363.966	325.08
364.348	318.3
364.729	325.98
365.111	297.51
365.493	300.44
365.874	325.53
366.256	330.5
366.637	299.77
367.019	301.35
367.4	306.32
367.781	300.44
368.163	288.69
368.544	315.81
368.925	305.19
369.306	310.84
369.688	316.49
370.069	299.54
370.45	313.33
370.831	298.41
371.212	313.33
371.593	302.93
371.974	318.97
372.355	291.4
372.736	300.44
373.117	309.94
373.498	322.59
373.879	288.92
374.26	288.69
374.641	315.36
375.021	294.79
375.402	315.13
375.783	299.31
376.163	316.94
376.544	308.13
376.925	304.96
377.305	303.83
377.686	306.32
378.066	303.83
378.447	308.81
378.827	327.34
379.208	322.14
379.588	319.65
379.968	300.44
380.349	334.57
380.729	313.33
381.109	332.76
381.489	316.71
381.87	323.95
382.25	327.34
382.63	350.61
383.01	329.82
383.39	328.92
383.77	328.69
384.15	331.86
384.53	297.73
384.91	350.84
385.29	324.17
385.67	342.48
386.049	336.6
386.429	335.92
386.809	326.66
387.189	352.65
387.568	337.28
387.948	353.32
388.328	327.79
388.707	333.66
389.087	347.45
389.466	334.57
389.846	337.73
390.225	359.43
390.605	343.83
390.984	347.9
391.363	353.78
391.743	359.88
392.122	370.72
392.501	335.92
392.881	370.95
393.26	334.79
393.639	355.58
394.018	348.8
394.397	358.07
394.776	347
395.155	369.14
395.534	358.07
395.913	361.46
396.292	373.21
396.671	382.25
397.05	384.96
397.429	359.2
397.808	374.57
398.186	346.54
398.565	364.85
398.944	376.6
399.323	390.16
399.701	380.22
400.08	383.83
400.458	382.48
400.837	365.75
401.215	364.4
401.594	396.49
401.972	380.67
402.351	377.28
402.729	378.86
403.107	390.84
403.486	372.76
403.864	362.82
404.242	400.78
404.62	403.04
404.999	368.46
405.377	395.81
405.755	371.85
406.133	412.53
406.511	384.96
406.889	407.33
407.267	407.33
407.645	384.28
408.023	395.81
408.401	412.53
408.779	389.48
409.156	425.19
409.534	392.65
409.912	422.93
410.29	420.21
410.667	417.73
411.045	398.07
411.422	413.66
411.8	420.67
412.178	409.14
412.555	427.45
412.933	459.54
413.31	433.55
413.687	432.87
414.065	423.38
414.442	428.58
414.819	446.88
415.197	424.96
415.574	457.95
415.951	434.45
416.328	452.53
416.705	441.23
417.082	449.82
417.46	464.96
417.837	446.88
418.214	457.28
418.591	469.03
418.967	460.67
419.344	475.81
419.721	477.39
420.098	476.03
420.475	457.95
420.852	474.68
421.228	486.2
421.605	475.81
421.982	471.74
422.358	478.07
422.735	488.01
423.111	494.34
423.488	512.64
423.864	471.29
424.241	495.92
424.617	515.58
424.994	490.72
425.37	504.73
425.746	504.96
426.123	520.78
426.499	521.23
426.875	521.46
427.251	513.55
427.627	528.69
428.003	547.9
428.379	538.18
428.756	538.4
429.132	539.99
429.507	548.35
429.883	529.82
430.259	525.75
430.635	540.44
431.011	562.13
431.387	555.8
431.763	567.33
432.138	568.01
432.514	571.4
432.89	567.33
433.265	575.24
433.641	564.17
434.016	578.63
434.392	577.72
434.767	602.13
435.143	605.75
435.518	598.74
435.894	608.46
436.269	612.53
436.644	613.88
437.02	613.43
437.395	614.79
437.77	628.35
438.145	637.61
438.52	643.71
438.895	625.18
439.271	628.35
439.646	661.34
440.021	637.84
440.395	665.63
440.77	649.14
441.145	626.31
441.52	674.67
441.895	650.72
442.27	646.2
442.645	669.93
443.019	662.92
443.394	649.36
443.769	689.36
444.143	685.97
444.518	705.86
444.892	701.11
445.267	694.56
445.641	697.72
446.016	710.38
446.39	695.69
446.764	708.12
447.139	709.92
447.513	693.43
447.887	705.41
448.262	706.31
448.636	705.18
449.01	705.41
449.384	720.09
449.758	741.56
450.132	734.1
450.506	730.72
450.88	742.69
451.254	738.85
451.628	735.23
452.002	768.23
452.376	772.3
452.75	777.72
453.123	775.01
453.497	781.79
453.871	785.4
454.244	784.73
454.618	807.32
454.992	820.66
455.365	809.81
455.739	837.38
456.112	860.43
456.486	824.72
456.859	830.6
457.232	836.48
457.606	847.1
457.979	844.38
458.352	876.47
458.725	867.89
459.099	882.8
459.472	897.26
459.845	910.6
460.218	890.49
460.591	913.76
460.964	909.24
461.337	932.29
461.71	946.75
462.083	949.47
462.456	923.03
462.829	951.95
463.201	957.6
463.574	979.52
463.947	998.5
464.32	986.08
464.692	1014.55
465.065	1013.19
465.438	1023.14
465.81	1024.72
466.183	1036.02
466.555	1063.14
466.928	1064.27
467.3	1078.28
467.672	1100.42
468.045	1122.8
468.417	1104.94
468.789	1128.67
469.161	1127.54
469.534	1135.45
469.906	1160.08
470.278	1178.16
470.65	1200.99
471.022	1200.08
471.394	1225.62
471.766	1250.93
472.138	1255.9
472.51	1259.06
472.882	1290.47
473.253	1336.12
473.625	1352.17
473.997	1359.17
474.369	1363.69
474.74	1388.55
475.112	1401.66
475.484	1438.72
475.855	1452.73
476.227	1490.7
476.598	1499.06
476.97	1514.2
477.341	1567.08
477.713	1581.54
478.084	1583.35
478.455	1670.8
478.827	1626.06
479.198	1711.25
479.569	1724.14
479.94	1768.2
480.311	1779.95
480.682	1817.24
481.053	1863.57
481.424	1904.24
481.795	1884.13
482.166	1929.33
482.537	1963.23
482.908	2019.95
483.279	2041.42
483.65	2107.85
484.021	2134.07
484.391	2129.55
484.762	2207.06
485.133	2233.05
485.503	2253.84
485.874	2290.22
486.244	2350.11
486.615	2377.9
486.985	2404.12
487.356	2475.75
487.726	2472.59
488.097	2556.88
488.467	2525.92
488.837	2594.62
489.207	2640.72
489.578	2691.34
489.948	2693.15
490.318	2774.73
490.688	2778.35
491.058	2787.38
491.428	2844.56
491.798	2865.35
492.168	2908.51
492.538	2953.93
492.908	3010.66
493.278	3040.71
493.648	3094.95
494.017	3112.12
494.387	3170.88
494.757	3162.52
495.126	3209.75
495.496	3218.79
495.866	3275.96
496.235	3324.55
496.605	3296.98
496.974	3339.91
497.344	3368.61
497.713	3394.6
498.082	3427.59
498.452	3483.86
498.821	3537.65
499.19	3543.52
499.559	3546.69
499.928	3575.61
500.298	3585.78
500.667	3616.97
501.036	3616.74
501.405	3602.28
501.774	3654.03
502.143	3712.56
502.512	3690.19
502.88	3735.16
503.249	3768.83
503.618	3784.65
503.987	3848.83
504.356	3867.81
504.724	3817.19
505.093	3868.03
505.462	3906.45
505.83	3893.12
506.199	3904.42
506.567	3981.7
506.936	3981.93
507.304	3976.05
507.672	3997.52
508.041	4044.98
508.409	4083.17
508.777	4120.68
509.145	4111.42
509.514	4065.09
509.882	4113.23
510.25	4136.73
510.618	4193.9
510.986	4161.81
511.354	4235.03
511.722	4207.69
512.09	4248.14
512.458	4202.71
512.826	4290.85
513.193	4262.15
513.561	4305.99
513.929	4294.46
514.297	4340.79
514.664	4378.75
515.032	4359.32
515.4	4396.83
515.767	4392.09
516.135	4435.7
516.502	4403.39
516.869	4481.35
517.237	4478.87
517.604	4412.88
517.972	4540.11
518.339	4533.1
518.706	4508.24
519.073	4539.2
519.44	4544.17
519.808	4562.25
520.175	4589.6
520.542	4645.87
520.909	4652.42
521.276	4638.86
521.643	4663.04
522.009	4690.39
522.376	4702.14
522.743	4659.2
523.11	4755.24
523.477	4803.38
523.843	4834.79
524.21	4861.68
524.577	4892.19
524.943	4880.89
525.31	4896.26
525.676	4897.39
526.043	4923.15
526.409	5018.51
526.776	4993.65
527.142	5078.17
527.508	5031.39
527.874	5063.93
528.241	5117.72
528.607	5130.6
528.973	5141.67
529.339	5143.25
529.705	5192.52
530.071	5259.86
530.437	5241.33
530.803	5272.29
531.169	5329.24
531.535	5326.3
531.901	5368.11
532.267	5352.29
532.632	5397.94
532.998	5377.82
533.364	5410.59
533.73	5426.86
534.095	5469.35
534.461	5549.35
534.826	5522.45
535.192	5588.89
535.557	5554.77
535.923	5559.74
536.288	5579.18
536.653	5605.84
537.019	5587.08
537.384	5661.89
537.749	5682
538.114	5671.83
538.479	5690.13
538.845	5740.98
539.21	5743.24
539.575	5790.47
539.94	5830.69
540.305	5916.57
540.67	5885.61
541.034	5898.71
541.399	5866.4
541.764	5904.36
542.129	5948.88
542.494	6023.23
542.858	6012.16
543.223	6062.78
543.587	6032.72
543.952	6042.89
544.316	6109.78
544.681	6065.26
545.045	6134.64
545.41	6165.6
545.774	6116.56
546.138	6200.63
546.503	6188.42
546.867	6245.37
547.231	6342.32
547.595	6232.49
547.959	6310
548.324	6334.86
548.688	6337.12
549.052	6399.94
549.416	6370.79
549.779	6458.25
550.143	6424.58
550.507	6452.15
550.871	6524.69
551.235	6474.29
551.599	6639.26
551.962	6579.15
552.326	6557
552.689	6654.63
553.053	6563.33
553.417	6612.37
553.78	6694.17
554.143	6652.37
554.507	6763.32
554.87	6726.04
555.234	6785.47
555.597	6770.56
555.96	6768.52
556.323	6766.49
556.686	6790.89
557.05	6846.71
557.413	6822.08
557.776	6891.46
558.139	6859.14
558.502	6910.44
558.865	6912.25
559.228	6973.71
559.59	7012.58
559.953	7034.96
560.316	7090.77
560.679	7063.2
561.041	7068.63
561.404	7101.4
561.767	7215.74
562.129	7161.73
562.492	7191.56
562.854	7185.46
563.217	7172.35
563.579	7234.95
563.941	7302.29
564.304	7295.06
564.666	7342.07
565.028	7349.3
565.39	7401.27
565.753	7446.24
566.115	7430.43
566.477	7472.01
566.839	7465.45
567.201	7548.39
567.563	7525.11
567.925	7632.45
568.287	7569.41
568.648	7661.61
569.01	7666.35
569.372	7745.9
569.734	7696.18
570.095	7731.66
570.457	7759.46
570.819	7827.93
571.18	7823.64
571.542	7887.59
571.903	7942.95
572.265	7901.83
572.626	7998.77
572.987	8080.58
573.349	8096.4
573.71	8120.13
574.071	8140.46
574.432	8192.89
574.794	8272.89
575.155	8333.23
575.516	8314.47
575.877	8424.75
576.238	8479.44
576.599	8604.41
576.96	8586.78
577.32	8662.03
577.681	8731.18
578.042	8830.16
578.403	8881.01
578.763	9005.53
579.124	9052.53
579.485	9130.27
579.845	9305.18
580.206	9300.43
580.566	9450.03
580.927	9511.73
581.287	9685.73
581.648	9710.14
582.008	9891.83
582.368	10079.85
582.728	10236.45
583.089	10351.03
583.449	10430.8
583.809	10577.69
584.169	10785.82
584.529	10911.01
584.889	11249.08
585.249	11259.7
585.609	11334.5
585.969	11638.68
586.329	11811.78
586.688	12047.03
587.048	12257.19
587.408	12445.89
587.768	12592.1
588.127	12808.82
588.487	13070.05
588.846	13318.86
589.206	13428.01
589.565	13724.5
589.925	13997.71
590.284	14217.82
590.643	14565.15
591.003	14824.36
591.362	15069.55
591.721	15284.46
592.08	15527.61
592.44	15922.41
592.799	16152.46
593.158	16355.84
593.517	16691.43
593.876	17076.95
594.235	17217.74
594.593	17553.1
594.952	17884.39
595.311	18026.08
595.67	18375.45
596.029	18744.03
596.387	19059.72
596.746	19361.19
597.104	19578.58
597.463	19877.33
597.822	20288.62
598.18	20388.28
598.538	20705.78
598.897	21073.23
599.255	21158.88
599.613	21842.7
599.972	22031.4
600.33	22332.86
600.688	22544.15
601.046	22927.87
601.404	23157.47
601.762	23523.56
602.12	23803.1
602.478	24090.33
602.836	24366.03
603.194	24532.35
603.552	24833.81
603.91	25019.34
604.268	25408.48
604.625	25577.97
604.983	25930.73
605.341	26024.06
605.698	26425.86
606.056	26667.89
606.413	26949.23
606.771	27327.98
607.128	27367.75
607.485	27692.94
607.843	27822.43
608.2	28312.14
608.557	28556.42
608.914	28657.44
609.272	28992.8
609.629	29187.37
609.986	29443.41
610.343	29455.38
610.7	29878.42
611.057	30157.06
611.414	30254.46
611.771	30522.7
612.127	30603.15
612.484	30960.65
612.841	31114.78
613.198	31090.59
613.554	31451.72
613.911	31742.33
614.267	31862.55
614.624	31969.22
614.98	32272.71
615.337	32545.7
615.693	32646.26
616.05	32801.96
616.406	33006.7
616.762	33036.08
617.118	33240.14
617.475	33350.42
617.831	33524.43
618.187	33684.2
618.543	33966.45
618.899	34013
619.255	34126
619.611	34381.58
619.967	34499.77
620.323	34711.52
620.678	34723.95
621.034	34697.05
621.39	34975.46
621.746	34952.87
622.101	35435.79
622.457	35189.02
622.812	35379.52
623.168	35668.78
623.523	35582.68
623.879	35924.37
624.234	35619.74
624.589	35881.2
624.945	36096.34
625.3	36209.33
625.655	36249.56
626.01	36250.46
626.365	36407.52
626.72	36474.41
627.075	36637.34
627.43	36463.34
627.785	36532.71
628.14	36681.18
628.495	36767.51
628.85	36763.44
629.205	36711.24
629.559	36927.5
629.914	36815.42
630.269	36922.08
630.623	36873.49
630.978	36870.1
631.332	37075.52
631.687	37055.41
632.041	37031
632.396	37237.55
632.75	37073.94
633.104	37177.89
633.459	37075.07
633.813	37071.91
634.167	37084.34
634.521	37186.03
634.875	37178.12
635.229	37178.34
635.583	37075.97
635.937	37308.74
636.291	37217.44
636.645	37253.37
636.999	37167.5
637.352	37301.05
637.706	37212.02
638.06	37214.05
638.413	37096.99
638.767	37197.1
639.121	37188.74
639.474	37200.04
639.828	37286.59
640.181	37218.57
640.534	37399.13
640.888	37183.54
641.241	37096.54
641.594	37113.71
641.947	37155.97
642.301	37175.63
642.654	37274.39
643.007	37128.4
643.36	37158.46
643.713	37161.4
644.066	37325.69
644.419	37080.72
644.771	36760.73
645.124	36459.95
645.477	36489.1
645.83	36362.77
646.182	36087.3
646.535	36096.11
646.888	36132.27
647.24	36084.36
647.593	36197.81
647.945	36168.43
648.298	35960.3
648.65	35962.78
649.002	35862.45
649.355	36066.06
649.707	35996.68
650.059	36111.03
650.411	36490.45
650.763	36474.41
651.115	36902.42
651.467	36734.29
651.819	36753.04
652.171	36791.24
652.523	36753.5
652.875	36795.98
653.227	36601.41
653.578	36865.13
653.93	36726.83
654.282	36525.25
654.633	36527.29
654.985	36641.86
655.337	36715.31
655.688	36560.28
656.039	36673.5
656.391	36476.22
656.742	36534.97
657.094	36563.9
657.445	36712.14
657.796	36633.95
658.147	36536.78
658.498	36452.26
658.849	36594.18
659.2	36491.81
659.551	36486.39
659.902	36463.11
660.253	36385.14
660.604	36447.74
660.955	36285.49
661.306	36519.15
661.656	36480.28
662.007	36310.57
662.358	36341.76
662.708	36381.3
663.059	36399.16
663.409	36213.17
663.76	36433.73
664.11	36438.25
664.461	36463.11
664.811	36338.59
665.161	36431.92
665.511	36317.58
665.862	36343.79
666.212	36393.96
666.562	36454.97
666.912	36382.43
667.262	36295.2
667.612	36352.83
667.962	36418.36
668.312	36343.56
668.662	36459.95
669.011	36281.64
669.361	36276
669.711	36288.42
670.06	36221.08
670.41	36237.13
670.76	36117.81
671.109	36336.78
671.459	36159.84
671.808	36038.94
672.157	36237.58
672.507	36022.67
672.856	36108.77
673.205	36188.31
673.554	36287.07
673.904	36096.11
674.253	36228.09
674.602	36061.54
674.951	35705.39
675.3	35490.93
675.649	36004.14
675.998	36093.85
676.346	36119.16
676.695	36254.07
677.044	35822.9
677.393	36011.82
677.741	35983.57
678.09	35808.21
678.438	35909.23
678.787	35898.6
679.135	35897.7
679.484	35828.78
679.832	35752.39
680.181	35620.87
680.529	35870.81
680.877	35624.26
681.225	35696.12
681.573	35684.82
681.922	35531.16
682.27	35413.19
682.618	35446.86
682.966	35340.88
683.314	35307.89
683.661	35330.26
684.009	35096.37
684.357	35045.75
684.705	35135.01
685.053	35181.56
685.4	35000.32
685.748	34835.81
686.095	34913.32
686.443	34802.14
686.79	34683.27
687.138	34694.57
687.485	34793.77
687.832	34646.43
688.18	34561.24
688.527	34407.8
688.874	34536.15
689.221	34415.48
689.568	34266.56
689.915	34133.23
690.262	34250.51
690.609	34111.53
690.956	34007.13
691.303	34043.74
691.65	33908.6
691.997	33829.96
692.344	33650.53
692.69	33645.78
693.037	33700.47
693.383	33417.31
693.73	33472.23
694.077	33283.76
694.423	33309.07
694.769	33218
695.116	33112.01
695.462	33089.41
695.808	32944.11
696.155	33043.09
696.501	32760.61
696.847	32757.67
697.193	32462.99
697.539	32635.19
697.885	32374.63
698.231	32341.18
698.577	32405.81
698.923	32318.36
699.269	32076.78
699.614	32027.07
699.96	31897.81
700.306	31774.64
700.651	31753.85
700.997	31736
701.342	31614.42
701.688	31684.48
702.033	31515.67
702.379	31567.19
702.724	31383.92
703.069	31359.51
703.415	31003.37
703.76	31152.74
704.105	31174.89
704.45	31144.15
704.795	31014.44
705.14	30816.93
705.485	30824.61
705.83	30756.37
706.175	30790.72
706.52	30691.74
706.865	30571.29
707.209	30466.43
707.554	30457.62
707.899	30416.49
708.243	30229.83
708.588	30229.6
708.932	29979.44
709.277	30056.27
709.621	29945.99
709.966	29748.94
710.31	29896.5
710.654	29634.14
710.998	29751.2
711.342	29676.62
711.687	29649.5
712.031	29510.3
712.375	29431.43
712.719	29454.48
713.063	29360.47
713.407	29446.8
713.75	29249.29
714.094	29288.16
714.438	29153.7
714.782	29257.65
715.125	29064.43
715.469	29117.09
715.812	28872.57
716.156	28802.97
716.499	28931.1
716.843	28789.64
717.186	28721.62
717.53	28728.62
717.873	28734.27
718.216	28718.68
718.559	28550.1
718.902	28271.91
719.246	28324.11
719.589	28391.46
719.932	28275.08
720.275	28158.92
720.617	28054.06
720.96	28139.71
721.303	28178.58
721.646	28093.16
721.989	28017
722.331	27935.65
722.674	27878.48
723.016	27933.62
723.359	27899.27
723.701	27849.78
724.044	27630.12
724.386	27673.06
724.729	27577.02
725.071	27626.28
725.413	27556.45
725.755	27473.29
726.097	27429.67
726.439	27518.71
726.782	27486.17
727.124	27469
727.465	27223.13
727.807	27246.4
728.149	27196.23
728.491	27214.76
728.833	27269.9
729.175	27097.71
729.516	26934.55
729.858	26989.69
730.199	27000.31
730.541	26977.93
730.882	26896.13
731.224	27024.49
731.565	26845.51
731.906	26836.47
732.248	26770.48
732.589	26625.85
732.93	26523.48
733.271	26623.14
733.612	26565.97
733.953	26615.46
734.294	26475.8
734.635	26491.39
734.976	26471.06
735.317	26420.21
735.658	26204.62
735.999	26288.69
736.339	26220.21
736.68	26283.49
737.021	26242.81
737.361	26143.38
737.702	26324.84
738.042	26228.35
738.383	26062.48
738.723	26062.25
739.063	25952.2
739.404	26024.06
739.744	26118.52
740.084	25897.51
740.424	25916.72
740.764	25855.48
741.104	25984.51
741.444	25825.87
741.784	25715.37
742.124	25795.82
742.464	25758.98
742.804	25682.38
743.143	25620.68
743.483	25674.92
743.823	25560.57
744.162	25506.33
744.502	25529.84
744.841	25370.52
745.181	25603.96
745.52	25433.79
745.86	25459.1
746.199	25357.41
746.538	25270.63
746.877	25285.55
747.216	25434.47
747.556	25300.01
747.895	25332.78
748.234	25104.76
748.573	24971.21
748.911	25054.14
749.25	25102.96
749.589	24886.69
749.928	25044.2
750.267	25007.59
750.605	24886.69
750.944	24933.02
751.283	24769.63
751.621	24783.87
751.96	24581.84
752.298	24660.26
752.636	24675.4
752.975	24602.86
753.313	24499.13
753.651	24586.13
753.989	24509.53
754.327	24420.49
754.666	24244
755.004	24432.69
755.342	24379.58
755.679	24327.61
756.017	24160.38
756.355	24228.18
756.693	24085.13
757.031	24151.57
757.368	23961.29
757.706	24058.46
758.044	23799.04
758.381	23919.26
758.719	23814.63
759.056	23952.03
759.394	23766.49
759.731	23534.18
760.068	23561.75
760.405	23513.17
760.743	23484.69
761.08	23478.82
761.417	23361.31
761.754	23340.29
762.091	23257.58
762.428	23095.78
762.765	23121.31
763.102	23154.53
763.438	23003.35
763.775	22859.85
764.112	22908.44
764.449	22927.42
764.785	22755.22
765.122	22726.07
765.458	22578.28
765.795	22521.33
766.131	22598.39
766.467	22473.65
766.804	22359.53
767.14	22215.12
767.476	22229.13
767.812	22155.01
768.148	22255.8
768.485	22023.49
768.821	21982.59
769.157	21908.24
769.492	21807
769.828	21922.25
770.164	21658.3
770.5	21581.24
770.836	21567.46
771.171	21433.22
771.507	21321.59
771.842	21231.87
772.178	21168.37
772.513	21143.06
772.849	21087.02
773.184	20936.96
773.519	21041.82
773.855	20868.72
774.19	20853.12
774.525	20760.02
774.86	20636.18
775.195	20700.59
775.53	20499.69
775.865	20543.08
776.2	20369.29
776.535	20229.41
776.87	20233.03
777.205	20118.45
777.539	20062.18
777.874	20144.22
778.209	19948.74
778.543	19885.92
778.878	19761.85
779.212	19770.89
779.547	19579.03
779.881	19661.74
780.215	19477.11
780.55	19602.99
780.884	19467.4
781.218	19379.72
781.552	19335.2
781.886	19193.73
782.22	19107.41
782.554	19000.74
782.888	18927.75
783.222	18971.14
783.556	18707.19
783.889	18773.63
784.223	18599.17
784.557	18581.09
784.89	18627.65
785.224	18569.12
785.557	18397.82
785.891	18287.77
786.224	18366.41
786.558	18237.83
786.891	18057.72
787.224	18091.39
787.557	18038.73
787.891	18082.58
788.224	17984.5
788.557	17993.76
788.89	17760.55
789.223	17803.49
789.556	17721.23
789.888	17626.54
790.221	17557.62
790.554	17384.51
790.887	17428.81
791.219	17388.81
791.552	17281.24
791.884	17246.44
792.217	17151.53
792.549	17106.1
792.882	17047.35
793.214	16993.79
793.546	16924.41
793.879	16880.35
794.211	16702.27
794.543	16862.04
794.875	16761.25
795.207	16788.6
795.539	16719.67
795.871	16628.38
796.203	16499.57
796.535	16379.34
796.867	16474.48
797.198	16332.79
797.53	16305.45
797.862	16216.41
798.193	16246.92
798.525	16162.85
798.856	16128.05
799.188	16072.46
799.519	15959.24
799.85	15864.1
800.182	15830.66
800.513	15937.1
800.844	15756.31
801.175	15822.97
801.506	15664.56
801.837	15569.65
802.168	15615.52
802.499	15563.77
802.83	15423.66
803.161	15458.01
803.491	15447.84
803.822	15417.33
804.153	15252.59
804.483	15281.29
804.814	15207.4
805.145	15158.81
805.475	15118.59
805.805	15110.68
806.136	15039.72
806.466	15046.72
806.796	15078.13
807.126	14834.75
807.457	14908.87
807.787	14723.12
808.117	14697.13
808.447	14661.2
808.777	14789.55
809.107	14672.04
809.436	14604.25
809.766	14592.5
810.096	14565.83
810.426	14516.79
810.755	14514.08
811.085	14447.87
811.414	14374.42
811.744	14315.22
812.073	14345.5
812.403	14247.42
812.732	14240.87
813.061	14161.32
813.39	14090.14
813.719	14110.7
814.049	14124.71
814.378	14064.38
814.707	13971.05
815.036	13994.77
815.365	13889.01
815.693	13780.77
816.022	13846.3
816.351	13735.35
816.68	13669.58
817.008	13763.14
817.337	13644.73
817.665	13665.74
817.994	13611.05
818.322	13598.17
818.651	13596.82
818.979	13509.14
819.307	13485.41
819.636	13491.96
819.964	13426.65
820.292	13456.03
820.62	13417.84
820.948	13369.93
821.276	13367.22
821.604	13369.93
821.932	13458.97
822.259	13381
822.587	13366.77
822.915	13416.94
823.243	13385.52
823.57	13349.59
823.898	13298.97
824.225	13278.18
824.553	13274.79
824.88	13163.61
825.207	13274.79
825.535	13252.42
825.862	13353.89
826.189	13214.68
826.516	13288.8
826.843	13312.08
827.17	13287.45
827.497	13284.06
827.824	13375.81
828.151	13319.99
828.478	13265.3
828.805	13378.07
829.131	13317.5
829.458	13324.96
829.785	13181.01
830.111	13290.84
830.438	13329.25
830.764	13248.35
831.09	13356.82
831.417	13224.62
831.743	13267.11
832.069	13273.89
832.395	13196.15
832.722	13210.16
833.048	13088.81
833.374	13193.66
833.7	13162.25
834.026	13168.58
834.351	13124.51
834.677	13098.98
835.003	13167
835.329	13153.44
835.654	13083.61
835.98	13052.65
836.306	13076.83
836.631	13040
836.956	13048.58
837.282	13089.71
837.607	12981.47
837.932	12920.68
838.258	12965.42
838.583	12883.84
838.908	12842.26
839.233	12855.37
839.558	12847.01
839.883	12812.21
840.208	12810.62
840.533	12805.2
840.858	12781.92
841.182	12731.53
841.507	12731.3
841.832	12611.98
842.156	12664.19
842.481	12595.26
842.805	12614.7
843.13	12601.14
843.454	12618.54
843.778	12527.69
844.103	12400.01
844.427	12419.67
844.751	12454.02
845.075	12441.14
845.399	12333.12
845.723	12315.04
846.047	12300.81
846.371	12237.53
846.695	12269.62
847.019	12071.21
847.343	12020.36
847.666	11944.66
847.99	11914.6
848.313	11872.12
848.637	11888.61
848.96	11884.77
849.284	11825.56
849.607	11760.93
849.931	11783.08
850.254	11580.37
850.577	11559.13
850.9	11428.06
851.223	11452.69
851.546	11476.2
851.869	11385.35
852.192	11315.75
852.515	11267.16
852.838	11236.43
853.161	11270.33
853.483	11148.75
853.806	11112.14
854.129	11120.05
854.451	11028.52
854.774	10995.3
855.096	10936.32
855.419	10980.39
855.741	10930.67
856.063	10876.89
856.385	10889.54
856.708	10825.14
857.03	10780.17
857.352	10843.22
857.674	10765.48
857.996	10723.9
858.318	10631.7
858.64	10631.7
858.961	10626.73
859.283	10491.81
859.605	10487.52
859.926	10490.68
860.248	10553.96
860.57	10496.33
860.891	10478.71
861.212	10406.17
861.534	10394.19
861.855	10308.09
862.176	10379.95
862.498	10348.77
862.819	10399.16
863.14	10294.98
863.461	10217.47
863.782	10219.96
864.103	10252.72
864.424	10205.95
864.745	10246.4
865.065	10153.97
865.386	10126.17
865.707	10066.06
866.027	10165.95
866.348	10099.28
866.668	10064.26
866.989	10041.66
867.309	9981.77
867.63	9966.4
867.95	9923.02
868.27	9949.46
868.59	10043.01
868.91	9965.95
869.23	9910.13
869.55	9903.58
869.87	9931.6
870.19	9881.21
870.51	9904.49
870.83	9825.39
871.15	9801.89
871.469	9858.84
871.789	9889.12
872.109	9776.58
872.428	9768.44
872.748	9745.17
873.067	9692.06
873.386	9758.05
873.706	9749.24
874.025	9685.06
874.344	9619.07
874.663	9605.74
874.982	9653.64
875.301	9574.1
875.62	9609.8
875.939	9558.05
876.258	9511.05
876.577	9550.6
876.896	9490.71
877.214	9536.36
877.533	9565.29
877.852	9478.51
878.17	9504.95
878.489	9453.65
878.807	9470.82
879.125	9488
879.444	9442.35
879.762	9346.76
880.08	9413.88
880.398	9359.19
880.716	9314.44
881.034	9346.76
881.352	9293.88
881.67	9288.91
881.988	9318.74
882.306	9262.69
882.624	9232.19
882.941	9199.87
883.259	9223.37
883.577	9242.58
883.894	9118.29
884.212	9115.13
884.529	9156.03
884.846	9089.82
885.164	9049.37
885.481	9031.97
885.798	9024.28
886.115	8973.89
886.432	8976.37
886.75	8924.62
887.067	8960.56
887.383	8913.1
887.7	8901.12
888.017	8873.55
888.334	8809.82
888.651	8808.47
888.967	8839.88
889.284	8807.34
889.6	8730.73
889.917	8677.62
890.233	8722.82
890.55	8680.34
890.866	8685.08
891.182	8627.23
891.498	8557.63
891.815	8582.71
892.131	8593.79
892.447	8443.28
892.763	8488.7
893.079	8444.41
893.395	8408.25
893.71	8402.15
894.026	8409.84
894.342	8405.99
894.657	8329.61
894.973	8291.87
895.289	8313.57
895.604	8250.52
895.92	8271.53
896.235	8190.63
896.55	8133.01
896.865	8124.42
897.181	8136.17
897.496	8132.78
897.811	8040.58
898.126	8017.08
898.441	8030.64
898.756	8016.63
899.071	7937.31
899.386	7992.9
899.7	7917.87
900.015	7886.01
900.33	7843.52
900.644	7802.39
900.959	7814.6
901.273	7829.29
901.588	7774.82
901.902	7712.68
902.216	7629.74
902.531	7654.83
902.845	7641.72
903.159	7583.87
903.473	7539.58
903.787	7591.78
904.101	7477.88
904.415	7480.14
904.729	7420.48
905.042	7320.6
905.356	7428.39
905.67	7389.52
905.984	7358.56
906.297	7249.64
906.611	7259.13
906.924	7313.37
907.237	7227.04
907.551	7236.53
907.864	7225.01
908.177	7166.93
908.491	7141.39
908.804	7145.24
909.117	7094.62
909.43	7044
909.743	7002.64
910.056	6974.39
910.368	6993.15
910.681	6851.01
910.994	6865.47
911.307	6872.7
911.619	6779.37
911.932	6843.55
912.244	6809.43
912.557	6752.93
912.869	6709.32
913.181	6713.16
913.494	6660.73
913.806	6664.57
914.118	6632.48
914.43	6568.75
914.742	6605.59
915.054	6597.23
915.366	6514.74
915.678	6538.25
915.99	6456.21
916.302	6430.68
916.613	6400.85
916.925	6378.48
917.236	6333.05
917.548	6316.33
917.859	6348.19
918.171	6281.08
918.482	6282.89
918.794	6240.85
919.105	6246.5
919.416	6234.53
919.727	6140.29
920.038	6169.67
920.349	6077.02
920.66	6094.19
920.971	6055.1
921.282	6054.19
921.593	6034.76
921.903	5989.79
922.214	5939.39
922.525	5946.4
922.835	5891.71
923.146	5864.14
923.456	5863.24
923.767	5809.9
924.077	5846.51
924.387	5813.97
924.697	5741.66
925.008	5730.81
925.318	5722.22
925.628	5720.19
925.938	5646.52
926.248	5623.24
926.558	5634.32
926.867	5575.33
927.177	5554.77
927.487	5547.76
927.796	5546.63
928.106	5489.69
928.416	5474.77
928.725	5458.95
929.034	5425.28
929.344	5386.19
929.653	5370.59
929.962	5326.53
930.271	5358.84
930.581	5323.59
930.89	5272.06
931.199	5235.91
931.508	5268
931.817	5251.27
932.125	5220.09
932.434	5206.76
932.743	5163.82
933.051	5106.65
933.36	5087.66
933.669	5046.31
933.977	5063.48
934.286	5059.41
934.594	5045.86
934.902	4933.54
935.21	4970.38
935.519	4972.86
935.827	4917.95
936.135	4920.89
936.443	4847.44
936.751	4836.14
937.059	4841.12
937.367	4818.74
937.674	4832.98
937.982	4824.17
938.29	4779.87
938.597	4786.2
938.905	4721.12
939.213	4657.17
939.52	4724.06
939.827	4689.93
940.135	4686.54
940.442	4615.81
940.749	4615.58
941.056	4634.57
941.363	4596.83
941.67	4530.16
941.977	4515.93
942.284	4531.52
942.591	4498.07
942.898	4446.55
943.205	4494.91
943.511	4428.25
943.818	4423.5
944.125	4358.87
944.431	4409.26
944.738	4351.19
945.044	4356.38
945.35	4329.94
945.657	4288.14
945.963	4313.22
946.269	4263.96
946.575	4253.79
946.881	4249.27
947.187	4245.43
947.493	4153.68
947.799	4252.88
948.105	4132.66
948.41	4122.72
948.716	4179.89
949.022	4098.08
949.327	4113.68
949.633	4049.72
949.938	4066.67
950.244	4022.15
950.549	4002.49
950.854	4021.02
951.16	3953.68
951.465	3949.61
951.77	3980.57
952.075	3927.69
952.38	3928.15
952.685	3900.12
952.99	3859.67
953.294	3860.58
953.599	3822.39
953.904	3810.86
954.209	3783.52
954.513	3820.35
954.818	3762.73
955.122	3764.99
955.426	3769.05
955.731	3729.28
956.035	3715.5
956.339	3712.33
956.643	3704.87
956.948	3647.93
957.252	3637.53
957.556	3597.98
957.86	3624.88
958.163	3609.28
958.467	3630.3
958.771	3601.83
959.075	3553.47
959.378	3563.18
959.682	3578.78
959.985	3520.02
960.289	3477.76
960.592	3536.52
960.896	3484.77
961.199	3485.22
961.502	3416.97
961.805	3441.15
962.108	3424.66
962.411	3400.93
962.714	3348.73
963.017	3355.05
963.32	3376.97
963.623	3336.97
963.926	3348.73
964.228	3313.02
964.531	3279.35
964.833	3292.23
965.136	3259.24
965.438	3289.29
965.741	3270.08
966.043	3251.55
966.345	3198.9
966.648	3173.59
966.95	3198
967.252	3179.69
967.554	3169.97
967.856	3153.93
968.158	3140.37
968.46	3110.99
968.761	3094.49
969.063	3064.44
969.365	3086.13
969.666	3025.34
969.968	3014.5
970.269	3006.36
970.571	2992.35
970.872	3043.65
971.174	3005.68
971.475	2999.58
971.776	2976.53
972.077	2947.15
972.378	2948.51
972.679	2924.1
972.98	2935.4
973.281	2942.86
973.582	2923.88
973.883	2894.05
974.183	2877.1
974.484	2861.51
974.785	2863.99
975.085	2829.87
975.386	2792.81
975.686	2771.34
975.986	2774.5
976.287	2805.24
976.587	2744.45
976.887	2746.26
977.187	2729.31
977.487	2760.27
977.787	2726.82
978.087	2682.3
978.387	2718.23
978.687	2668.07
978.987	2684.11
979.286	2646.6
979.586	2660.61
979.885	2627.39
980.185	2623.32
980.484	2605.24
980.784	2607.05
981.083	2586.03
981.382	2580.38
981.682	2579.93
981.981	2575.19
982.28	2553.49
982.579	2533.83
982.878	2505.81
983.177	2499.48
983.475	2507.62
983.774	2497
984.073	2481.18
984.372	2473.95
984.67	2488.86
984.969	2447.28
985.267	2427.39
985.566	2445.47
985.864	2399.6
986.162	2422.65
986.461	2450.22
986.759	2370.22
987.057	2375.19
987.355	2350.56
987.653	2378.81
987.951	2365.47
988.249	2353.72
988.547	2366.38
988.844	2313.72
989.142	2327.06
989.44	2294.74
989.737	2277.12
990.035	2267.4
990.332	2238.7
990.63	2252.26
990.927	2229.21
991.224	2211.81
991.521	2195.54
991.819	2211.81
992.116	2176.1
992.413	2194.86
992.71	2181.75
993.006	2167.29
993.303	2138.59
993.6	2151.24
993.897	2117.12
994.193	2148.53
994.49	2130.23
994.787	2085.71
995.083	2144.69
995.379	2078.25
995.676	2100.17
995.972	2068.76
996.268	2070.34
996.565	2037.8
996.861	2044.58
997.157	2039.16
997.453	2019.04
997.749	2000.96
998.044	2018.59
998.34	1977.46
998.636	2027.4
998.932	1979.27
999.227	1967.52
999.523	1958.93
999.818	1965.71
1000.114	1932.27
1000.409	1954.19
1000.704	1942.43
1001	1901.98
1001.295	1887.97
1001.59	1880.29
1001.885	1862.89
1002.18	1852.49
1002.475	1875.54
1002.77	1864.92
1003.065	1831.25
1003.359	1828.77
1003.654	1830.35
1003.949	1846.84
1004.243	1796.22
1004.538	1756.9
1004.832	1768.43
1005.127	1763.68
1005.421	1773.85
1005.715	1745.83
1006.009	1734.3
1006.304	1747.64
1006.598	1742.67
1006.892	1710.35
1007.186	1697.24
1007.48	1683.46
1007.773	1690.46
1008.067	1652.5
1008.361	1671.93
1008.655	1635.78
1008.948	1652.95
1009.242	1626.28
1009.535	1632.39
1009.829	1610.47
1010.122	1638.04
1010.415	1627.64
1010.708	1614.31
1011.001	1588.32
1011.295	1566.17
1011.588	1573.18
1011.881	1548.55
1012.173	1546.06
1012.466	1560.07
1012.759	1522.56
1013.052	1500.41
1013.344	1518.49
1013.637	1511.03
1013.93	1485.95
1014.222	1494.54
1014.514	1490.02
1014.807	1470.36
1015.099	1461.09
1015.391	1481.43
1015.683	1432.62
1015.976	1448.66
1016.268	1429
1016.56	1420.87
1016.851	1423.35
1017.143	1414.31
1017.435	1395.1
1017.727	1384.26
1018.018	1378.83
1018.31	1380.64
1018.602	1398.95
1018.893	1352.17
1019.185	1330.25
1019.476	1350.36
1019.767	1329.12
1020.058	1336.58
1020.35	1322.34
1020.641	1304.71
1020.932	1298.16
1021.223	1287.76
1021.514	1259.51
1021.804	1276.69
1022.095	1263.81
1022.386	1250.7
1022.677	1275.33
1022.967	1247.76
1023.258	1251.38
1023.548	1246.63
1023.839	1213.87
1024.129	1203.7
1024.419	1200.08
1024.709	1191.27
1025	1174.32
1025.29	1183.58
1025.58	1166.64
1025.87	1159.4
1026.16	1151.04
1026.449	1150.59
1026.739	1158.73
1027.029	1123.47
1027.319	1127.54
1027.608	1133.64
1027.898	1094.1
1028.187	1126.41
1028.477	1099.07
1028.766	1097.49
1029.055	1091.84
1029.344	1089.8
1029.634	1069.46
1029.923	1062.23
1030.212	1047.09
1030.501	1054.1
1030.79	1029.92
1031.078	1040.76
1031.367	1047.54
1031.656	1035.57
1031.945	1031.95
1032.233	1039.41
1032.522	1023.14
1032.81	969.13
1033.099	987.21
1033.387	985.17
1033.675	993.76
1033.963	996.24
1034.251	979.3
1034.54	974.55
1034.828	930.71
1035.116	949.69
1035.403	949.24
1035.691	935.23
1035.979	930.03
1036.267	940.2
1036.554	923.48
1036.842	918.73
1037.129	918.05
1037.417	902.01
1037.704	906.3
1037.992	900.88
1038.279	881.45
1038.566	914.67
1038.853	914.67
1039.14	914.67
