Data from hue_38_FLMS001491_00047.txt Node
Date: Tue Feb 07 17:31:33 GMT 2017
User: dcchb
Spectrometer: FLMS00149
Trigger mode: 0
Integration Time (sec): 2.000000E-2
Scans to average: 10
Electric dark correction enabled: true
Nonlinearity correction enabled: false
Boxcar width: 0
XAxis mode: Wavelengths
Number of Pixels in Spectrum: 2048
>>>>>Begin Spectral Data<<<<<
341.393	11.58
341.776	11.58
342.16	11.58
342.543	-33.84
342.927	-92.82
343.31	-64.57
343.693	-65.03
344.077	-62.99
344.46	-60.73
344.843	-51.69
345.226	-34.07
345.61	-44.24
345.993	-21.19
346.376	-30.68
346.759	11.36
347.142	29.43
347.525	48.64
347.908	71.02
348.291	83.22
348.674	90.68
349.057	100.84
349.44	130.22
349.823	154.18
350.206	167.96
350.588	183.33
350.971	223.33
351.354	231.91
351.737	233.5
352.119	251.12
352.502	269.2
352.884	262.65
353.267	293.83
353.65	294.96
354.032	305.13
354.414	328.18
354.797	328.18
355.179	319.37
355.562	322.08
355.944	347.17
356.326	353.27
356.709	337
357.091	332.48
357.473	349.65
357.855	360.5
358.238	357.56
358.62	345.36
359.002	340.84
359.384	353.27
359.766	344.91
360.148	320.27
360.53	355.75
360.912	336.32
361.294	345.81
361.676	329.54
362.057	355.98
362.439	330.67
362.821	345.13
363.203	346.26
363.584	337.67
363.966	317.79
364.348	335.64
364.729	326.6
365.111	342.87
365.493	316.43
365.874	325.7
366.256	339.26
366.637	322.31
367.019	329.09
367.4	333.16
367.781	328.18
368.163	333.38
368.544	344
368.925	304.68
369.306	333.83
369.688	320.5
370.069	339.71
370.45	330.9
370.831	309.2
371.212	326.38
371.593	328.18
371.974	338.13
372.355	353.95
372.736	308.3
373.117	324.57
373.498	314.17
373.879	325.47
374.26	316.21
374.641	335.19
375.021	337.9
375.402	322.76
375.783	321.4
376.163	356.43
376.544	327.28
376.925	328.41
377.305	347.39
377.686	335.64
378.066	340.61
378.447	333.61
378.827	329.54
379.208	334.74
379.588	340.84
379.968	332.93
380.349	323.44
380.729	334.28
381.109	360.05
381.489	355.53
381.87	355.08
382.25	345.13
382.63	355.3
383.01	332.7
383.39	339.93
383.77	353.49
384.15	361.18
384.53	366.37
384.91	375.87
385.29	355.75
385.67	349.65
386.049	348.52
386.429	356.43
386.809	359.37
387.189	357.11
387.568	369.54
387.948	347.84
388.328	360.72
388.707	370.89
389.087	362.98
389.466	365.47
389.846	368.18
390.225	379.48
390.605	372.25
390.984	389.65
391.363	389.65
391.743	376.09
392.122	381.29
392.501	393.04
392.881	379.26
393.26	380.61
393.639	401.18
394.018	386.71
394.397	395.07
394.776	378.35
395.155	389.2
395.534	394.4
395.913	390.78
396.292	373.83
396.671	408.86
397.05	394.85
397.429	384.23
397.808	401.85
398.186	402.98
398.565	403.66
398.944	402.98
399.323	393.27
399.701	404.57
400.08	428.52
400.458	397.33
400.837	398.24
401.215	394.4
401.594	410.44
401.972	412.48
402.351	403.21
402.729	402.53
403.107	408.18
403.486	406.83
403.864	406.83
404.242	438.01
404.62	427.84
404.999	434.62
405.377	452.25
405.755	417.45
406.133	426.71
406.511	453.6
406.889	439.59
407.267	437.11
407.645	443.43
408.023	442.3
408.401	461.97
408.779	422.87
409.156	440.95
409.534	469.2
409.912	442.76
410.29	466.94
410.667	442.98
411.045	463.77
411.422	445.24
411.8	471.23
412.178	450.67
412.555	480.72
412.933	472.81
413.31	469.2
413.687	497.67
414.065	477.56
414.442	494.96
414.819	474.85
415.197	515.98
415.574	506.48
415.951	491.79
416.328	511.46
416.705	488.86
417.082	509.87
417.46	497.9
417.837	516.43
418.214	519.59
418.591	514.85
418.967	511.46
419.344	500.83
419.721	509.2
420.098	526.14
420.475	533.6
420.852	524.34
421.228	533.83
421.605	535.41
421.982	541.51
422.358	565.01
422.735	554.84
423.111	548.29
423.488	557.1
423.864	572.7
424.241	584
424.617	576.09
424.994	569.31
425.37	577.89
425.746	583.77
426.123	602.3
426.499	592.13
426.875	580.83
427.251	576.54
427.627	612.02
428.003	599.81
428.379	599.81
428.756	585.8
429.132	609.76
429.507	618.12
429.883	610.44
430.259	641.62
430.635	624.45
431.011	636.2
431.387	638.91
431.763	632.81
432.138	640.94
432.514	661.06
432.89	669.19
433.265	673.49
433.641	649.98
434.016	664.67
434.392	680.94
434.767	684.33
435.143	673.94
435.518	684.11
435.894	711.22
436.269	691.34
436.644	696.08
437.02	719.36
437.395	722.98
437.77	699.7
438.145	718.23
438.52	729.08
438.895	748.29
439.271	732.47
439.646	733.37
440.021	764.78
440.395	773.82
440.77	766.36
441.145	769.3
441.52	782.63
441.895	746.7
442.27	771.79
442.645	778.79
443.019	780.37
443.394	793.26
443.769	755.97
444.143	791.45
444.518	819.47
444.892	809.53
445.267	797.1
445.641	814.72
446.016	800.71
446.39	807.27
446.764	839.81
447.139	817.66
447.513	852.01
447.887	842.97
448.262	821.28
448.636	855.63
449.01	836.87
449.384	820.15
449.758	855.63
450.132	852.01
450.506	870.09
450.88	890.88
451.254	892.69
451.628	886.81
452.002	892.69
452.376	914.38
452.75	900.6
453.123	901.73
453.497	917.55
453.871	949.18
454.244	957.32
454.618	959.58
454.992	948.73
455.365	949.18
455.739	961.16
456.112	991.44
456.486	984.21
456.859	1014.95
457.232	1006.13
457.606	1022.4
457.979	1014.04
458.352	1051.33
458.725	1053.59
459.099	1051.55
459.472	1088.62
459.845	1073.25
460.218	1089.07
460.591	1133.36
460.964	1083.42
461.337	1148.73
461.71	1150.08
462.083	1172
462.456	1186.24
462.829	1201.15
463.201	1197.99
463.574	1217.43
463.947	1214.94
464.32	1258.78
464.692	1256.97
465.065	1246.8
465.438	1279.12
465.81	1289.51
466.183	1288.84
466.555	1322.28
466.928	1336.74
467.3	1339.46
467.672	1353.69
468.045	1411.54
468.417	1403.18
468.789	1405.9
469.161	1414.26
469.534	1478.21
469.906	1488.6
470.278	1520.24
470.65	1504.42
471.022	1570.86
471.394	1599.11
471.766	1623.74
472.138	1652.89
472.51	1677.3
472.882	1719.79
473.253	1760.46
473.625	1770.63
473.997	1802.72
474.369	1846.11
474.74	1904.64
475.112	1927.69
475.484	1990.29
475.855	2012.21
476.227	2067.35
476.598	2106.89
476.97	2122.49
477.341	2207.23
477.713	2240.68
478.084	2251.97
478.455	2376.04
478.827	2369.49
479.198	2474.79
479.569	2491.29
479.94	2619.87
480.311	2606.09
480.682	2769.02
481.053	2795.92
481.424	2853.54
481.795	2926.99
482.166	2954.1
482.537	3050.82
482.908	3143.93
483.279	3213.98
483.65	3287.88
484.021	3431.15
484.391	3483.13
484.762	3570.81
485.133	3630.47
485.503	3698.04
485.874	3821.65
486.244	3879.73
486.615	4019.39
486.985	4100.06
487.356	4232.94
487.726	4300.73
488.097	4419.6
488.467	4479.94
488.837	4612.36
489.207	4692.81
489.578	4791.79
489.948	4893.94
490.318	5011.22
490.688	5062.52
491.058	5276.08
491.428	5379.12
491.798	5419.58
492.168	5586.8
492.538	5640.13
492.908	5794.03
493.278	5893.46
493.648	5954.7
494.017	6120.8
494.387	6211.42
494.757	6341.81
495.126	6396.95
495.496	6432.43
495.866	6592.88
496.235	6640.56
496.605	6850.5
496.974	6870.38
497.344	7000.55
497.713	7072.19
498.082	7206.42
498.452	7286.19
498.821	7323.03
499.19	7454.32
499.559	7554.89
499.928	7635.79
500.298	7691.15
500.667	7826.74
501.036	7954.65
501.405	7999.85
501.774	8096.79
502.143	8207.52
502.512	8216.79
502.88	8284.58
503.249	8423.56
503.618	8545.59
503.987	8578.81
504.356	8643.67
504.724	8753.95
505.093	8771.13
505.462	8916.88
505.83	8973.38
506.199	9066.94
506.567	9197.33
506.936	9232.13
507.304	9326.82
507.672	9386.93
508.041	9473.48
508.409	9569.75
508.777	9607.49
509.145	9692.91
509.514	9702.63
509.882	9852.9
510.25	9927.48
510.618	9944.88
510.986	10005.67
511.354	10075.95
511.722	10236.62
512.09	10353
512.458	10302.84
512.826	10483.17
513.193	10496.05
513.561	10560.23
513.929	10634.81
514.297	10778.08
514.664	10832.31
515.032	10918.19
515.4	10964.51
515.767	11004.96
516.135	11102.82
516.502	11034.79
516.869	11299.42
517.237	11293.32
517.604	11232.53
517.972	11399.76
518.339	11528.57
518.706	11540.77
519.073	11560.66
519.44	11664.83
519.808	11738.5
520.175	11802.68
520.542	11886.52
520.909	12032.73
521.276	11950.93
521.643	12049.01
522.009	12194.99
522.376	12253.07
522.743	12313.63
523.11	12475.43
523.477	12572.83
523.843	12573.51
524.21	12699.84
524.577	12804.69
524.943	12846.72
525.31	12920.39
525.676	13070.45
526.043	13075.19
526.409	13140.05
526.776	13340.04
527.142	13340.5
527.508	13427.95
527.874	13534.16
528.241	13662.52
528.607	13672.01
528.973	13806.47
529.339	13861.16
529.705	13906.13
530.071	13952.91
530.437	14100.93
530.803	14135.28
531.169	14258.21
531.535	14260.92
531.901	14408.49
532.267	14353.58
532.632	14497.53
532.998	14534.82
533.364	14617.75
533.73	14630.41
534.095	14746.34
534.461	14838.76
534.826	14852.1
535.192	14945.88
535.557	15024.07
535.923	15006.67
536.288	15130.05
536.653	15165.53
537.019	15259.32
537.384	15279.65
537.749	15405.98
538.114	15446.2
538.479	15438.75
538.845	15574.11
539.21	15578.86
539.575	15701.11
539.94	15710.83
540.305	15819.53
540.67	15798.96
541.034	15870.37
541.399	15855.46
541.764	15976.81
542.129	16025.17
542.494	16072.63
542.858	16105.4
543.223	16211.16
543.587	16280.08
543.952	16306.29
544.316	16367.08
544.681	16419.74
545.045	16498.38
545.41	16644.36
545.774	16599.62
546.138	16691.14
546.503	16677.36
546.867	16727.53
547.231	16820.86
547.595	16949.67
547.959	16974.53
548.324	17061.75
548.688	17128.19
549.052	17198.47
549.416	17221.75
549.779	17235.31
550.143	17288.64
550.507	17334.29
550.871	17447.73
551.235	17488.86
551.599	17549.65
551.962	17653.83
552.326	17628.75
552.689	17777.89
553.053	17726.37
553.417	17735.64
553.78	17980.83
554.143	17977.89
554.507	17980.37
554.87	18148.51
555.234	18243.42
555.597	18147.38
555.96	18290.65
556.323	18320.7
556.686	18378.56
557.05	18539.23
557.413	18547.14
557.776	18588.27
558.139	18686.57
558.502	18722.5
558.865	18716.17
559.228	18823.74
559.59	19012.44
559.953	19066.45
560.316	19194.13
560.679	19168.14
561.041	19282.71
561.404	19456.27
561.767	19526.55
562.129	19466.66
562.492	19706.21
562.854	19553.67
563.217	19556.15
563.579	19731.06
563.941	19783.04
564.304	19793.66
564.666	20130.15
565.028	19992.53
565.39	20117.27
565.753	20256.92
566.115	20285.4
566.477	20284.04
566.839	20413.31
567.201	20491.27
567.563	20459.63
567.925	20668.67
568.287	20709.12
568.648	20738.95
569.01	20821.66
569.372	21024.81
569.734	20980.97
570.095	21157.69
570.457	21187.07
570.819	21357.91
571.18	21422.54
571.542	21491.24
571.903	21548.42
572.265	21742.76
572.626	21692.37
572.987	21810.1
573.349	21865.47
573.71	21952.47
574.071	22096.88
574.432	22192.69
574.794	22399.24
575.155	22399.47
575.516	22375.51
575.877	22602.17
576.238	22699.8
576.599	22822.28
576.96	22894.37
577.32	23029.51
577.681	23243.29
578.042	23382.49
578.403	23401.25
578.763	23643.95
579.124	23672.43
579.485	23809.37
579.845	24006.2
580.206	24162.13
580.566	24212.08
580.927	24491.84
581.287	24636.24
581.648	24679.18
582.008	24974.77
582.368	25026.52
582.728	25138.38
583.089	25313.29
583.449	25531.59
583.809	25661.08
584.169	25930.67
584.529	26064
584.889	26483.43
585.249	26367.27
585.609	26546.7
585.969	26938.33
586.329	26993.25
586.688	27325.44
587.048	27389.62
587.408	27487.47
587.768	27735.37
588.127	27870.51
588.487	28177.62
588.846	28534.9
589.206	28379.65
589.565	28671.84
589.925	29237.25
590.284	29209.23
590.643	29419.62
591.003	29657.81
591.362	29955.88
591.721	30146.16
592.08	30236.32
592.44	30515.64
592.799	30714.73
593.158	30848.74
593.517	31181.84
593.876	31265.22
594.235	31462.96
594.593	31744.53
594.952	31960.35
595.311	31976.16
595.67	32322.6
596.029	32679.65
596.387	32747.44
596.746	33073.76
597.104	33014.33
597.463	33203.25
597.822	33601.21
598.18	33545.39
598.538	33767.76
598.897	34083.23
599.255	34082.1
599.613	34713.72
599.972	34606.38
600.33	34914.84
600.688	34907.39
601.046	35206.59
601.404	35400.48
601.762	35487.71
602.12	35747.59
602.478	36027.81
602.836	36183.74
603.194	36055.15
603.552	36407.01
603.91	36278.42
604.268	36688.36
604.625	36688.58
604.983	36847
605.341	36858.3
605.698	37155.01
606.056	37486.75
606.413	37454.66
606.771	37659.63
607.128	37854.88
607.485	37663.47
607.843	37889.68
608.2	38161.76
608.557	38282.44
608.914	38314.3
609.272	38566.27
609.629	38684.01
609.986	38989.99
610.343	38932.59
610.7	39226.82
611.057	39192.7
611.414	39405.35
611.771	39415.52
612.127	39681.05
612.484	39646.25
612.841	40018.21
613.198	39887.6
613.554	39883.53
613.911	40315.83
614.267	40276.51
614.624	40343.85
614.98	40568.48
615.337	40828.59
615.693	40785.65
616.05	40711.08
616.406	41184.96
616.762	41071.07
617.118	41065.87
617.475	41214.79
617.831	41345.64
618.187	41403.26
618.543	41599.19
618.899	41768.45
619.255	41831.05
619.611	41764.83
619.967	41894.55
620.323	42128.89
620.678	41946.07
621.034	41959.86
621.39	41959.86
621.746	42125.95
622.101	42440.07
622.457	42237.14
622.812	42400.52
623.168	42505.15
623.523	42573.4
623.879	42673.28
624.234	42450.92
624.589	42593.74
624.945	42648.65
625.3	42804.13
625.655	42791.25
626.01	42757.35
626.365	42786.73
626.72	42870.79
627.075	42938.14
627.43	42936.33
627.785	42863.79
628.14	43021.07
628.495	42947.85
628.85	42998.25
629.205	42748.54
629.559	43090.22
629.914	43041.64
630.269	43108.98
630.623	43085.48
630.978	42998.93
631.332	43169.32
631.687	43238.69
632.041	43057.23
632.396	43276.43
632.75	43133.39
633.104	43054.74
633.459	43027.4
633.813	43055.2
634.167	43073.73
634.521	43093.84
634.875	43203.21
635.229	43227.62
635.583	42971.58
635.937	43100.84
636.291	42892.94
636.645	42927.74
636.999	43026.5
637.352	43144.91
637.706	42800.51
638.06	42969.32
638.413	42880.28
638.767	42715.32
639.121	42902.88
639.474	42600.29
639.828	42710.12
640.181	42800.51
640.534	42825.82
640.888	42730.68
641.241	42485.95
641.594	42743.57
641.947	42735.43
642.301	42632.38
642.654	42762.32
643.007	42721.19
643.36	42681.87
643.713	42440.97
644.066	42713.06
644.419	42414.53
644.771	42313.07
645.124	41916.69
645.477	41827.21
645.83	41526.65
646.182	41419.08
646.535	41286.65
646.888	41399.42
647.24	41300.21
647.593	41379.76
647.945	41338.63
648.298	41313.09
648.65	41180.44
649.002	41055.47
649.355	41297.73
649.707	41270.84
650.059	41328.46
650.411	41801.9
650.763	41804.61
651.115	42330.69
651.467	42147.42
651.819	42088.22
652.171	42056.35
652.523	41897.03
652.875	41880.31
653.227	41793.76
653.578	42058.84
653.93	41920.54
654.282	41813.42
654.633	41805.96
654.985	41856.36
655.337	41875.34
655.688	41890.48
656.039	42095.22
656.391	41541.79
656.742	41791.95
657.094	41806.19
657.445	41828.34
657.796	41777.72
658.147	41753.53
658.498	41653.88
658.849	41799.18
659.2	41653.2
659.551	41553.31
659.902	41759.18
660.253	41651.62
660.604	41754.21
660.955	41445.97
661.306	41669.7
661.656	41558.51
662.007	41534.78
662.358	41544.27
662.708	41616.82
663.059	41521.45
663.409	41313.55
663.76	41664.05
664.11	41686.87
664.461	41582.92
664.811	41518.06
665.161	41597.83
665.511	41536.14
665.862	41608
666.212	41590.6
666.562	41548.34
666.912	41548.12
667.262	41450.27
667.612	41642.8
667.962	41553.77
668.312	41447.1
668.662	41659.3
669.011	41573.88
669.361	41564.84
669.711	41462.47
670.06	41297.95
670.41	41378.63
670.76	41212.98
671.109	41504.5
671.459	41397.84
671.808	41186.09
672.157	41416.59
672.507	41069.94
672.856	41200.56
673.205	41418.63
673.554	41373.66
673.904	41178.41
674.253	41427.89
674.602	41241.01
674.951	40785.42
675.3	40562.38
675.649	41149.71
675.998	41120.11
676.346	41193.1
676.695	41286.2
677.044	41085.08
677.393	41142.03
677.741	41132.53
678.09	40960.11
678.438	40920.34
678.787	40993.1
679.135	41120.33
679.484	40777.74
679.832	41046.66
680.181	40569.84
680.529	40801.02
680.877	40584.3
681.225	40760.34
681.573	40697.52
681.922	40511.53
682.27	40443.29
682.618	40394.02
682.966	40322.84
683.314	40325.1
683.661	40235.83
684.009	40159
684.357	40066.12
684.705	39903.64
685.053	39983.86
685.4	39963.07
685.748	39854.38
686.095	39815.51
686.443	39712.46
686.79	39631.1
687.138	39712.01
687.485	39728.28
687.832	39585.68
688.18	39646.47
688.527	39390.43
688.874	39360.38
689.221	39244
689.568	39164
689.915	39109.54
690.262	39088.29
690.609	38875.42
690.956	38928.75
691.303	38955.64
691.65	38710.45
691.997	38674.97
692.344	38440.85
692.69	38476.33
693.037	38342.33
693.383	38232.5
693.73	38347.52
694.077	38044.25
694.423	38047.64
694.769	37850.59
695.116	37829.34
695.462	37874.31
695.808	37707.77
696.155	37642
696.501	37475.68
696.847	37549.35
697.193	37260.77
697.539	37443.82
697.885	37123.15
698.231	36974.9
698.577	37094
698.923	37038.63
699.269	36863.49
699.614	36790.05
699.96	36463.05
700.306	36688.13
700.651	36516.38
700.997	36388.48
701.342	36238.88
701.688	36138.77
702.033	36077.98
702.379	36158.2
702.724	36035.72
703.069	36042.95
703.415	35696.52
703.76	35618.55
704.105	35678.44
704.45	35611.32
704.795	35387.15
705.14	35436.41
705.485	35270.32
705.83	35170.66
706.175	35053.82
706.52	35063.32
706.865	34985.35
707.209	34932.02
707.554	34756.66
707.899	34921.85
708.243	34708.3
708.588	34509.66
708.932	34490.22
709.277	34386.05
709.621	34425.14
709.966	34178.14
710.31	34217.69
710.654	34000.97
710.998	34177.24
711.342	34056.79
711.687	33978.37
712.031	33841.43
712.375	33734.54
712.719	33821.99
713.063	33713.97
713.407	33688.44
713.75	33532.73
714.094	33513.98
714.438	33349.01
714.782	33358.28
715.125	33247.54
715.469	33276.92
715.812	33137.49
716.156	33016.14
716.499	33060.2
716.843	32998.28
717.186	32828.35
717.53	32924.84
717.873	33037.83
718.216	32877.38
718.559	32715.35
718.902	32540.44
719.246	32646.2
719.589	32523.72
719.932	32284.18
720.275	32391.3
720.617	32390.39
720.96	32041.47
721.303	32281.02
721.646	32253.67
721.989	32021.59
722.331	32086.22
722.674	31965.32
723.016	32030.85
723.359	31919.67
723.701	32042.83
724.044	31866.79
724.386	31662.73
724.729	31853.23
725.071	31566.23
725.413	31639.9
725.755	31641.71
726.097	31450.08
726.439	31293.24
726.782	31379.12
727.124	31482.39
727.465	31325.56
727.807	31306.13
728.149	31235.62
728.491	31261.38
728.833	31275.39
729.175	31129.63
729.516	30938.68
729.858	30930.54
730.199	31049.41
730.541	30865.23
730.882	30799.7
731.224	30931.67
731.565	30758.8
731.906	30705.69
732.248	30757.67
732.589	30597.44
732.93	30502.31
733.271	30576.65
733.612	30541.4
733.953	30573.94
734.294	30450.56
734.635	30307.51
734.976	30432.7
735.317	30341.41
735.658	30192.93
735.999	30175.76
736.339	30243.1
736.68	30099.6
737.021	30060.51
737.361	29941.19
737.702	30072.49
738.042	29890.34
738.383	29947.74
738.723	30002.88
739.063	29694.19
739.404	29908.65
739.744	29945.71
740.084	29632.5
740.424	29678.15
740.764	29677.02
741.104	29695.32
741.444	29501.2
741.784	29445.84
742.124	29604.7
742.464	29474.99
742.804	29446.51
743.143	29348.44
743.483	29427.08
743.823	29158.16
744.162	29199.74
744.502	29190.48
744.841	29178.27
745.181	29295.33
745.52	29184.37
745.86	29145.96
746.199	29011.05
746.538	28917.49
746.877	28886.53
747.216	28869.81
747.556	28831.39
747.895	28729.47
748.234	28658.29
748.573	28602.02
748.911	28648.79
749.25	28684.5
749.589	28526.76
749.928	28535.58
750.267	28501
750.605	28489.48
750.944	28316.83
751.283	28336.71
751.621	28391.85
751.96	28153.44
752.298	28208.13
752.636	28045.42
752.975	28016.04
753.313	27901.24
753.651	28102.59
753.989	27819.44
754.327	27791.19
754.666	27757.52
755.004	27658.54
755.342	27864.63
755.679	27580.57
756.017	27635.94
756.355	27670.29
756.693	27515.49
757.031	27577.18
757.368	27259
757.706	27276.4
758.044	27222.39
758.381	27162.51
758.719	27107.14
759.056	27154.82
759.394	27061.94
759.731	26886.13
760.068	26898.33
760.405	26883.19
760.743	26669.86
761.08	26736.98
761.417	26566.36
761.754	26489.3
762.091	26450.43
762.428	26456.99
762.765	26210.89
763.102	26269.65
763.438	26031.69
763.775	25965.7
764.112	25954.4
764.449	26091.8
764.785	25845.93
765.122	25708.99
765.458	25614.07
765.795	25554.19
766.131	25624.69
766.467	25418.6
766.804	25326.85
767.14	25315.32
767.476	25196.23
767.812	25143.35
768.148	25213.4
768.485	24939.29
768.821	24851.61
769.157	24749.24
769.492	24648.22
769.828	24744.49
770.164	24561.44
770.5	24432.18
770.836	24384.27
771.171	24282.36
771.507	24227.22
771.842	24128.91
772.178	24045.75
772.513	24029.93
772.849	23902.03
773.184	23836.27
773.519	23848.92
773.855	23655.93
774.19	23566.22
774.525	23552.88
774.86	23520.57
775.195	23373.68
775.53	23334.13
775.865	23264.98
776.2	23095.04
776.535	22963.75
776.87	22951.54
777.205	22795.16
777.539	22655.28
777.874	22868.83
778.209	22636.52
778.543	22540.48
778.878	22378.68
779.212	22459.35
779.547	22229.08
779.881	22324.89
780.215	22135.29
780.55	22097.1
780.884	21959.25
781.218	21942.98
781.552	21871.12
781.886	21837.45
782.22	21711.12
782.554	21498.47
782.888	21361.98
783.222	21213.06
783.556	21298.48
783.889	21247.86
784.223	21111.37
784.557	21129.44
784.89	21136.22
785.224	20957.92
785.557	20797.02
785.891	20736.46
786.224	20691.04
786.558	20682.22
786.891	20470.25
787.224	20492.4
787.557	20392.97
787.891	20366.3
788.224	20324.27
788.557	20261.67
788.89	20220.32
789.223	20182.58
789.556	20026.87
789.888	19912.75
790.221	19911.62
790.554	19761.57
790.887	19710.27
791.219	19608.58
791.552	19693.78
791.884	19451.52
792.217	19470.96
792.549	19439.55
792.882	19214.92
793.214	19204.07
793.546	19242.04
793.879	19072.78
794.211	19036.17
794.543	19002.95
794.875	18935.83
795.207	18946.68
795.539	18815.15
795.871	18863.29
796.203	18778.55
796.535	18572.68
796.867	18583.52
797.198	18480.02
797.53	18425.79
797.862	18292.68
798.193	18405.22
798.525	18241.84
798.856	18285.9
799.188	18123.42
799.519	18013.14
799.85	17976.98
800.182	17964.78
800.513	17955.29
800.844	17832.13
801.175	17812.47
801.506	17812.02
801.837	17755.3
802.168	17708.29
802.499	17640.95
802.83	17530.44
803.161	17542.19
803.491	17517.56
803.822	17448.64
804.153	17383.33
804.483	17294.07
804.814	17239.15
805.145	17144.01
805.475	17098.82
805.805	17027.18
806.136	17036.22
806.466	17026.05
806.796	16993.28
807.126	16790.58
807.457	16831.03
807.787	16823.79
808.117	16800.52
808.447	16732.5
808.777	16759.62
809.107	16589.68
809.436	16564.59
809.766	16517.59
810.096	16468.78
810.426	16463.35
810.755	16342
811.085	16325.28
811.414	16289.8
811.744	16208.9
812.073	16208.9
812.403	16100.42
812.732	16078.5
813.061	16067.2
813.39	15961.22
813.719	15960.99
814.049	16068.11
814.378	15951.73
814.707	15918.28
815.036	15839.87
815.365	15764.84
815.693	15643.71
816.022	15632.87
816.351	15594.67
816.68	15518.74
817.008	15528.69
817.337	15480.33
817.665	15450.72
817.994	15475.36
818.322	15403.49
818.651	15321.01
818.979	15253.89
819.307	15365.98
819.636	15274.91
819.964	15221.35
820.292	15319.43
820.62	15251.86
820.948	15214.8
821.276	15281.69
821.604	15205.76
821.932	15141.35
822.259	15153.78
822.587	15161.69
822.915	15146.78
823.243	15175.48
823.57	15124.63
823.898	15147.23
824.225	15032.43
824.553	15063.84
824.88	15073.56
825.207	15039.44
825.535	15028.14
825.862	15107.68
826.189	15045.76
826.516	15062.03
826.843	15152.88
827.17	15125.31
827.497	15101.35
827.824	15071.98
828.151	15031.53
828.478	15111.07
828.805	15131.64
829.131	15131.41
829.458	15090.06
829.785	14912.21
830.111	14999.21
830.438	15042.6
830.764	15041.24
831.09	15013.22
831.417	14970.96
831.743	14999.89
832.069	14973.45
832.395	14910.4
832.722	14989.72
833.048	14823.62
833.374	14914.69
833.7	14820.68
834.026	14942.71
834.351	14841.93
834.677	14922.38
835.003	14836.95
835.329	14860.23
835.654	14902.26
835.98	14823.85
836.306	14801.25
836.631	14744.53
836.956	14773.45
837.282	14767.58
837.607	14728.93
837.932	14645.1
838.258	14659.78
838.583	14595.83
838.908	14551.09
839.233	14573.46
839.558	14564.87
839.883	14506.34
840.208	14394.71
840.533	14458.89
840.858	14433.8
841.182	14372.11
841.507	14421.6
841.832	14276.52
842.156	14259.79
842.481	14257.76
842.805	14311.09
843.13	14246.24
843.454	14217.08
843.778	14181.6
844.103	14142.06
844.427	14033.59
844.751	14114.94
845.075	14030.65
845.399	13945
845.723	13914.27
846.047	13914.94
846.371	13817.77
846.695	13861.39
847.019	13687.15
847.343	13642.18
847.666	13502.98
847.99	13484
848.313	13582.3
848.637	13419.36
848.96	13467.95
849.284	13460.49
849.607	13321.29
849.931	13292.81
850.254	13122.2
850.577	13086.04
850.9	13051.92
851.223	12976.44
851.546	12968.98
851.869	12866.61
852.192	13018.92
852.515	12830.23
852.838	12719.95
853.161	12754.3
853.483	12735.99
853.806	12660.74
854.129	12662.55
854.451	12658.71
854.774	12499.84
855.096	12506.39
855.419	12411.48
855.741	12429.79
856.063	12287.19
856.385	12331.48
856.708	12290.13
857.03	12229.79
857.352	12231.15
857.674	12130.81
857.996	12151.83
858.318	12058.04
858.64	12041.1
858.961	12032.96
859.283	11949.8
859.605	11900.99
859.926	11924.26
860.248	11875
860.57	11833.42
860.891	11839.97
861.212	11713.42
861.534	11702.57
861.855	11693.99
862.176	11712.29
862.498	11755
862.819	11654.67
863.14	11645.63
863.461	11654.21
863.782	11552.07
864.103	11600.88
864.424	11538.51
864.745	11572.18
865.065	11423.48
865.386	11423.26
865.707	11443.37
866.027	11493.77
866.348	11434.33
866.668	11394.79
866.989	11370.15
867.309	11282.02
867.63	11292.41
867.95	11290.16
868.27	11274.34
868.59	11295.58
868.91	11203.6
869.23	11194.34
869.55	11187.78
869.87	11273.66
870.19	11235.47
870.51	11241.12
870.83	11180.55
871.15	11134.45
871.469	11141.68
871.789	11104.4
872.109	11123.83
872.428	11046.32
872.748	11005.64
873.067	11028.02
873.386	11086.32
873.706	11044.74
874.025	10962.48
874.344	10968.13
874.663	11008.58
874.982	10884.52
875.301	10833.44
875.62	10862.37
875.939	10896.04
876.258	10844.29
876.577	10754.12
876.896	10804.97
877.214	10773.78
877.533	10733.56
877.852	10783.28
878.17	10697.63
878.489	10714.13
878.807	10693.56
879.125	10632.09
879.444	10625.99
879.762	10694.01
880.08	10657.18
880.398	10606.33
880.716	10588.7
881.034	10522.49
881.352	10588.25
881.67	10456.5
881.988	10490.18
882.306	10448.82
882.624	10435.94
882.941	10393.46
883.259	10319.56
883.577	10405.66
883.894	10396.17
884.212	10262.16
884.529	10337.86
884.846	10304.19
885.164	10209.51
885.481	10242.27
885.798	10192.78
886.115	10133.35
886.432	10201.14
886.75	10144.65
887.067	10148.49
887.383	10116.85
887.7	10020.36
888.017	10056.06
888.334	10029.85
888.651	9941.04
888.967	9966.35
889.284	9966.8
889.6	9877.76
889.917	9810.19
890.233	9909.17
890.55	9773.58
890.866	9775.39
891.182	9797.99
891.498	9668.28
891.815	9706.02
892.131	9714.15
892.447	9640.48
892.763	9642.74
893.079	9600.71
893.395	9609.52
893.71	9532.46
894.026	9498.11
894.342	9479.13
894.657	9476.19
894.973	9453.37
895.289	9458.79
895.604	9396.42
895.92	9328.62
896.235	9278.46
896.55	9303.09
896.865	9218.8
897.181	9219.25
897.496	9230.1
897.811	9171.57
898.126	9078.46
898.441	9113.26
898.756	9111.23
899.071	9038.91
899.386	9035.75
899.7	8941.52
900.015	8888.18
900.33	8936.77
900.644	8834.85
900.959	8877.79
901.273	8805.25
901.588	8774.97
901.902	8701.07
902.216	8674.86
902.531	8709.43
902.845	8635.99
903.159	8584.01
903.473	8590.11
903.787	8500.85
904.101	8489.55
904.415	8509.21
904.729	8425.6
905.042	8387.63
905.356	8442.77
905.67	8377.24
905.984	8328.88
906.297	8350.12
906.611	8231.25
906.924	8248.43
907.237	8252.27
907.551	8232.38
907.864	8111.71
908.177	8132.95
908.491	8118.71
908.804	8127.53
909.117	8014.76
909.43	7929.57
909.743	7964.82
910.056	7945.38
910.368	7859.51
910.681	7855.44
910.994	7789.91
911.307	7796.69
911.619	7738.16
911.932	7719.18
912.244	7714.88
912.557	7644.38
912.869	7638.5
913.181	7610.03
913.494	7518.28
913.806	7521.89
914.118	7531.16
914.43	7435.79
914.742	7459.3
915.054	7466.75
915.366	7373.42
915.678	7382.24
915.99	7335
916.302	7293.88
916.613	7202.35
916.925	7252.75
917.236	7246.19
917.548	7176.59
917.859	7161.22
918.171	7122.81
918.482	7108.12
918.794	7042.58
919.105	6999.87
919.416	6982.47
919.727	6936.37
920.038	6957.84
920.349	6863.83
920.66	6832.19
920.971	6857.73
921.282	6857.28
921.593	6792.19
921.903	6777.28
922.214	6763.04
922.525	6707.22
922.835	6703.61
923.146	6674.01
923.456	6597.17
923.767	6589.94
924.077	6596.49
924.387	6525.31
924.697	6557.17
925.008	6491.86
925.318	6431.07
925.628	6433.33
925.938	6387.91
926.248	6286.67
926.558	6278.08
926.867	6254.58
927.177	6287.8
927.487	6275.15
927.796	6204.19
928.106	6157.63
928.416	6225.43
928.725	6152.89
929.034	6139.56
929.344	6111.76
929.653	6100.01
929.962	6043.06
930.271	5996.28
930.581	5999.9
930.89	5996.73
931.199	5895.72
931.508	5937.08
931.817	5862.5
932.125	5865.66
932.434	5879.9
932.743	5763.75
933.051	5801.94
933.36	5740.02
933.669	5717.65
933.977	5692.11
934.286	5717.87
934.594	5649.17
934.902	5676.97
935.21	5635.39
935.519	5587.71
935.827	5589.29
936.135	5512.68
936.443	5564.43
936.751	5472.45
937.059	5495.05
937.367	5472.91
937.674	5392.01
937.982	5403.76
938.29	5409.86
938.597	5430.2
938.905	5334.61
939.213	5300.71
939.52	5312.46
939.827	5317.66
940.135	5254.16
940.442	5230.88
940.749	5225.91
941.056	5215.06
941.363	5125.35
941.67	5093.71
941.977	5149.75
942.284	5073.6
942.591	5093.48
942.898	5092.35
943.205	5046.7
943.511	5028.62
943.818	4997.21
944.125	4942.3
944.431	4960.6
944.738	4936.65
945.044	4922.86
945.35	4891.68
945.657	4855.75
945.963	4873.15
946.269	4798.12
946.575	4832.92
946.881	4797.9
947.187	4772.36
947.493	4753.15
947.799	4789.08
948.105	4719.93
948.41	4660.27
948.716	4667.05
949.022	4647.17
949.327	4646.71
949.633	4590.44
949.938	4592.93
950.244	4559.94
950.549	4503.44
950.854	4526.27
951.16	4503.89
951.465	4489.66
951.77	4465.7
952.075	4444.69
952.38	4407.85
952.685	4422.31
952.99	4364.46
953.294	4347.51
953.599	4324.46
953.904	4310.68
954.209	4299.15
954.513	4281.07
954.818	4224.35
955.122	4272.49
955.426	4269.1
955.731	4257.8
956.035	4193.17
956.339	4160.85
956.643	4153.85
956.948	4133.96
957.252	4097.58
957.556	4077.24
957.86	4094.19
958.163	4067.75
958.467	4079.27
958.771	4049.44
959.075	4033.17
959.378	3970.8
959.682	4026.17
959.985	3951.59
960.289	3921.76
960.592	3920.18
960.896	3911.59
961.199	3874.98
961.502	3859.16
961.805	3852.38
962.108	3822.33
962.411	3816.23
962.714	3831.82
963.017	3794.31
963.32	3824.36
963.623	3780.52
963.926	3717.25
964.228	3740.52
964.531	3673.41
964.833	3712.73
965.136	3689
965.438	3682.9
965.741	3636.12
966.043	3625.95
966.345	3622.56
966.648	3581.43
966.95	3591.83
967.252	3560.64
967.554	3578.72
967.856	3570.13
968.158	3498.95
968.46	3511.6
968.761	3505.05
969.063	3514.77
969.365	3447.2
969.666	3447.88
969.968	3418.5
970.269	3414.66
970.571	3399.74
970.872	3395.22
971.174	3382.34
971.475	3398.16
971.776	3321.78
972.077	3326.3
972.378	3332.4
972.679	3298.5
972.98	3297.6
973.281	3258.95
973.582	3301.66
973.883	3265.73
974.183	3218.28
974.484	3253.98
974.785	3218.95
975.085	3191.84
975.386	3183.93
975.686	3169.46
975.986	3152.97
976.287	3147.09
976.587	3089.92
976.887	3105.74
977.187	3082.91
977.487	3058.06
977.787	3030.49
978.087	3055.34
978.387	3002.92
978.687	3014.44
978.987	2975.8
979.286	2971.28
979.586	2991.62
979.885	2953.2
980.185	2936.7
980.484	2913.88
980.784	2933.09
981.083	2898.06
981.382	2914.33
981.682	2914.78
981.981	2848.57
982.28	2861.9
982.579	2845.86
982.878	2859.19
983.177	2848.12
983.475	2832.98
983.774	2803.82
984.073	2767.44
984.372	2792.75
984.67	2756.37
984.969	2779.42
985.267	2739.87
985.566	2742.36
985.864	2712.08
986.162	2700.55
986.461	2667.33
986.759	2678.4
987.057	2663.26
987.355	2651.29
987.653	2649.93
987.951	2648.35
988.249	2607.45
988.547	2625.98
988.844	2606.32
989.142	2574.9
989.44	2560.89
989.737	2563.15
990.035	2555.47
990.332	2565.86
990.63	2536.94
990.927	2511.85
991.224	2503.27
991.521	2472.31
991.819	2449.03
992.116	2484.74
992.413	2459.43
992.71	2466.66
993.006	2449.94
993.303	2391.86
993.6	2440.22
993.897	2385.08
994.193	2392.54
994.49	2403.38
994.787	2373.55
995.083	2367.23
995.379	2362.25
995.676	2352.31
995.972	2332.42
996.268	2349.37
996.565	2275.48
996.861	2278.19
997.157	2275.48
997.453	2285.19
997.749	2197.96
998.044	2242.48
998.34	2238.42
998.636	2230.28
998.932	2225.99
999.227	2222.14
999.523	2191.41
999.818	2178.98
1000.114	2141.92
1000.409	2147.34
1000.704	2158.19
1001	2087.23
1001.295	2131.53
1001.59	2116.39
1001.885	2099.66
1002.18	2080.23
1002.475	2082.04
1002.77	2072.32
1003.065	2037.74
1003.359	2040
1003.654	2004.07
1003.949	1994.13
1004.243	1988.7
1004.538	1988.48
1004.832	1995.48
1005.127	2004.52
1005.421	1968.82
1005.715	1938.31
1006.009	1914.81
1006.304	1933.34
1006.598	1937.18
1006.892	1930.85
1007.186	1908.48
1007.48	1884.07
1007.773	1880.01
1008.067	1899.22
1008.361	1858.99
1008.655	1882.04
1008.948	1820.8
1009.242	1800.69
1009.535	1809.05
1009.829	1818.54
1010.122	1821.25
1010.415	1795.72
1010.708	1827.81
1011.001	1740.58
1011.295	1781.93
1011.588	1745.32
1011.881	1703.97
1012.173	1703.97
1012.466	1719.33
1012.759	1710.75
1013.052	1689.5
1013.344	1710.75
1013.637	1680.24
1013.93	1666
1014.222	1653.35
1014.514	1668.26
1014.807	1601.37
1015.099	1616.29
1015.391	1644.76
1015.683	1606.57
1015.976	1602.73
1016.268	1561.37
1016.56	1584.65
1016.851	1565.67
1017.143	1594.59
1017.435	1570.64
1017.727	1548.94
1018.018	1530.86
1018.31	1536.51
1018.602	1549.85
1018.893	1483.86
1019.185	1484.99
1019.476	1511.2
1019.767	1499.9
1020.058	1485.22
1020.35	1445.67
1020.641	1456.52
1020.932	1440.92
1021.223	1423.07
1021.514	1440.7
1021.804	1416.29
1022.095	1385.78
1022.386	1411.77
1022.677	1373.58
1022.967	1353.69
1023.258	1344.43
1023.548	1354.15
1023.839	1349.85
1024.129	1338.55
1024.419	1326.8
1024.709	1338.33
1025	1315.5
1025.29	1311.43
1025.58	1308.27
1025.87	1273.7
1026.16	1296.29
1026.449	1278.21
1026.739	1262.62
1027.029	1259.46
1027.319	1267.14
1027.608	1230.53
1027.898	1231.44
1028.187	1226.69
1028.477	1225.34
1028.766	1248.16
1029.055	1203.19
1029.344	1177.65
1029.634	1174.94
1029.923	1197.09
1030.212	1165.68
1030.501	1158.67
1030.79	1160.7
1031.078	1131.78
1031.367	1133.81
1031.656	1124.32
1031.945	1124.09
1032.233	1122.74
1032.522	1121.83
1032.81	1111.89
1033.099	1113.25
1033.387	1090.65
1033.675	1095.17
1033.963	1094.49
1034.251	1067.83
1034.54	1063.53
1034.828	1036.41
1035.116	1060.14
1035.403	1040.71
1035.691	1033.25
1035.979	1024.89
1036.267	1036.87
1036.554	1014.27
1036.842	1011.33
1037.129	1017.88
1037.417	1008.17
1037.704	991.89
1037.992	997.54
1038.279	969.75
1038.566	953.25
1038.853	953.25
1039.14	953.25
