Data from hue_340_FLMS001491_56.txt Node
Date: Mon Feb 06 15:43:18 GMT 2017
User: dcchb
Spectrometer: FLMS00149
Trigger mode: 0
Integration Time (sec): 2.000000E-2
Scans to average: 10
Electric dark correction enabled: true
Nonlinearity correction enabled: false
Boxcar width: 0
XAxis mode: Wavelengths
Number of Pixels in Spectrum: 2048
>>>>>Begin Spectral Data<<<<<
341.393	-11.54
341.776	-11.54
342.16	-11.54
342.543	-58.32
342.927	-66.23
343.31	-47.02
343.693	-73.23
344.077	-56.96
344.46	-64.19
344.843	-55.83
345.226	-40.69
345.61	-11.54
345.993	-37.3
346.376	-16.51
346.759	23.04
347.142	19.42
347.525	43.83
347.908	53.09
348.291	69.36
348.674	90.83
349.057	103.71
349.44	112.53
349.823	162.47
350.206	163.15
350.588	194.11
350.971	222.8
351.354	221.9
351.737	228
352.119	242.92
352.502	267.1
352.884	270.04
353.267	297.38
353.65	297.61
354.032	288.34
354.414	301.67
354.797	311.39
355.179	331.73
355.562	335.34
355.944	340.77
356.326	341.67
356.709	368.34
357.091	335.12
357.473	344.16
357.855	333.54
358.238	344.38
358.62	320.88
359.002	360.65
359.384	343.03
359.766	354.55
360.148	344.16
360.53	360.2
360.912	344.16
361.294	336.93
361.676	336.7
362.057	339.86
362.439	319.53
362.821	329.02
363.203	333.08
363.584	330.6
363.966	331.28
364.348	330.15
364.729	314.78
365.111	298.06
365.493	311.39
365.874	308.68
366.256	320.66
366.637	333.99
367.019	317.72
367.4	317.94
367.781	313.42
368.163	300.09
368.544	305.97
368.925	315.68
369.306	332.41
369.688	296.25
370.069	309.81
370.45	307.77
370.831	313.65
371.212	304.84
371.593	317.49
371.974	310.03
372.355	322.92
372.736	329.02
373.117	322.01
373.498	307.77
373.879	331.73
374.26	302.8
374.641	312.07
375.021	291.73
375.402	341.9
375.783	317.49
376.163	332.18
376.544	315.68
376.925	309.58
377.305	329.24
377.686	311.84
378.066	329.47
378.447	324.72
378.827	333.99
379.208	336.7
379.588	353.65
379.968	351.62
380.349	306.64
380.729	326.98
381.109	315.91
381.489	319.07
381.87	349.36
382.25	337.38
382.63	360.2
383.01	323.59
383.39	328.56
383.77	325.4
384.15	362.24
384.53	360.2
384.91	343.25
385.29	343.03
385.67	342.12
386.049	340.77
386.429	352.29
386.809	349.13
387.189	347.32
387.568	334.21
387.948	335.12
388.328	347.32
388.707	350.26
389.087	327.43
389.466	371.73
389.846	371.5
390.225	349.81
390.605	343.48
390.984	345.97
391.363	368.56
391.743	374.21
392.122	354.55
392.501	366.08
392.881	376.25
393.26	369.69
393.639	360.65
394.018	361.78
394.397	362.91
394.776	363.82
395.155	357.04
395.534	383.7
395.913	369.92
396.292	372.18
396.671	369.47
397.05	383.25
397.429	379.41
397.808	371.28
398.186	384.83
398.565	365.17
398.944	399.07
399.323	377.38
399.701	394.55
400.08	388
400.458	397.04
400.837	386.42
401.215	407.66
401.594	399.98
401.972	398.85
402.351	401.11
402.729	414.21
403.107	421.9
403.486	415.34
403.864	410.6
404.242	412.63
404.62	416.7
404.999	431.16
405.377	406.3
405.755	420.99
406.133	400.65
406.511	402.69
406.889	427.09
407.267	412.18
407.645	432.97
408.023	406.53
408.401	433.87
408.779	443.82
409.156	447.21
409.534	453.76
409.912	450.6
410.29	440.65
410.667	452.86
411.045	456.92
411.422	454.89
411.8	449.24
412.178	463.48
412.555	480.43
412.933	471.61
413.31	481.33
413.687	491.5
414.065	485.85
414.442	479.07
414.819	484.72
415.197	501.22
415.574	496.7
415.951	491.5
416.328	518.39
416.705	519.52
417.082	507.77
417.46	523.14
417.837	524.04
418.214	523.59
418.591	543.7
418.967	528.11
419.344	539.41
419.721	573.08
420.098	562
420.475	560.88
420.852	575.79
421.228	542.34
421.605	571.72
421.982	564.04
422.358	583.02
422.735	572.85
423.111	577.37
423.488	579.18
423.864	576.92
424.241	605.85
424.617	601.33
424.994	610.59
425.37	628.44
425.746	621.44
426.123	627.54
426.499	624.83
426.875	640.42
427.251	633.87
427.627	638.39
428.003	661.44
428.379	665.05
428.756	665.73
429.132	659.63
429.507	670.25
429.883	660.99
430.259	670.48
430.635	685.39
431.011	700.98
431.387	702.79
431.763	722.68
432.138	694.43
432.514	726.07
432.89	739.18
433.265	768.33
433.641	730.59
434.016	730.36
434.392	727.2
434.767	758.61
435.143	761.32
435.518	754.09
435.894	773.98
436.269	787.76
436.644	801.09
437.02	797.71
437.395	793.41
437.77	814.88
438.145	800.87
438.52	828.66
438.895	824.37
439.271	842
439.646	847.87
440.021	852.84
440.395	870.92
440.77	852.39
441.145	846.97
441.52	851.94
441.895	874.31
442.27	864.14
442.645	867.08
443.019	880.64
443.394	860.98
443.769	897.14
444.143	898.72
444.518	894.43
444.892	906.85
445.267	883.58
445.641	908.89
446.016	903.92
446.39	911.37
446.764	920.41
447.139	928.55
447.513	938.94
447.887	954.99
448.262	944.82
448.636	969.68
449.01	954.76
449.384	961.54
449.758	954.76
450.132	976.68
450.506	975.55
450.88	980.3
451.254	973.75
451.628	973.29
452.002	1006.97
452.376	968.77
452.75	1006.29
453.123	987.53
453.497	1013.74
453.871	1039.73
454.244	1013.74
454.618	1013.29
454.992	1046.74
455.365	1034.99
455.739	1057.36
456.112	1054.87
456.486	1069.56
456.859	1074.99
457.232	1100.97
457.606	1080.86
457.979	1102.1
458.352	1138.49
458.725	1107.53
459.099	1134.42
459.472	1144.81
459.845	1142.33
460.218	1177.58
460.591	1178.94
460.964	1160.86
461.337	1191.59
461.71	1174.19
462.083	1216.45
462.456	1201.99
462.829	1217.35
463.201	1248.31
463.574	1220.52
463.947	1248.31
464.32	1269.33
464.692	1275.88
465.065	1271.14
465.438	1281.53
465.81	1321.76
466.183	1300.52
466.555	1311.36
466.928	1364.7
467.3	1341.87
467.672	1342.1
468.045	1374.64
468.417	1385.71
468.789	1377.12
469.161	1430.68
469.534	1430.23
469.906	1434.07
470.278	1490.34
470.65	1479.95
471.022	1505.93
471.394	1534.41
471.766	1526.95
472.138	1530.79
472.51	1591.36
472.882	1580.96
473.253	1601.75
473.625	1606.5
473.997	1641.52
474.369	1655.31
474.74	1701.86
475.112	1705.03
475.484	1717
475.855	1756.55
476.227	1766.49
476.598	1797.68
476.97	1782.09
477.341	1855.98
477.713	1881.97
478.084	1877.22
478.455	1935.08
478.827	1952.25
479.198	1980.72
479.569	1999.48
479.94	2055.75
480.311	2055.75
480.682	2118.12
481.053	2105.24
481.424	2152.47
481.795	2196.09
482.166	2210.32
482.537	2184.79
482.908	2266.37
483.279	2287.38
483.65	2342.52
484.021	2393.37
484.391	2355.4
484.762	2427.04
485.133	2408.06
485.503	2446.25
485.874	2491.67
486.244	2521.95
486.615	2571.9
486.985	2631.78
487.356	2664.55
487.726	2667.49
488.097	2705.68
488.467	2708.84
488.837	2755.17
489.207	2820.25
489.578	2862.96
489.948	2850.53
490.318	2879.91
490.688	2903.86
491.058	2964.88
491.428	3005.56
491.798	3007.14
492.168	3077.65
492.538	3081.49
492.908	3110.19
493.278	3155.16
493.648	3178.43
494.017	3199.22
494.387	3242.16
494.757	3233.57
495.126	3267.92
495.496	3287.13
495.866	3332.78
496.235	3354.93
496.605	3372.78
496.974	3391.31
497.344	3374.36
497.713	3448.71
498.082	3452.32
498.452	3499.33
498.821	3487.35
499.19	3541.81
499.559	3536.84
499.928	3586.33
500.298	3569.16
500.667	3616.84
501.036	3598.76
501.405	3619.78
501.774	3618.42
502.143	3647.57
502.512	3651.42
502.88	3721.24
503.249	3693.67
503.618	3777.51
503.987	3759.44
504.356	3799.21
504.724	3796.04
505.093	3802.37
505.462	3819.77
505.83	3802.6
506.199	3822.48
506.567	3909.49
506.936	3914.91
507.304	3926.89
507.672	3940
508.041	3966.66
508.409	3950.16
508.777	4011.86
509.145	4007.56
509.514	3991.97
509.882	4025.64
510.25	4046.66
510.618	4081.01
510.986	4066.77
511.354	4077.39
511.722	4120.78
512.09	4158.07
512.458	4117.84
512.826	4178.63
513.193	4162.81
513.561	4158.52
513.929	4201.91
514.297	4280.55
514.664	4255.24
515.032	4273.32
515.4	4272.19
515.767	4277.39
516.135	4241.68
516.502	4279.65
516.869	4330.49
517.237	4315.8
517.604	4318.52
517.972	4349.25
518.339	4356.48
518.706	4361.68
519.073	4381.11
519.44	4465.63
519.808	4466.08
520.175	4490.49
520.542	4432.41
520.909	4508.12
521.276	4532.3
521.643	4496.82
522.009	4563.03
522.376	4558.51
522.743	4569.13
523.11	4572.75
523.477	4600.09
523.843	4650.03
524.21	4623.37
524.577	4749.69
524.943	4726.64
525.31	4766.64
525.676	4785.17
526.043	4780.88
526.409	4811.38
526.776	4860.42
527.142	4888.9
527.508	4894.32
527.874	4923.02
528.241	4927.54
528.607	4976.13
528.973	4953.3
529.339	5007.76
529.705	5019.06
530.071	5051.15
530.437	5050.02
530.803	5094.77
531.169	5156.91
531.535	5114.2
531.901	5139.96
532.267	5158.95
532.632	5156.23
532.998	5169.57
533.364	5216.8
533.73	5274.42
534.095	5316.23
534.461	5285.5
534.826	5333.18
535.192	5391.26
535.557	5360.75
535.923	5406.85
536.288	5350.81
536.653	5404.82
537.019	5419.73
537.384	5458.83
537.749	5486.62
538.114	5472.38
538.479	5542.89
538.845	5533.85
539.21	5586.96
539.575	5573.4
539.94	5581.08
540.305	5631.93
540.67	5645.71
541.034	5654.98
541.399	5706.73
541.764	5716.9
542.129	5786.05
542.494	5764.13
542.858	5793.96
543.223	5780.85
543.587	5871.92
543.952	5846.39
544.316	5847.97
544.681	5896.78
545.045	5933.84
545.41	5975.65
545.774	5946.72
546.138	5962.31
546.503	5925.93
546.867	5984.01
547.231	6067.17
547.595	6001.64
547.959	6109.66
548.324	6099.26
548.688	6107.17
549.052	6192.37
549.416	6137.23
549.779	6257.45
550.143	6245.02
550.507	6277.56
550.871	6270.1
551.235	6215.87
551.599	6299.93
551.962	6319.59
552.326	6350.55
552.689	6377.9
553.053	6327.96
553.417	6352.81
553.78	6468.52
554.143	6381.51
554.507	6466.93
554.87	6455.41
555.234	6544.67
555.597	6501.06
555.96	6530.66
556.323	6574.95
556.686	6575.63
557.05	6591.22
557.413	6649.53
557.776	6659.25
558.139	6640.72
558.502	6693.6
558.865	6633.71
559.228	6750.54
559.59	6736.08
559.953	6804.33
560.316	6790.54
560.679	6802.07
561.041	6875.29
561.404	6852.01
561.767	6953.02
562.129	6841.84
562.492	6925
562.854	6939.24
563.217	6932.46
563.579	6959.8
563.941	7037.99
564.304	7046.81
564.666	7154.83
565.028	7166.13
565.39	7045.45
565.753	7123.64
566.115	7136.97
566.477	7192.57
566.839	7166.8
567.201	7269.63
567.563	7305.78
567.925	7282.96
568.287	7348.95
568.648	7305.33
569.01	7322.96
569.372	7421.94
569.734	7379
570.095	7426.91
570.457	7466.46
570.819	7518.88
571.18	7523.4
571.542	7593.23
571.903	7640.01
572.265	7691.76
572.626	7711.42
572.987	7777.86
573.349	7815.6
573.71	7874.36
574.071	7868.25
574.432	7955.48
574.794	8027.8
575.155	8034.12
575.516	8037.74
575.877	8103.5
576.238	8168.81
576.599	8245.87
576.96	8309.82
577.32	8334.23
577.681	8491.74
578.042	8538.29
578.403	8554.34
578.763	8651.96
579.124	8687.67
579.485	8832.75
579.845	8902.12
580.206	9075.45
580.566	9143.7
580.927	9193.19
581.287	9322.9
581.648	9383.24
582.008	9586.85
582.368	9704.14
582.728	9850.12
583.089	9987.75
583.449	10136.89
583.809	10232.03
584.169	10446.04
584.529	10493.27
584.889	10750.44
585.249	10929.19
585.609	11005.57
585.969	11254.83
586.329	11415.96
586.688	11627.25
587.048	11822.95
587.408	12027.47
587.768	12175.94
588.127	12490.73
588.487	12643.04
588.846	12907.9
589.206	13086.65
589.565	13320.54
589.925	13529.8
590.284	13769.12
590.643	14111.48
591.003	14368.65
591.362	14709.66
591.721	14859.48
592.08	15126.59
592.44	15405.23
592.799	15603.42
593.158	15962.73
593.517	16190.29
593.876	16434.13
594.235	16684.07
594.593	17093.32
594.952	17243.15
595.311	17474.1
595.67	17733.53
596.029	18140.98
596.387	18387.52
596.746	18666.16
597.104	18947.28
597.463	19183.89
597.822	19511.56
598.18	19642.63
598.538	19968.05
598.897	20312.45
599.255	20455.27
599.613	21110.62
599.972	21130.5
600.33	21492.53
600.688	21718.51
601.046	21942.23
601.404	22421.32
601.762	22496.8
602.12	22928.87
602.478	23200.96
602.836	23400.27
603.194	23521.4
603.552	23788.74
603.91	24073.48
604.268	24367.48
604.625	24539.45
604.983	24957.3
605.341	24948.71
605.698	25370.62
606.056	25599.31
606.413	25794.79
606.771	26095.34
607.128	26318.62
607.485	26383.25
607.843	26625.5
608.2	26930.13
608.557	27225.71
608.914	27344.58
609.272	27624.8
609.629	27898.24
609.986	28314.5
610.343	28253.03
610.7	28579.8
611.057	28638.55
611.414	28936.17
611.771	28969.17
612.127	29344.53
612.484	29434.47
612.841	29667.45
613.198	29789.71
613.554	29951.97
613.911	30229.7
614.267	30366.87
614.624	30479.64
614.98	30659.97
615.337	30965.27
615.693	31077.36
616.05	31125.72
616.406	31520.74
616.762	31478.71
617.118	31487.75
617.475	31586.27
617.831	31875.53
618.187	32060.39
618.543	32086.6
618.899	32435.52
619.255	32378.8
619.611	32651.33
619.967	32826.02
620.323	32944.2
620.678	32929.52
621.034	33053.35
621.39	33171.32
621.746	33125.22
622.101	33593
622.457	33359.56
622.812	33507.58
623.168	33657.63
623.523	33811.98
623.879	33883.84
624.234	33813.56
624.589	34039.99
624.945	34119.54
625.3	34249.71
625.655	34300.33
626.01	34359.99
626.365	34470.27
626.72	34437.27
627.075	34582.13
627.43	34624.61
627.785	34584.61
628.14	34631.17
628.495	34856.92
628.85	34627.55
629.205	34804.49
629.559	34973.3
629.914	34804.27
630.269	34965.85
630.623	34922.68
630.978	35001.33
631.332	35057.82
631.687	35246.06
632.041	35109.8
632.396	35171.94
632.75	35038.61
633.104	35278.38
633.459	35004.49
633.813	35075.9
634.167	35096.69
634.521	35225.05
634.875	35199.96
635.229	35161.55
635.583	35194.31
635.937	35149.34
636.291	35049.23
636.645	35174.88
636.999	35194.99
637.352	35243.8
637.706	35019.4
638.06	35243.58
638.413	35056.92
638.767	35133.3
639.121	35188.67
639.474	35021.44
639.828	34999.07
640.181	35138.5
640.534	35109.8
640.888	34971.5
641.241	34973.08
641.594	35051.27
641.947	35124.26
642.301	34980.08
642.654	35089.23
643.007	35057.14
643.36	35107.09
643.713	35121.1
644.066	35276.35
644.419	34857.15
644.771	34769.47
645.124	34545.52
645.477	34366.31
645.83	34199.31
646.182	34174.91
646.535	34042.25
646.888	34204.74
647.24	34010.84
647.593	34136.26
647.945	34098.3
648.298	33903.28
648.65	33867.8
649.002	33803.16
649.355	33973.33
649.707	33949.6
650.059	34146.43
650.411	34419.19
650.763	34486.31
651.115	34646.08
651.467	34783.7
651.819	34791.16
652.171	34684.5
652.523	34552.07
652.875	34711.16
653.227	34479.31
653.578	34670.71
653.93	34523.6
654.282	34419.19
654.633	34415.13
654.985	34517.72
655.337	34527.21
655.688	34492.19
656.039	34679.07
656.391	34324.73
656.742	34321.57
657.094	34454.9
657.445	34531.73
657.796	34509.81
658.147	34468.23
658.498	34340.33
658.849	34506.2
659.2	34346.65
659.551	34282.47
659.902	34456.71
660.253	34315.02
660.604	34383.49
660.955	34273.21
661.306	34363.83
661.656	34294.45
662.007	34289.03
662.358	34323.6
662.708	34396.6
663.059	34338.29
663.409	34009.04
663.76	34404.73
664.11	34289.93
664.461	34345.3
664.811	34378.97
665.161	34348.69
665.511	34199.31
665.862	34210.16
666.212	34326.31
666.562	34286.32
666.912	34261.91
667.262	34117.73
667.612	34236.83
667.962	34192.76
668.312	34230.05
668.662	34350.04
669.011	34235.24
669.361	34316.15
669.711	34087.9
670.06	34216.26
670.41	34119.54
670.76	34074.34
671.109	34226.2
671.459	34178.75
671.808	34046.32
672.157	34314.79
672.507	34067.11
672.856	33943.73
673.205	34092.42
673.554	34174.91
673.904	33999.54
674.253	34105.76
674.602	33993.67
674.951	33612.21
675.3	33325.66
675.649	33947.34
675.998	33896.5
676.346	33854.46
676.695	33992.54
677.044	33695.82
677.393	33911.18
677.741	33884.97
678.09	33719.1
678.438	33795.93
678.787	33875.03
679.135	33707.35
679.484	33556.84
679.832	33593.45
680.181	33517.97
680.529	33612.89
680.877	33519.33
681.225	33557.07
681.573	33708.03
681.922	33447.69
682.27	33343.52
682.618	33237.3
682.966	33245.89
683.314	33329.28
683.661	33290.64
684.009	33079.12
684.357	32986.46
684.705	32912.79
685.053	33081.15
685.4	32980.14
685.748	32823.53
686.095	32773.59
686.443	32684.1
686.79	32681.39
687.138	32749.63
687.485	32709.41
687.832	32511
688.18	32570.2
688.527	32296.76
688.874	32378.8
689.221	32371.11
689.568	32307.38
689.915	32241.4
690.262	32219.25
690.609	32100.84
690.956	32031.69
691.303	32065.81
691.65	31877.34
691.997	31856.78
692.344	31579.49
692.69	31689.55
693.037	31538.37
693.383	31350.57
693.73	31601.87
694.077	31283.91
694.423	31314.87
694.769	31254.98
695.116	31174.99
695.462	31043.46
695.808	30910.59
696.155	31045.72
696.501	30830.36
696.847	30776.13
697.193	30529.8
697.539	30620.42
697.885	30487.55
698.231	30364.61
698.577	30344.27
698.923	30415.46
699.269	30339.53
699.614	30091.17
699.96	30062.25
700.306	30027.67
700.651	30040.78
700.997	29785.87
701.342	29796.49
701.688	29792.42
702.033	29712.42
702.379	29685.98
702.724	29518.08
703.069	29453.67
703.415	29246.9
703.76	29202.16
704.105	29144.98
704.45	29176.17
704.795	29091.65
705.14	28938.89
705.485	29006.23
705.83	28758.1
706.175	28986.12
706.52	28713.81
706.865	28699.8
707.209	28670.64
707.554	28556.52
707.899	28527.37
708.243	28473.81
708.588	28545.68
708.932	28183.2
709.277	28172.8
709.621	28333.25
709.966	28029.98
710.31	28129.64
710.654	27862.3
710.998	28037.21
711.342	27933.49
711.687	27905.92
712.031	27754.74
712.375	27749.31
712.719	27698.92
713.063	27629.32
713.407	27807.84
713.75	27517.91
714.094	27527.17
714.438	27422.32
714.782	27458.92
715.125	27280.4
715.469	27374.18
715.812	27220.06
716.156	27077.92
716.499	27046.05
716.843	27072.04
717.186	26959.05
717.53	26998.82
717.873	27051.48
718.216	26830.24
718.559	26825.72
718.902	26606.97
719.246	26682.67
719.589	26622.34
719.932	26468.44
720.275	26415.34
720.617	26467.54
720.96	26392.51
721.303	26399.74
721.646	26428.9
721.989	26249.47
722.331	26321.1
722.674	26269.35
723.016	26281.33
723.359	26237.94
723.701	26116.59
724.044	26009.02
724.386	25856.93
724.729	26053.31
725.071	26005.18
725.413	26003.37
725.755	25880.66
726.097	25743.26
726.439	25661.68
726.782	25696.03
727.124	25845.86
727.465	25623.72
727.807	25619.65
728.149	25628.69
728.491	25484.74
728.833	25489.49
729.175	25318.19
729.516	25332.65
729.858	25309.83
730.199	25271.86
730.541	25315.03
730.882	25283.61
731.224	25285.42
731.565	25056.05
731.906	25070.74
732.248	25025.09
732.589	25036.16
732.93	24969.95
733.271	24920.69
733.612	24943.06
733.953	25023.73
734.294	24949.39
734.635	24862.83
734.976	24894.47
735.317	24771.99
735.658	24717.08
735.999	24715.27
736.339	24605.67
736.68	24692.9
737.021	24630.75
737.361	24503.3
737.702	24660.13
738.042	24627.81
738.383	24441.6
738.723	24568.61
739.063	24472.34
739.404	24492.68
739.744	24358.44
740.084	24303.75
740.424	24396.86
740.764	24295.17
741.104	24409.06
741.444	24248.16
741.784	24179.24
742.124	24234.38
742.464	24080.93
742.804	24030.09
743.143	24016.08
743.483	24011.11
743.823	23986.93
744.162	23955.51
744.502	23915.06
744.841	23825.8
745.181	24023.76
745.52	23811.79
745.86	23835.74
746.199	23851.11
746.538	23695.41
746.877	23750.1
747.216	23732.02
747.556	23622.19
747.895	23591.46
748.234	23569.31
748.573	23576.09
748.911	23573.83
749.25	23453.83
749.589	23381.97
749.928	23451.8
750.267	23453.61
750.605	23327.51
750.944	23303.78
751.283	23282.09
751.621	23205.03
751.96	23120.28
752.298	23090.9
752.636	23129.1
752.975	23009.55
753.313	22945.6
753.651	23035.99
753.989	22868.99
754.327	22888.42
754.666	22748.77
755.004	22812.72
755.342	22814.08
755.679	22737.69
756.017	22554.65
756.355	22588.54
756.693	22450.92
757.031	22527.76
757.368	22368.89
757.706	22327.99
758.044	22253.86
758.381	22285.05
758.719	22216.8
759.056	22272.62
759.394	22150.14
759.731	22046.64
760.068	22030.37
760.405	21965.28
760.743	21833.99
761.08	21892.07
761.417	21734.78
761.754	21688.91
762.091	21629.25
762.428	21649.13
762.765	21501.34
763.102	21527.56
763.438	21354.23
763.775	21379.54
764.112	21307
764.449	21217.96
764.785	21243.04
765.122	21042.37
765.458	20967.8
765.795	20993.33
766.131	20919.44
766.467	20930.06
766.804	20736.62
767.14	20618.2
767.476	20612.1
767.812	20650.97
768.148	20619.1
768.485	20539.78
768.821	20415.04
769.157	20349.51
769.492	20249.4
769.828	20217.76
770.164	20004.66
770.5	20049.4
770.836	20018.44
771.171	19876.07
771.507	19878.11
771.842	19721.05
772.178	19760.6
772.513	19640.15
772.849	19568.28
773.184	19534.84
773.519	19578
773.855	19425.01
774.19	19331.23
774.525	19338.69
774.86	19349.08
775.195	19138.01
775.53	19082.2
775.865	18951.13
776.2	18868.87
776.535	18703.67
776.87	18845.14
777.205	18763.33
777.539	18613.51
777.874	18633.62
778.209	18442.21
778.543	18381.88
778.878	18252.84
779.212	18341.88
779.547	18173.52
779.881	18217.36
780.215	18118.61
780.55	18043.81
780.884	17987.31
781.218	17954.99
781.552	17985.05
781.886	17948.44
782.22	17734.89
782.554	17620.77
782.888	17458.96
783.222	17402.47
783.556	17301.23
783.889	17403.82
784.223	17251.96
784.557	17252.87
784.89	17269.14
785.224	17163.6
785.557	17029.59
785.891	17008.8
786.224	16983.04
786.558	16961.12
786.891	16745.99
787.224	16769.71
787.557	16710.28
787.891	16676.38
788.224	16627.12
788.557	16651.53
788.89	16584.63
789.223	16540.79
789.556	16347.8
789.888	16291.31
790.221	16282.27
790.554	16111.65
790.887	16189.62
791.219	16102.39
791.552	16026.46
791.884	15949.62
792.217	15861.49
792.549	15926.35
792.882	15769.29
793.214	15699.69
793.546	15724.77
793.879	15647.03
794.211	15465.79
794.543	15603.87
794.875	15502.63
795.207	15508.5
795.539	15407.49
795.871	15526.58
796.203	15333.14
796.535	15228.29
796.867	15151.9
797.198	15180.83
797.53	15145.58
797.862	14987.61
798.193	15089.53
798.525	14928.18
798.856	15041.85
799.188	14817.9
799.519	14814.74
799.85	14661.3
800.182	14733.38
800.513	14684.57
800.844	14624.46
801.175	14571.81
801.506	14544.24
801.837	14536.55
802.168	14420.85
802.499	14431.24
802.83	14386.05
803.161	14376.78
803.491	14311.7
803.822	14326.39
804.153	14186.96
804.483	14114.19
804.814	14163.46
805.145	14068.77
805.475	14032.39
805.805	14009.34
806.136	13929.79
806.466	14021.99
806.796	13921.2
807.126	13758.95
807.457	13797.36
807.787	13703.35
808.117	13693.19
808.447	13565.28
808.777	13700.42
809.107	13690.47
809.436	13552.85
809.766	13627.88
810.096	13512.17
810.426	13520.53
810.755	13491.16
811.085	13409.12
811.414	13416.81
811.744	13306.53
812.073	13332.97
812.403	13304.95
812.732	13233.76
813.061	13244.16
813.39	13117.83
813.719	13072.86
814.049	13137.95
814.378	13036.71
814.707	12998.74
815.036	13027.67
815.365	12929.36
815.693	12803.72
816.022	12868.8
816.351	12722.14
816.68	12711.06
817.008	12720.1
817.337	12711.97
817.665	12664.51
817.994	12741.8
818.322	12596.94
818.651	12547
818.979	12500
819.307	12567.34
819.636	12463.84
819.964	12422.94
820.292	12482.82
820.62	12544.06
820.948	12426.55
821.276	12488.02
821.604	12432.65
821.932	12427.46
822.259	12469.04
822.587	12408.25
822.915	12363.05
823.243	12421.35
823.57	12314.24
823.898	12299.55
824.225	12410.28
824.553	12261.81
824.88	12334.8
825.207	12408.93
825.535	12338.19
825.862	12341.13
826.189	12358.76
826.516	12406.44
826.843	12391.75
827.17	12330.96
827.497	12369.15
827.824	12395.59
828.151	12389.49
828.478	12380.23
828.805	12390.62
829.131	12302.71
829.458	12329.83
829.785	12215.94
830.111	12263.17
830.438	12344.07
830.764	12389.49
831.09	12371.19
831.417	12304.3
831.743	12278.76
832.069	12246.67
832.395	12191.98
832.722	12299.55
833.048	12288.25
833.374	12223.62
833.7	12223.17
834.026	12211.42
834.351	12220.23
834.677	12201.25
835.003	12156.05
835.329	12234.24
835.654	12204.41
835.98	12087.13
836.306	12102.49
836.631	12090.06
836.956	12090.52
837.282	11968.48
837.607	12055.26
837.932	12077.63
838.258	11989.5
838.583	12001.25
838.908	11887.36
839.233	11933.68
839.558	11839.22
839.883	11829.05
840.208	11845.78
840.533	11816.4
840.858	11821.82
841.182	11782.05
841.507	11815.72
841.832	11734.37
842.156	11734.82
842.481	11702.95
842.805	11592.68
843.13	11656.18
843.454	11710.86
843.778	11601.26
844.103	11595.61
844.427	11496.18
844.751	11524.88
845.075	11492.57
845.399	11424.32
845.723	11413.02
846.047	11395.17
846.371	11305
846.695	11352.46
847.019	11200.37
847.343	11156.3
847.666	11131.9
847.99	11090.54
848.313	11062.97
848.637	11030.2
848.96	10959.7
849.284	10975.06
849.607	10857.1
849.931	10786.14
850.254	10760.15
850.577	10728.74
850.9	10716.31
851.223	10650.78
851.546	10593.83
851.869	10525.13
852.192	10605.58
852.515	10482.65
852.838	10418.24
853.161	10445.81
853.483	10310
853.806	10379.6
854.129	10290.11
854.451	10289.66
854.774	10246.72
855.096	10188.87
855.419	10199.04
855.741	10137.35
856.063	10115.43
856.385	10133.96
856.708	10098.03
857.03	9914.53
857.352	10045.37
857.674	9960.63
857.996	9933.28
858.318	9872.49
858.64	9878.14
858.961	9841.76
859.283	9815.55
859.605	9696.23
859.926	9782.78
860.248	9751.59
860.57	9702.56
860.891	9718.15
861.212	9649.9
861.534	9596.8
861.855	9653.74
862.176	9583.69
862.498	9623.24
862.819	9630.24
863.14	9587.08
863.461	9577.81
863.782	9477.93
864.103	9507.08
864.424	9471.6
864.745	9483.8
865.065	9419.4
865.386	9425.27
865.707	9430.25
866.027	9405.39
866.348	9348.21
866.668	9371.49
866.989	9331.72
867.309	9271.15
867.63	9317.03
867.95	9254.66
868.27	9265.5
868.59	9326.07
868.91	9295.11
869.23	9230.93
869.55	9233.19
869.87	9194.09
870.19	9222.79
870.51	9147.77
870.83	9191.38
871.15	9091.5
871.469	9115.45
871.789	9171.5
872.109	9126.75
872.428	9013.53
872.748	9144.15
873.067	9124.94
873.386	9084.94
873.706	9060.31
874.025	9019.18
874.344	8961.56
874.663	8994.55
874.982	8941.67
875.301	8940.32
875.62	8933.76
875.939	8971.95
876.258	8851.28
876.577	8882.46
876.896	8840.88
877.214	8841.56
877.533	8861.45
877.852	8835.69
878.17	8869.81
878.489	8867.55
878.807	8810.83
879.125	8712.75
879.444	8754.11
879.762	8741.45
880.08	8785.97
880.398	8658.06
880.716	8720.21
881.034	8677.5
881.352	8682.92
881.67	8636.14
881.988	8668.68
882.306	8608.35
882.624	8577.84
882.941	8540.55
883.259	8587.56
883.577	8477.96
883.894	8467.33
884.212	8390.73
884.529	8472.98
884.846	8458.97
885.164	8384.4
885.481	8429.59
885.798	8385.53
886.115	8320.22
886.432	8344.4
886.75	8316.15
887.067	8314.57
887.383	8230.73
887.7	8317.28
888.017	8179.43
888.334	8241.35
888.651	8216.94
888.967	8203.61
889.284	8161.35
889.6	8102.6
889.917	8088.81
890.233	8087.23
890.55	8022.15
890.866	8080.9
891.182	7988.02
891.498	8018.53
891.815	7925.65
892.131	7926.33
892.447	7945.31
892.763	7924.75
893.079	7837.29
893.395	7898.99
893.71	7848.37
894.026	7831.64
894.342	7801.36
894.657	7757.97
894.973	7700.8
895.289	7731.31
895.604	7721.14
895.92	7610.18
896.235	7561.14
896.55	7615.38
896.865	7561.14
897.181	7565.21
897.496	7543.06
897.811	7473.69
898.126	7495.38
898.441	7450.86
898.756	7419
899.071	7405.44
899.386	7417.87
899.7	7402.96
900.015	7293.13
900.33	7255.39
900.644	7220.81
900.959	7313.69
901.273	7289.51
901.588	7192.79
901.902	7193.47
902.216	7175.62
902.531	7139.23
902.845	7044.32
903.159	7051.1
903.473	7050.87
903.787	6970.2
904.101	6991.67
904.415	7015.17
904.729	6964.32
905.042	6897.43
905.356	6861.5
905.67	6907.15
905.984	6838.45
906.297	6826.7
906.611	6788.96
906.924	6775.4
907.237	6767.72
907.551	6769.75
907.864	6685.01
908.177	6642.07
908.491	6654.5
908.804	6622.86
909.117	6566.37
909.43	6579.7
909.743	6524.79
910.056	6492.02
910.368	6473.04
910.681	6419.93
910.994	6405.24
911.307	6359.37
911.619	6365.69
911.932	6338.35
912.244	6316.88
912.557	6297.22
912.869	6271.46
913.181	6247.73
913.494	6191.91
913.806	6162.99
914.118	6167.51
914.43	6119.15
914.742	6145.59
915.054	6094.97
915.366	6074.63
915.678	6025.59
915.99	6047.74
916.302	5984.01
916.613	5995.53
916.925	5925.25
917.236	5916.89
917.548	5919.15
917.859	5880.28
918.171	5838.93
918.482	5777.69
918.794	5799.38
919.105	5777.24
919.416	5767.52
919.727	5724.36
920.038	5702.21
920.349	5692.72
920.66	5650.68
920.971	5646.39
921.282	5623.57
921.593	5607.07
921.903	5606.17
922.214	5563.68
922.525	5508.54
922.835	5575.43
923.146	5487.75
923.456	5486.85
923.767	5449.56
924.077	5447.98
924.387	5421.09
924.697	5408.21
925.008	5353.07
925.318	5346.51
925.628	5353.29
925.938	5264.48
926.248	5247.31
926.558	5241.66
926.867	5205.95
927.177	5177.25
927.487	5189.68
927.796	5117.14
928.106	5129.57
928.416	5137.93
928.725	5092.06
929.034	5054.32
929.344	5060.87
929.653	5058.61
929.962	4979.97
930.271	4985.39
930.581	4955.34
930.89	4972.74
931.199	4884.83
931.508	4918.73
931.817	4889.57
932.125	4885.96
932.434	4873.98
932.743	4775.23
933.051	4841.44
933.36	4809.58
933.669	4775
933.977	4740.43
934.286	4706.98
934.594	4707.66
934.902	4645.29
935.21	4693.2
935.519	4619.07
935.827	4591.5
936.135	4608.68
936.443	4551.5
936.751	4531.39
937.059	4532.52
937.367	4548.57
937.674	4526.19
937.982	4478.51
938.29	4429.47
938.597	4471.96
938.905	4387.22
939.213	4396.48
939.52	4397.84
939.827	4362.36
940.135	4328.91
940.442	4356.93
940.749	4318.52
941.056	4337.72
941.363	4233.32
941.67	4285.07
941.977	4210.5
942.284	4194.9
942.591	4212.53
942.898	4271.74
943.205	4195.13
943.511	4146.09
943.818	4143.61
944.125	4108.35
944.431	4125.98
944.738	4099.77
945.044	4043.72
945.35	4050.73
945.657	4033.55
945.963	3997.39
946.269	4010.95
946.575	3982.93
946.881	3963.27
947.187	3972.31
947.493	3929.6
947.799	3895.93
948.105	3932.09
948.41	3869.94
948.716	3877.85
949.022	3860.45
949.327	3849.38
949.633	3816.83
949.938	3788.81
950.244	3780.9
950.549	3791.07
950.854	3759.66
951.16	3738.19
951.465	3739.77
951.77	3699.55
952.075	3697.06
952.38	3656.39
952.685	3664.07
952.99	3642.6
953.294	3626.78
953.599	3636.95
953.904	3575.49
954.209	3595.6
954.513	3560.8
954.818	3573
955.122	3551.3
955.426	3546.33
955.731	3532.55
956.035	3499.1
956.339	3481.7
956.643	3491.42
956.948	3411.42
957.252	3405.32
957.556	3427.24
957.86	3423.17
958.163	3410.97
958.467	3388.15
958.771	3398.99
959.075	3347.24
959.378	3321.03
959.682	3307.92
959.985	3305.66
960.289	3292.33
960.592	3308.37
960.896	3249.39
961.199	3271.31
961.502	3249.62
961.805	3223.18
962.108	3216.4
962.411	3188.6
962.714	3134.37
963.017	3161.26
963.32	3187.47
963.623	3112.9
963.926	3135.04
964.228	3079.9
964.531	3096.63
964.833	3087.81
965.136	3050.75
965.438	3062.05
965.741	3055.95
966.043	3023.64
966.345	3010.98
966.648	3001.26
966.95	3004.2
967.252	2989.06
967.554	2981.6
967.856	2964.88
968.158	2947.48
968.46	2916.75
968.761	2935.5
969.063	2876.07
969.365	2941.83
969.666	2900.47
969.968	2880.36
970.269	2850.98
970.571	2829.06
970.872	2859.35
971.174	2834.49
971.475	2824.77
971.776	2802.17
972.077	2786.35
972.378	2780.03
972.679	2769.86
972.98	2747.26
973.281	2727.82
973.582	2730.08
973.883	2752.91
974.183	2668.39
974.484	2695.28
974.785	2662.29
975.085	2677.43
975.386	2655.51
975.686	2679.92
975.986	2621.84
976.287	2625
976.587	2602.4
976.887	2576.87
977.187	2596.75
977.487	2602.4
977.787	2561.27
978.087	2566.7
978.387	2571.22
978.687	2551.78
978.987	2511.78
979.286	2499.36
979.586	2489.86
979.885	2485.8
980.185	2478.79
980.484	2432.92
980.784	2477.21
981.083	2463.42
981.382	2452.8
981.682	2451.67
981.981	2421.84
982.28	2413.71
982.579	2402.86
982.878	2399.47
983.177	2400.83
983.475	2371
983.774	2373.71
984.073	2344.56
984.372	2354.27
984.67	2333.03
984.969	2332.35
985.267	2290.77
985.566	2294.16
985.864	2293.48
986.162	2288.97
986.461	2286.93
986.759	2230.89
987.057	2254.16
987.355	2200.83
987.653	2245.58
987.951	2217.1
988.249	2193.37
988.547	2215.75
988.844	2195.63
989.142	2179.14
989.44	2164
989.737	2143.21
990.035	2131.91
990.332	2144.34
990.63	2132.36
990.927	2119.93
991.224	2119.03
991.521	2091.91
991.819	2076.77
992.116	2109.53
992.413	2050.33
992.71	2029.54
993.006	2055.75
993.303	2046.49
993.6	2013.27
993.897	2058.69
994.193	2027.96
994.49	2043.1
994.787	2026.15
995.083	1944.57
995.379	1973.72
995.676	1972.36
995.972	1974.62
996.268	1948.64
996.565	1914.51
996.861	1923.55
997.157	1908.86
997.453	1923.55
997.749	1898.47
998.044	1903.21
998.34	1883.33
998.636	1914.74
998.932	1893.04
999.227	1858.02
999.523	1862.76
999.818	1833.61
1000.114	1851.46
1000.409	1835.42
1000.704	1798.58
1001	1818.92
1001.295	1819.83
1001.59	1776.66
1001.885	1801.07
1002.18	1738.02
1002.475	1776.66
1002.77	1758.13
1003.065	1714.07
1003.359	1719.94
1003.654	1718.58
1003.949	1701.41
1004.243	1718.36
1004.538	1692.6
1004.832	1690.11
1005.127	1682.43
1005.421	1677.23
1005.715	1682.88
1006.009	1637.23
1006.304	1649.66
1006.598	1646.5
1006.892	1622.09
1007.186	1610.34
1007.48	1611.02
1007.773	1613.95
1008.067	1580.06
1008.361	1569.66
1008.655	1568.53
1008.948	1575.31
1009.242	1557.69
1009.535	1535.99
1009.829	1545.26
1010.122	1544.8
1010.415	1514.75
1010.708	1510.91
1011.001	1510
1011.295	1479.49
1011.588	1500.51
1011.881	1497.57
1012.173	1474.52
1012.466	1459.16
1012.759	1461.42
1013.052	1410.12
1013.344	1436.78
1013.637	1440.63
1013.93	1424.13
1014.222	1409.89
1014.514	1419.84
1014.807	1378.93
1015.099	1375.77
1015.391	1401.08
1015.683	1410.57
1015.976	1370.12
1016.268	1373.06
1016.56	1374.41
1016.851	1329.44
1017.143	1344.36
1017.435	1340.29
1017.727	1334.87
1018.018	1300.52
1018.31	1309.33
1018.602	1306.84
1018.893	1330.57
1019.185	1304.13
1019.476	1279.05
1019.767	1285.83
1020.058	1265.72
1020.35	1262.1
1020.641	1263.68
1020.932	1258.94
1021.223	1229.56
1021.514	1227.07
1021.804	1249.22
1022.095	1204.25
1022.386	1205.83
1022.677	1216.9
1022.967	1186.62
1023.258	1148.66
1023.548	1177.81
1023.839	1172.84
1024.129	1178.94
1024.419	1146.4
1024.709	1160.63
1025	1140.07
1025.29	1124.93
1025.58	1142.55
1025.87	1119.05
1026.16	1117.02
1026.449	1111.6
1026.739	1084.25
1027.029	1101.65
1027.319	1099.84
1027.608	1073.18
1027.898	1048.77
1028.187	1064.36
1028.477	1047.42
1028.766	1069.56
1029.055	1044.93
1029.344	1027.53
1029.634	1045.38
1029.923	1013.74
1030.212	1006.51
1030.501	1021.65
1030.79	1004.25
1031.078	981.43
1031.367	970.58
1031.656	993.41
1031.945	982.78
1032.233	969.45
1032.522	986.63
1032.81	959.96
1033.099	938.49
1033.387	957.47
1033.675	938.49
1033.963	947.31
1034.251	933.52
1034.54	934.65
1034.828	920.87
1035.116	933.52
1035.403	932.16
1035.691	907.76
1035.979	917.02
1036.267	911.37
1036.554	905.27
1036.842	880.41
1037.129	893.75
1037.417	890.81
1037.704	868.44
1037.992	849.91
1038.279	854.88
1038.566	873.18
1038.853	873.18
1039.14	873.18
