Data from hue_50_FLMS001491_17.txt Node
Date: Mon Feb 06 15:09:40 GMT 2017
User: dcchb
Spectrometer: FLMS00149
Trigger mode: 0
Integration Time (sec): 2.000000E-2
Scans to average: 10
Electric dark correction enabled: true
Nonlinearity correction enabled: false
Boxcar width: 0
XAxis mode: Wavelengths
Number of Pixels in Spectrum: 2048
>>>>>Begin Spectral Data<<<<<
341.393	2.87
341.776	2.87
342.16	2.87
342.543	-39.62
342.927	-67.41
343.31	-50.92
343.693	-57.92
344.077	-48.66
344.46	-69.45
344.843	-56.34
345.226	-38.26
345.61	-33.29
345.993	-15.21
346.376	12.58
346.759	-1.2
347.142	28.86
347.525	29.53
347.908	47.61
348.291	62.75
348.674	96.42
349.057	93.49
349.44	123.09
349.823	158.34
350.206	141.85
350.588	207.61
350.971	203.09
351.354	221.62
351.737	235.86
352.119	259.81
352.502	276.98
352.884	285.35
353.267	291.9
353.65	313.37
354.032	278.57
354.414	310.66
354.797	321.28
355.179	311.56
355.562	323.08
355.944	328.06
356.326	343.65
356.709	342.75
357.091	325.12
357.473	326.25
357.855	345.68
358.238	340.49
358.62	359.47
359.002	338.68
359.384	357.21
359.766	361.5
360.148	343.88
360.53	352.01
360.912	350.65
361.294	359.24
361.676	331.45
362.057	363.76
362.439	312.01
362.821	313.14
363.203	336.19
363.584	330.09
363.966	332.58
364.348	326.93
364.729	323.31
365.111	304.55
365.493	335.29
365.874	316.76
366.256	321.73
366.637	307.04
367.019	323.08
367.4	305.01
367.781	318.34
368.163	338.9
368.544	317.21
368.925	324.44
369.306	315.63
369.688	326.47
370.069	314.95
370.45	314.72
370.831	325.34
371.212	338.45
371.593	315.63
371.974	322.86
372.355	332.8
372.736	322.18
373.117	324.21
373.498	335.51
373.879	317.21
374.26	309.07
374.641	322.86
375.021	316.31
375.402	325.12
375.783	320.15
376.163	335.51
376.544	319.69
376.925	330.09
377.305	311.33
377.686	346.59
378.066	332.12
378.447	340.49
378.827	338.68
379.208	331.22
379.588	349.07
379.968	326.47
380.349	320.37
380.729	335.29
381.109	317.66
381.489	341.39
381.87	352.24
382.25	327.83
382.63	343.42
383.01	335.06
383.39	341.84
383.77	363.76
384.15	354.5
384.53	327.6
384.91	340.49
385.29	341.84
385.67	349.3
386.049	367.38
386.429	330.77
386.809	367.83
387.189	330.77
387.568	335.51
387.948	337.77
388.328	343.2
388.707	340.03
389.087	360.15
389.466	372.8
389.846	374.61
390.225	373.7
390.605	347.94
390.984	339.81
391.363	360.82
391.743	375.74
392.122	335.06
392.501	353.59
392.881	364.21
393.26	388.17
393.639	372.12
394.018	373.93
394.397	374.61
394.776	371.45
395.155	348.62
395.534	362.18
395.913	377.32
396.292	388.62
396.671	377.77
397.05	382.07
397.429	390.43
397.808	382.29
398.186	382.74
398.565	378.45
398.944	378
399.323	377.09
399.701	384.1
400.08	394.04
400.458	381.84
400.837	399.69
401.215	390.43
401.594	395.4
401.972	408.28
402.351	389.07
402.729	400.6
403.107	386.36
403.486	374.38
403.864	396.3
404.242	398.34
404.62	398.11
404.999	395.4
405.377	384.1
405.755	391.56
406.133	376.64
406.511	412.12
406.889	426.13
407.267	442.4
407.645	415.74
408.023	405.34
408.401	399.01
408.779	408.05
409.156	421.61
409.534	415.51
409.912	421.39
410.29	461.61
410.667	444.44
411.045	425.68
411.422	435.17
411.8	422.97
412.178	453.7
412.555	431.1
412.933	450.09
413.31	442.63
413.687	465.91
414.065	435.17
414.442	436.98
414.819	463.87
415.197	456.87
415.574	448.28
415.951	438.11
416.328	447.6
416.705	455.28
417.082	465.23
417.46	464.32
417.837	455.96
418.214	457.77
418.591	478.11
418.967	480.14
419.344	492.57
419.721	488.96
420.098	509.75
420.475	482.4
420.852	506.36
421.228	504.55
421.605	526.02
421.982	495.96
422.358	493.7
422.735	495.74
423.111	498.9
423.488	501.39
423.864	500.03
424.241	503.19
424.617	485.34
424.994	522.85
425.37	540.71
425.746	520.82
426.123	535.96
426.499	519.24
426.875	522.4
427.251	541.38
427.627	524.44
428.003	562.4
428.379	552.68
428.756	551.78
429.132	537.32
429.507	547.26
429.883	552.68
430.259	566.47
430.635	576.86
431.011	566.02
431.387	587.03
431.763	596.3
432.138	573.93
432.514	586.58
432.89	592
433.265	580.71
433.641	595.39
434.016	611.89
434.392	627.94
434.767	616.86
435.143	620.03
435.518	610.31
435.894	613.7
436.269	634.94
436.644	635.62
437.02	627.71
437.395	635.39
437.77	654.15
438.145	638.33
438.52	636.75
438.895	657.09
439.271	643.53
439.646	660.25
440.021	650.99
440.395	657.99
440.77	678.1
441.145	664.77
441.52	677.65
441.895	671.1
442.27	680.82
442.645	691.89
443.019	694.6
443.394	691.21
443.769	698.89
444.143	694.37
444.518	708.84
444.892	727.37
445.267	693.47
445.641	711.55
446.016	715.62
446.39	723.53
446.764	716.07
447.139	711.32
447.513	708.16
447.887	751.32
448.262	735.73
448.636	732.34
449.01	745.67
449.384	747.48
449.758	751.1
450.132	760.59
450.506	755.62
450.88	750.19
451.254	758.55
451.628	799.23
452.002	789.51
452.376	791.77
452.75	819.12
453.123	773.02
453.497	787.48
453.871	812.34
454.244	804.65
454.618	809.85
454.992	814.6
455.365	838.78
455.739	856.63
456.112	881.49
456.486	848.49
456.859	854.6
457.232	902.5
457.606	890.53
457.979	879.45
458.352	912.67
458.725	916.74
459.099	926.23
459.472	909.28
459.845	925.55
460.218	944.31
460.591	931.43
460.964	949.28
461.337	961.71
461.71	963.52
462.083	1012.11
462.456	981.37
462.829	1006.46
463.201	1016.63
463.574	1032.22
463.947	1061.14
464.32	1031.09
464.692	1066.57
465.065	1082.39
465.438	1115.38
465.81	1092.1
466.183	1154.48
466.555	1147.92
466.928	1131.88
467.3	1139.79
467.672	1218.88
468.045	1227.02
468.417	1236.28
468.789	1240.8
469.161	1249.16
469.534	1248.71
469.906	1325.32
470.278	1318.09
470.65	1322.83
471.022	1351.53
471.394	1394.47
471.766	1415.49
472.138	1436.5
472.51	1461.36
472.882	1517.4
473.253	1514.69
473.625	1549.72
473.997	1603.05
474.369	1627.91
474.74	1648.47
475.112	1664.29
475.484	1706.55
475.855	1787.68
476.227	1827.68
476.598	1866.55
476.97	1900.44
477.341	1954.45
477.713	1989.93
478.084	2037.16
478.455	2105.64
478.827	2138.4
479.198	2247.78
479.569	2267.67
479.94	2382.01
480.311	2404.61
480.682	2482.35
481.053	2579.75
481.424	2602.57
481.795	2671.05
482.166	2772.74
482.537	2821.1
482.908	2907.88
483.279	3007.76
483.65	3105.16
484.021	3205.95
484.391	3270.35
484.762	3371.37
485.133	3374.76
485.503	3518.48
485.874	3647.97
486.244	3733.16
486.615	3878.7
486.985	3920.28
487.356	4088.18
487.726	4166.15
488.097	4301.06
488.467	4370.21
488.837	4548.28
489.207	4660.15
489.578	4782.85
489.948	4878.9
490.318	5002.96
490.688	5109.4
491.058	5248.83
491.428	5359.11
491.798	5478.66
492.168	5666.22
492.538	5732.43
492.908	5830.06
493.278	6014.23
493.648	6110.73
494.017	6254
494.387	6411.74
494.757	6462.36
495.126	6622.13
495.496	6715.69
495.866	6876.36
496.235	6965.17
496.605	7162.45
496.974	7183.02
497.344	7409.45
497.713	7451.26
498.082	7537.36
498.452	7786.39
498.821	7854.19
499.19	7938.7
499.559	8134.18
499.928	8238.58
500.298	8325.59
500.667	8453.72
501.036	8524
501.405	8655.75
501.774	8732.58
502.143	8930.99
502.512	9090.31
502.88	9095.96
503.249	9198.78
503.618	9328.95
503.987	9445.78
504.356	9570.07
504.724	9647.13
505.093	9736.17
505.462	9882.38
505.83	9964.64
506.199	10069.95
506.567	10287.79
506.936	10296.61
507.304	10475.81
507.672	10597.62
508.041	10603.04
508.409	10795.8
508.777	10833.77
509.145	11031.5
509.514	10940.66
509.882	11110.82
510.25	11206.41
510.618	11295
510.986	11428.56
511.354	11548.55
511.722	11624.71
512.09	11812.27
512.458	11802.1
512.826	11982.21
513.193	12048.88
513.561	12138.59
513.929	12234.18
514.297	12353.95
514.664	12472.6
515.032	12533.39
515.4	12693.15
515.767	12786.49
516.135	12791.23
516.502	12839.14
516.869	13123.65
517.237	13143.31
517.604	13166.59
517.972	13339.47
518.339	13403.64
518.706	13470.99
519.073	13536.52
519.44	13636.86
519.808	13797.53
520.175	13787.82
520.542	14038.2
520.909	14044.98
521.276	14081.82
521.643	14269.84
522.009	14385.99
522.376	14508.25
522.743	14654.69
523.11	14677.74
523.477	14894.9
523.843	14925.64
524.21	15054
524.577	15217.38
524.943	15305.97
525.31	15361.56
525.676	15600.42
526.043	15575.11
526.409	15698.73
526.776	15935.78
527.142	15922
527.508	16048.55
527.874	16224.14
528.241	16396.56
528.607	16398.37
528.973	16501.64
529.339	16470.46
529.705	16691.02
530.071	16784.57
530.437	16891.69
530.803	17040.39
531.169	17064.79
531.535	17094.17
531.901	17136.2
532.267	17248.74
532.632	17370.77
532.998	17357.21
533.364	17542.52
533.73	17613.48
534.095	17678.56
534.461	17781.38
534.826	17853.7
535.192	18004.88
535.557	18074.71
535.923	18075.16
536.288	18170.07
536.653	18330.97
537.019	18227.47
537.384	18382.27
537.749	18615.03
538.114	18527.58
538.479	18584.07
538.845	18655.03
539.21	18646.9
539.575	18746.78
539.94	18862.03
540.305	18937.06
540.67	18839.43
541.034	18964.63
541.399	19070.84
541.764	19145.41
542.129	19255.69
542.494	19347.22
542.858	19339.08
543.223	19334.34
543.587	19592.41
543.952	19552.18
544.316	19645.06
544.681	19695.91
545.045	19762.35
545.41	19997.6
545.774	19900.88
546.138	19932.74
546.503	19965.51
546.867	19969.12
547.231	20146.97
547.595	20264.93
547.959	20255.89
548.324	20367.98
548.688	20408.21
549.052	20441.65
549.416	20472.39
549.779	20506.73
550.143	20538.37
550.507	20803
550.871	20875.76
551.235	20773.39
551.599	20957.12
551.962	20953.5
552.326	21052.94
552.689	21191.46
553.053	21069.43
553.417	21225.36
553.78	21526.6
554.143	21501.96
554.507	21545.8
554.87	21588.29
555.234	21814.27
555.597	21678.46
555.96	21780.6
556.323	21863.08
556.686	21867.6
557.05	22107.6
557.413	22160.02
557.776	22191.66
558.139	22380.58
558.502	22449.51
558.865	22442.73
559.228	22639.11
559.59	22668.94
559.953	22776.05
560.316	22985.99
560.679	22911.87
561.041	23128.36
561.404	23179.88
561.767	23201.58
562.129	23267.79
562.492	23564.73
562.854	23523.83
563.217	23597.28
563.579	23673.88
563.941	23830.26
564.304	23904.16
564.666	24067.55
565.028	24106.87
565.39	24108
565.753	24167.2
566.115	24401.32
566.477	24460.76
566.839	24534.43
567.201	24694.2
567.563	24750.47
567.925	24961.53
568.287	24934.87
568.648	24991.81
569.01	25163.56
569.372	25299.38
569.734	25284.91
570.095	25431.13
570.457	25546.38
570.819	25547.96
571.18	25652.36
571.542	25859.59
571.903	25896.88
572.265	25926.71
572.626	25915.41
572.987	26181.16
573.349	26220.48
573.71	26309.75
574.071	26349.07
574.432	26429.06
574.794	26753.12
575.155	26601.94
575.516	26649.4
575.877	26816.63
576.238	26949.73
576.599	26935.04
576.96	26965.77
577.32	27086.67
577.681	27236.73
578.042	27342.71
578.403	27336.16
578.763	27468.81
579.124	27687.79
579.485	27768.46
579.845	27725.53
580.206	27812.31
580.566	27867.22
580.927	27988.12
581.287	28147.66
581.648	28146.53
582.008	28399.18
582.368	28306.53
582.728	28488.45
583.089	28515.79
583.449	28568.22
583.809	28846.63
584.169	28828.55
584.529	28891.15
584.889	29171.82
585.249	29106.28
585.609	29042.33
585.969	29460.62
586.329	29301.08
586.688	29458.59
587.048	29570.68
587.408	29652.94
587.768	29672.14
588.127	29757.79
588.487	29779.49
588.846	30091.12
589.206	29956.88
589.565	30112.81
589.925	30327.72
590.284	30453.37
590.643	30390.09
591.003	30562.52
591.362	30620.82
591.721	30640.48
592.08	30767.71
592.44	31151.2
592.799	31096.96
593.158	31097.87
593.517	31134.93
593.876	31268.03
594.235	31208.83
594.593	31438.42
594.952	31583.28
595.311	31561.13
595.67	31722.94
596.029	32003.83
596.387	32083.38
596.746	32137.16
597.104	32131.51
597.463	32130.61
597.822	32352.98
598.18	32247.22
598.538	32403.15
598.897	32696.02
599.255	32364.73
599.613	33045.16
599.972	32750.48
600.33	32903.02
600.688	32769.01
601.046	33100.98
601.404	33228.66
601.762	33198.6
602.12	33368.54
602.478	33443.57
602.836	33457.13
603.194	33379.84
603.552	33573.28
603.91	33393.85
604.268	33707.97
604.625	33698.93
604.983	34001.75
605.341	33869.32
605.698	33984.12
606.056	34088.75
606.413	34175.98
606.771	34307.05
607.128	34359.48
607.485	34300.04
607.843	34271.57
608.2	34651.9
608.557	34753.59
608.914	34616.42
609.272	34773.7
609.629	34923.3
609.986	35022.96
610.343	34857.32
610.7	35210.08
611.057	35206.91
611.414	35170.3
611.771	35245.78
612.127	35430.64
612.484	35452.78
612.841	35401.71
613.198	35413.46
613.554	35367.81
613.911	35713.34
614.267	35699.78
614.624	35749.95
614.98	35958.53
615.337	36096.16
615.693	36003.95
616.05	36044.41
616.406	36252.08
616.762	36117.17
617.118	36230.39
617.475	36217.73
617.831	36352.87
618.187	36410.5
618.543	36357.39
618.899	36703.82
619.255	36684.61
619.611	36617.95
619.967	36836.7
620.323	36893.2
620.678	36849.81
621.034	36882.35
621.39	36830.37
621.746	36821.56
622.101	37148.78
622.457	36931.84
622.812	37045.28
623.168	37183.36
623.523	37162.57
623.879	37235.33
624.234	37070.82
624.589	37107.2
624.945	37386.07
625.3	37177.93
625.655	37330.93
626.01	37359.4
626.365	37276.01
626.72	37321.89
627.075	37307.42
627.43	37459.74
627.785	37381.32
628.14	37433.52
628.495	37403.47
628.85	37620.86
629.205	37334.31
629.559	37706.96
629.914	37355.33
630.269	37546.06
630.623	37414.76
630.978	37319.17
631.332	37487.76
631.687	37603.01
632.041	37416.12
632.396	37456.12
632.75	37344.48
633.104	37309.91
633.459	37299.06
633.813	37398.49
634.167	37290.47
634.521	37211.83
634.875	37333.86
635.229	37298.38
635.583	37073.3
635.937	37156.69
636.291	37113.53
636.645	37118.73
636.999	37020.88
637.352	37157.37
637.706	36941.78
638.06	37199.4
638.413	37013.65
638.767	37021.1
639.121	37119.18
639.474	36906.08
639.828	36978.84
640.181	36942.01
640.534	36840.77
640.888	36848.45
641.241	36760.54
641.594	36843.25
641.947	36902.24
642.301	36761.67
642.654	36830.37
643.007	36848.68
643.36	36949.47
643.713	36745.86
644.066	36894.1
644.419	36653.43
644.771	36438.75
645.124	36082.37
645.477	36090.28
645.83	35647.13
646.182	35581.59
646.535	35691.19
646.888	35795.15
647.24	35550.86
647.593	35739.55
647.945	35706.79
648.298	35435.38
648.65	35364.42
649.002	35279.91
649.355	35455.72
649.707	35436.51
650.059	35582.27
650.411	35905.43
650.763	35984.97
651.115	36356.04
651.467	36183.16
651.819	36160.79
652.171	36098.64
652.523	36069.49
652.875	36113.56
653.227	35891.64
653.578	36230.84
653.93	36046.67
654.282	35981.58
654.633	35886.9
654.985	35893
655.337	35913.79
655.688	36014.35
656.039	36063.61
656.391	35738.88
656.742	35775.71
657.094	35911.08
657.445	35990.4
657.796	35870.4
658.147	35812.1
658.498	35765.32
658.849	35894.35
659.2	35737.29
659.551	35786.79
659.902	35918.98
660.253	35863.85
660.604	35887.8
660.955	35716.73
661.306	35820.68
661.656	35772.32
662.007	35751.08
662.358	35746.11
662.708	35683.28
663.059	35699.1
663.409	35455.95
663.76	35802.38
664.11	35692.78
664.461	35784.53
664.811	35721.93
665.161	35599.9
665.511	35639.67
665.862	35735.71
666.212	35788.14
666.562	35738.42
666.912	35639.67
667.262	35437.64
667.612	35661.36
667.962	35626.34
668.312	35527.58
668.662	35717.41
669.011	35535.72
669.361	35509.05
669.711	35360.58
670.06	35600.58
670.41	35397.19
670.76	35355.61
671.109	35526.45
671.459	35471.54
671.808	35313.58
672.157	35511.54
672.507	35140.47
672.856	35355.84
673.205	35343.18
673.554	35387.02
673.904	35381.6
674.253	35364.88
674.602	35327.36
674.951	34745.23
675.3	34629.08
675.649	35199
675.998	35256.63
676.346	35261.15
676.695	35287.59
677.044	34995.39
677.393	35160.59
677.741	35177.76
678.09	35110.42
678.438	35012.12
678.787	35134.6
679.135	35201.26
679.484	34852.57
679.832	34925.34
680.181	34700.03
680.529	34911.1
680.877	34713.14
681.225	34666.14
681.573	34943.87
681.922	34514.5
682.27	34610.77
682.618	34675.85
682.966	34528.96
683.314	34667.27
683.661	34507.5
684.009	34334.85
684.357	34224.34
684.705	34262.76
685.053	34254.85
685.4	34213.04
685.748	34001.75
686.095	34037.9
686.443	33884.24
686.79	33891.24
687.138	33866.38
687.485	33819.38
687.832	33688.31
688.18	33757.23
688.527	33621.64
688.874	33579.84
689.221	33585.04
689.568	33422.33
689.915	33349.56
690.262	33351.14
690.609	33299.62
690.956	33126.06
691.303	33072.05
691.65	33013.75
691.997	33107.08
692.344	32876.81
692.69	32890.14
693.037	32774.43
693.383	32655.34
693.73	32692.63
694.077	32543.71
694.423	32552.75
694.769	32414.44
695.116	32362.47
695.462	32344.16
695.808	32204.73
696.155	32301
696.501	32000.67
696.847	32057.62
697.193	31710.51
697.539	31800.22
697.885	31644.3
698.231	31616.27
698.577	31521.36
698.923	31448.14
699.269	31303.97
699.614	31200.69
699.96	31189.39
700.306	31313
700.651	31143.74
700.997	30981.49
701.342	30816.97
701.688	30877.76
702.033	30705.79
702.379	30847.48
702.724	30615.4
703.069	30726.81
703.415	30367.72
703.76	30279.13
704.105	30445.91
704.45	30250.43
704.795	30071.46
705.14	30062.87
705.485	30050.21
705.83	29854.06
706.175	30023.32
706.52	29838.92
706.865	29811.35
707.209	29707.17
707.554	29536.33
707.899	29559.6
708.243	29567.29
708.588	29481.41
708.932	29362.32
709.277	29359.16
709.621	29311.02
709.966	29062.67
710.31	29148.99
710.654	28987.64
710.998	28977.25
711.342	29080.52
711.687	28965.95
712.031	28747.65
712.375	28663.13
712.719	28713.75
713.063	28687.76
713.407	28735.22
713.75	28527.09
714.094	28507.65
714.438	28470.59
714.782	28448.9
715.125	28203.93
715.469	28258.85
715.812	28171.39
716.156	27927.78
716.499	28042.13
716.843	28106.31
717.186	27986.31
717.53	28169.81
717.873	28017.95
718.216	27856.37
718.559	27760.78
718.902	27582.03
719.246	27752.19
719.589	27636.94
719.932	27491.64
720.275	27421.36
720.617	27422.49
720.96	27432.43
721.303	27435.82
721.646	27441.92
721.989	27222.72
722.331	27281.7
722.674	27302.04
723.016	27295.48
723.359	27236.95
723.701	27199.89
724.044	27123.74
724.386	26940.01
724.729	27093.45
725.071	26867.47
725.413	26936.62
725.755	26831.77
726.097	26819.79
726.439	26594.48
726.782	26654.6
727.124	26839.68
727.465	26640.81
727.807	26594.71
728.149	26449.4
728.491	26522.4
728.833	26506.58
729.175	26354.72
729.516	26319.46
729.858	26341.16
730.199	26369.86
730.541	26307.26
730.882	26245.79
731.224	26196.98
731.565	26087.61
731.906	26146.36
732.248	26101.39
732.589	25974.16
732.93	25888.06
733.271	25977.33
733.612	25981.17
733.953	25946.14
734.294	25786.6
734.635	25723.77
734.976	25822.08
735.317	25542.31
735.658	25629.09
735.999	25622.98
736.339	25509.99
736.68	25696.88
737.021	25545.7
737.361	25389.32
737.702	25574.85
738.042	25613.04
738.383	25329.66
738.723	25415.31
739.063	25281.75
739.404	25444.91
739.744	25349.77
740.084	25160.62
740.424	25288.76
740.764	25103
741.104	25328.08
741.444	25163.11
741.784	25016.45
742.124	25065.49
742.464	25036.11
742.804	24993.62
743.143	24867.07
743.483	24989.55
743.823	24826.85
744.162	24845.15
744.502	24905.26
744.841	24748.88
745.181	24837.92
745.52	24630.02
745.86	24658.49
746.199	24633.63
746.538	24654.87
746.877	24552.28
747.216	24647.64
747.556	24452.85
747.895	24550.7
748.234	24427.99
748.573	24327.43
748.911	24249.91
749.25	24370.36
749.589	24197.03
749.928	24187.09
750.267	24189.12
750.605	24169.01
750.944	24030.26
751.283	23953.88
751.621	23969.47
751.96	23860.09
752.298	23990.71
752.636	23858.96
752.975	23726.99
753.313	23738.74
753.651	23704.39
753.989	23658.74
754.327	23653.77
754.666	23470.72
755.004	23609.03
755.342	23563.15
755.679	23451.74
756.017	23287.45
756.355	23357.51
756.693	23343.5
757.031	23277.96
757.368	23143.95
757.706	23095.59
758.044	23019.21
758.381	23018.76
758.719	22937.18
759.056	22950.74
759.394	22948.93
759.731	22637.53
760.068	22740.57
760.405	22628.94
760.743	22564.31
761.08	22589.39
761.417	22430.75
761.754	22460.58
762.091	22447.02
762.428	22371.09
762.765	22237.08
763.102	22273.47
763.438	22112.79
763.775	22018.11
764.112	21992.57
764.449	21957.09
764.785	21898.11
765.122	21791.9
765.458	21759.36
765.795	21750.09
766.131	21702.41
766.467	21618.34
766.804	21419.93
767.14	21234.4
767.476	21351.46
767.812	21287.28
768.148	21315.75
768.485	21171.35
768.821	21093.16
769.157	21003.22
769.492	20983.56
769.828	20913.96
770.164	20851.36
770.5	20674.41
770.836	20633.06
771.171	20560.29
771.507	20445.95
771.842	20350.58
772.178	20434.65
772.513	20323.69
772.849	20192.39
773.184	20096.58
773.519	20189.91
773.855	20100.42
774.19	19945.62
774.525	19892.74
774.86	19972.29
775.195	19846.19
775.53	19793.08
775.865	19670.82
776.2	19501.34
776.535	19335.01
776.87	19440.77
777.205	19335.01
777.539	19210.05
777.874	19310.38
778.209	19060.22
778.543	19045.98
778.878	18999.2
779.212	18907.68
779.547	18834.46
779.881	18916.04
780.215	18786.55
780.55	18763.05
780.884	18584.53
781.218	18584.75
781.552	18585.43
781.886	18353.35
782.22	18337.98
782.554	18268.6
782.888	18227.7
783.222	18114.03
783.556	17909.29
783.889	17959.68
784.223	17827.03
784.557	17810.31
784.89	17864.32
785.224	17717.43
785.557	17583.42
785.891	17578
786.224	17612.57
786.558	17473.82
786.891	17439.7
787.224	17262.07
787.557	17265.69
787.891	17183.43
788.224	17213.94
788.557	17096.88
788.89	17037.9
789.223	17060.72
789.556	16860.28
789.888	16884.68
790.221	16792.48
790.554	16689.66
790.887	16760.39
791.219	16673.16
791.552	16579.15
791.884	16458.48
792.217	16509.55
792.549	16416.67
792.882	16236.11
793.214	16141.43
793.546	16204.48
793.879	16112.05
794.211	16114.53
794.543	16145.95
794.875	16012.16
795.207	16021.43
795.539	15876.57
795.871	15914.54
796.203	15818.5
796.535	15707.76
796.867	15761.77
797.198	15586.64
797.53	15611.27
797.862	15472.52
798.193	15602.91
798.525	15465.51
798.856	15484.27
799.188	15248.12
799.519	15280.66
799.85	15173.32
800.182	15231.85
800.513	15165.18
800.844	15003.38
801.175	15149.81
801.506	15077.5
801.837	14918.86
802.168	14954.34
802.499	14856.26
802.83	14836.83
803.161	14785.3
803.491	14737.85
803.822	14718.64
804.153	14745.98
804.483	14492.88
804.814	14559.09
805.145	14524.97
805.475	14467.57
805.805	14391.87
806.136	14393
806.466	14372.66
806.796	14321.13
807.126	14212.21
807.457	14289.95
807.787	14205.21
808.117	14133.57
808.447	14050.18
808.777	14141.7
809.107	14002.05
809.436	14030.29
809.766	13919.56
810.096	13910.07
810.426	13922.05
810.755	13884.54
811.085	13800.7
811.414	13793.24
811.744	13684.77
812.073	13628.72
812.403	13645.9
812.732	13587.14
813.061	13581.27
813.39	13414.94
813.719	13478.22
814.049	13590.53
814.378	13447.03
814.707	13454.26
815.036	13367.26
815.365	13393.7
815.693	13184.22
816.022	13261.05
816.351	13189.41
816.68	13155.97
817.008	13199.13
817.337	13026.03
817.665	13027.38
817.994	13032.81
818.322	13071.9
818.651	13022.19
818.979	12946.26
819.307	12955.07
819.636	12990.1
819.964	12819.71
820.292	12961.62
820.62	12885.24
820.948	12874.39
821.276	12868.29
821.604	12832.81
821.932	12837.78
822.259	12842.76
822.587	12797.56
822.915	12726.37
823.243	12820.61
823.57	12768.63
823.898	12774.28
824.225	12813.83
824.553	12711.01
824.88	12798.24
825.207	12703.1
825.535	12715.08
825.862	12752.14
826.189	12727.28
826.516	12781.51
826.843	12788.07
827.17	12899.25
827.497	12855.18
827.824	12727.5
828.151	12718.92
828.478	12695.64
828.805	12775.86
829.131	12652.48
829.458	12635.98
829.785	12652.03
830.111	12665.36
830.438	12763.66
830.764	12656.55
831.09	12782.19
831.417	12627.17
831.743	12684.79
832.069	12740.61
832.395	12628.98
832.722	12703.55
833.048	12628.98
833.374	12616.55
833.7	12541.29
834.026	12602.08
834.351	12635.53
834.677	12564.34
835.003	12565.7
835.329	12496.55
835.654	12574.74
835.98	12455.42
836.306	12551.69
836.631	12482.09
836.956	12480.73
837.282	12467.4
837.607	12337.23
837.932	12368.64
838.258	12383.33
838.583	12314.86
838.908	12259.95
839.233	12269.21
839.558	12285.93
839.883	12226.5
840.208	12158.93
840.533	12191.7
840.858	12263.34
841.182	12237.35
841.507	12176.11
841.832	12124.58
842.156	12024.02
842.481	12112.15
842.805	12019.27
843.13	12001.2
843.454	11989.44
843.778	11960.52
844.103	11996.68
844.427	11889.33
844.751	11888.88
845.075	11919.39
845.399	11820.86
845.723	11701.32
846.047	11793.07
846.371	11669.23
846.695	11625.16
847.019	11560.98
847.343	11569.57
847.666	11494.32
847.99	11442.79
848.313	11439.63
848.637	11406.64
848.96	11304.72
849.284	11317.37
849.607	11233.53
849.931	11184.95
850.254	11136.81
850.577	11136.36
850.9	11012.3
851.223	11016.81
851.546	10925.29
851.869	10865.18
852.192	10898.4
852.515	10837.61
852.838	10746.09
853.161	10781.57
853.483	10672.64
853.806	10636.49
854.129	10696.15
854.451	10565.08
854.774	10598.52
855.096	10514.91
855.419	10537.05
855.741	10488.02
856.063	10404.63
856.385	10416.38
856.708	10323.95
857.03	10374.12
857.352	10297.51
857.674	10227.68
857.996	10240.34
858.318	10240.11
858.64	10184.29
858.961	10122.6
859.283	10075.37
859.605	10096.61
859.926	10089.16
860.248	10064.75
860.57	10011.19
860.891	9947.69
861.212	9977.75
861.534	10003.96
861.855	9879.22
862.176	9934.36
862.498	9929.39
862.819	9922.83
863.14	9836.73
863.461	9843.06
863.782	9729.17
864.103	9716.28
864.424	9711.09
864.745	9782.95
865.065	9710.18
865.386	9699.79
865.707	9663.18
866.027	9686.45
866.348	9728.94
866.668	9664.99
866.989	9623.41
867.309	9575.27
867.63	9566.01
867.95	9543.41
868.27	9536.4
868.59	9605.78
868.91	9530.53
869.23	9484.65
869.55	9506.35
869.87	9518.78
870.19	9519.91
870.51	9463.86
870.83	9458.66
871.15	9374.15
871.469	9389.29
871.789	9422.28
872.109	9333.02
872.428	9355.39
872.748	9318.33
873.067	9309.52
873.386	9350.19
873.706	9344.54
874.025	9281.04
874.344	9168.28
874.663	9226.13
874.982	9201.72
875.301	9190.87
875.62	9161.04
875.939	9104.77
876.258	9125.11
876.577	9126.24
876.896	9130.31
877.214	9059.8
877.533	9068.84
877.852	9070.65
878.17	9054.15
878.489	9081.05
878.807	9036.53
879.125	9023.65
879.444	9083.31
879.762	8984.78
880.08	8959.47
880.398	8921.28
880.716	8989.75
881.034	8917.44
881.352	8889.19
881.67	8950.88
881.988	8885.12
882.306	8837.89
882.624	8864.56
882.941	8752.24
883.259	8782.07
883.577	8753.37
883.894	8728.29
884.212	8749.53
884.529	8692.81
884.846	8624.11
885.164	8632.92
885.481	8660.72
885.798	8687.16
886.115	8583.66
886.432	8592.92
886.75	8588.63
887.067	8536.88
887.383	8580.95
887.7	8562.64
888.017	8484
888.334	8493.49
888.651	8510.21
888.967	8441.29
889.284	8386.15
889.6	8374.62
889.917	8263.89
890.233	8320.61
890.55	8350.67
890.866	8315.42
891.182	8268.41
891.498	8226.83
891.815	8213.95
892.131	8184.8
892.447	8214.18
892.763	8162.88
893.079	8159.94
893.395	8094.86
893.71	8119.26
894.026	8024.58
894.342	8034.07
894.657	8026.84
894.973	7984.58
895.289	7894.41
895.604	7909.55
895.92	7892.6
896.235	7779.16
896.55	7861.64
896.865	7799.05
897.181	7832.72
897.496	7773.06
897.811	7754.98
898.126	7691.93
898.441	7660.52
898.756	7701.87
899.071	7621.2
899.386	7620.29
899.7	7528.54
900.015	7512.27
900.33	7472.95
900.644	7489.45
900.959	7479.96
901.273	7473.63
901.588	7430.69
901.902	7413.97
902.216	7369.91
902.531	7352.96
902.845	7328.1
903.159	7284.48
903.473	7242.45
903.787	7192.73
904.101	7160.87
904.415	7222.11
904.729	7137.82
905.042	7116.58
905.356	7046.3
905.67	7066.41
905.984	7117.93
906.297	6998.39
906.611	6962.46
906.924	6947.77
907.237	6922.46
907.551	6916.36
907.864	6940.31
908.177	6880.2
908.491	6905.74
908.804	6865.06
909.117	6807.43
909.43	6746.19
909.743	6732.63
910.056	6712.75
910.368	6677.27
910.681	6659.19
910.994	6643.37
911.307	6625.07
911.619	6552.07
911.932	6564.95
912.244	6465.97
912.557	6497.16
912.869	6452.42
913.181	6375.13
913.494	6446.99
913.806	6389.82
914.118	6362.47
914.43	6318.18
914.742	6347.79
915.054	6230.27
915.366	6264.62
915.678	6238.86
915.99	6203.83
916.302	6182.14
916.613	6126.55
916.925	6138.53
917.236	6116.83
917.548	6116.38
917.859	6031.86
918.171	6038.64
918.482	5995.93
918.794	6005.65
919.105	5941.69
919.416	5919.77
919.727	5909.6
920.038	5889.27
920.349	5887.91
920.66	5815.82
920.971	5793.45
921.282	5783.05
921.593	5727.91
921.903	5705.09
922.214	5727.24
922.525	5691.76
922.835	5693.79
923.146	5616.96
923.456	5635.04
923.767	5602.04
924.077	5587.13
924.387	5575.38
924.697	5497.86
925.008	5468.03
925.318	5461.48
925.628	5483.4
925.938	5440.69
926.248	5429.39
926.558	5386
926.867	5409.28
927.177	5353.46
927.487	5341.26
927.796	5282.28
928.106	5225.33
928.416	5267.59
928.725	5251.32
929.034	5202.05
929.344	5206.35
929.653	5172.9
929.962	5124.09
930.271	5127.48
930.581	5091.09
930.89	5075.73
931.199	5039.57
931.508	5066.01
931.817	5018.1
932.125	5021.49
932.434	5025.11
932.743	4964.77
933.051	4945.11
933.36	4932.23
933.669	4903.76
933.977	4853.36
934.286	4880.93
934.594	4833.47
934.902	4827.37
935.21	4764.32
935.519	4780.82
935.827	4774.95
936.135	4692.69
936.443	4672.8
936.751	4702.18
937.059	4686.36
937.367	4685.23
937.674	4658.56
937.982	4605.46
938.29	4599.13
938.597	4549.41
938.905	4532.01
939.213	4523.2
939.52	4481.39
939.827	4519.81
940.135	4472.13
940.442	4456.08
940.749	4437.55
941.056	4428.29
941.363	4369.53
941.67	4397.1
941.977	4367.05
942.284	4343.32
942.591	4321.4
942.898	4340.15
943.205	4283.43
943.511	4256.31
943.818	4282.53
944.125	4217.22
944.431	4202.3
944.738	4185.81
945.044	4186.49
945.35	4191.01
945.657	4161.63
945.963	4147.84
946.269	4110.1
946.575	4086.38
946.881	4092.25
947.187	4029.43
947.493	4054.74
947.799	4044.79
948.105	4008.41
948.41	4040.5
948.716	3976.32
949.022	3959.37
949.327	3967.28
949.633	3890.9
949.938	3951.01
950.244	3925.48
950.549	3877.34
950.854	3839.83
951.16	3870.11
951.465	3854.07
951.77	3793.95
952.075	3753.73
952.38	3781.07
952.685	3768.42
952.99	3754.63
953.294	3795.08
953.599	3722.09
953.904	3688.42
954.209	3664.69
954.513	3716.22
954.818	3652.26
955.122	3612.49
955.426	3631.92
955.731	3601.19
956.035	3578.37
956.339	3587.86
956.643	3609.78
956.948	3549.21
957.252	3545.37
957.556	3508.76
957.86	3501.31
958.163	3500.4
958.467	3465.6
958.771	3456.11
959.075	3450.69
959.378	3445.26
959.682	3431.93
959.985	3406.62
960.289	3380.63
960.592	3383.8
960.896	3340.86
961.199	3356
961.502	3331.59
961.805	3354.87
962.108	3282.55
962.411	3277.81
962.714	3219.73
963.017	3257.24
963.32	3233.52
963.623	3188.55
963.926	3202.78
964.228	3207.53
964.531	3185.61
964.833	3172.28
965.136	3170.92
965.438	3136.8
965.741	3149
966.043	3142.22
966.345	3132.05
966.648	3063.35
966.95	3092.96
967.252	3033.97
967.554	3049.79
967.856	3039.4
968.158	3026.74
968.46	2993.97
968.761	2980.64
969.063	2979.51
969.365	2966.41
969.666	2970.92
969.968	2921.21
970.269	2909.91
970.571	2890.7
970.872	2923.69
971.174	2879.4
971.475	2917.82
971.776	2874.66
972.077	2858.84
972.378	2840.08
972.679	2847.31
972.98	2843.7
973.281	2817.48
973.582	2800.08
973.883	2770.7
974.183	2779.74
974.484	2758.27
974.785	2748.11
975.085	2741.55
975.386	2776.13
975.686	2729.35
975.986	2676.24
976.287	2742
976.587	2658.16
976.887	2698.39
977.187	2672.85
977.487	2649.8
977.787	2604.15
978.087	2588.11
978.387	2613.19
978.687	2588.79
978.987	2567.77
979.286	2561.67
979.586	2572.07
979.885	2561.9
980.185	2526.87
980.484	2511.05
980.784	2513.31
981.083	2530.03
981.382	2523.93
981.682	2496.59
981.981	2436.48
982.28	2467.21
982.579	2501.11
982.878	2459.98
983.177	2417.94
983.475	2441.22
983.774	2432.18
984.073	2412.52
984.372	2392.18
984.67	2404.39
984.969	2384.27
985.267	2357.16
985.566	2353.54
985.864	2327.78
986.162	2350.83
986.461	2332.75
986.759	2282.58
987.057	2320.09
987.355	2271.06
987.653	2288.46
987.951	2274.67
988.249	2272.64
988.547	2271.28
988.844	2230.83
989.142	2256.37
989.44	2231.96
989.737	2192.64
990.035	2181.57
990.332	2193.77
990.63	2194
990.927	2171.62
991.224	2161.23
991.521	2167.56
991.819	2173.43
992.116	2131.4
992.413	2126.65
992.71	2112.19
993.006	2096.37
993.303	2100.89
993.6	2090.04
993.897	2061.34
994.193	2099.08
994.49	2071.74
994.787	2075.81
995.083	2035.36
995.379	2012.76
995.676	2012.31
995.972	2014.11
996.268	2015.24
996.565	2000.33
996.861	1944.29
997.157	1979.76
997.453	2002.36
997.749	1954
998.044	1932.08
998.34	1920.1
998.636	1932.76
998.932	1908.13
999.227	1909.48
999.523	1923.49
999.818	1886.21
1000.114	1844.17
1000.409	1864.29
1000.704	1859.09
1001	1838.98
1001.295	1806.66
1001.59	1822.48
1001.885	1827.68
1002.18	1840.33
1002.475	1784.52
1002.77	1812.31
1003.065	1757.17
1003.359	1778.87
1003.654	1789.71
1003.949	1763.5
1004.243	1754.46
1004.538	1744.06
1004.832	1729.83
1005.127	1682.37
1005.421	1740.67
1005.715	1681.69
1006.009	1691.18
1006.304	1675.82
1006.598	1670.85
1006.892	1675.14
1007.186	1683.27
1007.48	1641.47
1007.773	1640.56
1008.067	1639.89
1008.361	1611.86
1008.655	1612.99
1008.948	1602.83
1009.242	1599.66
1009.535	1591.98
1009.829	1562.37
1010.122	1554.46
1010.415	1580.23
1010.708	1542.26
1011.001	1537.29
1011.295	1544.75
1011.588	1537.52
1011.881	1518.99
1012.173	1501.36
1012.466	1500
1012.759	1464.75
1013.052	1495.71
1013.344	1484.64
1013.637	1477.86
1013.93	1449.16
1014.222	1426.33
1014.514	1427.01
1014.807	1434.02
1015.099	1430.17
1015.391	1424.3
1015.683	1400.34
1015.976	1431.3
1016.268	1408.71
1016.56	1371.87
1016.851	1390.85
1017.143	1365.32
1017.435	1361.93
1017.727	1358.09
1018.018	1349.5
1018.31	1319.22
1018.602	1366
1018.893	1332.1
1019.185	1300.01
1019.476	1304.75
1019.767	1321.7
1020.058	1308.14
1020.35	1305.43
1020.641	1280.12
1020.932	1265.88
1021.223	1256.39
1021.514	1242.83
1021.804	1229.95
1022.095	1232.89
1022.386	1224.3
1022.677	1255.94
1022.967	1224.08
1023.258	1212.1
1023.548	1197.86
1023.839	1180.24
1024.129	1198.54
1024.419	1178.43
1024.709	1159.67
1025	1162.84
1025.29	1136.62
1025.58	1144.31
1025.87	1145.21
1026.16	1125.1
1026.449	1139.11
1026.739	1101.37
1027.029	1092.1
1027.319	1114.48
1027.608	1097.75
1027.898	1093.23
1028.187	1097.75
1028.477	1070.86
1028.766	1088.49
1029.055	1087.36
1029.344	1061.6
1029.634	1058.21
1029.923	1056.17
1030.212	1069.05
1030.501	1042.84
1030.79	1038.77
1031.078	1020.47
1031.367	1004.42
1031.656	997.42
1031.945	1000.36
1032.233	999
1032.522	996.51
1032.81	987.93
1033.099	963.29
1033.387	1002.16
1033.675	976.17
1033.963	978.66
1034.251	958.55
1034.54	911.32
1034.828	935.05
1035.116	936.85
1035.403	925.78
1035.691	942.28
1035.979	915.84
1036.267	915.84
1036.554	881.26
1036.842	899.11
1037.129	906.12
1037.417	867.25
1037.704	882.39
1037.992	883.52
1038.279	858.21
1038.566	865.67
1038.853	865.67
1039.14	865.67
