Data from hue_130_FLMS001491_00092.txt Node
Date: Tue Feb 07 16:58:20 GMT 2017
User: dcchb
Spectrometer: FLMS00149
Trigger mode: 0
Integration Time (sec): 2.000000E-2
Scans to average: 10
Electric dark correction enabled: true
Nonlinearity correction enabled: false
Boxcar width: 0
XAxis mode: Wavelengths
Number of Pixels in Spectrum: 2048
>>>>>Begin Spectral Data<<<<<
341.393	-18.67
341.776	-18.67
342.16	-18.67
342.543	-64.55
342.927	-68.39
343.31	-71.55
343.693	-63.64
344.077	-65.68
344.46	-67.48
344.843	-46.47
345.226	-51.21
345.61	-27.03
345.993	-26.13
346.376	12.97
346.759	19.52
347.142	15.68
347.525	27.43
347.908	62.23
348.291	80.31
348.674	80.76
349.057	120.31
349.44	120.31
349.823	163.7
350.206	157.37
350.588	211.15
350.971	219.29
351.354	237.14
351.737	238.04
352.119	223.58
352.502	222.68
352.884	269.23
353.267	281.89
353.65	279.63
354.032	297.03
354.414	332.96
354.797	311.71
355.179	337.93
355.562	329.57
355.944	329.34
356.326	304.71
356.709	327.08
357.091	349.68
357.473	345.39
357.855	342.67
358.238	331.83
358.62	356.91
359.002	322.56
359.384	353.75
359.766	343.58
360.148	349.45
360.53	330.47
360.912	333.41
361.294	325.27
361.676	328.44
362.057	324.82
362.439	318.27
362.821	323.47
363.203	321.21
363.584	316.46
363.966	317.82
364.348	318.04
364.729	330.47
365.111	320.53
365.493	316.69
365.874	317.59
366.256	311.94
366.637	312.39
367.019	301.55
367.4	294.77
367.781	304.26
368.163	308.78
368.544	336.35
368.925	325.05
369.306	311.94
369.688	313.3
370.069	309.23
370.45	313.07
370.831	307.42
371.212	316.69
371.593	280.98
371.974	297.25
372.355	287.53
372.736	317.59
373.117	321.66
373.498	318.95
373.879	328.89
374.26	313.75
374.641	306.74
375.021	314.2
375.402	323.24
375.783	326.18
376.163	324.37
376.544	320.3
376.925	310.36
377.305	326.63
377.686	321.21
378.066	319.4
378.447	333.41
378.827	331.38
379.208	332.96
379.588	331.38
379.968	310.81
380.349	316.91
380.729	327.76
381.109	337.48
381.489	342
381.87	325.05
382.25	317.59
382.63	327.76
383.01	329.79
383.39	314.65
383.77	351.94
384.15	334.77
384.53	328.21
384.91	323.69
385.29	350.13
385.67	360.08
386.049	349.23
386.429	334.31
386.809	358.72
387.189	353.07
387.568	344.26
387.948	354.43
388.328	356.23
388.707	363.01
389.087	350.13
389.466	360.98
389.846	348.1
390.225	368.21
390.605	344.26
390.984	349.45
391.363	358.95
391.743	370.24
392.122	338.61
392.501	372.28
392.881	376.8
393.26	391.03
393.639	376.35
394.018	367.98
394.397	378.38
394.776	373.63
395.155	391.26
395.534	387.87
395.913	369.11
396.292	382.9
396.671	384.93
397.05	371.15
397.429	370.7
397.808	372.5
398.186	368.21
398.565	379.06
398.944	392.62
399.323	401.2
399.701	379.28
400.08	366.63
400.458	384.93
400.837	424.03
401.215	398.27
401.594	388.1
401.972	394.88
402.351	402.33
402.729	412.96
403.107	403.46
403.486	404.59
403.864	378.61
404.242	397.14
404.62	419.06
404.999	425.38
405.377	428.1
405.755	407.53
406.133	417.7
406.511	416.34
406.889	419.51
407.267	428.55
407.645	410.7
408.023	450.24
408.401	452.05
408.779	432.39
409.156	435.55
409.534	425.61
409.912	427.42
410.29	443.46
410.667	424.71
411.045	410.7
411.422	445.95
411.8	461.32
412.178	456.8
412.555	477.13
412.933	450.92
413.31	440.3
413.687	480.52
414.065	483.24
414.442	454.54
414.819	464.03
415.197	484.14
415.574	452.28
415.951	476.46
416.328	478.94
416.705	476.68
417.082	490.69
417.46	476
417.837	487.76
418.214	496.12
418.591	502.22
418.967	507.42
419.344	486.63
419.721	480.98
420.098	516.91
420.475	512.84
420.852	504.7
421.228	496.12
421.605	520.3
421.982	516.23
422.358	554.65
422.735	532.5
423.111	526.17
423.488	546.74
423.864	529.11
424.241	567.75
424.617	530.24
424.994	539.05
425.37	538.83
425.746	541.99
426.123	532.05
426.499	570.69
426.875	554.42
427.251	566.85
427.627	560.75
428.003	551.71
428.379	568.88
428.756	589.67
429.132	586.28
429.507	605.94
429.883	603.01
430.259	598.04
430.635	585.38
431.011	605.04
431.387	630.35
431.763	608.88
432.138	628.77
432.514	609.56
432.89	640.52
433.265	614.08
433.641	633.06
434.016	639.84
434.392	641.42
434.767	661.31
435.143	692.95
435.518	655.66
435.894	646.17
436.269	675.1
436.644	695.21
437.02	695.43
437.395	673.06
437.77	694.08
438.145	703.8
438.52	712.61
438.895	707.41
439.271	721.87
439.646	720.52
440.021	747.86
440.395	715.09
440.77	722.55
441.145	753.74
441.52	777.92
441.895	745.6
442.27	758.03
442.645	751.25
443.019	751.25
443.394	764.81
443.769	771.14
444.143	759.84
444.518	782.89
444.892	774.3
445.267	770.91
445.641	781.08
446.016	800.06
446.39	788.31
446.764	773.4
447.139	827.63
447.513	824.24
447.887	791.48
448.262	798.71
448.636	839.16
449.01	838.48
449.384	829.67
449.758	838.71
450.132	857.69
450.506	875.99
450.88	875.32
451.254	848.42
451.628	886.16
452.002	879.38
452.376	899.27
452.75	889.33
453.123	897.46
453.497	928.87
453.871	924.58
454.244	929.55
454.618	935.2
454.992	940.85
455.365	941.75
455.739	967.29
456.112	974.3
456.486	973.39
456.859	996.89
457.232	1013.62
457.606	978.14
457.979	1046.16
458.352	1046.38
458.725	1060.85
459.099	1087.74
459.472	1082.54
459.845	1082.54
460.218	1090.9
460.591	1103.33
460.964	1108.98
461.337	1145.14
461.71	1140.85
462.083	1167.74
462.456	1170.9
462.829	1181.3
463.201	1222.43
463.574	1209.32
463.947	1223.78
464.32	1254.97
464.692	1261.29
465.065	1277.79
465.438	1302.88
465.81	1296.77
466.183	1320.95
466.555	1354.17
466.928	1373.38
467.3	1370.22
467.672	1416.77
468.045	1457
468.417	1414.06
468.789	1460.16
469.161	1460.39
469.534	1497.67
469.906	1552.81
470.278	1582.19
470.65	1579.93
471.022	1636.65
471.394	1645.01
471.766	1679.36
472.138	1720.49
472.51	1753.03
472.882	1804.56
473.253	1800.26
473.625	1842.07
473.997	1875.29
474.369	1944.44
474.74	1974.72
475.112	2007.72
475.484	2064.89
475.855	2111.22
476.227	2126.81
476.598	2179.69
476.97	2257.43
477.341	2312.34
477.713	2366.35
478.084	2425.11
478.455	2512.11
478.827	2562.96
479.198	2640.92
479.569	2652.44
479.94	2794.81
480.311	2849.73
480.682	2913.68
481.053	3037.97
481.424	3099.66
481.795	3168.59
482.166	3258.76
482.537	3346.21
482.908	3424.18
483.279	3505.3
483.65	3579.65
484.021	3750.27
484.391	3858.06
484.762	3915.24
485.133	3999.53
485.503	4107.55
485.874	4254.21
486.244	4339.63
486.615	4453.98
486.985	4521.77
487.356	4697.36
487.726	4815.78
488.097	4958.82
488.467	5037.01
488.837	5229.1
489.207	5290.57
489.578	5451.92
489.948	5548.19
490.318	5683.1
490.688	5766.26
491.058	5903.21
491.428	6036.54
491.798	6236.3
492.168	6370.09
492.538	6483.08
492.908	6639.01
493.278	6662.51
493.648	6836.74
494.017	6977.3
494.387	7086.9
494.757	7232.89
495.126	7329.84
495.496	7460.23
495.866	7529.38
496.235	7742.48
496.605	7886.43
496.974	7903.15
497.344	8094.11
497.713	8215.24
498.082	8249.59
498.452	8445.96
498.821	8487.55
499.19	8618.62
499.559	8747.65
499.928	8884.14
500.298	8963.24
500.667	9035.55
501.036	9125.95
501.405	9189.67
501.774	9219.73
502.143	9373.85
502.512	9417.46
502.88	9534.3
503.249	9630.34
503.618	9729.32
503.987	9802.99
504.356	9969.77
504.724	9983.78
505.093	10057.45
505.462	10139.71
505.83	10212.25
506.199	10276.88
506.567	10418.34
506.936	10487.49
507.304	10491.56
507.672	10592.35
508.041	10664.21
508.409	10779.46
508.777	10889.06
509.145	10967.71
509.514	10937.88
509.882	10978.33
510.25	11047.48
510.618	11133.58
510.986	11165.67
511.354	11285.21
511.722	11302.16
512.09	11428.03
512.458	11423.74
512.826	11466.68
513.193	11522.72
513.561	11517.3
513.929	11586.67
514.297	11720.91
514.664	11804.07
515.032	11745.09
515.4	11876.16
515.767	11817.85
516.135	11878.87
516.502	11762.71
516.869	12023.27
517.237	12014.68
517.604	11986.21
517.972	12076.6
518.339	12072.54
518.706	12105.76
519.073	12093.33
519.44	12131.52
519.808	12188.92
520.175	12167.45
520.542	12286.77
520.909	12416.71
521.276	12362.7
521.643	12384.17
522.009	12472.98
522.376	12478.85
522.743	12583.71
523.11	12604.05
523.477	12547.1
523.843	12617.61
524.21	12679.3
524.577	12809.92
524.943	12754.55
525.31	12740.54
525.676	12811.05
526.043	12898.05
526.409	12869.58
526.776	12871.16
527.142	12882.68
527.508	12971.5
527.874	12945.06
528.241	12992.96
528.607	12919.97
528.973	13008.33
529.339	12991.16
529.705	12993.19
530.071	13066.41
530.437	13012.4
530.803	13045.17
531.169	13036.8
531.535	13056.24
531.901	13093.75
532.267	13012.62
532.632	12946.64
532.998	13059.85
533.364	13080.42
533.73	12948.44
534.095	13041.1
534.461	12994.55
534.826	13030.93
535.192	12968.11
535.557	13018.5
535.923	12900.08
536.288	12945.96
536.653	12905.28
537.019	12782.35
537.384	12875.9
537.749	12883.14
538.114	12840.88
538.479	12785.06
538.845	12800.43
539.21	12737.83
539.575	12658.96
539.94	12672.29
540.305	12676.36
540.67	12609.47
541.034	12644.05
541.399	12598.4
541.764	12545.07
542.129	12499.64
542.494	12587.55
542.858	12509.59
543.223	12524.5
543.587	12444.73
543.952	12359.08
544.316	12386.43
544.681	12308.91
545.045	12331.51
545.41	12307.33
545.774	12270.72
546.138	12197.28
546.503	12163.61
546.867	12152.76
547.231	12230.05
547.595	12093.55
547.959	12061.24
548.324	12026.66
548.688	12062.14
549.052	11986.66
549.416	11968.13
549.779	11984.4
550.143	11832.99
550.507	11967.91
550.871	11872.77
551.235	11775.37
551.599	11843.62
551.962	11836.38
552.326	11794.58
552.689	11861.92
553.053	11717.97
553.417	11693.11
553.78	11786.44
554.143	11724.3
554.507	11684.52
554.87	11724.3
555.234	11693.34
555.597	11573.79
555.96	11622.38
556.323	11553.91
556.686	11585.77
557.05	11583.28
557.413	11508.93
557.776	11549.84
558.139	11544.87
558.502	11538.31
558.865	11537.18
559.228	11557.75
559.59	11441.82
559.953	11542.83
560.316	11597.52
560.679	11581.25
561.041	11595.94
561.404	11558.2
561.767	11591.42
562.129	11500.57
562.492	11525.43
562.854	11508.93
563.217	11559.55
563.579	11560.23
563.941	11590.74
564.304	11593.45
564.666	11580.8
565.028	11603.4
565.39	11639.55
565.753	11639.55
566.115	11611.3
566.477	11644.3
566.839	11729.27
567.201	11736.27
567.563	11656.28
567.925	11690.17
568.287	11746.44
568.648	11770.17
569.01	11702.83
569.372	11774.01
569.734	11719.55
570.095	11744.18
570.457	11782.37
570.819	11766.56
571.18	11714.58
571.542	11812.43
571.903	11742.83
572.265	11801.58
572.626	11776.5
572.987	11759.55
573.349	11755.48
573.71	11856.72
574.071	11887.23
574.432	11848.81
574.794	11982.59
575.155	11940.56
575.516	11771.53
575.877	11893.11
576.238	11899.88
576.599	11923.61
576.96	11955.25
577.32	11858.53
577.681	11882.03
578.042	11959.09
578.403	11893.56
578.763	11918.19
579.124	11931.07
579.485	11920.22
579.845	11973.56
580.206	11981.24
580.566	12002.03
580.927	11949.38
581.287	11911.86
581.648	11971.3
582.008	11978.53
582.368	11980.33
582.728	11919.32
583.089	11893.78
583.449	11917.29
583.809	11880.68
584.169	11929.04
584.529	11844.75
584.889	11892.2
585.249	11801.81
585.609	11852.2
585.969	11818.53
586.329	11804.97
586.688	11800.23
587.048	11814.69
587.408	11783.5
587.768	11815.37
588.127	11756.39
588.487	11738.76
588.846	11852.43
589.206	11793.22
589.565	11718.42
589.925	11802.26
590.284	11691.98
590.643	11742.83
591.003	11792.32
591.362	11719.55
591.721	11820.34
592.08	11658.31
592.44	11663.96
592.799	11722.71
593.158	11662.15
593.517	11697.86
593.876	11788.93
594.235	11578.76
594.593	11639.78
594.952	11626.45
595.311	11555.04
595.67	11638.2
596.029	11713.9
596.387	11690.85
596.746	11708.03
597.104	11667.12
597.463	11626.67
597.822	11695.37
598.18	11607.69
598.538	11664.64
598.897	11713.45
599.255	11578.76
599.613	11638.65
599.972	11695.14
600.33	11681.36
600.688	11544.41
601.046	11641.81
601.404	11710.74
601.762	11652.21
602.12	11757.97
602.478	11729.49
602.836	11623.28
603.194	11705.99
603.552	11649.5
603.91	11613.79
604.268	11653.11
604.625	11637.74
604.983	11617.86
605.341	11566.11
605.698	11708.48
606.056	11684.3
606.413	11618.99
606.771	11627.12
607.128	11700.34
607.485	11564.98
607.843	11630.97
608.2	11742.83
608.557	11705.54
608.914	11662.38
609.272	11667.35
609.629	11727.23
609.986	11809.27
610.343	11759.78
610.7	11788.48
611.057	11734.69
611.414	11748.7
611.771	11767.68
612.127	11765.43
612.484	11736.95
612.841	11797.97
613.198	11761.13
613.554	11784.63
613.911	11790.28
614.267	11868.47
614.624	11825.08
614.98	11820.79
615.337	11900.34
615.693	11856.95
616.05	11845.87
616.406	11964.29
616.762	11855.14
617.118	11858.08
617.475	11899.66
617.831	11911.41
618.187	11884.97
618.543	11904.86
618.899	11993.67
619.255	12018.3
619.611	11936.27
619.967	11948.02
620.323	11978.75
620.678	11975.59
621.034	11852.88
621.39	11876.83
621.746	11927.23
622.101	12074.34
622.457	11964.52
622.812	12032.76
623.168	12055.81
623.523	11997.96
623.879	11961.8
624.234	11914.8
624.589	11950.28
624.945	12068.69
625.3	11968.81
625.655	11922.03
626.01	11939.21
626.365	12021.01
626.72	12015.81
627.075	11977.85
627.43	11998.87
627.785	11871.64
628.14	11944.63
628.495	11858.08
628.85	11977.62
629.205	11902.6
629.559	11829.15
629.914	11915.48
630.269	11918.64
630.623	11944.18
630.978	11823.73
631.332	11943.5
631.687	11881.58
632.041	11849.94
632.396	11804.52
632.75	11834.8
633.104	11837.06
633.459	11746.67
633.813	11708.7
634.167	11734.47
634.521	11765.65
634.875	11746.67
635.229	11722.94
635.583	11677.29
635.937	11688.82
636.291	11780.57
636.645	11659.89
636.999	11659.67
637.352	11679.55
637.706	11633.23
638.06	11664.86
638.413	11594.36
638.767	11556.17
639.121	11681.81
639.474	11499.9
639.828	11485.21
640.181	11550.52
640.534	11495.83
640.888	11520.69
641.241	11535.83
641.594	11536.28
641.947	11589.16
642.301	11515.04
642.654	11532.66
643.007	11518.88
643.36	11483.17
643.713	11480.69
644.066	11495.83
644.419	11388.71
644.771	11349.39
645.124	11201.15
645.477	11278.66
645.83	11182.62
646.182	11155.95
646.535	11123.41
646.888	11147.36
647.24	11165.21
647.593	11269.17
647.945	11100.81
648.298	11083.86
648.65	11036.63
649.002	10977.88
649.355	11080.47
649.707	11022.62
650.059	11132.22
650.411	11235.27
650.763	11237.3
651.115	11404.53
651.467	11258.77
651.819	11392.1
652.171	11319.34
652.523	11393.23
652.875	11306.68
653.227	11299.67
653.578	11313.46
653.93	11398.43
654.282	11320.47
654.633	11307.13
654.985	11251.31
655.337	11239.56
655.688	11221.26
656.039	11263.29
656.391	11331.31
656.742	11263.29
657.094	11343.97
657.445	11337.41
657.796	11308.71
658.147	11310.97
658.498	11333.35
658.849	11357.07
659.2	11364.98
659.551	11322.72
659.902	11350.29
660.253	11366.11
660.604	11378.09
660.955	11296.51
661.306	11356.17
661.656	11281.82
662.007	11402.04
662.358	11312.56
662.708	11363.85
663.059	11369.05
663.409	11263.74
663.76	11364.76
664.11	11364.53
664.461	11367.7
664.811	11365.66
665.161	11403.17
665.511	11313.69
665.862	11364.53
666.212	11408.82
666.562	11393.46
666.912	11369.28
667.262	11386.9
667.612	11411.99
667.962	11393.68
668.312	11351.2
668.662	11366.79
669.011	11354.59
669.361	11324.31
669.711	11403.63
670.06	11367.02
670.41	11315.49
670.76	11266
671.109	11364.53
671.459	11305.78
671.808	11328.83
672.157	11318.43
672.507	11230.3
672.856	11265.78
673.205	11312.78
673.554	11320.01
673.904	11296.06
674.253	11371.09
674.602	11269.39
674.951	11078.66
675.3	11101.49
675.649	11277.75
675.998	11234.37
676.346	11210.86
676.695	11231.43
677.044	11108.95
677.393	11220.58
677.741	11188.04
678.09	11121.6
678.438	11169.06
678.787	11175.84
679.135	11162.73
679.484	11058.55
679.832	11119.11
680.181	11040.02
680.529	11019.91
680.877	11063.75
681.225	10957.54
681.573	11058.1
681.922	10997.99
682.27	10917.99
682.618	10914.37
682.966	10937.2
683.314	10957.99
683.661	10892.91
684.009	10862.4
684.357	10874.38
684.705	10796.19
685.053	10848.61
685.4	10796.86
685.748	10724.1
686.095	10739.92
686.443	10679.8
686.79	10703.76
687.138	10730.2
687.485	10704.44
687.832	10655.17
688.18	10710.76
688.527	10589.64
688.874	10597.32
689.221	10553.93
689.568	10509.64
689.915	10518.68
690.262	10445.23
690.609	10418.79
690.956	10393.03
691.303	10332.47
691.65	10281.85
691.997	10353.48
692.344	10326.82
692.69	10229.42
693.037	10240.72
693.383	10141.74
693.73	10126.37
694.077	10064.23
694.423	10017.22
694.769	10039.14
695.116	9988.97
695.462	10001.18
695.808	9961.18
696.155	9970.22
696.501	9883.44
696.847	9897
697.193	9819.71
697.539	9822.88
697.885	9776.55
698.231	9705.82
698.577	9703.11
698.923	9679.38
699.269	9585.6
699.614	9624.69
699.96	9557.8
700.306	9496.11
700.651	9494.98
700.997	9466.95
701.342	9443.68
701.688	9386.5
702.033	9354.87
702.379	9380.86
702.724	9313.74
703.069	9352.61
703.415	9221.09
703.76	9221.99
704.105	9182.67
704.45	9185.15
704.795	9127.75
705.14	9092.05
705.485	9135.21
705.83	9046.85
706.175	8963.69
706.52	9057.25
706.865	8961.43
707.209	8926.86
707.554	8913.07
707.899	8868.78
708.243	8797.37
708.588	8796.46
708.932	8721.44
709.277	8684.83
709.621	8749.91
709.966	8713.3
710.31	8735.9
710.654	8645.96
710.998	8682.34
711.342	8661.33
711.687	8656.35
712.031	8544.49
712.375	8498.84
712.719	8610.93
713.063	8585.17
713.407	8565.96
713.75	8552.85
714.094	8476.25
714.438	8480.99
714.782	8400.77
715.125	8410.94
715.469	8432.18
715.812	8405.74
716.156	8371.62
716.499	8400.54
716.843	8393.76
717.186	8294.78
717.53	8433.54
717.873	8339.53
718.216	8315.12
718.559	8343.82
718.902	8210.72
719.246	8218.85
719.589	8229.7
719.932	8246.2
720.275	8218.63
720.617	8256.36
720.96	8204.61
721.303	8166.2
721.646	8199.87
721.989	8198.06
722.331	8196.48
722.674	8195.58
723.016	8178.63
723.359	8085.97
723.701	8185.41
724.044	8086.88
724.386	8111.96
724.729	8137.95
725.071	8088.69
725.413	8096.82
725.755	8121.23
726.097	8016.15
726.439	7992.42
726.782	8008.69
727.124	8078.06
727.465	8069.03
727.807	8022.02
728.149	8036.71
728.491	7959.88
728.833	8031.74
729.175	7986.99
729.516	8033.77
729.858	8023.6
730.199	7942.93
730.541	7985.19
730.882	8002.59
731.224	8017.05
731.565	7928.69
731.906	7989.93
732.248	8015.02
732.589	7988.8
732.93	7987.67
733.271	7987.45
733.612	8029.25
733.953	8029.48
734.294	7955.81
734.635	7938.63
734.976	7990.38
735.317	7992.64
735.658	7957.39
735.999	7948.35
736.339	7909.48
736.68	8039.87
737.021	8029.7
737.361	7970.27
737.702	8033.32
738.042	8000.33
738.383	7971.4
738.723	8016.37
739.063	8010.5
739.404	8003.72
739.744	8047.33
740.084	8058.86
740.424	8044.39
740.764	8106.76
741.104	8133.66
741.444	8045.52
741.784	8033.09
742.124	8109.25
742.464	8142.24
742.804	8107.89
743.143	8120.55
743.483	8140.66
743.823	8183.6
744.162	8170.72
744.502	8302.01
744.841	8177.95
745.181	8330.26
745.52	8346.76
745.86	8365.51
746.199	8454.1
746.538	8416.59
746.877	8508.79
747.216	8542.68
747.556	8601.67
747.895	8625.17
748.234	8626.75
748.573	8668.33
748.911	8699.52
749.25	8780.64
749.589	8856.12
749.928	8944.26
750.267	8987.42
750.605	9014.76
750.944	9068.32
751.283	9201.65
751.621	9244.36
751.96	9320.29
752.298	9416.79
752.636	9503.34
752.975	9540.4
753.313	9645.25
753.651	9789.88
753.989	9908.07
754.327	9985.58
754.666	10005.92
755.004	10221.74
755.342	10307.16
755.679	10415.4
756.017	10603.2
756.355	10640.71
756.693	10750.54
757.031	10926.35
757.368	11068.27
757.706	11233.24
758.044	11318.88
758.381	11494.92
758.719	11610.4
759.056	11827.8
759.394	11965.42
759.731	12026.66
760.068	12224.17
760.405	12407.67
760.743	12545.29
761.08	12712.74
761.417	12780.77
761.754	13007.88
762.091	13180.53
762.428	13284.48
762.765	13371.48
763.102	13602.66
763.438	13734.64
763.775	13801.98
764.112	14019.15
764.449	14160.84
764.785	14330.33
765.122	14436.99
765.458	14630.21
765.795	14729.41
766.131	14899.58
766.467	14999.24
766.804	15119.01
767.14	15236.07
767.476	15414.14
767.812	15525.1
768.148	15617.3
768.485	15702.04
768.821	15800.8
769.157	15892.55
769.492	16096.16
769.828	16252.31
770.164	16205.76
770.5	16330.73
770.836	16476.26
771.171	16539.76
771.507	16631.51
771.842	16631.29
772.178	16823.82
772.513	16884.16
772.849	16937.49
773.184	16974.78
773.519	17195.56
773.855	17147.66
774.19	17146.98
774.525	17214.1
774.86	17361.21
775.195	17467.65
775.53	17466.29
775.865	17457.93
776.2	17401.44
776.535	17396.92
776.87	17488.21
777.205	17519.85
777.539	17613.86
777.874	17724.59
778.209	17584.26
778.543	17628.77
778.878	17641.2
779.212	17706.96
779.547	17616.8
779.881	17800.52
780.215	17666.51
780.55	17792.39
780.884	17765.72
781.218	17688.43
781.552	17792.84
781.886	17815.89
782.22	17795.78
782.554	17751.48
782.888	17639.17
783.222	17667.19
783.556	17576.57
783.889	17605.05
784.223	17494.99
784.557	17621.54
784.89	17689.79
785.224	17516.69
785.557	17577.02
785.891	17536.12
786.224	17571.15
786.558	17652.05
786.891	17415.22
787.224	17385.84
787.557	17453.19
787.891	17520.08
788.224	17465.16
788.557	17366.41
788.89	17408.21
789.223	17417.25
789.556	17292.74
789.888	17236.69
790.221	17296.58
790.554	17113.76
790.887	17142.46
791.219	17100.65
791.552	17151.5
791.884	17121.44
792.217	17011.61
792.549	17050.26
792.882	16950.6
793.214	16855.01
793.546	16841.68
793.879	16862.69
794.211	16815.01
794.543	16831.96
794.875	16724.39
795.207	16834.67
795.539	16795.58
795.871	16846.87
796.203	16682.13
796.535	16613.21
796.867	16637.16
797.198	16554.23
797.53	16606.88
797.862	16463.15
798.193	16484.17
798.525	16393.33
798.856	16382.48
799.188	16275.81
799.519	16183.39
799.85	16111.98
800.182	16206.44
800.513	16181.81
800.844	16038.53
801.175	16087.8
801.506	16168.7
801.837	16017.74
802.168	16013
802.499	15882.15
802.83	15797.18
803.161	15827.24
803.491	15808.03
803.822	15867.69
804.153	15667.24
804.483	15599.9
804.814	15664.08
805.145	15540.69
805.475	15602.61
805.805	15518.77
806.136	15512.9
806.466	15528.04
806.796	15441.94
807.126	15334.37
807.457	15362.39
807.787	15383.18
808.117	15316.74
808.447	15298.67
808.777	15297.54
809.107	15231.55
809.436	15199.23
809.766	15110.42
810.096	15114.49
810.426	15069.75
810.755	15079.24
811.085	14974.83
811.414	14927.38
811.744	14910.43
812.073	14868.85
812.403	14918.79
812.732	14776.42
813.061	14759.92
813.39	14782.97
813.719	14717.66
814.049	14670.66
814.378	14709.08
814.707	14716.99
815.036	14655.29
815.365	14621.4
815.693	14451.46
816.022	14584.11
816.351	14517.22
816.68	14480.38
817.008	14364.68
817.337	14322.65
817.665	14240.61
817.994	14339.37
818.322	14371.01
818.651	14312.7
818.979	14204.01
819.307	14322.87
819.636	14229.99
819.964	14120.39
820.292	14235.42
820.62	14239.26
820.948	14126.94
821.276	14194.06
821.604	14217.11
821.932	14127.17
822.259	14199.71
822.587	14188.41
822.915	14162.42
823.243	14195.87
823.57	14107.74
823.898	14061.86
824.225	14152.03
824.553	14057.57
824.88	14171.01
825.207	14204.68
825.535	14082.2
825.862	14171.01
826.189	14126.72
826.516	14212.59
826.843	14250.33
827.17	14129.2
827.497	14208.07
827.824	14247.85
828.151	14185.93
828.478	14119.49
828.805	14223.21
829.131	14124.01
829.458	14198.58
829.785	14143.44
830.111	14145.02
830.438	14206.26
830.764	14192.25
831.09	14284.45
831.417	14140.96
831.743	14192.48
832.069	14206.26
832.395	14081.97
832.722	14187.73
833.048	14156.77
833.374	14158.81
833.7	13998.81
834.026	14067.51
834.351	14053.95
834.677	14037.46
835.003	14097.79
835.329	14040.85
835.654	14011.69
835.98	13905.26
836.306	13897.8
836.631	13956.55
836.956	14055.31
837.282	13934.63
837.607	13880.17
837.932	13840.4
838.258	13878.59
838.583	13803.56
838.908	13839.27
839.233	13862.55
839.558	13736.67
839.883	13755.2
840.208	13720.85
840.533	13666.39
840.858	13672.72
841.182	13725.83
841.507	13607.18
841.832	13592.04
842.156	13481.09
842.481	13528.09
842.805	13564.7
843.13	13507.3
843.454	13443.35
843.778	13399.28
844.103	13367.64
844.427	13414.42
844.751	13354.99
845.075	13303.24
845.399	13312.5
845.723	13190.7
846.047	13230.92
846.371	13103.47
846.695	13108.21
847.019	12987.54
847.343	12950.7
847.666	12843.14
847.99	12890.59
848.313	12869.58
848.637	12718.62
848.96	12712.07
849.284	12702.58
849.607	12637.72
849.931	12524.95
850.254	12506.65
850.577	12470.27
850.9	12414.9
851.223	12348.91
851.546	12344.39
851.869	12161.8
852.192	12286.77
852.515	12198.63
852.838	12148.47
853.161	11996.83
853.483	12094.68
853.806	12042.25
854.129	11945.08
854.451	11918.19
854.774	11831.19
855.096	11835.71
855.419	11790.96
855.741	11703.73
856.063	11746.44
856.385	11649.95
856.708	11684.52
857.03	11653.79
857.352	11610.17
857.674	11596.62
857.996	11506.67
858.318	11440.01
858.64	11448.37
858.961	11422.84
859.283	11350.29
859.605	11356.17
859.926	11392.78
860.248	11310.97
860.57	11170.64
860.891	11251.54
861.212	11213.8
861.534	11108.49
861.855	11145.78
862.176	11120.47
862.498	11125.22
862.819	11113.69
863.14	11031.66
863.461	11096.06
863.782	11023.98
864.103	11021.94
864.424	10930.64
864.745	11031.66
865.065	10959.34
865.386	10886.13
865.707	10857.88
866.027	10882.51
866.348	10884.77
866.668	10805
866.989	10852.23
867.309	10762.51
867.63	10905.11
867.95	10829.63
868.27	10724.1
868.59	10731.55
868.91	10748.05
869.23	10714.38
869.55	10642.29
869.87	10711.89
870.19	10695.85
870.51	10645.68
870.83	10662.86
871.15	10595.51
871.469	10588.51
871.789	10638.68
872.109	10588.73
872.428	10514.61
872.748	10553.03
873.067	10553.25
873.386	10500.37
873.706	10496.76
874.025	10413.14
874.344	10341.96
874.663	10409.3
874.982	10422.64
875.301	10391.9
875.62	10333.6
875.939	10375.41
876.258	10340.6
876.577	10262.41
876.896	10299.7
877.214	10266.71
877.533	10289.08
877.852	10247.05
878.17	10238.69
878.489	10265.13
878.807	10230.32
879.125	10219.7
879.444	10229.42
879.762	10084.79
880.08	10147.61
880.398	10053.61
880.716	10120.04
881.034	10116.65
881.352	10061.74
881.67	10053.15
881.988	10094.51
882.306	9962.76
882.624	10000.73
882.941	9945.13
883.259	9885.47
883.577	9859.71
883.894	9847.51
884.212	9833.05
884.529	9885.25
884.846	9788.3
885.164	9779.04
885.481	9811.58
885.798	9698.13
886.115	9726.16
886.432	9730.22
886.75	9676.89
887.067	9700.17
887.383	9638.02
887.7	9628.08
888.017	9604.8
888.334	9597.35
888.651	9528.2
888.967	9572.49
889.284	9431.48
889.6	9481.19
889.917	9428.09
890.233	9444.13
890.55	9364.13
890.866	9354.19
891.182	9346.05
891.498	9299.73
891.815	9247.53
892.131	9189
892.447	9232.61
892.763	9196.23
893.079	9096.57
893.395	9100.18
893.71	9158.49
894.026	9079.62
894.342	9036.46
894.657	8939.28
894.973	8922.56
895.289	8952.84
895.604	8901.77
895.92	8830.14
896.235	8815.9
896.55	8849.8
896.865	8808.44
897.181	8755.79
897.496	8793.75
897.811	8693.19
898.126	8699.74
898.441	8651.61
898.756	8597.15
899.071	8616.36
899.386	8557.15
899.7	8511.05
900.015	8477.6
900.33	8418.17
900.644	8398.51
900.959	8431.05
901.273	8372.97
901.588	8266.76
901.902	8312.18
902.216	8236.48
902.531	8283.93
902.845	8271.05
903.159	8151.51
903.473	8142.92
903.787	8115.35
904.101	8092.75
904.415	8072.41
904.729	7996.48
905.042	7982.93
905.356	7996.26
905.67	7977.28
905.984	8035.58
906.297	7946.32
906.611	7843.04
906.924	7856.83
907.237	7809.6
907.551	7803.04
907.864	7758.75
908.177	7704.97
908.491	7673.1
908.804	7635.82
909.117	7585.2
909.43	7558.98
909.743	7502.03
910.056	7441.47
910.368	7484.41
910.681	7450.28
910.994	7401.25
911.307	7411.19
911.619	7334.36
911.932	7387.24
912.244	7347.69
912.557	7283.51
912.869	7253.23
913.181	7195.38
913.494	7203.29
913.806	7104.08
914.118	7192.66
914.43	7084.19
914.742	7074.02
915.054	7073.8
915.366	7011.88
915.678	6914.93
915.99	6953.35
916.302	6907.02
916.613	6863.41
916.925	6883.29
917.236	6844.88
917.548	6808.04
917.859	6828.15
918.171	6747.7
918.482	6692.79
918.794	6642.4
919.105	6609.63
919.416	6585.22
919.727	6609.18
920.038	6635.62
920.349	6551.32
920.66	6512.68
920.971	6500.03
921.282	6503.42
921.593	6486.24
921.903	6388.84
922.214	6362.18
922.525	6430.88
922.835	6390.88
923.146	6338.22
923.456	6306.13
923.767	6222.52
924.077	6229.53
924.387	6229.53
924.697	6213.03
925.008	6152.47
925.318	6161.96
925.628	6131.67
925.938	6141.39
926.248	6075.18
926.558	6061.39
926.867	6020.27
927.177	5992.47
927.487	6008.97
927.796	5917.44
928.106	5916.99
928.416	5891
928.725	5867.73
929.034	5831.8
929.344	5844
929.653	5833.6
929.962	5754.74
930.271	5734.85
930.581	5749.54
930.89	5735.08
931.199	5667.28
931.508	5652.59
931.817	5677.68
932.125	5609.43
932.434	5606.04
932.743	5575.98
933.051	5562.2
933.36	5533.95
933.669	5476.32
933.977	5416.21
934.286	5456.44
934.594	5455.31
934.902	5450.11
935.21	5341.19
935.519	5409.43
935.827	5391.13
936.135	5277.91
936.443	5293.5
936.751	5275.88
937.059	5297.12
937.367	5250.79
937.674	5210.8
937.982	5227.07
938.29	5219.38
938.597	5201.08
938.905	5119.27
939.213	5070.01
939.52	5079.5
939.827	5026.39
940.135	5055.77
940.442	5029.11
940.749	5004.47
941.056	5033.62
941.363	4972.16
941.67	4952.5
941.977	4911.82
942.284	4885.83
942.591	4858.71
942.898	4865.27
943.205	4855.55
943.511	4795.21
943.818	4782.33
944.125	4763.35
944.431	4742.78
944.738	4673.63
945.044	4708.21
945.35	4695.1
945.657	4689.23
945.963	4618.72
946.269	4595.44
946.575	4587.99
946.881	4569.46
947.187	4555.9
947.493	4550.93
947.799	4558.83
948.105	4555.22
948.41	4452.62
948.716	4487.65
949.022	4461.66
949.327	4456.92
949.633	4425.51
949.938	4388.44
950.244	4414.43
950.549	4352.96
950.854	4304.83
951.16	4326.98
951.465	4260.76
951.77	4283.14
952.075	4253.98
952.38	4235.91
952.685	4242.46
952.99	4225.06
953.294	4198.17
953.599	4152.07
953.904	4129.24
954.209	4142.12
954.513	4138.28
954.818	4122.91
955.122	4074.55
955.426	4067.77
955.731	4067.55
956.035	4009.02
956.339	4014.89
956.643	3990.26
956.948	3999.75
957.252	4004.95
957.556	3955.01
957.86	3962.92
958.163	3922.92
958.467	3904.39
958.771	3922.24
959.075	3903.03
959.378	3821.68
959.682	3832.07
959.985	3800.21
960.289	3739.87
960.592	3778.74
960.896	3771.96
961.199	3766.31
961.502	3766.54
961.805	3711.63
962.108	3721.79
962.411	3728.35
962.714	3673.89
963.017	3662.14
963.32	3642.7
963.623	3629.37
963.926	3603.38
964.228	3587.56
964.531	3581.46
964.833	3548.92
965.136	3515.25
965.438	3554.12
965.741	3527.9
966.043	3506.66
966.345	3470.73
966.648	3453.1
966.95	3468.69
967.252	3447.9
967.554	3454.91
967.856	3410.62
968.158	3407.23
968.46	3367.23
968.761	3364.52
969.063	3351.41
969.365	3351.86
969.666	3332.65
969.968	3295.37
970.269	3265.08
970.571	3288.36
970.872	3269.83
971.174	3248.59
971.475	3242.94
971.776	3263.5
972.077	3198.64
972.378	3209.04
972.679	3176.27
972.98	3177.4
973.281	3141.25
973.582	3159.55
973.883	3123.62
974.183	3088.59
974.484	3107.35
974.785	3063.28
975.085	3090.4
975.386	3125.65
975.686	3049.5
975.986	3045.2
976.287	3037.29
976.587	2968.82
976.887	3000.46
977.187	2976.96
977.487	2997.07
977.787	2988.48
978.087	2936.05
978.387	2916.84
978.687	2936.96
978.987	2913.23
979.286	2889.27
979.586	2880.69
979.885	2879.78
980.185	2832.78
980.484	2841.37
980.784	2828.03
981.083	2829.39
981.382	2790.07
981.682	2796.62
981.981	2763.85
982.28	2764.76
982.579	2760.01
982.878	2761.59
983.177	2723.63
983.475	2691.31
983.774	2705.55
984.073	2661.26
984.372	2633.69
984.67	2688.38
984.969	2641.82
985.267	2661.48
985.566	2633.69
985.864	2595.95
986.162	2604.31
986.461	2627.13
986.759	2573.35
987.057	2576.06
987.355	2550.53
987.653	2537.87
987.951	2517.08
988.249	2508.04
988.547	2503.3
988.844	2503.3
989.142	2516.85
989.44	2472.11
989.737	2477.99
990.035	2461.71
990.332	2482.51
990.63	2447.25
990.927	2432.11
991.224	2402.51
991.521	2409.74
991.819	2402.28
992.116	2383.52
992.413	2389.17
992.71	2357.08
993.006	2367.93
993.303	2376.75
993.6	2328.61
993.897	2320.48
994.193	2298.33
994.49	2300.59
994.787	2282.28
995.083	2286.58
995.379	2250.87
995.676	2259.91
995.972	2233.02
996.268	2225.79
996.565	2218.11
996.861	2180.59
997.157	2200.48
997.453	2199.35
997.749	2164.77
998.044	2186.02
998.34	2145.34
998.636	2189.63
998.932	2136.53
999.227	2124.1
999.523	2130.2
999.818	2069.63
1000.114	2100.59
1000.409	2083.42
1000.704	2039.35
1001	2073.93
1001.295	2042.52
1001.59	2000.71
1001.885	2048.17
1002.18	2054.72
1002.475	1987.83
1002.77	2000.94
1003.065	1985.57
1003.359	2013.37
1003.654	1954.16
1003.949	1926.36
1004.243	1945.57
1004.538	1905.8
1004.832	1915.51
1005.127	1908.96
1005.421	1880.71
1005.715	1862.41
1006.009	1878
1006.304	1889.07
1006.598	1844.33
1006.892	1835.97
1007.186	1838
1007.48	1827.16
1007.773	1817.44
1008.067	1772.69
1008.361	1798.23
1008.655	1776.54
1008.948	1762.3
1009.242	1762.3
1009.535	1750.32
1009.829	1746.03
1010.122	1718.01
1010.415	1739.47
1010.708	1775.63
1011.001	1706.03
1011.295	1691.11
1011.588	1684.79
1011.881	1681.85
1012.173	1658.35
1012.466	1651.57
1012.759	1642.08
1013.052	1627.39
1013.344	1626.93
1013.637	1651.34
1013.93	1584.45
1014.222	1573.15
1014.514	1586.03
1014.807	1574.96
1015.099	1575.18
1015.391	1549.2
1015.683	1546.71
1015.976	1550.55
1016.268	1539.25
1016.56	1524.34
1016.851	1520.27
1017.143	1494.73
1017.435	1478.92
1017.727	1478.24
1018.018	1449.76
1018.31	1468.52
1018.602	1445.47
1018.893	1459.03
1019.185	1414.06
1019.476	1445.02
1019.767	1430.1
1020.058	1415.19
1020.35	1392.36
1020.641	1378.35
1020.932	1376.77
1021.223	1375.19
1021.514	1384.46
1021.804	1323.44
1022.095	1330.22
1022.386	1351.91
1022.677	1340.39
1022.967	1320.73
1023.258	1312.37
1023.548	1312.14
1023.839	1288.64
1024.129	1303.78
1024.419	1307.17
1024.709	1282.54
1025	1273.72
1025.29	1291.35
1025.58	1259.71
1025.87	1241.41
1026.16	1230.11
1026.449	1225.82
1026.739	1223.56
1027.029	1211.35
1027.319	1198.47
1027.608	1165.93
1027.898	1209.09
1028.187	1176.78
1028.477	1188.75
1028.766	1155.08
1029.055	1159.38
1029.344	1146.95
1029.634	1136.78
1029.923	1136.78
1030.212	1127.51
1030.501	1111.24
1030.79	1094.52
1031.078	1111.02
1031.367	1116.44
1031.656	1076.89
1031.945	1081.64
1032.233	1072.6
1032.522	1070.34
1032.81	1068.76
1033.099	1057.68
1033.387	1052.71
1033.675	1053.16
1033.963	1039.15
1034.251	1038.02
1034.54	1008.65
1034.828	1015.2
1035.116	1032.83
1035.403	1010.68
1035.691	990.34
1035.979	1016.56
1036.267	1004.13
1036.554	987.4
1036.842	964.58
1037.129	961.87
1037.417	968.65
1037.704	953.73
1037.992	945.37
1038.279	938.59
1038.566	928.65
1038.853	928.65
1039.14	928.65
