Data from hue_150_FLMS001491_00097.txt Node
Date: Tue Feb 07 16:54:48 GMT 2017
User: dcchb
Spectrometer: FLMS00149
Trigger mode: 0
Integration Time (sec): 2.000000E-2
Scans to average: 10
Electric dark correction enabled: true
Nonlinearity correction enabled: false
Boxcar width: 0
XAxis mode: Wavelengths
Number of Pixels in Spectrum: 2048
>>>>>Begin Spectral Data<<<<<
341.393	-19.51
341.776	-19.51
342.16	-19.51
342.543	-55.89
342.927	-67.64
343.31	-74.42
343.693	-75.32
344.077	-57.02
344.46	-62.89
344.843	-44.82
345.226	-39.84
345.61	-42.33
345.993	-24.48
346.376	-1.88
346.759	24.34
347.142	6.71
347.525	47.16
347.908	72.24
348.291	72.7
348.674	81.51
349.057	118.34
349.44	123.54
349.823	147.95
350.206	163.54
350.588	168.06
350.971	190.21
351.354	215.52
351.737	226.82
352.119	246.93
352.502	253.93
352.884	289.19
353.267	292.35
353.65	302.97
354.032	294.16
354.414	309.3
354.797	307.49
355.179	322.63
355.562	323.31
355.944	304.55
356.326	345.01
356.709	340.03
357.091	339.58
357.473	336.87
357.855	334.84
358.238	332.8
358.62	349.52
359.002	332.58
359.384	329.86
359.766	332.35
360.148	320.15
360.53	328.96
360.912	345.91
361.294	308.85
361.676	333.48
362.057	308.17
362.439	318.79
362.821	326.25
363.203	320.6
363.584	326.02
363.966	332.35
364.348	309.98
364.729	298.23
365.111	305.68
365.493	307.27
365.874	308.4
366.256	318.11
366.637	330.54
367.019	325.12
367.4	308.85
367.781	287.38
368.163	303.42
368.544	297.77
368.925	331.45
369.306	296.64
369.688	302.97
370.069	315.63
370.45	316.31
370.831	312.92
371.212	302.97
371.593	292.35
371.974	309.75
372.355	320.82
372.736	308.62
373.117	312.69
373.498	338.68
373.879	319.24
374.26	320.82
374.641	309.53
375.021	312.24
375.402	315.63
375.783	337.1
376.163	308.17
376.544	307.94
376.925	295.51
377.305	305.01
377.686	304.78
378.066	293.26
378.447	309.75
378.827	311.33
379.208	344.55
379.588	312.92
379.968	320.6
380.349	307.94
380.729	323.08
381.109	328.73
381.489	314.95
381.87	321.28
382.25	349.3
382.63	339.58
383.01	336.19
383.39	311.79
383.77	348.85
384.15	348.62
384.53	326.02
384.91	321.5
385.29	344.55
385.67	333.71
386.049	341.39
386.429	351.78
386.809	350.65
387.189	351.11
387.568	337.1
387.948	334.16
388.328	325.8
388.707	357.21
389.087	353.37
389.466	342.29
389.846	370.99
390.225	349.98
390.605	368.28
390.984	374.61
391.363	349.98
391.743	374.38
392.122	359.69
392.501	370.54
392.881	381.84
393.26	380.94
393.639	378.9
394.018	347.72
394.397	363.54
394.776	364.89
395.155	360.15
395.534	374.61
395.913	361.5
396.292	376.42
396.671	361.73
397.05	377.77
397.429	383.65
397.808	373.25
398.186	371.45
398.565	364.67
398.944	384.55
399.323	383.87
399.701	373.48
400.08	370.99
400.458	378.45
400.837	395.4
401.215	393.59
401.594	396.98
401.972	400.82
402.351	396.3
402.729	397.66
403.107	384.33
403.486	392.24
403.864	378.22
404.242	402.63
404.62	396.08
404.999	395.4
405.377	406.92
405.755	402.86
406.133	415.74
406.511	396.98
406.889	408.28
407.267	395.17
407.645	405.34
408.023	449.64
408.401	398.79
408.779	437.21
409.156	428.39
409.534	436.75
409.912	401.5
410.29	427.26
410.667	458.45
411.045	437.88
411.422	450.99
411.8	432.23
412.178	434.95
412.555	450.54
412.933	455.96
413.31	435.85
413.687	455.06
414.065	463.87
414.442	472.91
414.819	462.06
415.197	472.01
415.574	469.07
415.951	460.93
416.328	479.92
416.705	466.58
417.082	476.75
417.46	482.85
417.837	502.74
418.214	493.7
418.591	474.49
418.967	474.72
419.344	493.48
419.721	500.71
420.098	504.55
420.475	505.68
420.852	506.36
421.228	485.79
421.605	502.74
421.982	490.54
422.358	497.09
422.735	517.66
423.111	501.16
423.488	528.5
423.864	524.66
424.241	545
424.617	540.93
424.994	523.76
425.37	555.17
425.746	556.75
426.123	532.12
426.499	562.17
426.875	545
427.251	562.85
427.627	548.62
428.003	585
428.379	562.4
428.756	592.23
429.132	587.03
429.507	576.19
429.883	592.46
430.259	580.93
430.635	575.06
431.011	592.68
431.387	601.04
431.763	609.63
432.138	602.85
432.514	610.31
432.89	612.79
433.265	635.17
433.641	616.86
434.016	650.53
434.392	637.65
434.767	643.98
435.143	639.69
435.518	660.93
435.894	669.06
436.269	655.73
436.644	682.17
437.02	670.65
437.395	670.19
437.77	675.17
438.145	689.63
438.52	710.87
438.895	699.57
439.271	719.01
439.646	736.18
440.021	740.25
440.395	714.49
440.77	725.79
441.145	749.51
441.52	750.19
441.895	754.71
442.27	775.05
442.645	755.16
443.019	766.69
443.394	779.8
443.769	771.89
444.143	756.07
444.518	780.02
444.892	781.6
445.267	794.48
445.641	788.38
446.016	784.99
446.39	792.9
446.764	810.08
447.139	801.49
447.513	811.89
447.887	807.82
448.262	820.02
448.636	829.06
449.01	842.62
449.384	851.88
449.758	854.82
450.132	838.1
450.506	855.05
450.88	841.26
451.254	897.53
451.628	879
452.002	887.36
452.376	873.58
452.75	899.34
453.123	889.4
453.497	919
453.871	924.2
454.244	916.97
454.618	949.51
454.992	952.45
455.365	956.29
455.739	973.69
456.112	972.79
456.486	1001.71
456.859	1012.11
457.232	1022.05
457.606	1009.17
457.979	1028.38
458.352	1015.27
458.725	1042.84
459.099	1067.25
459.472	1080.13
459.845	1094.82
460.218	1107.02
460.591	1113.8
460.964	1123.74
461.337	1162.84
461.71	1158.77
462.083	1150.41
462.456	1179.79
462.829	1196.28
463.201	1202.16
463.574	1189.73
463.947	1248.71
464.32	1260.69
464.692	1234.7
465.065	1293.68
465.438	1320.35
465.81	1335.94
466.183	1347.92
466.555	1355.6
466.928	1379.33
467.3	1363.74
467.672	1405.99
468.045	1441.02
468.417	1449.16
468.789	1484.64
469.161	1484.86
469.534	1499.1
469.906	1549.27
470.278	1573
470.65	1607.57
471.022	1621.81
471.394	1680.34
471.766	1690.51
472.138	1726.66
472.51	1751.75
472.882	1825.87
473.253	1814.12
473.625	1846.43
473.997	1943.16
474.369	1939.99
474.74	1979.31
475.112	2026.32
475.484	2069.25
475.855	2108.35
476.227	2173.88
476.598	2248.68
476.97	2238.74
477.341	2343.6
477.713	2373.2
478.084	2421.79
478.455	2500.88
478.827	2532.52
479.198	2635.34
479.569	2662.91
479.94	2804.38
480.311	2835.34
480.682	2948.78
481.053	3016.8
481.424	3063.35
481.795	3177.7
482.166	3276.68
482.537	3299.73
482.908	3453.62
483.279	3510.12
483.65	3602.32
484.021	3730
484.391	3823.56
484.762	3903.33
485.133	3957.79
485.503	4033.27
485.874	4237.11
486.244	4300.61
486.615	4435.74
486.985	4544.89
487.356	4674.16
487.726	4746.02
488.097	4928.61
488.467	4957.99
488.837	5109.85
489.207	5259.68
489.578	5381.48
489.948	5467.81
490.318	5649.27
490.688	5643.85
491.058	5789.16
491.428	5964.07
491.798	6054.46
492.168	6279.99
492.538	6319.76
492.908	6489.93
493.278	6598.85
493.648	6706.42
494.017	6817.83
494.387	6936.24
494.757	7086.75
495.126	7195.9
495.496	7263.02
495.866	7394.54
496.235	7443.58
496.605	7646.51
496.974	7766.28
497.344	7827.07
497.713	7936.22
498.082	8116.1
498.452	8180.73
498.821	8245.59
499.19	8287.85
499.559	8412.82
499.928	8552.47
500.298	8634.5
500.667	8699.14
501.036	8807.38
501.405	8844.44
501.774	8941.16
502.143	9079.92
502.512	9168.5
502.88	9230.87
503.249	9277.88
503.618	9364.88
503.987	9408.72
504.356	9575.95
504.724	9610.98
505.093	9623.18
505.462	9681.48
505.83	9749.5
506.199	9877.41
506.567	9985.66
506.936	10059.33
507.304	10111.98
507.672	10174.58
508.041	10268.36
508.409	10343.84
508.777	10375.25
509.145	10448.69
509.514	10369.83
509.882	10527.11
510.25	10497.51
510.618	10619.09
510.986	10612.31
511.354	10722.59
511.722	10732.3
512.09	10909.47
512.458	10895.01
512.826	10936.59
513.193	10923.03
513.561	10993.54
513.929	11106.53
514.297	11180.2
514.664	11201.67
515.032	11254.77
515.4	11277.15
515.767	11266.75
516.135	11315.79
516.502	11177.26
516.869	11403.25
517.237	11373.87
517.604	11391.27
517.972	11414.09
518.339	11485.05
518.706	11461.32
519.073	11521.43
519.44	11544.26
519.808	11629.45
520.175	11567.53
520.542	11688.66
520.909	11669.45
521.276	11697.93
521.643	11691.15
522.009	11753.07
522.376	11830.35
522.743	11816.57
523.11	11899.5
523.477	11939.05
523.843	11966.85
524.21	12012.95
524.577	12026.05
524.943	12005.26
525.31	12019.5
525.676	12123.45
526.043	12115.99
526.409	12115.54
526.776	12204.13
527.142	12116.67
527.508	12163.9
527.874	12210.91
528.241	12201.87
528.607	12146.95
528.973	12265.37
529.339	12194.41
529.705	12217.46
530.071	12262.88
530.437	12241.64
530.803	12279.83
531.169	12211.81
531.535	12139.72
531.901	12235.09
532.267	12209.55
532.632	12214.75
532.998	12245.71
533.364	12181.3
533.73	12188.54
534.095	12253.84
534.461	12215.65
534.826	12159.16
535.192	12067.86
535.557	12230.34
535.923	12107.86
536.288	12017.24
536.653	12093.62
537.019	12068.76
537.384	12020.86
537.749	11970.91
538.114	11914.64
538.479	11989.67
538.845	11892.72
539.21	11843.01
539.575	11803.01
539.94	11849.79
540.305	11843.91
540.67	11752.61
541.034	11728.89
541.399	11709
541.764	11697.93
542.129	11680.3
542.494	11588.55
542.858	11629.68
543.223	11572.96
543.587	11559.4
543.952	11504.71
544.316	11513.07
544.681	11493.86
545.045	11471.72
545.41	11397.37
545.774	11321.21
546.138	11339.52
546.503	11315.11
546.867	11219.3
547.231	11336.13
547.595	11271.72
547.959	11207.54
548.324	11192.63
548.688	11081.67
549.052	11103.82
549.416	11067.66
549.779	11055.68
550.143	10977.72
550.507	11027.89
550.871	10995.57
551.235	10912.18
551.599	10868.8
551.962	10897.27
552.326	10992.18
552.689	10897.04
553.053	10803.04
553.417	10773.21
553.78	10830.61
554.143	10783.37
554.507	10682.36
554.87	10780.21
555.234	10816.82
555.597	10668.35
555.96	10691.85
556.323	10611.18
556.686	10680.33
557.05	10641.01
557.413	10660.44
557.776	10682.13
558.139	10654.34
558.502	10636.26
558.865	10542.25
559.228	10634
559.59	10593.32
559.953	10527.56
560.316	10665.64
560.679	10603.94
561.041	10636.94
561.404	10620.67
561.767	10643.49
562.129	10552.87
562.492	10649.82
562.854	10651.85
563.217	10649.82
563.579	10587.9
563.941	10639.65
564.304	10655.24
564.666	10656.82
565.028	10546.09
565.39	10645.3
565.753	10702.7
566.115	10661.34
566.477	10613.44
566.839	10669.03
567.201	10699.54
567.563	10698.63
567.925	10763.49
568.287	10747.44
568.648	10692.53
569.01	10679.2
569.372	10828.12
569.734	10700.66
570.095	10838.74
570.457	10779.76
570.819	10733.21
571.18	10802.36
571.542	10757.39
571.903	10822.02
572.265	10825.63
572.626	10840.32
572.987	10802.13
573.349	10857.27
573.71	10873.77
574.071	10835.12
574.432	10894.56
574.794	10856.59
575.155	10852.07
575.516	10844.84
575.877	10883.94
576.238	10878.51
576.599	10913.99
576.96	10928.46
577.32	10897.27
577.681	10885.29
578.042	10888
578.403	10918.74
578.763	10899.76
579.124	10829.02
579.485	10854.79
579.845	10952.86
580.206	10837.61
580.566	10959.19
580.927	10887.55
581.287	10850.04
581.648	10848.68
582.008	10844.62
582.368	10831.28
582.728	10844.16
583.089	10896.37
583.449	10778.18
583.809	10877.38
584.169	10789.7
584.529	10834.22
584.889	10809.14
585.249	10808.23
585.609	10814.56
585.969	10833.54
586.329	10817.72
586.688	10772.3
587.048	10768.01
587.408	10766.65
587.768	10716.94
588.127	10738.4
588.487	10644.85
588.846	10833.09
589.206	10674.9
589.565	10678.52
589.925	10748.35
590.284	10698.41
590.643	10689.14
591.003	10662.7
591.362	10720.1
591.721	10689.82
592.08	10676.03
592.44	10676.94
592.799	10589.71
593.158	10656.15
593.517	10682.59
593.876	10683.72
594.235	10728.46
594.593	10556.94
594.952	10662.93
595.311	10629.93
595.67	10683.04
596.029	10655.02
596.387	10663.15
596.746	10657.95
597.104	10631.97
597.463	10583.15
597.822	10641.91
598.18	10544.96
598.538	10613.89
598.897	10661.34
599.255	10504.29
599.613	10682.13
599.972	10560.56
600.33	10638.29
600.688	10578.18
601.046	10605.53
601.404	10711.51
601.762	10611.4
602.12	10662.93
602.478	10595.13
602.836	10625.86
603.194	10599.2
603.552	10601.46
603.91	10638.75
604.268	10653.21
604.625	10551.52
604.983	10603.27
605.341	10476.26
605.698	10617.5
606.056	10612.98
606.413	10590.16
606.771	10629.48
607.128	10680.55
607.485	10588.35
607.843	10640.33
608.2	10612.98
608.557	10706.31
608.914	10658.63
609.272	10684.62
609.629	10670.38
609.986	10697.28
610.343	10607.56
610.7	10696.82
611.057	10683.72
611.414	10697.28
611.771	10663.6
612.127	10718.29
612.484	10648.24
612.841	10667.67
613.198	10697.95
613.554	10662.47
613.911	10726.88
614.267	10781.79
614.624	10703.83
614.98	10716.94
615.337	10821.11
615.693	10821.11
616.05	10748.57
616.406	10789.93
616.762	10800.55
617.118	10815.46
617.475	10797.84
617.831	10861.56
618.187	10869.25
618.543	10857.5
618.899	10873.54
619.255	10885.97
619.611	10919.42
619.967	10882.36
620.323	10915.8
620.678	10845.97
621.034	10846.88
621.39	10906.76
621.746	10764.17
622.101	10964.61
622.457	10876.03
622.812	10897.95
623.168	10912.41
623.523	10919.42
623.879	10900.66
624.234	10845.97
624.589	10909.93
624.945	10865.41
625.3	10936.14
625.655	10961.22
626.01	10873.99
626.365	10847.33
626.72	10883.71
627.075	10858.63
627.43	10819.76
627.785	10844.84
628.14	10836.93
628.495	10899.08
628.85	10868.34
629.205	10847.33
629.559	10810.72
629.914	10786.99
630.269	10843.26
630.623	10833.32
630.978	10746.77
631.332	10766.43
631.687	10813.88
632.041	10777.73
632.396	10748.8
632.75	10686.88
633.104	10712.87
633.459	10680.33
633.813	10674.68
634.167	10705.18
634.521	10705.64
634.875	10659.76
635.229	10591.06
635.583	10522.36
635.937	10671.06
636.291	10628.8
636.645	10622.7
636.999	10640.78
637.352	10629.71
637.706	10544.06
638.06	10620.89
638.413	10568.01
638.767	10627.67
639.121	10609.59
639.474	10415.25
639.828	10496.38
640.181	10546.32
640.534	10521.91
640.888	10411.86
641.241	10452.99
641.594	10436.04
641.947	10527.79
642.301	10472.2
642.654	10443.27
643.007	10437.62
643.36	10418.64
643.713	10427.45
644.066	10489.15
644.419	10389.03
644.771	10322.6
645.124	10257.96
645.477	10260.68
645.83	10138.19
646.182	10202.15
646.535	10111.98
646.888	10074.01
647.24	10057.29
647.593	10158.31
647.945	10066.33
648.298	10045.09
648.65	10024.3
649.002	10038.54
649.355	10071.3
649.707	10039.44
650.059	10133
650.411	10236.72
650.763	10203.5
651.115	10316.04
651.467	10306.33
651.819	10296.38
652.171	10333.22
652.523	10287.34
652.875	10301.13
653.227	10206.89
653.578	10347
653.93	10316.49
654.282	10210.96
654.633	10313.1
654.985	10306.1
655.337	10336.83
655.688	10330.73
656.039	10358.3
656.391	10265.42
656.742	10344.52
657.094	10309.49
657.445	10387.45
657.796	10309.94
658.147	10303.61
658.498	10300.45
658.849	10315.82
659.2	10300.9
659.551	10332.31
659.902	10302.26
660.253	10316.72
660.604	10308.81
660.955	10235.14
661.306	10252.54
661.656	10274.24
662.007	10344.29
662.358	10357.4
662.708	10317.62
663.059	10422.25
663.409	10290.51
663.76	10319.66
664.11	10365.08
664.461	10313.33
664.811	10370.96
665.161	10297.74
665.511	10330.51
665.862	10285.08
666.212	10374.8
666.562	10389.03
666.912	10320.79
667.262	10341.8
667.612	10286.89
667.962	10381.8
668.312	10296.83
668.662	10367.11
669.011	10320.79
669.361	10391.07
669.711	10389.26
670.06	10314.91
670.41	10299.55
670.76	10299.32
671.109	10321.69
671.459	10248.25
671.808	10327.34
672.157	10253.22
672.507	10222.03
672.856	10257.06
673.205	10267
673.554	10259.77
673.904	10186.33
674.253	10285.31
674.602	10234.01
674.951	10174.35
675.3	10089.38
675.649	10181.58
675.998	10275.37
676.346	10260
676.695	10234.01
677.044	10174.58
677.393	10166.67
677.741	10211.86
678.09	10133
678.438	10149.04
678.787	10142.26
679.135	10156.5
679.484	10048.25
679.832	10090.96
680.181	10043.28
680.529	10093.22
680.877	10023.62
681.225	9988.37
681.573	10084.18
681.922	9937.75
682.27	9950.63
682.618	9965.77
682.966	10010.51
683.314	9977.29
683.661	9978.88
684.009	9871.76
684.357	9873.79
684.705	9847.58
685.053	9933.23
685.4	9828.15
685.748	9817.75
686.095	9764.87
686.443	9717.41
686.79	9707.02
687.138	9738.2
687.485	9744.31
687.832	9692.33
688.18	9658.88
688.527	9570.07
688.874	9547.25
689.221	9588.6
689.568	9550.64
689.915	9544.99
690.262	9486.91
690.609	9482.84
690.956	9444.88
691.303	9456.63
691.65	9412.34
691.997	9376.18
692.344	9304.09
692.69	9344.54
693.037	9265.9
693.383	9181.83
693.73	9221.38
694.077	9194.94
694.423	9180.93
694.769	9095.96
695.116	9051.44
695.462	9054.61
695.808	9037.88
696.155	9008.51
696.501	8895.74
696.847	8953.37
697.193	8844.22
697.539	8992.01
697.885	8895.29
698.231	8851.9
698.577	8830.88
698.923	8811.68
699.269	8725.35
699.614	8660.72
699.96	8714.73
700.306	8643.09
700.651	8654.39
700.997	8502.76
701.342	8536.2
701.688	8508.86
702.033	8521.51
702.379	8424.57
702.724	8427.73
703.069	8463.44
703.415	8318.81
703.76	8363.33
704.105	8381.18
704.45	8290.56
704.795	8265.47
705.14	8233.61
705.485	8241.52
705.83	8203.33
706.175	8217.57
706.52	8176.66
706.865	8144.12
707.209	8162.43
707.554	8082.88
707.899	8164.01
708.243	8029.77
708.588	8051.47
708.932	7969.44
709.277	7969.21
709.621	7987.97
709.966	7950.68
710.31	7977.57
710.654	7828.88
710.998	7912.72
711.342	7845.6
711.687	7859.84
712.031	7783.23
712.375	7766.05
712.719	7796.79
713.063	7749.33
713.407	7751.59
713.75	7686.96
714.094	7700.97
714.438	7684.02
714.782	7686.73
715.125	7662.1
715.469	7666.39
715.812	7645.83
716.156	7563.57
716.499	7613.74
716.843	7576.45
717.186	7533.29
717.53	7558.15
717.873	7527.87
718.216	7545.27
718.559	7509.11
718.902	7467.53
719.246	7478.6
719.589	7499.39
719.932	7531.26
720.275	7420.75
720.617	7401.09
720.96	7487.42
721.303	7404.71
721.646	7434.08
721.989	7355.67
722.331	7393.63
722.674	7425.04
723.016	7432.28
723.359	7359.74
723.701	7397.93
724.044	7320.87
724.386	7373.29
724.729	7325.16
725.071	7295.33
725.413	7249
725.755	7280.64
726.097	7307.31
726.439	7324.48
726.782	7308.66
727.124	7361.54
727.465	7281.77
727.807	7301.66
728.149	7311.38
728.491	7277.25
728.833	7312.28
729.175	7274.99
729.516	7302.79
729.858	7221.43
730.199	7231.15
730.541	7260.3
730.882	7275.44
731.224	7271.83
731.565	7273.41
731.906	7288.55
732.248	7317.93
732.589	7258.04
732.93	7197.71
733.271	7250.81
733.612	7177.14
733.953	7285.39
734.294	7213.53
734.635	7257.82
734.976	7320.41
735.317	7268.44
735.658	7215.78
735.999	7331.49
736.339	7261.21
736.68	7270.7
737.021	7309.57
737.361	7253.75
737.702	7298.04
738.042	7286.74
738.383	7280.64
738.723	7299.85
739.063	7308.44
739.404	7379.85
739.744	7330.13
740.084	7285.39
740.424	7307.53
740.764	7357.93
741.104	7359.51
741.444	7346.85
741.784	7386.85
742.124	7406.74
742.464	7429.34
742.804	7418.94
743.143	7422.33
743.483	7476.79
743.823	7438.15
744.162	7507.98
744.502	7506.62
744.841	7569.45
745.181	7556.34
745.52	7626.85
745.86	7697.81
746.199	7604.93
746.538	7713.4
746.877	7743.91
747.216	7822.77
747.556	7852.15
747.895	7897.8
748.234	7895.32
748.573	7988.65
748.911	8037.01
749.25	8055.99
749.589	8126.72
749.928	8230.22
750.267	8249.88
750.605	8301.18
750.944	8343.44
751.283	8425.92
751.621	8571.91
751.96	8634.96
752.298	8693.94
752.636	8807.16
752.975	8838.34
753.313	8847.38
753.651	9126.92
753.989	9086.7
754.327	9172.8
754.666	9316.52
755.004	9453.47
755.342	9555.84
755.679	9686
756.017	9796.06
756.355	9894.13
756.693	9997.86
757.031	10180.9
757.368	10236.5
757.706	10432.88
758.044	10554.91
758.381	10756.26
758.719	10887.33
759.056	11024.5
759.394	11128.9
759.731	11261.78
760.068	11411.15
760.405	11485.05
760.743	11713.52
761.08	11859.05
761.417	11910.58
761.754	12187.86
762.091	12284.35
762.428	12471.01
762.765	12611.12
763.102	12834.39
763.438	12858.12
763.775	13059.47
764.112	13196.64
764.449	13424.66
764.785	13511.89
765.122	13610.87
765.458	13750.08
765.795	13955.04
766.131	14124.3
766.467	14295.37
766.804	14396.39
767.14	14433.45
767.476	14595.7
767.812	14637.96
768.148	14791.86
768.485	14924.96
768.821	15024.17
769.157	15185.97
769.492	15339.87
769.828	15503.48
770.164	15485.17
770.5	15654.88
770.836	15803.81
771.171	15785.05
771.507	15949.79
771.842	15978.72
772.178	16026.85
772.513	16101.65
772.849	16152.95
773.184	16231.37
773.519	16405.15
773.855	16377.35
774.19	16467.29
774.525	16548.87
774.86	16638.14
775.195	16691.47
775.53	16695.31
775.865	16696.89
776.2	16756.55
776.535	16686.27
776.87	16795.65
777.205	16809.43
777.539	16875.19
777.874	16968.3
778.209	16900.28
778.543	16856.44
778.878	16931.01
779.212	17006.26
779.547	16991.8
779.881	17131
780.215	17055.75
780.55	17101.85
780.884	17082.87
781.218	17109.99
781.552	17213.71
781.886	17220.04
782.22	17069.99
782.554	17097.56
782.888	16988.18
783.222	16942.99
783.556	16864.34
783.889	17006.71
784.223	16984.34
784.557	17025.7
784.89	16969.65
785.224	16953.83
785.557	16950.67
785.891	16873.16
786.224	16900.73
786.558	16914.74
786.891	16822.54
787.224	16823.44
787.557	16819.37
787.891	16865.02
788.224	16769.66
788.557	16840.84
788.89	16767.4
789.223	16846.94
789.556	16775.53
789.888	16738.7
790.221	16684.01
790.554	16604.01
790.887	16583.67
791.219	16558.82
791.552	16503.9
791.884	16534.86
792.217	16505.94
792.549	16376
792.882	16415.09
793.214	16356.56
793.546	16394.98
793.879	16345.71
794.211	16232.95
794.543	16274.98
794.875	16220.29
795.207	16268.65
795.539	16137.58
795.871	16212.84
796.203	16104.59
796.535	15969.45
796.867	16075.44
797.198	15945.72
797.53	15956.12
797.862	15809.23
798.193	15888.1
798.525	15834.32
798.856	15857.59
799.188	15738.5
799.519	15697.82
799.85	15592.06
800.182	15636.35
800.513	15643.36
800.844	15483.14
801.175	15571.05
801.506	15588.67
801.837	15556.58
802.168	15479.75
802.499	15460.54
802.83	15318.17
803.161	15298.06
803.491	15338.06
803.822	15332.18
804.153	15258.51
804.483	15091.51
804.814	15101
805.145	15041.12
805.475	15046.31
805.805	15034.56
806.136	14953.89
806.466	15004.96
806.796	14943.49
807.126	14870.95
807.457	14885.64
807.787	14869.59
808.117	14834.57
808.447	14776.94
808.777	14770.84
809.107	14754.34
809.436	14714.8
809.766	14732.65
810.096	14669.37
810.426	14587.79
810.755	14560.68
811.085	14563.84
811.414	14427.57
811.744	14424.41
812.073	14365.65
812.403	14444.97
812.732	14397.52
813.061	14335.6
813.39	14253.34
813.719	14235.04
814.049	14350.29
814.378	14302.83
814.707	14237.07
815.036	14211.53
815.365	14097.19
815.693	13982.84
816.022	14098.09
816.351	14003.63
816.68	13967.47
817.008	13993.23
817.337	13915.72
817.665	13846.57
817.994	13853.58
818.322	13882.95
818.651	13793.47
818.979	13778.1
819.307	13827.81
819.636	13861.26
819.964	13731.09
820.292	13741.04
820.62	13717.31
820.948	13721.6
821.276	13694.03
821.604	13685.9
821.932	13675.05
822.259	13786.91
822.587	13742.62
822.915	13623.98
823.243	13644.54
823.57	13684.32
823.898	13682.51
824.225	13549.63
824.553	13597.31
824.88	13665.56
825.207	13720.92
825.535	13729.29
825.862	13722.51
826.189	13617.42
826.516	13770.19
826.843	13781.49
827.17	13686.12
827.497	13770.64
827.824	13716.63
828.151	13780.58
828.478	13738.55
828.805	13767.25
829.131	13668.95
829.458	13685.45
829.785	13686.35
830.111	13725.9
830.438	13771.54
830.764	13710.98
831.09	13821.94
831.417	13625.56
831.743	13673.69
832.069	13742.39
832.395	13709.17
832.722	13719.12
833.048	13508.05
833.374	13677.08
833.7	13598.22
834.026	13631.21
834.351	13615.16
834.677	13585.33
835.003	13568.39
835.329	13598.89
835.654	13582.17
835.98	13500.82
836.306	13479.57
836.631	13442.74
836.956	13505.79
837.282	13549.63
837.607	13430.99
837.932	13339.69
838.258	13410.2
838.583	13358.9
838.908	13382.63
839.233	13361.61
839.558	13269.41
839.883	13316.64
840.208	13286.81
840.533	13312.8
840.858	13239.36
841.182	13210.43
841.507	13242.75
841.832	13159.81
842.156	13197.55
842.481	13132.47
842.805	13187.61
843.13	13090.66
843.454	13017.21
843.778	13006.59
844.103	12982.41
844.427	12931.34
844.751	12930.89
845.075	12897.22
845.399	12847.5
845.723	12807.73
846.047	12788.07
846.371	12767.05
846.695	12616.77
847.019	12574.74
847.343	12557.34
847.666	12433.73
847.99	12431.47
848.313	12430.56
848.637	12367.29
848.96	12362.32
849.284	12336.33
849.607	12181.08
849.931	12238.7
850.254	12112.15
850.577	12051.82
850.9	11987.86
851.223	11984.7
851.546	11884.59
851.869	11936.79
852.192	11865.83
852.515	11765.5
852.838	11694.09
853.161	11699.96
853.483	11726.85
853.806	11594.65
854.129	11552.85
854.451	11513.52
854.774	11585.39
855.096	11419.52
855.419	11464.03
855.741	11392.4
856.063	11377.48
856.385	11354.66
856.708	11319.18
857.03	11273.76
857.352	11208.9
857.674	11197.15
857.996	11194.44
858.318	11162.8
858.64	11127.09
858.961	11058.4
859.283	10998.28
859.605	10966.42
859.926	10965.74
860.248	10977.95
860.57	10933.43
860.891	10949.02
861.212	10842.58
861.534	10845.52
861.855	10739.08
862.176	10775.01
862.498	10761.23
862.819	10751.06
863.14	10692.76
863.461	10709.03
863.782	10727.56
864.103	10664.96
864.424	10639.65
864.745	10681
865.065	10601.23
865.386	10560.78
865.707	10623.15
866.027	10624.06
866.348	10525.98
866.668	10558.3
866.989	10462.25
867.309	10497.96
867.63	10517.84
867.95	10460.9
868.27	10414.12
868.59	10398.3
868.91	10354.46
869.23	10303.84
869.55	10321.92
869.87	10346.78
870.19	10338.41
870.51	10316.49
870.83	10327.57
871.15	10250.96
871.469	10233.78
871.789	10320.79
872.109	10290.96
872.428	10172.77
872.748	10201.47
873.067	10165.09
873.386	10167.12
873.706	10114.92
874.025	10106.1
874.344	10057.74
874.663	10153.33
874.982	10054.58
875.301	10063.85
875.62	9998.76
875.939	10026.33
876.258	10041.47
876.577	9958.76
876.896	9953.79
877.214	9963.96
877.533	9950.63
877.852	9917.86
878.17	9872.66
878.489	9945.2
878.807	9895.49
879.125	9869.05
879.444	9869.73
879.762	9857.52
880.08	9790.41
880.398	9729.39
880.716	9792.21
881.034	9786.34
881.352	9762.16
881.67	9679.9
881.988	9749.5
882.306	9645.33
882.624	9589.06
882.941	9597.87
883.259	9622.28
883.577	9577.98
883.894	9502.5
884.212	9591.99
884.529	9492.79
884.846	9466.35
885.164	9500.92
885.481	9418.21
885.798	9490.75
886.115	9311.55
886.432	9348.16
886.75	9415.5
887.067	9356.29
887.383	9323.98
887.7	9352.9
888.017	9312.9
888.334	9264.32
888.651	9246.69
888.967	9239.46
889.284	9182.06
889.6	9168.73
889.917	9145
890.233	9119.01
890.55	9066.36
890.866	9115.4
891.182	9006.47
891.498	9050.09
891.815	8971.67
892.131	9005.34
892.447	8974.38
892.763	8925.12
893.079	8881.28
893.395	8907.49
893.71	8803.31
894.026	8855.06
894.342	8762.64
894.657	8710.21
894.973	8668.85
895.289	8655.3
895.604	8723.09
895.92	8570.55
896.235	8548.63
896.55	8547.95
896.865	8578.91
897.181	8542.53
897.496	8506.37
897.811	8424.57
898.126	8466.83
898.441	8411.23
898.756	8391.8
899.071	8356.77
899.386	8272.71
899.7	8191.58
900.015	8255.98
900.33	8189.77
900.644	8059.83
900.959	8175.76
901.273	8131.24
901.588	8097.57
901.902	8056.44
902.216	8091.02
902.531	7950
902.845	7984.35
903.159	7917.69
903.473	7948.65
903.787	7838.37
904.101	7858.25
904.415	7821.42
904.729	7790.01
905.042	7742.1
905.356	7707.75
905.67	7744.81
905.984	7725.83
906.297	7651.71
906.611	7626.17
906.924	7571.93
907.237	7573.52
907.551	7506.62
907.864	7458.26
908.177	7447.42
908.491	7507.53
908.804	7394.76
909.117	7371.26
909.43	7300.53
909.743	7284.71
910.056	7268.44
910.368	7289
910.681	7206.75
910.994	7202.45
911.307	7145.96
911.619	7112.74
911.932	7095.56
912.244	7084.04
912.557	7052.63
912.869	7020.54
913.181	7004.72
913.494	7014.89
913.806	6868.9
914.118	6903.93
914.43	6810.15
914.742	6877.04
915.054	6795.46
915.366	6775.57
915.678	6782.58
915.99	6759.07
916.302	6735.35
916.613	6658.29
916.925	6670.94
917.236	6659.19
917.548	6613.54
917.859	6609.25
918.171	6526.76
918.482	6489.93
918.794	6475.69
919.105	6501.23
919.416	6395.92
919.727	6427.11
920.038	6411.51
920.349	6327.45
920.66	6331.51
920.971	6324.96
921.282	6331.29
921.593	6277.96
921.903	6257.62
922.214	6227.11
922.525	6202.48
922.835	6155.25
923.146	6119.32
923.456	6121.12
923.767	6047.91
924.077	6066.66
924.387	6058.75
924.697	6031.41
925.008	5959.77
925.318	5965.87
925.628	5998.87
925.938	5884.97
926.248	5879.77
926.558	5841.13
926.867	5817.18
927.177	5880
927.487	5782.83
927.796	5762.04
928.106	5725.88
928.416	5729.04
928.725	5757.74
929.034	5620.12
929.344	5645.2
929.653	5647.24
929.962	5578.09
930.271	5553.91
930.581	5564.53
930.89	5568.6
931.199	5525.89
931.508	5467.81
931.817	5517.52
932.125	5482.27
932.434	5435.49
932.743	5350.3
933.051	5335.38
933.36	5352.78
933.669	5319.34
933.977	5278.43
934.286	5281.82
934.594	5285.44
934.902	5250.19
935.21	5270.53
935.519	5244.99
935.827	5194.14
936.135	5155.95
936.443	5120.7
936.751	5095.16
937.059	5115.95
937.367	5040.93
937.674	5090.64
937.982	5039.57
938.29	5017.88
938.597	4983.53
938.905	4912.34
939.213	4914.15
939.52	4960.48
939.827	4930.65
940.135	4907.6
940.442	4844.1
940.749	4861.95
941.056	4894.49
941.363	4787.37
941.67	4777.2
941.977	4777.43
942.284	4711.22
942.591	4688.39
942.898	4693.59
943.205	4661.28
943.511	4668.51
943.818	4686.81
944.125	4644.78
944.431	4608.4
944.738	4607.94
945.044	4624.67
945.35	4523.43
945.657	4503.77
945.963	4523.2
946.269	4464.22
946.575	4431.9
946.881	4435.07
947.187	4384.9
947.493	4401.4
947.799	4379.25
948.105	4365.46
948.41	4335.18
948.716	4321.4
949.022	4334.73
949.327	4322.98
949.633	4251.57
949.938	4265.13
950.244	4234.17
950.549	4181.29
950.854	4203.21
951.16	4208.86
951.465	4131.8
951.77	4151.68
952.075	4139.71
952.38	4136.32
952.685	4118.69
952.99	4080.5
953.294	4082.31
953.599	4071.91
953.904	4043.66
954.209	3987.17
954.513	4007.06
954.818	3987.4
955.122	3946.49
955.426	3903.33
955.731	3921.41
956.035	3887.96
956.339	3890.9
956.643	3922.76
956.948	3917.11
957.252	3831.24
957.556	3871.69
957.86	3796.21
958.163	3824.91
958.467	3811.13
958.771	3788.53
959.075	3763.22
959.378	3727.51
959.682	3707.18
959.985	3674.41
960.289	3701.53
960.592	3648.65
960.896	3664.01
961.199	3644.13
961.502	3627.4
961.805	3601.87
962.108	3583.11
962.411	3608.2
962.714	3576.33
963.017	3575.43
963.32	3539.05
963.623	3537.92
963.926	3523.23
964.228	3488.43
964.531	3486.39
964.833	3548.08
965.136	3466.28
965.438	3431.03
965.741	3416.79
966.043	3400.74
966.345	3379.95
966.648	3353.97
966.95	3358.03
967.252	3367.07
967.554	3332.05
967.856	3298.15
968.158	3267.87
968.46	3285.27
968.761	3246.17
969.063	3280.3
969.365	3223.8
969.666	3231.26
969.968	3238.94
970.269	3243.46
970.571	3182.67
970.872	3164.82
971.174	3191.48
971.475	3114.65
971.776	3144.93
972.077	3101.77
972.378	3115.33
972.679	3094.31
972.98	3076.68
973.281	3059.06
973.582	3063.8
973.883	3080.07
974.183	3041.66
974.484	3034.88
974.785	2993.75
975.085	3003.24
975.386	2994.88
975.686	2948.55
975.986	2928.89
976.287	2966.41
976.587	2909.23
976.887	2906.97
977.187	2920.53
977.487	2954.65
977.787	2869.68
978.087	2886.63
978.387	2821.32
978.687	2818.39
978.987	2863.13
979.286	2823.13
979.586	2784.94
979.885	2792.17
980.185	2746.52
980.484	2770.93
980.784	2739.29
981.083	2718.73
981.382	2729.58
981.682	2703.36
981.981	2680.99
982.28	2664.04
982.579	2648.45
982.878	2678.05
983.177	2655.9
983.475	2641.67
983.774	2626.3
984.073	2605.96
984.372	2605.06
984.67	2610.71
984.969	2558.73
985.267	2573.87
985.566	2535.68
985.864	2545.63
986.162	2528
986.461	2537.04
986.759	2489.81
987.057	2466.98
987.355	2485.06
987.653	2506.98
987.951	2456.36
988.249	2468.57
988.547	2473.99
988.844	2426.76
989.142	2418.85
989.44	2411.62
989.737	2400.54
990.035	2423.14
990.332	2400.77
990.63	2353.31
990.927	2364.84
991.224	2356.03
991.521	2323.03
991.819	2316.93
992.116	2346.76
992.413	2309.7
992.71	2290.94
993.006	2278.06
993.303	2272.41
993.6	2258.18
993.897	2249.59
994.193	2223.83
994.49	2237.61
994.787	2228.57
995.083	2223.37
995.379	2197.39
995.676	2193.09
995.972	2198.97
996.268	2161
996.565	2153.09
996.861	2157.39
997.157	2135.47
997.453	2121.23
997.749	2107.67
998.044	2104.51
998.34	2070.61
998.636	2050.5
998.932	2057.73
999.227	2070.84
999.523	2066.99
999.818	2007.11
1000.114	2036.94
1000.409	1988.35
1000.704	1976.83
1001	1993.55
1001.295	1952.87
1001.59	2010.05
1001.885	1988.8
1002.18	1940.22
1002.475	1934.12
1002.77	1935.25
1003.065	1921.23
1003.359	1900.67
1003.654	1902.7
1003.949	1883.72
1004.243	1884.85
1004.538	1867.45
1004.832	1863.61
1005.127	1873.78
1005.421	1825.87
1005.715	1819.09
1006.009	1837.17
1006.304	1817.06
1006.598	1783.61
1006.892	1781.35
1007.186	1762.82
1007.48	1773.67
1007.773	1770.28
1008.067	1772.09
1008.361	1732.77
1008.655	1723.95
1008.948	1736.15
1009.242	1696.61
1009.535	1708.59
1009.829	1685.99
1010.122	1680.11
1010.415	1648.93
1010.708	1674.69
1011.001	1645.31
1011.295	1651.41
1011.588	1625.2
1011.881	1609.6
1012.173	1590.4
1012.466	1619.55
1012.759	1582.71
1013.052	1595.82
1013.344	1594.01
1013.637	1554.92
1013.93	1597.4
1014.222	1578.19
1014.514	1549.27
1014.807	1544.75
1015.099	1514.47
1015.391	1522.6
1015.683	1479.89
1015.976	1508.82
1016.268	1494.35
1016.56	1486.44
1016.851	1497.97
1017.143	1455.94
1017.435	1442.83
1017.727	1431.76
1018.018	1448.03
1018.31	1466.33
1018.602	1434.24
1018.893	1424.98
1019.185	1405.99
1019.476	1371.42
1019.767	1389.72
1020.058	1398.76
1020.35	1367.13
1020.641	1370.97
1020.932	1355.37
1021.223	1304.3
1021.514	1351.53
1021.804	1304.98
1022.095	1316.96
1022.386	1304.75
1022.677	1348.14
1022.967	1274.02
1023.258	1300.01
1023.548	1279.22
1023.839	1272.66
1024.129	1269.05
1024.419	1278.99
1024.709	1240.8
1025	1238.77
1025.29	1237.64
1025.58	1207.58
1025.87	1219.11
1026.16	1207.36
1026.449	1177.98
1026.739	1162.38
1027.029	1189.05
1027.319	1184.76
1027.608	1168.03
1027.898	1163.97
1028.187	1152.89
1028.477	1189.28
1028.766	1147.47
1029.055	1114.93
1029.344	1114.7
1029.634	1121.26
1029.923	1119.45
1030.212	1091.65
1030.501	1114.02
1030.79	1083.29
1031.078	1062.95
1031.367	1071.31
1031.656	1068.83
1031.945	1047.13
1032.233	1068.38
1032.522	1062.73
1032.81	1056.17
1033.099	1020.02
1033.387	998.77
1033.675	1026.57
1033.963	1023.18
1034.251	1009.62
1034.54	972.11
1034.828	1004.87
1035.116	970.75
1035.403	968.27
1035.691	984.99
1035.979	961.49
1036.267	969.62
1036.554	961.03
1036.842	953.35
1037.129	946.57
1037.417	916.97
1037.704	942.28
1037.992	908.61
1038.279	928.04
1038.566	891.21
1038.853	891.21
1039.14	891.21
