Data from hue_210_FLMS001491_00024.txt Node
Date: Tue Feb 07 16:40:57 GMT 2017
User: dcchb
Spectrometer: FLMS00149
Trigger mode: 0
Integration Time (sec): 2.000000E-2
Scans to average: 10
Electric dark correction enabled: true
Nonlinearity correction enabled: false
Boxcar width: 0
XAxis mode: Wavelengths
Number of Pixels in Spectrum: 2048
>>>>>Begin Spectral Data<<<<<
341.393	-7.46
341.776	-7.46
342.16	-7.46
342.543	-51.52
342.927	-64.63
343.31	-71.18
343.693	-65.31
344.077	-78.64
344.46	-50.17
344.843	-51.07
345.226	-37.51
345.61	-37.74
345.993	-22.15
346.376	2.49
346.759	25.31
347.142	25.76
347.525	33.22
347.908	39.32
348.291	65.99
348.674	105.53
349.057	116.16
349.44	111.41
349.823	131.3
350.206	189.15
350.588	198.41
350.971	205.87
351.354	243.61
351.737	251.07
352.119	250.16
352.502	266.66
352.884	275.47
353.267	279.99
353.65	308.69
354.032	304.85
354.414	297.39
354.797	319.31
355.179	316.6
355.562	310.5
355.944	324.06
356.326	321.35
356.709	317.73
357.091	332.19
357.473	330.84
357.855	341.46
358.238	324.96
358.62	329.26
359.002	341.46
359.384	324.51
359.766	326.55
360.148	341.46
360.53	365.64
360.912	339.43
361.294	342.59
361.676	344.4
362.057	339.88
362.439	306.88
362.821	317.51
363.203	339.2
363.584	326.32
363.966	334
364.348	314.34
364.729	310.27
365.111	316.38
365.493	325.87
365.874	305.98
366.256	330.16
366.637	324.51
367.019	314.34
367.4	299.65
367.781	306.88
368.163	301.01
368.544	325.42
368.925	331.29
369.306	333.78
369.688	308.01
370.069	287
370.45	297.39
370.831	302.82
371.212	317.96
371.593	318.86
371.974	277.96
372.355	327
372.736	324.51
373.117	298.98
373.498	309.14
373.879	324.74
374.26	330.16
374.641	291.29
375.021	310.05
375.402	310.27
375.783	319.31
376.163	331.74
376.544	338.3
376.925	329.93
377.305	325.87
377.686	326.09
378.066	335.58
378.447	347.11
378.827	325.19
379.208	349.14
379.588	330.16
379.968	311.18
380.349	320.44
380.729	338.07
381.109	331.06
381.489	322.48
381.87	319.77
382.25	344.17
382.63	337.17
383.01	338.3
383.39	337.84
383.77	333.1
384.15	336.26
384.53	340.78
384.91	351.63
385.29	338.75
385.67	342.14
386.049	340.33
386.429	336.04
386.809	334.45
387.189	347.56
387.568	331.29
387.948	390.27
388.328	364.28
388.707	354.57
389.087	369.93
389.466	343.49
389.846	361.8
390.225	361.35
390.605	364.74
390.984	356.37
391.363	369.71
391.743	352.53
392.122	363.83
392.501	367.67
392.881	372.19
393.26	356.6
393.639	359.54
394.018	379.65
394.397	367.45
394.776	391.85
395.155	367.45
395.534	371.97
395.913	383.04
396.292	389.37
396.671	376.94
397.05	391.18
397.429	377.39
397.808	390.95
398.186	389.14
398.565	394.57
398.944	404.96
399.323	398.63
399.701	407.9
400.08	410.38
400.458	427.79
400.837	396.15
401.215	410.16
401.594	416.71
401.972	409.48
402.351	397.5
402.729	423.04
403.107	425.07
403.486	444.73
403.864	451.06
404.242	415.58
404.62	445.41
404.999	436.15
405.377	444.73
405.755	453.1
406.133	450.61
406.511	467.11
406.889	457.84
407.267	481.34
407.645	476.37
408.023	487.9
408.401	489.03
408.779	501
409.156	504.39
409.534	501.91
409.912	515.47
410.29	512.3
410.667	543.26
411.045	524.73
411.422	521.79
411.8	548.01
412.178	530.61
412.555	552.3
412.933	564.73
413.31	597.95
413.687	596.37
414.065	604.28
414.442	603.37
414.819	605.41
415.197	641.57
415.574	633.66
415.951	649.7
416.328	648.34
416.705	644.95
417.082	676.82
417.46	689.47
417.837	676.82
418.214	675.24
418.591	706.65
418.967	714.78
419.344	710.72
419.721	733.54
420.098	750.04
420.475	752.07
420.852	772.64
421.228	753.43
421.605	787.32
421.982	784.84
422.358	832.75
422.735	801.79
423.111	837.04
423.488	841.33
423.864	856.47
424.241	888.11
424.617	888.11
424.994	915.68
425.37	915.68
425.746	920.2
426.123	937.6
426.499	942.57
426.875	955.46
427.251	995.23
427.627	1017.15
428.003	1018.05
428.379	1031.84
428.756	1047.43
429.132	1048.33
429.507	1089.01
429.883	1059.86
430.259	1090.14
430.635	1078.16
431.011	1111.38
431.387	1127.43
431.763	1127.65
432.138	1162.91
432.514	1188.67
432.89	1175.79
433.265	1218.5
433.641	1229.8
434.016	1255.56
434.392	1266.18
434.767	1303.24
435.143	1293.53
435.518	1339.85
435.894	1337.37
436.269	1378.72
436.644	1437.25
437.02	1450.36
437.395	1437.25
437.77	1509.34
438.145	1495.78
438.52	1521.09
438.895	1542.11
439.271	1572.39
439.646	1586.17
440.021	1640.86
440.395	1641.54
440.77	1632.27
441.145	1663.01
441.52	1710.69
441.895	1699.39
442.27	1693.74
442.645	1752.04
443.019	1774.64
443.394	1732.38
443.769	1806.96
444.143	1804.47
444.518	1835.21
444.892	1821.2
445.267	1881.08
445.641	1874.53
446.016	1925.6
446.39	1925.15
446.764	1937.8
447.139	1933.28
447.513	1974.41
447.887	1957.01
448.262	1962.21
448.636	2001.76
449.01	2034.75
449.384	2048.76
449.758	2055.09
450.132	2066.61
450.506	2060.96
450.88	2095.99
451.254	2108.65
451.628	2129.44
452.002	2161.07
452.376	2185.25
452.75	2180.06
453.123	2235.65
453.497	2254.63
453.871	2272.93
454.244	2279.71
454.618	2342.31
454.992	2340.73
455.365	2366.49
455.739	2404
456.112	2396.55
456.486	2391.8
456.859	2474.74
457.232	2527.84
457.606	2487.84
457.979	2540.05
458.352	2583.21
458.725	2601.06
459.099	2608.52
459.472	2665.69
459.845	2707.05
460.218	2696.43
460.591	2751.34
460.964	2747.95
461.337	2815.75
461.71	2838.57
462.083	2903.65
462.456	2873.82
462.829	2887.61
463.201	2933.71
463.574	2943.65
463.947	3011.22
464.32	3067.26
464.692	3092.8
465.065	3103.87
465.438	3154.95
465.81	3190.65
466.183	3204.21
466.555	3293.7
466.928	3236.3
467.3	3320.82
467.672	3333.92
468.045	3408.95
468.417	3454.6
468.789	3493.47
469.161	3534.6
469.534	3543.41
469.906	3634.71
470.278	3650.75
470.65	3668.83
471.022	3722.16
471.394	3810.75
471.766	3811.65
472.138	3887.13
472.51	3932.33
472.882	3978.2
473.253	4036.05
473.625	4131.87
473.997	4217.97
474.369	4203.73
474.74	4243.5
475.112	4312.65
475.484	4366.89
475.855	4443.27
476.227	4436.04
476.598	4568.02
476.97	4583.83
477.341	4697.73
477.713	4716.94
478.084	4753.55
478.455	4894.33
478.827	4896.82
479.198	5065.86
479.569	5045.74
479.94	5196.25
480.311	5177.72
480.682	5289.8
481.053	5433.76
481.424	5469.91
481.795	5509.69
482.166	5609.57
482.537	5664.03
482.908	5784.71
483.279	5797.59
483.65	5864.7
484.021	5993.97
484.391	6031.93
484.762	6097.47
485.133	6093.4
485.503	6232.6
485.874	6347.63
486.244	6417.68
486.615	6468.08
486.985	6524.57
487.356	6653.84
487.726	6713.5
488.097	6800.05
488.467	6846.6
488.837	6892.47
489.207	7021.51
489.578	7083.43
489.948	7092.47
490.318	7203.88
490.688	7239.36
491.058	7378.11
491.428	7367.04
491.798	7420.37
492.168	7601.16
492.538	7692.23
492.908	7677.99
493.278	7767.03
493.648	7812.22
494.017	7844.09
494.387	7902.39
494.757	7908.49
495.126	8009.51
495.496	8067.36
495.866	8074.82
496.235	8169.5
496.605	8232.78
496.974	8232.1
497.344	8265.55
497.713	8331.08
498.082	8444.75
498.452	8429.38
498.821	8474.81
499.19	8462.6
499.559	8589.15
499.928	8566.33
500.298	8611.98
500.667	8680.68
501.036	8720.22
501.405	8691.3
501.774	8717.74
502.143	8732.65
502.512	8815.81
502.88	8866.66
503.249	8809.71
503.618	8893.33
503.987	8881.12
504.356	8951.63
504.724	8992.31
505.093	8968.35
505.462	9058.97
505.83	9039.08
506.199	9062.59
506.567	9141.68
506.936	9159.99
507.304	9225.75
507.672	9159.76
508.041	9220.32
508.409	9239.31
508.777	9343.71
509.145	9326.08
509.514	9319.3
509.882	9338.96
510.25	9335.12
510.618	9332.41
510.986	9379.87
511.354	9459.86
511.722	9455.8
512.09	9516.13
512.458	9435.23
512.826	9528.34
513.193	9492.18
513.561	9590.93
513.929	9595
514.297	9627.09
514.664	9632.29
515.032	9625.28
515.4	9699.18
515.767	9640.42
516.135	9669.58
516.502	9593.42
516.869	9716.35
517.237	9686.98
517.604	9666.64
517.972	9817.37
518.339	9777.37
518.706	9733.98
519.073	9737.82
519.44	9756.13
519.808	9827.54
520.175	9769.46
520.542	9913.19
520.909	9804.26
521.276	9785.96
521.643	9865.73
522.009	9863.47
522.376	9812.4
522.743	9873.86
523.11	9899.85
523.477	10000.87
523.843	10018.72
524.21	9997.93
524.577	10006.06
524.943	10019.17
525.31	10038.83
525.676	10121.32
526.043	10065.05
526.409	10056.68
526.776	10137.59
527.142	10072.96
527.508	10112.28
527.874	10080.19
528.241	10119.96
528.607	10093.07
528.973	10197.02
529.339	10102.56
529.705	10168.77
530.071	10127.19
530.437	10148.66
530.803	10143.46
531.169	10125.61
531.535	10066.63
531.901	10145.04
532.267	10045.39
532.632	10020.75
532.998	10016.91
533.364	10061.88
533.73	10037.25
534.095	10027.08
534.461	10037.02
534.826	10000.64
535.192	10037.93
535.557	10025.5
535.923	9924.71
536.288	9954.54
536.653	9922.22
537.019	9937.59
537.384	9850.81
537.749	9880.64
538.114	9885.16
538.479	9810.36
538.845	9787.77
539.21	9740.08
539.575	9773.08
539.94	9775.34
540.305	9767.2
540.67	9742.34
541.034	9648.79
541.399	9653.31
541.764	9628.9
542.129	9641.1
542.494	9593.87
542.858	9617.37
543.223	9505.74
543.587	9565.62
543.952	9445.63
544.316	9499.64
544.681	9397.04
545.045	9377.61
545.41	9374.89
545.774	9372.41
546.138	9291.96
546.503	9319.75
546.867	9282.69
547.231	9274.33
547.595	9287.21
547.959	9252.86
548.324	9148.69
548.688	9173.54
549.052	9149.59
549.416	9117.05
549.779	9109.36
550.143	9046.54
550.507	9079.76
550.871	9040.89
551.235	9002.93
551.599	9041.34
551.962	8998.18
552.326	8949.14
552.689	8949.37
553.053	8886.77
553.417	8863.95
553.78	8899.88
554.143	8841.58
554.507	8899.65
554.87	8804.06
555.234	8846.77
555.597	8711.64
555.96	8696.72
556.323	8758.19
556.686	8693.78
557.05	8730.39
557.413	8734.69
557.776	8676.83
558.139	8708.92
558.502	8704.18
558.865	8685.65
559.228	8622.82
559.59	8663.73
559.953	8696.49
560.316	8756.83
560.679	8660.79
561.041	8734.91
561.404	8609.27
561.767	8697.85
562.129	8620.79
562.492	8674.57
562.854	8652.43
563.217	8562.26
563.579	8661.02
563.941	8696.04
564.304	8663.73
564.666	8657.17
565.028	8653.56
565.39	8685.87
565.753	8639.55
566.115	8678.87
566.477	8692.43
566.839	8716.38
567.201	8745.31
567.563	8718.19
567.925	8721.13
568.287	8702.37
568.648	8740.34
569.01	8798.41
569.372	8803.61
569.734	8753.22
570.095	8766.1
570.457	8784.63
570.819	8794.12
571.18	8769.26
571.542	8820.56
571.903	8829.37
572.265	8823.5
572.626	8851.07
572.987	8867.11
573.349	8873.89
573.71	8801.12
574.071	8857.62
574.432	8899.88
574.794	8967
575.155	8928.58
575.516	8856.26
575.877	8958.18
576.238	8894.23
576.599	8955.24
576.96	8933.55
577.32	9009.03
577.681	8973.55
578.042	9019.2
578.403	8989.59
578.763	8960.89
579.124	8969.71
579.485	9013.77
579.845	9023.94
580.206	9089.03
580.566	9111.85
580.927	9090.16
581.287	9120.89
581.648	9108.69
582.008	9108.01
582.368	9133.09
582.728	9109.82
583.089	9155.47
583.449	9161.57
583.809	9218.06
584.169	9186.65
584.529	9108.91
584.889	9218.51
585.249	9157.27
585.609	9072.53
585.969	9236.59
586.329	9113.43
586.688	9152.75
587.048	9107.78
587.408	9183.71
587.768	9146.2
588.127	9180.78
588.487	9162.7
588.846	9185.07
589.206	9249.25
589.565	9217.38
589.925	9260.55
590.284	9215.58
590.643	9249.7
591.003	9251.28
591.362	9313.2
591.721	9267.78
592.08	9280.21
592.44	9264.62
592.799	9306.42
593.158	9244.5
593.517	9295.8
593.876	9348.91
594.235	9249.93
594.593	9303.03
594.952	9279.3
595.311	9270.49
595.67	9265.52
596.029	9300.32
596.387	9313.43
596.746	9388.68
597.104	9270.94
597.463	9295.57
597.822	9324.95
598.18	9268.68
598.538	9299.87
598.897	9341
599.255	9230.94
599.613	9345.74
599.972	9266.65
600.33	9410.6
600.688	9359.53
601.046	9392.3
601.404	9381.9
601.762	9362.47
602.12	9364.27
602.478	9376.48
602.836	9388.68
603.194	9383.03
603.552	9329.02
603.91	9322.47
604.268	9320.43
604.625	9347.78
604.983	9406.31
605.341	9350.94
605.698	9350.71
606.056	9382.35
606.413	9431.39
606.771	9397.04
607.128	9439.07
607.485	9392.52
607.843	9399.75
608.2	9417.38
608.557	9476.59
608.914	9409.47
609.272	9491.95
609.629	9443.59
609.986	9480.43
610.343	9481.33
610.7	9532.4
611.057	9494.21
611.414	9520.2
611.771	9446.31
612.127	9554.33
612.484	9560.65
612.841	9579.18
613.198	9542.57
613.554	9572.4
613.911	9543.7
614.267	9582.57
614.624	9506.42
614.98	9524.5
615.337	9564.49
615.693	9545.51
616.05	9562.23
616.406	9616.02
616.762	9556.13
617.118	9563.59
617.475	9585.74
617.831	9625.96
618.187	9566.53
618.543	9617.6
618.899	9664.15
619.255	9624.61
619.611	9680.42
619.967	9641.33
620.323	9697.6
620.678	9632.74
621.034	9630.48
621.39	9630.93
621.746	9620.31
622.101	9679.97
622.457	9638.62
622.812	9669.12
623.168	9681.1
623.523	9665.06
623.879	9723.81
624.234	9648.56
624.589	9696.24
624.945	9744.38
625.3	9667.09
625.655	9674.55
626.01	9703.93
626.365	9653.31
626.72	9678.16
627.075	9624.38
627.43	9654.89
627.785	9607.21
628.14	9716.13
628.495	9665.96
628.85	9656.7
629.205	9615.79
629.559	9674.1
629.914	9589.58
630.269	9551.84
630.623	9617.83
630.978	9629.35
631.332	9590.48
631.687	9611.05
632.041	9527.43
632.396	9546.87
632.75	9485.17
633.104	9577.15
633.459	9512.52
633.813	9509.58
634.167	9484.27
634.521	9518.39
634.875	9520.2
635.229	9492.41
635.583	9433.88
635.937	9442.46
636.291	9369.92
636.645	9429.13
636.999	9394.56
637.352	9434.33
637.706	9330.6
638.06	9408.79
638.413	9374.89
638.767	9340.77
639.121	9313.88
639.474	9331.73
639.828	9272.3
640.181	9326.99
640.534	9293.09
640.888	9302.81
641.241	9216.93
641.594	9269.81
641.947	9342.81
642.301	9235.92
642.654	9275.46
643.007	9273.88
643.36	9318.63
643.713	9173.54
644.066	9206.54
644.419	9215.8
644.771	9164.96
645.124	9094.68
645.477	9140.55
645.83	8929.71
646.182	8957.73
646.535	8916.15
646.888	8955.7
647.24	8857.39
647.593	8873.21
647.945	8894.68
648.298	8860.11
648.65	8865.08
649.002	8853.78
649.355	8925.19
649.707	8870.05
650.059	8936.26
650.411	9026.43
650.763	9057.16
651.115	9164.96
651.467	9131.74
651.819	9124.28
652.171	9102.36
652.523	9071.85
652.875	9084.73
653.227	9039.54
653.578	9123.6
653.93	9098.07
654.282	9043.6
654.633	9078.86
654.985	9097.61
655.337	9135.58
655.688	9164.5
656.039	9115.24
656.391	9103.94
656.742	9097.39
657.094	9090.38
657.445	9183.49
657.796	9129.48
658.147	9082.25
658.498	9122.47
658.849	9128.8
659.2	9146.43
659.551	9129.93
659.902	9165.18
660.253	9139.87
660.604	9165.63
660.955	9079.54
661.306	9181.91
661.656	9166.99
662.007	9156.37
662.358	9131.96
662.708	9185.3
663.059	9226.2
663.409	9074.34
663.76	9197.95
664.11	9127.44
664.461	9135.35
664.811	9155.92
665.161	9161.79
665.511	9126.54
665.862	9144.17
666.212	9237.72
666.562	9138.97
666.912	9133.77
667.262	9214.45
667.612	9136.71
667.962	9194.56
668.312	9163.6
668.662	9214
669.011	9186.2
669.361	9162.7
669.711	9180.78
670.06	9083.83
670.41	9052.64
670.76	9059.87
671.109	9142.58
671.459	9126.09
671.808	9095.58
672.157	9119.76
672.507	9068.24
672.856	9062.36
673.205	9095.13
673.554	9110.72
673.904	9086.77
674.253	9069.37
674.602	9066.88
674.951	8950.05
675.3	8944.4
675.649	9001.57
675.998	9050.38
676.346	8973.78
676.695	9021.46
677.044	8979.2
677.393	8949.14
677.741	9026.43
678.09	8978.97
678.438	8956.83
678.787	8974.68
679.135	8936.94
679.484	8908.24
679.832	8922.03
680.181	8905.08
680.529	8950.5
680.877	8855.13
681.225	8849.48
681.573	8842.25
681.922	8790.73
682.27	8798.86
682.618	8798.64
682.966	8791.86
683.314	8835.7
683.661	8788.92
684.009	8737.4
684.357	8680
684.705	8697.4
685.053	8696.95
685.4	8705.31
685.748	8638.64
686.095	8614.91
686.443	8517.52
686.79	8520.45
687.138	8610.62
687.485	8596.16
687.832	8560.9
688.18	8535.59
688.527	8402.49
688.874	8469.83
689.221	8462.38
689.568	8373.79
689.915	8464.41
690.262	8353.9
690.609	8337.63
690.956	8296.05
691.303	8307.35
691.65	8239.56
691.997	8311.42
692.344	8213.34
692.69	8173.57
693.037	8198.65
693.383	8077.98
693.73	8100.8
694.077	8059.22
694.423	8043.86
694.769	8014.93
695.116	7991.65
695.462	7934.93
695.808	7963.63
696.155	7965.67
696.501	7846.35
696.847	7866.91
697.193	7805.67
697.539	7793.24
697.885	7692.45
698.231	7743.07
698.577	7711.21
698.923	7713.7
699.269	7619.23
699.614	7616.52
699.96	7622.85
700.306	7589.86
700.651	7546.24
700.997	7610.87
701.342	7462.4
701.688	7499.69
702.033	7458.11
702.379	7410.88
702.724	7437.32
703.069	7428.96
703.415	7347.83
703.76	7352.8
704.105	7310.99
704.45	7297.89
704.795	7254.95
705.14	7234.39
705.485	7212.47
705.83	7196.42
706.175	7156.2
706.52	7148.74
706.865	7084.56
707.209	7120.49
707.554	7063.77
707.899	7073.26
708.243	7039.59
708.588	7018.35
708.932	6996.88
709.277	6967.5
709.621	6966.6
709.966	6940.83
710.31	6957.11
710.654	6876.88
710.998	6849.76
711.342	6851.8
711.687	6880.72
712.031	6814.06
712.375	6786.04
712.719	6786.04
713.063	6746.49
713.407	6805.47
713.75	6781.29
714.094	6699.48
714.438	6703.33
714.782	6724.34
715.125	6652.48
715.469	6720.73
715.812	6662.88
716.156	6607.51
716.499	6576.1
716.843	6630.56
717.186	6626.94
717.53	6666.04
717.873	6645.7
718.216	6618.81
718.559	6570.45
718.902	6525.93
719.246	6571.35
719.589	6550.79
719.932	6552.37
720.275	6541.52
720.617	6529.32
720.96	6491.13
721.303	6568.64
721.646	6517.34
721.989	6487.97
722.331	6516.89
722.674	6535.42
723.016	6464.24
723.359	6486.61
723.701	6488.19
724.044	6452.71
724.386	6447.97
724.729	6499.72
725.071	6470.79
725.413	6452.03
725.755	6464.01
726.097	6454.29
726.439	6416.55
726.782	6402.54
727.124	6428.08
727.465	6423.56
727.807	6360.06
728.149	6380.62
728.491	6430.79
728.833	6388.08
729.175	6388.31
729.516	6434.18
729.858	6376.1
730.199	6384.92
730.541	6374.75
730.882	6390.79
731.224	6381.53
731.565	6362.54
731.906	6378.36
732.248	6370.68
732.589	6343.34
732.93	6361.41
733.271	6420.17
733.612	6355.77
733.953	6387.4
734.294	6332.49
734.635	6329.78
734.976	6402.32
735.317	6405.71
735.658	6358.7
735.999	6384.46
736.339	6424.24
736.68	6404.35
737.021	6424.46
737.361	6393.28
737.702	6386.95
738.042	6382.43
738.383	6400.51
738.723	6419.94
739.063	6454.52
739.404	6436.21
739.744	6476.21
740.084	6420.4
740.424	6507.63
740.764	6453.39
741.104	6474.18
741.444	6525.7
741.784	6543.56
742.124	6612.93
742.464	6516.89
742.804	6582.43
743.143	6608.64
743.483	6606.61
743.823	6612.71
744.162	6641.18
744.502	6698.35
744.841	6724.12
745.181	6672.14
745.52	6770.9
745.86	6791.23
746.199	6827.39
746.538	6871.46
746.877	6916.88
747.216	6949.65
747.556	6933.83
747.895	7033.94
748.234	7041.85
748.573	7032.58
748.911	7133.82
749.25	7188.74
749.589	7192.13
749.928	7300.37
750.267	7418.11
750.605	7478.9
750.944	7474.38
751.283	7570.42
751.621	7639.57
751.96	7728.61
752.298	7794.82
752.636	7903.75
752.975	7953.46
753.313	8009.96
753.651	8121.14
753.989	8253.12
754.327	8323.4
754.666	8415.82
755.004	8559.77
755.342	8597.74
755.679	8790.73
756.017	8943.27
756.355	9060.55
756.693	9132.42
757.031	9336.7
757.368	9454.89
757.706	9591.84
758.044	9646.53
758.381	9862.79
758.719	9955.44
759.056	10137.36
759.394	10299.62
759.731	10458.71
760.068	10477.69
760.405	10644.47
760.743	10896.89
761.08	11036.09
761.417	11168.97
761.754	11355.41
762.091	11512.92
762.428	11627.94
762.765	11846.47
763.102	12088.95
763.438	12114.26
763.775	12316.51
764.112	12501.82
764.449	12747.91
764.785	12845.99
765.122	12997.4
765.458	13149.26
765.795	13225.19
766.131	13438.52
766.467	13579.76
766.804	13699.3
767.14	13850.26
767.476	14050.7
767.812	14128.89
768.148	14364.14
768.485	14464.93
768.821	14528.66
769.157	14751.93
769.492	14833.96
769.828	15057.46
770.164	15019.94
770.5	15175.87
770.836	15396.21
771.171	15360.95
771.507	15494.96
771.842	15555.75
772.178	15738.12
772.513	15745.35
772.849	15794.84
773.184	15833.26
773.519	16124.77
773.855	16052.69
774.19	16183.08
774.525	16255.39
774.86	16306.92
775.195	16484.76
775.53	16369.74
775.865	16527.7
776.2	16509.17
776.535	16547.81
776.87	16601.37
777.205	16717.3
777.539	16648.6
777.874	16834.13
778.209	16656.96
778.543	16769.5
778.878	16759.79
779.212	17010.63
779.547	16912.32
779.881	17020.57
780.215	16976.73
780.55	17076.39
780.884	17013.11
781.218	17033.45
781.552	17184.63
781.886	17058.08
782.22	17065.09
782.554	17161.81
782.888	17085.65
783.222	17074.58
783.556	17040.91
783.889	17091.98
784.223	16990.74
784.557	17018.08
784.89	17103.28
785.224	16969.5
785.557	16957.07
785.891	16997.75
786.224	17044.3
786.558	16993.68
786.891	16896.73
787.224	16983.06
787.557	16897.18
787.891	16935.15
788.224	16980.12
788.557	16970.63
788.89	16863.96
789.223	17031.64
789.556	16859.22
789.888	16838.2
790.221	16807.69
790.554	16770.18
790.887	16755.94
791.219	16734.02
791.552	16683.18
791.884	16734.25
792.217	16717.75
792.549	16623.29
792.882	16556.85
793.214	16574.71
793.546	16541.71
793.879	16421.72
794.211	16406.57
794.543	16523.18
794.875	16423.75
795.207	16555.5
795.539	16358.67
795.871	16441.83
796.203	16266.92
796.535	16306.01
796.867	16277.31
797.198	16155.96
797.53	16276.41
797.862	16086.81
798.193	16177.65
798.525	16028.05
798.856	16072.57
799.188	16000.03
799.519	15923.65
799.85	15820.37
800.182	15907.6
800.513	15876.42
800.844	15708.74
801.175	15827.83
801.506	15893.37
801.837	15696.76
802.168	15719.13
802.499	15776.08
802.83	15671.9
803.161	15546.26
803.491	15542.42
803.822	15577.22
804.153	15523.66
804.483	15421.29
804.814	15416.32
805.145	15403.66
805.475	15341.07
805.805	15254.51
806.136	15349.43
806.466	15323.44
806.796	15278.24
807.126	15310.78
807.457	15145.59
807.787	15199.37
808.117	15132.26
808.447	15093.61
808.777	15165.48
809.107	15037.12
809.436	14966.16
809.766	14941.75
810.096	14977.69
810.426	14910.12
810.755	14921.64
811.085	14885.71
811.414	14845.26
811.744	14730.46
812.073	14725.04
812.403	14721.19
812.732	14645.26
813.061	14747.18
813.39	14556.45
813.719	14539.28
814.049	14651.14
814.378	14575.21
814.707	14543.57
815.036	14518.26
815.365	14471.03
815.693	14346.74
816.022	14372.05
816.351	14320.3
816.68	14261.77
817.008	14349.91
817.337	14185.16
817.665	14212.06
817.994	14257.48
818.322	14238.95
818.651	14199.63
818.979	14110.36
819.307	14214.09
819.636	14147.65
819.964	14038.27
820.292	14075.11
820.62	14071.72
820.948	13994.43
821.276	14062.68
821.604	14025.17
821.932	14077.14
822.259	14096.8
822.587	14019.29
822.915	14012.06
823.243	14055.45
823.57	13968.22
823.898	13992.85
824.225	13935.45
824.553	13977.03
824.88	14001.44
825.207	13994.89
825.535	13985.62
825.862	14018.39
826.189	13955.11
826.516	14129.35
826.843	14104.04
827.17	14011.16
827.497	14069.01
827.824	14089.12
828.151	14049.35
828.478	14105.62
828.805	14136.13
829.131	14056.58
829.458	14069.01
829.785	13961.67
830.111	14039.86
830.438	14086.18
830.764	14103.13
831.09	14018.39
831.417	13992.17
831.743	14076.69
832.069	14069.69
832.395	13963.7
832.722	14081.44
833.048	14000.31
833.374	13984.27
833.7	13888.9
834.026	13909.01
834.351	13950.82
834.677	13949.24
835.003	13949.01
835.329	13899.07
835.654	13944.49
835.98	13810.26
836.306	13886.64
836.631	13817.49
836.956	13941.78
837.282	13893.87
837.607	13834.21
837.932	13706.31
838.258	13815.46
838.583	13710.37
838.908	13716.93
839.233	13685.74
839.558	13703.59
839.883	13594.9
840.208	13581.79
840.533	13626.53
840.858	13621.79
841.182	13589.7
841.507	13576.59
841.832	13446.2
842.156	13464.28
842.481	13546.99
842.805	13417.73
843.13	13391.74
843.454	13369.37
843.778	13313.55
844.103	13323.94
844.427	13275.13
844.751	13295.92
845.075	13266.09
845.399	13229.71
845.723	13058.64
846.047	13092.31
846.371	12997.17
846.695	13069.03
847.019	12919.89
847.343	12833.11
847.666	12791.75
847.99	12765.09
848.313	12756.5
848.637	12689.16
848.96	12721.25
849.284	12577.97
849.607	12558.54
849.931	12455.72
850.254	12434.7
850.577	12387.92
850.9	12322.16
851.223	12240.58
851.546	12248.94
851.869	12099.57
852.192	12221.15
852.515	12099.79
852.838	12083.3
853.161	12135.05
853.483	11974.6
853.806	11908.84
854.129	11936.18
854.451	11881.72
854.774	11742.74
855.096	11760.82
855.419	11768.05
855.741	11666.59
856.063	11642.18
856.385	11661.61
856.708	11519.25
857.03	11530.77
857.352	11563.99
857.674	11585.46
857.996	11476.53
858.318	11437.21
858.64	11330.55
858.961	11371.68
859.283	11323.54
859.605	11296.88
859.926	11286.93
860.248	11251.46
860.57	11210.55
860.891	11259.36
861.212	11200.61
861.534	11142.08
861.855	11105.02
862.176	11065.92
862.498	11095.08
862.819	11054.4
863.14	11015.53
863.461	10954.51
863.782	10975.53
864.103	10946.83
864.424	10909.09
864.745	10954.06
865.065	10865.7
865.386	10915.65
865.707	10859.83
866.027	10819.6
866.348	10856.89
866.668	10846.04
866.989	10826.16
867.309	10755.65
867.63	10736.89
867.95	10782.54
868.27	10626.84
868.59	10724.46
868.91	10642.21
869.23	10620.74
869.55	10561.53
869.87	10648.31
870.19	10587.97
870.51	10618.03
870.83	10681.08
871.15	10512.72
871.469	10525.15
871.789	10581.64
872.109	10503
872.428	10458.71
872.748	10489.44
873.067	10472.49
873.386	10474.75
873.706	10452.38
874.025	10372.83
874.344	10347.75
874.663	10379.16
874.982	10331.71
875.301	10342.78
875.62	10291.93
875.939	10261.2
876.258	10391.37
876.577	10307.3
876.896	10234.53
877.214	10213.29
877.533	10238.83
877.852	10173.52
878.17	10183.91
878.489	10126.06
878.807	10171.48
879.125	10169.45
879.444	10133.97
879.762	10119.51
880.08	10130.58
880.398	10067.76
880.716	9986.63
881.034	10024.82
881.352	10050.36
881.67	9939.17
881.988	10010.58
882.306	9945.5
882.624	9893.07
882.941	9860.53
883.259	9878.38
883.577	9851.04
883.894	9800.87
884.212	9827.54
884.529	9782.57
884.846	9756.13
885.164	9712.29
885.481	9768.56
885.798	9731.04
886.115	9692.4
886.432	9698.5
886.75	9597.49
887.067	9668.9
887.383	9614.44
887.7	9604.27
888.017	9529.69
888.334	9579.64
888.651	9498.51
888.967	9494.67
889.284	9404.5
889.6	9392.75
889.917	9318.17
890.233	9339.19
890.55	9351.17
890.866	9313.2
891.182	9282.69
891.498	9240.66
891.815	9198.4
892.131	9156.82
892.447	9177.16
892.763	9181.91
893.079	9097.16
893.395	9045.19
893.71	9060.33
894.026	9038.86
894.342	9045.19
894.657	8919.99
894.973	8922.25
895.289	8900.1
895.604	8827.79
895.92	8840.67
896.235	8761.58
896.55	8786.66
896.865	8743.5
897.181	8753.44
897.496	8776.27
897.811	8657.4
898.126	8669.6
898.441	8647.23
898.756	8643.39
899.071	8575.37
899.386	8481.81
899.7	8446.11
900.015	8426.9
900.33	8341.02
900.644	8376.28
900.959	8355.49
901.273	8361.81
901.588	8296.05
901.902	8258.31
902.216	8193.23
902.531	8168.37
902.845	8163.63
903.159	8107.58
903.473	8099.22
903.787	8101.48
904.101	7948.27
904.415	8053.57
904.729	8007.7
905.042	7929.96
905.356	7952.56
905.67	7899.45
905.984	7844.54
906.297	7888.61
906.611	7802.96
906.924	7780.81
907.237	7752.79
907.551	7714.37
907.864	7645.9
908.177	7634.15
908.491	7586.02
908.804	7638.67
909.117	7561.84
909.43	7529.97
909.743	7485.68
910.056	7482.52
910.368	7409.52
910.681	7408.39
910.994	7412.01
911.307	7325.46
911.619	7294.05
911.932	7341.05
912.244	7276.87
912.557	7242.97
912.869	7165.91
913.181	7173.82
913.494	7162.52
913.806	7071.9
914.118	7081.62
914.43	7094.5
914.742	7067.16
915.054	6983.55
915.366	6992.36
915.678	6937.22
915.99	6904.68
916.302	6845.02
916.613	6805.92
916.925	6809.09
917.236	6839.82
917.548	6756.88
917.859	6725.7
918.171	6735.19
918.482	6737
918.794	6664.23
919.105	6675.3
919.416	6598.7
919.727	6564.57
920.038	6524.57
920.349	6524.57
920.66	6498.36
920.971	6492.48
921.282	6439.38
921.593	6437.57
921.903	6420.17
922.214	6340.62
922.525	6339.95
922.835	6310.57
923.146	6309.44
923.456	6225.6
923.767	6254.52
924.077	6194.87
924.387	6178.59
924.697	6182.21
925.008	6123.45
925.318	6079.84
925.628	6092.95
925.938	6047.98
926.248	5991.25
926.558	6011.37
926.867	6000.07
927.177	5965.04
927.487	5965.72
927.796	5899.96
928.106	5913.29
928.416	5863.57
928.725	5857.02
929.034	5784.93
929.344	5808.66
929.653	5788.55
929.962	5773.41
930.271	5673.07
930.581	5713.75
930.89	5670.13
931.199	5657.25
931.508	5617.03
931.817	5637.37
932.125	5633.52
932.434	5582.45
932.743	5545.16
933.051	5521.66
933.36	5531.83
933.669	5498.16
933.977	5464.72
934.286	5417.26
934.594	5406.64
934.902	5375.45
935.21	5344.94
935.519	5325.96
935.827	5326.41
936.135	5316.24
936.443	5256.13
936.751	5276.47
937.059	5306.53
937.367	5234.44
937.674	5214.1
937.982	5251.84
938.29	5152.41
938.597	5162.12
938.905	5130.49
939.213	5082.13
939.52	5090.49
939.827	5088
940.135	5010.04
940.442	5005.97
940.749	5035.8
941.056	4939.31
941.363	4956.48
941.67	4936.14
941.977	4889.81
942.284	4889.14
942.591	4837.61
942.898	4810.95
943.205	4834
943.511	4807.33
943.818	4753.1
944.125	4727.11
944.431	4735.69
944.738	4726.66
945.044	4679.88
945.35	4669.26
945.657	4609.37
945.963	4621.12
946.269	4569.6
946.575	4636.26
946.881	4567.79
947.187	4544.06
947.493	4545.19
947.799	4530.28
948.105	4473.33
948.41	4478.3
948.716	4459.32
949.022	4408.92
949.327	4422.03
949.633	4377.96
949.938	4392.2
950.244	4412.99
950.549	4380.9
950.854	4338.64
951.16	4332.77
951.465	4263.62
951.77	4262.26
952.075	4241.24
952.38	4204.86
952.685	4206.44
952.99	4217.06
953.294	4175.94
953.599	4167.12
953.904	4170.06
954.209	4124.41
954.513	4086.22
954.818	4084.19
955.122	4040.12
955.426	4050.97
955.731	4042.15
956.035	4042.61
956.339	4011.19
956.643	3991.31
956.948	3978.65
957.252	3983.4
957.556	3966.68
957.86	3896.17
958.163	3883.06
958.467	3895.94
958.771	3868.6
959.075	3892.33
959.378	3807.13
959.682	3800.8
959.985	3769.84
960.289	3777.08
960.592	3730.52
960.896	3755.83
961.199	3766.68
961.502	3758.55
961.805	3738.43
962.108	3673.58
962.411	3674.48
962.714	3636.29
963.017	3648.27
963.32	3637.19
963.623	3631.32
963.926	3621.83
964.228	3599.68
964.531	3566.69
964.833	3513.58
965.136	3526.91
965.438	3554.71
965.741	3512.45
966.043	3505.67
966.345	3507.25
966.648	3469.29
966.95	3471.77
967.252	3436.97
967.554	3425.45
967.856	3440.81
968.158	3347.26
968.46	3338.44
968.761	3334.15
969.063	3345.9
969.365	3340.03
969.666	3326.01
969.968	3312.23
970.269	3270.87
970.571	3283.76
970.872	3253.7
971.174	3277.65
971.475	3230.88
971.776	3216.19
972.077	3229.07
972.378	3207.37
972.679	3188.16
972.98	3149.3
973.281	3168.5
973.582	3123.99
973.883	3111.56
974.183	3102.74
974.484	3105.68
974.785	3070.88
975.085	3042.41
975.386	3052.12
975.686	3035.85
975.986	3009.86
976.287	2995.63
976.587	2980.03
976.887	3003.31
977.187	2957.44
977.487	2988.62
977.787	2919.7
978.087	2921.05
978.387	2924.22
978.687	2878.79
978.987	2913.37
979.286	2872.24
979.586	2890.09
979.885	2852.81
980.185	2860.04
980.484	2821.39
980.784	2820.04
981.083	2787.5
981.382	2816.65
981.682	2785.24
981.981	2761.28
982.28	2764
982.579	2738.91
982.878	2721.74
983.177	2705.24
983.475	2738.69
983.774	2707.05
984.073	2705.01
984.372	2677.9
984.67	2651
984.969	2672.7
985.267	2680.83
985.566	2629.08
985.864	2598.35
986.162	2611
986.461	2576.66
986.759	2589.31
987.057	2558.58
987.355	2505.92
987.653	2538.92
987.951	2538.46
988.249	2535.98
988.547	2526.49
988.844	2503.66
989.142	2470.22
989.44	2477
989.737	2464.12
990.035	2446.72
990.332	2443.55
990.63	2452.14
990.927	2442.2
991.224	2407.62
991.521	2383.44
991.819	2379.37
992.116	2364.46
992.413	2398.81
992.71	2380.28
993.006	2366.49
993.303	2341.18
993.6	2336.66
993.897	2296.21
994.193	2305.25
994.49	2278.58
994.787	2278.58
995.083	2273.16
995.379	2230
995.676	2245.14
995.972	2251.92
996.268	2272.71
996.565	2191.13
996.861	2192.48
997.157	2172.82
997.453	2198.36
997.749	2179.15
998.044	2151.36
998.34	2164.46
998.636	2148.87
998.932	2121.98
999.227	2121.07
999.523	2114.52
999.818	2064.35
1000.114	2081.98
1000.409	2049.44
1000.704	2048.53
1001	2032.71
1001.295	2041.08
1001.59	2006.73
1001.885	2022.77
1002.18	2013.51
1002.475	1990
1002.77	1974.41
1003.065	1971.25
1003.359	1961.3
1003.654	1952.94
1003.949	1937.12
1004.243	1939.16
1004.538	1933.73
1004.832	1912.72
1005.127	1862.55
1005.421	1863.45
1005.715	1880.63
1006.009	1852.61
1006.304	1878.59
1006.598	1831.59
1006.892	1850.35
1007.186	1811.93
1007.48	1825.94
1007.773	1809.9
1008.067	1794.08
1008.361	1788.43
1008.655	1768.54
1008.948	1751.82
1009.242	1750.46
1009.535	1756.56
1009.829	1728.09
1010.122	1710.01
1010.415	1706.85
1010.708	1699.84
1011.001	1699.16
1011.295	1689
1011.588	1656.23
1011.881	1690.13
1012.173	1653.74
1012.466	1629.34
1012.759	1638.15
1013.052	1638.6
1013.344	1603.12
1013.637	1633.18
1013.93	1599.28
1014.222	1579.39
1014.514	1564.93
1014.807	1552.5
1015.099	1573.07
1015.391	1545.04
1015.683	1563.8
1015.976	1551.82
1016.268	1532.84
1016.56	1522.9
1016.851	1524.48
1017.143	1504.37
1017.435	1466.63
1017.727	1487.19
1018.018	1479.06
1018.31	1444.93
1018.602	1464.82
1018.893	1455.1
1019.185	1438.15
1019.476	1425.27
1019.767	1407.42
1020.058	1402.9
1020.35	1394.31
1020.641	1390.02
1020.932	1383.47
1021.223	1348.44
1021.514	1354.99
1021.804	1375.33
1022.095	1330.59
1022.386	1332.39
1022.677	1313.41
1022.967	1329.91
1023.258	1333.98
1023.548	1304.82
1023.839	1277.93
1024.129	1286.97
1024.419	1291.27
1024.709	1267.31
1025	1264.83
1025.29	1271.83
1025.58	1253.3
1025.87	1242.68
1026.16	1241.78
1026.449	1249.68
1026.739	1209.23
1027.029	1201.55
1027.319	1181.89
1027.608	1183.02
1027.898	1183.02
1028.187	1155.22
1028.477	1161.33
1028.766	1156.58
1029.055	1120.87
1029.344	1171.72
1029.634	1174.88
1029.923	1118.16
1030.212	1125.39
1030.501	1114.1
1030.79	1113.64
1031.078	1091.27
1031.367	1069.8
1031.656	1103.25
1031.945	1098.73
1032.233	1067.54
1032.522	1081.78
1032.81	1067.99
1033.099	1039.97
1033.387	1044.04
1033.675	1036.36
1033.963	1042.23
1034.251	1031.84
1034.54	1024.15
1034.828	1022.8
1035.116	1025.28
1035.403	1005.17
1035.691	993.87
1035.979	985.06
1036.267	1006.53
1036.554	971.95
1036.842	955.23
1037.129	954.55
1037.417	965.62
1037.704	974.44
1037.992	930.6
1038.279	947.55
1038.566	945.06
1038.853	945.06
1039.14	945.06
