Data from hue_320_FLMS001491_82.txt Node
Date: Mon Feb 06 15:47:49 GMT 2017
User: dcchb
Spectrometer: FLMS00149
Trigger mode: 0
Integration Time (sec): 2.000000E-2
Scans to average: 10
Electric dark correction enabled: true
Nonlinearity correction enabled: false
Boxcar width: 0
XAxis mode: Wavelengths
Number of Pixels in Spectrum: 2048
>>>>>Begin Spectral Data<<<<<
341.393	-2.98
341.776	-2.98
342.16	-2.98
342.543	-79.14
342.927	-52.02
343.31	-61.06
343.693	-69.65
344.077	-78.68
344.46	-49.31
344.843	-74.16
345.226	-60.61
345.61	-30.32
345.993	-11.57
346.376	-2.3
346.759	36.34
347.142	32.95
347.525	49.67
347.908	40.63
348.291	64.81
348.674	92.16
349.057	121.08
349.44	124.7
349.823	146.62
350.206	157.47
350.588	182.33
350.971	221.42
351.354	229.33
351.737	249.67
352.119	248.76
352.502	265.49
352.884	273.17
353.267	293.96
353.65	290.8
354.032	299.38
354.414	310.01
354.797	309.33
355.179	306.84
355.562	319.5
355.944	326.5
356.326	326.73
356.709	333.06
357.091	343.23
357.473	342.32
357.855	339.38
358.238	351.59
358.62	333.06
359.002	340.29
359.384	327.18
359.766	342.77
360.148	333.73
360.53	340.29
360.912	340.51
361.294	323.34
361.676	339.61
362.057	340.51
362.439	329.67
362.821	311.81
363.203	321.53
363.584	321.31
363.966	312.04
364.348	314.3
364.729	326.95
365.111	324.24
365.493	305.26
365.874	333.51
366.256	310.68
366.637	306.84
367.019	311.36
367.4	315.2
367.781	328.31
368.163	319.05
368.544	318.14
368.925	302.55
369.306	318.37
369.688	324.69
370.069	320.85
370.45	300.29
370.831	323.79
371.212	303.68
371.593	307.07
371.974	321.76
372.355	328.54
372.736	331.47
373.117	330.8
373.498	316.56
373.879	323.34
374.26	314.98
374.641	344.13
375.021	311.36
375.402	307.07
375.783	307.97
376.163	326.73
376.544	323.79
376.925	332.6
377.305	336.9
377.686	311.36
378.066	323.56
378.447	336.22
378.827	337.35
379.208	331.47
379.588	341.42
379.968	341.42
380.349	322.21
380.729	349.55
381.109	353.62
381.489	328.31
381.87	332.6
382.25	345.49
382.63	326.95
383.01	326.95
383.39	340.74
383.77	357.91
384.15	332.38
384.53	344.13
384.91	349.1
385.29	339.84
385.67	336.22
386.049	348.42
386.429	354.98
386.809	347.07
387.189	375.09
387.568	352.49
387.948	354.75
388.328	375.77
388.707	369.21
389.087	358.14
389.466	353.17
389.846	368.31
390.225	374.19
390.605	383.9
390.984	361.76
391.363	370.12
391.743	366.95
392.122	369.21
392.501	393.39
392.881	371.02
393.26	394.98
393.639	392.26
394.018	381.42
394.397	375.09
394.776	387.74
395.155	382.09
395.534	388.42
395.913	381.87
396.292	389.33
396.671	410.79
397.05	409.66
397.429	391.81
397.808	400.17
398.186	394.75
398.565	427.07
398.944	387.52
399.323	390.46
399.701	405.6
400.08	402.66
400.458	406.27
400.837	393.17
401.215	408.76
401.594	410.12
401.972	387.74
402.351	408.31
402.729	420.51
403.107	431.81
403.486	417.12
403.864	407.18
404.242	420.96
404.62	426.84
404.999	430.23
405.377	424.81
405.755	438.36
406.133	452.83
406.511	443.11
406.889	460.28
407.267	434.07
407.645	458.7
408.023	444.69
408.401	483.56
408.779	467.97
409.156	453.73
409.534	468.65
409.912	471.36
410.29	489.21
410.667	498.7
411.045	503.67
411.422	515.2
411.8	477.23
412.178	510.68
412.555	519.49
412.933	519.72
413.31	534.86
413.687	543.22
414.065	540.06
414.442	536.21
414.819	557.68
415.197	539.15
415.574	563.11
415.951	571.69
416.328	574.86
416.705	582.09
417.082	593.84
417.46	580.96
417.837	606.27
418.214	611.92
418.591	592.48
418.967	617.79
419.344	630
419.721	628.64
420.098	632.71
420.475	640.84
420.852	634.52
421.228	674.06
421.605	661.18
421.982	678.36
422.358	675.42
422.735	684.46
423.111	686.72
423.488	707.96
423.864	710
424.241	710.67
424.617	717
424.994	725.59
425.37	692.59
425.746	710.45
426.123	747.51
426.499	740.96
426.875	745.25
427.251	763.78
427.627	799.26
428.003	805.13
428.379	779.37
428.756	808.75
429.132	801.97
429.507	808.07
429.883	803.78
430.259	816.89
430.635	849.88
431.011	845.59
431.387	857.34
431.763	854.4
432.138	851.46
432.514	893.72
432.89	890.56
433.265	890.33
433.641	916.77
434.016	915.64
434.392	917.9
434.767	928.97
435.143	933.49
435.518	948.86
435.894	974.17
436.269	960.84
436.644	960.84
437.02	1009.42
437.395	998.58
437.77	1004.23
438.145	1021.63
438.52	999.03
438.895	1007.39
439.271	1020.5
439.646	1063.43
440.021	1056.88
440.395	1069.08
440.77	1053.49
441.145	1076.77
441.52	1065.92
441.895	1093.04
442.27	1113.15
442.645	1111.57
443.019	1121.96
443.394	1096.88
443.769	1105.92
444.143	1123.32
444.518	1114.5
444.892	1127.16
445.267	1127.39
445.641	1131.23
446.016	1159.02
446.39	1151.79
446.764	1154.5
447.139	1145.01
447.513	1184.56
447.887	1171.45
448.262	1175.97
448.636	1152.92
449.01	1185.24
449.384	1165.35
449.758	1203.77
450.132	1203.09
450.506	1193.6
450.88	1168.97
451.254	1202.86
451.628	1239.93
452.002	1249.19
452.376	1249.42
452.75	1247.61
453.123	1260.26
453.497	1254.84
453.871	1271.56
454.244	1277.66
454.618	1333.03
454.992	1303.88
455.365	1316.76
455.739	1299.81
456.112	1347.72
456.486	1335.97
456.859	1353.82
457.232	1358.57
457.606	1362.18
457.979	1373.03
458.352	1414.16
458.725	1394.72
459.099	1419.81
459.472	1411.9
459.845	1425.91
460.218	1455.29
460.591	1440.6
460.964	1455.06
461.337	1460.26
461.71	1498.45
462.083	1503.42
462.456	1515.4
462.829	1516.53
463.201	1541.61
463.574	1560.14
463.947	1546.58
464.32	1582.06
464.692	1581.38
465.065	1579.13
465.438	1587.49
465.81	1627.26
466.183	1645.56
466.555	1655.28
466.928	1667.48
467.3	1665.9
467.672	1676.07
468.045	1717.2
468.417	1730.08
468.789	1749.06
469.161	1759.01
469.534	1788.61
469.906	1796.29
470.278	1825.22
470.65	1848.27
471.022	1846.91
471.394	1850.3
471.766	1874.94
472.138	1905.44
472.51	1910.87
472.882	1944.99
473.253	1976.18
473.625	1960.81
473.997	2006.23
474.369	1989.74
474.74	2054.37
475.112	2059.34
475.484	2119
475.855	2115.38
476.227	2146.12
476.598	2170.97
476.97	2170.3
477.341	2202.84
477.713	2277.41
478.084	2259.33
478.455	2315.38
478.827	2297.07
479.198	2380.23
479.569	2338.88
479.94	2406.45
480.311	2427.01
480.682	2453.9
481.053	2505.43
481.424	2554.92
481.795	2537.74
482.166	2577.52
482.537	2611.64
482.908	2663.62
483.279	2666.1
483.65	2715.59
484.021	2733.22
484.391	2754.46
484.762	2780.22
485.133	2811.18
485.503	2827
485.874	2896.6
486.244	2907.23
486.615	2956.04
486.985	2986.09
487.356	2999.2
487.726	3041.46
488.097	3071.74
488.467	3057.05
488.837	3151.06
489.207	3165.75
489.578	3217.27
489.948	3184.51
490.318	3242.81
490.688	3301.11
491.058	3311.96
491.428	3372.3
491.798	3363.26
492.168	3453.65
492.538	3425.4
492.908	3431.51
493.278	3516.7
493.648	3484.16
494.017	3556.47
494.387	3562.8
494.757	3622.01
495.126	3593.76
495.496	3628.79
495.866	3709.92
496.235	3674.89
496.605	3747.43
496.974	3764.38
497.344	3738.39
497.713	3750.37
498.082	3735.23
498.452	3824.04
498.821	3843.47
499.19	3840.99
499.559	3850.25
499.928	3890.48
500.298	3904.94
500.667	3904.94
501.036	3936.35
501.405	3976.35
501.774	3960.31
502.143	3997.59
502.512	3983.81
502.88	4047.99
503.249	4016.58
503.618	4056.57
503.987	4056.35
504.356	4111.94
504.724	4126.85
505.093	4080.3
505.462	4135.44
505.83	4167.08
506.199	4178.38
506.567	4192.84
506.936	4223.8
507.304	4262.67
507.672	4259.51
508.041	4286.17
508.409	4278.26
508.777	4311.48
509.145	4358.71
509.514	4344.02
509.882	4341.99
510.25	4333.85
510.618	4394.42
510.986	4397.36
511.354	4424.93
511.722	4413.17
512.09	4494.3
512.458	4466.51
512.826	4514.19
513.193	4477.35
513.561	4500.86
513.929	4514.87
514.297	4577.24
514.664	4604.36
515.032	4555.77
515.4	4619.95
515.767	4579.72
516.135	4640.97
516.502	4591.48
516.869	4668.08
517.237	4720.74
517.604	4661.98
517.972	4725.71
518.339	4739.04
518.706	4705.37
519.073	4754.18
519.44	4746.05
519.808	4845.48
520.175	4805.26
520.542	4845.71
520.909	4882.09
521.276	4826.95
521.643	4874.18
522.009	4910.11
522.376	4940.17
522.743	4933.84
523.11	4992.37
523.477	5002.31
523.843	5063.33
524.21	5064.68
524.577	5084.8
524.943	5108.52
525.31	5108.98
525.676	5177.9
526.043	5169.09
526.409	5211.12
526.776	5217.22
527.142	5238.92
527.508	5296.09
527.874	5297.22
528.241	5312.13
528.607	5333.6
528.973	5402.98
529.339	5407.5
529.705	5444.56
530.071	5457.67
530.437	5469.19
530.803	5591.45
531.169	5562.98
531.535	5533.37
531.901	5554.16
532.267	5584.22
532.632	5642.75
532.998	5574.73
533.364	5651.11
533.73	5736.53
534.095	5730.65
534.461	5757.32
534.826	5778.56
535.192	5850.65
535.557	5856.75
535.923	5832.8
536.288	5849.07
536.653	5934.04
537.019	5887.03
537.384	5906.02
537.749	6024.66
538.114	6019.01
538.479	5994.38
538.845	5974.26
539.21	6074.15
539.575	6053.36
539.94	6070.31
540.305	6070.98
540.67	6128.84
541.034	6188.27
541.399	6176.74
541.764	6239.34
542.129	6282.5
542.494	6265.33
542.858	6262.17
543.223	6239.34
543.587	6398.66
543.952	6353.01
544.316	6385.33
544.681	6395.04
545.045	6423.97
545.41	6441.14
545.774	6471.65
546.138	6461.93
546.503	6513.68
546.867	6484.76
547.231	6575.38
547.595	6520.92
547.959	6595.94
548.324	6635.04
548.688	6604.76
549.052	6661.25
549.416	6652.21
549.779	6702.61
550.143	6734.24
550.507	6775.15
550.871	6819.21
551.235	6816.5
551.599	6813.11
551.962	6809.95
552.326	6872.77
552.689	6921.13
553.053	6939.66
553.417	6923.17
553.78	6929.94
554.143	6995.71
554.507	7014.91
554.87	7060.79
555.234	7080.68
555.597	7038.19
555.96	7059.88
556.323	7110.96
556.686	7182.14
557.05	7166.77
557.413	7175.14
557.776	7182.14
558.139	7243.16
558.502	7252.87
558.865	7235.7
559.228	7271.86
559.59	7288.13
559.953	7373.78
560.316	7411.74
560.679	7417.39
561.041	7458.52
561.404	7490.38
561.767	7489.48
562.129	7463.49
562.492	7525.41
562.854	7509.36
563.217	7534.9
563.579	7549.59
563.941	7615.35
564.304	7685.86
564.666	7744.39
565.028	7674.33
565.39	7713.43
565.753	7734.22
566.115	7750.04
566.477	7879.3
566.839	7880.88
567.201	7862.35
567.563	7929.01
567.925	7986.64
568.287	7989.35
568.648	8022.57
569.01	8030.93
569.372	8065.06
569.734	8077.94
570.095	8117.03
570.457	8254.2
570.819	8199.29
571.18	8276.58
571.542	8234.32
571.903	8279.51
572.265	8372.39
572.626	8393.64
572.987	8436.8
573.349	8460.98
573.71	8516.34
574.071	8541.65
574.432	8589.34
574.794	8651.48
575.155	8714.76
575.516	8718.15
575.877	8829.33
576.238	8867.75
576.599	8951.81
576.96	9034.97
577.32	9077.69
577.681	9148.64
578.042	9244.46
578.403	9259.83
578.763	9408.07
579.124	9472.93
579.485	9532.14
579.845	9743.88
580.206	9758.57
580.566	9899.81
580.927	9942.97
581.287	10092.12
581.648	10192.23
582.008	10309.52
582.368	10476.29
582.728	10606.01
583.089	10770.52
583.449	10864.98
583.809	11009.84
584.169	11197.86
584.529	11288.93
584.889	11573.66
585.249	11663.83
585.609	11770.95
585.969	12055.69
586.329	12214.55
586.688	12466.3
587.048	12692.96
587.408	12824.48
587.768	13033.51
588.127	13278.48
588.487	13413.39
588.846	13746.04
589.206	13905.81
589.565	14086.59
589.925	14385.34
590.284	14609.52
590.643	14913.92
591.003	15213.79
591.362	15491.3
591.721	15779.43
592.08	15909.14
592.44	16290.83
592.799	16584.38
593.158	16809.69
593.517	17106.4
593.876	17506.84
594.235	17679.04
594.593	17828.19
594.952	18273.6
595.311	18519.24
595.67	18796.53
596.029	19194.03
596.387	19497.07
596.746	19785.65
597.104	20039.88
597.463	20351.06
597.822	20618.17
598.18	20730.94
598.538	21133.87
598.897	21552.16
599.255	21622.21
599.613	22170.45
599.972	22350.1
600.33	22605.69
600.688	22912.12
601.046	23206.58
601.404	23546.01
601.762	23740.58
602.12	24150.74
602.478	24340.79
602.836	24591.4
603.194	24750.27
603.552	25117.49
603.91	25238.62
604.268	25600.64
604.625	25764.7
604.983	26099.16
605.341	26301.64
605.698	26654.4
606.056	26935.52
606.413	27047.16
606.771	27453.25
607.128	27746.35
607.485	27839.68
607.843	28069.28
608.2	28308.59
608.557	28609.6
608.914	28736.15
609.272	29106.08
609.629	29327.77
609.986	29572.29
610.343	29683.24
610.7	30064.7
611.057	30184.93
611.414	30348.54
611.771	30479.83
612.127	30820.39
612.484	30967.96
612.841	31276.65
613.198	31351.22
613.554	31531.78
613.911	31883.87
614.267	31987.82
614.624	32096.74
614.98	32225.78
615.337	32516.62
615.693	32614.02
616.05	32740.11
616.406	33100.56
616.762	33077.51
617.118	33371.28
617.475	33391.4
617.831	33719.52
618.187	33928.33
618.543	34004.04
618.899	34376.91
619.255	34258.27
619.611	34384.14
619.967	34613.06
620.323	34646.73
620.678	34745.03
621.034	34705.94
621.39	34872.71
621.746	34993.39
622.101	35500.95
622.457	35261.63
622.812	35242.87
623.168	35554.5
623.523	35637.89
623.879	35907.49
624.234	35565.35
624.589	35908.17
624.945	36099.8
625.3	36074.94
625.655	36092.12
626.01	36246.24
626.365	36326.23
626.72	36356.52
627.075	36451.2
627.43	36369.85
627.785	36446
628.14	36656.17
628.495	36672.44
628.85	36725.32
629.205	36598.54
629.559	37033.56
629.914	36958.31
630.269	36817.97
630.623	36835.83
630.978	36836.05
631.332	37099.55
631.687	37024.07
632.041	37020.23
632.396	37160.34
632.75	37058.42
633.104	37166.44
633.459	36998.98
633.813	36921.25
634.167	37024.75
634.521	37025.2
634.875	37228.81
635.229	37128.47
635.583	36958.31
635.937	37175.93
636.291	37057.06
636.645	37144.07
636.999	37047.12
637.352	37292.31
637.706	37052.99
638.06	37162.37
638.413	37029.94
638.767	37153.33
639.121	37094.8
639.474	36974.35
639.828	36976.16
640.181	37066.1
640.534	37204.18
640.888	36942.72
641.241	36836.73
641.594	37047.57
641.947	37046.22
642.301	36954.24
642.654	37064.29
643.007	37107.23
643.36	37065.88
643.713	36938.87
644.066	37114.24
644.419	36924.41
644.771	36674.02
645.124	36390.87
645.477	36325.78
645.83	36155.62
646.182	36077.2
646.535	36047.15
646.888	36086.24
647.24	35735.74
647.593	36042.17
647.945	36014.38
648.298	35827.26
648.65	35807.15
649.002	35678.57
649.355	35840.82
649.707	35790.88
650.059	35980.71
650.411	36286.24
650.763	36432.22
651.115	36846.67
651.467	36464.99
651.819	36682.83
652.171	36471.54
652.523	36542.05
652.875	36398.1
653.227	36458.66
653.578	36622.05
653.93	36444.42
654.282	36445.55
654.633	36374.59
654.985	36453.69
655.337	36447.13
655.688	36442.16
656.039	36491.2
656.391	36242.85
656.742	36331.88
657.094	36513.57
657.445	36395.16
657.796	36525.55
658.147	36370.07
658.498	36414.59
658.849	36328.27
659.2	36244.43
659.551	36336.63
659.902	36468.83
660.253	36380.47
660.604	36330.08
660.955	36367.81
661.306	36345.44
661.656	36341.6
662.007	36337.31
662.358	36288.27
662.708	36327.14
663.059	36325.33
663.409	36051.89
663.76	36181.83
664.11	36198.1
664.461	36273.58
664.811	36224.54
665.161	36195.39
665.511	36230.42
665.862	36255.28
666.212	36272.68
666.562	36275.61
666.912	36183.64
667.262	36135.05
667.612	36174.6
667.962	36246.91
668.312	36030.2
668.662	36197.88
669.011	36227.71
669.361	36038.78
669.711	36082.62
670.06	36042.85
670.41	36003.76
670.76	36055.05
671.109	36120.82
671.459	36065
671.808	36027.48
672.157	36064.09
672.507	35912.23
672.856	35973.93
673.205	35911.33
673.554	36058.44
673.904	35780.03
674.253	36157.42
674.602	35978.67
674.951	35430.44
675.3	35349.08
675.649	35841.95
675.998	35802.63
676.346	35738.68
676.695	36002.17
677.044	35568.51
677.393	35680.6
677.741	35947.71
678.09	35732.8
678.438	35635.86
678.787	35736.42
679.135	35748.17
679.484	35355.64
679.832	35607.16
680.181	35354.73
680.529	35437.67
680.877	35418.91
681.225	35343.66
681.573	35622.3
681.922	35283.1
682.27	35137.11
682.618	35264.57
682.966	35148.41
683.314	35110.45
683.661	35200.39
684.009	34900.06
684.357	34816.67
684.705	34964.69
685.053	34846.05
685.4	34896.67
685.748	34716.33
686.095	34665.49
686.443	34544.13
686.79	34538.48
687.138	34603.57
687.485	34550.24
687.832	34382.33
688.18	34413.52
688.527	34280.19
688.874	34182.11
689.221	34126.07
689.568	34176.69
689.915	34099.17
690.262	34082.68
690.609	33922.46
690.956	33893.53
691.303	33881.78
691.65	33671.84
691.997	33573.09
692.344	33338.74
692.69	33411.51
693.037	33518.85
693.383	33167.45
693.73	33263.72
694.077	33150.95
694.423	33115.02
694.769	32977.85
695.116	32988.02
695.462	32783.73
695.808	32767.46
696.155	32781.47
696.501	32557.07
696.847	32695.82
697.193	32351.42
697.539	32372.89
697.885	32254.7
698.231	32058.32
698.577	32205.44
698.923	32149.17
699.269	31924.09
699.614	31821.27
699.96	31772.68
700.306	31738.11
700.651	31654.94
700.997	31499.47
701.342	31494.95
701.688	31499.02
702.033	31415.4
702.379	31314.39
702.724	31061.29
703.069	31394.16
703.415	30907.17
703.76	31015.87
704.105	30928.86
704.45	30978.13
704.795	30724.12
705.14	30551.92
705.485	30629.89
705.83	30579.04
706.175	30630.56
706.52	30532.04
706.865	30378.14
707.209	30295.88
707.554	30232.61
707.899	30209.78
708.243	30095.21
708.588	30043.01
708.932	29817.7
709.277	29754.43
709.621	29779.74
709.966	29703.13
710.31	29777.25
710.654	29424.95
710.998	29604.38
711.342	29460.88
711.687	29413.42
712.031	29271.73
712.375	29201
712.719	29167.78
713.063	29245.29
713.407	29216.14
713.75	28915.58
714.094	29072.19
714.438	28890.05
714.782	29081.68
715.125	28807.34
715.469	28852.98
715.812	28649.83
716.156	28512.2
716.499	28531.64
716.843	28657.06
717.186	28394.69
717.53	28522.15
717.873	28510.85
718.216	28431.98
718.559	28360.79
718.902	28189.72
719.246	28293.9
719.589	28086.22
719.932	27985.89
720.275	28173.23
720.617	28040.8
720.96	27907.02
721.303	27901.37
721.646	27853.91
721.989	27658.89
722.331	27921.94
722.674	27829.06
723.016	27750.41
723.359	27649.4
723.701	27664.54
724.044	27425.45
724.386	27472.46
724.729	27546.13
725.071	27488.27
725.413	27323.53
725.755	27388.16
726.097	27263.65
726.439	27190.2
726.782	27134.61
727.124	27385.45
727.465	27082.86
727.807	27128.06
728.149	27062.3
728.491	26900.49
728.833	27056.42
729.175	26889.19
729.516	26964.9
729.858	26880.61
730.199	26692.82
730.541	26802.42
730.882	26729.42
731.224	26822.98
731.565	26719.03
731.906	26547.51
732.248	26747.95
732.589	26559.49
732.93	26376.67
733.271	26477.45
733.612	26370.56
733.953	26411.69
734.294	26331.24
734.635	26359.04
734.976	26349.1
735.317	26265.03
735.658	26222.77
735.999	26152.04
736.339	26128.08
736.68	26200.17
737.021	26120.4
737.361	25994.98
737.702	26093.73
738.042	25975.77
738.383	25851.03
738.723	25954.76
739.063	25827.08
739.404	25870.92
739.744	25897.81
740.084	25668.21
740.424	25724.7
740.764	25646.29
741.104	25693.52
741.444	25550.02
741.784	25437.48
742.124	25575.78
742.464	25550.47
742.804	25409.46
743.143	25382.79
743.483	25406.97
743.823	25345.05
744.162	25335.56
744.502	25347.31
744.841	25212.4
745.181	25371.95
745.52	25101.9
745.86	25114.33
746.199	25138.28
746.538	25107.77
746.877	25177.37
747.216	25160.2
747.556	24969.24
747.895	24994.55
748.234	24907.33
748.573	24945.97
748.911	24733.77
749.25	24933.31
749.589	24618.52
749.928	24791.85
750.267	24740.32
750.605	24694.22
750.944	24613.55
751.283	24539.88
751.621	24679.99
751.96	24356.61
752.298	24539.43
752.636	24380.79
752.975	24242.26
753.313	24197.97
753.651	24304.63
753.989	24231.86
754.327	24301.69
754.666	23946.45
755.004	23967.24
755.342	24000.68
755.679	23872.78
756.017	23855.15
756.355	23981.93
756.693	23808.15
757.031	23792.33
757.368	23600.69
757.706	23648.83
758.044	23540.58
758.381	23557.3
758.719	23517.98
759.056	23436.18
759.394	23444.76
759.731	23259.23
760.068	23187.37
760.405	23253.36
760.743	23078.67
761.08	23068.28
761.417	23007.94
761.754	22995.96
762.091	22974.72
762.428	22815.63
762.765	22639.59
763.102	22838
763.438	22663.09
763.775	22545.81
764.112	22588.06
764.449	22560.95
764.785	22444.57
765.122	22421.06
765.458	22221.97
765.795	22235.08
766.131	22201.86
766.467	22083.67
766.804	21867.18
767.14	21873.73
767.476	21740.4
767.812	21787.86
768.148	21740.4
768.485	21641.42
768.821	21588.77
769.157	21511.93
769.492	21515.55
769.828	21360.3
770.164	21196.24
770.5	21164.6
770.836	21175.45
771.171	21016.35
771.507	20968.67
771.842	20912.18
772.178	20856.58
772.513	20783.14
772.849	20680.32
773.184	20637.61
773.519	20569.59
773.855	20452.98
774.19	20443.04
774.525	20412.75
774.86	20343.38
775.195	20155.81
775.53	20211.18
775.865	20067
776.2	19923.5
776.535	19760.34
776.87	19881.92
777.205	19862.03
777.539	19680.34
777.874	19664.98
778.209	19496.17
778.543	19517.86
778.878	19330.07
779.212	19385.21
779.547	19280.35
779.881	19328.26
780.215	19067.25
780.55	19176.4
780.884	18990.19
781.218	19067.7
781.552	18984.77
781.886	18846.24
782.22	18728.5
782.554	18780.93
782.888	18601.28
783.222	18551.79
783.556	18442.64
783.889	18300.04
784.223	18288.74
784.557	18251.46
784.89	18319.25
785.224	18065.25
785.557	18023.44
785.891	18019.82
786.224	17943.21
786.558	17909.09
786.891	17882.43
787.224	17671.13
787.557	17638.82
787.891	17748.42
788.224	17566.73
788.557	17539.16
788.89	17509.33
789.223	17511.81
789.556	17339.61
789.888	17287.86
790.221	17142.78
790.554	17064.59
790.887	17094.65
791.219	17128.55
791.552	16987.31
791.884	16931.72
792.217	16844.26
792.549	16779.18
792.882	16750.7
793.214	16638.62
793.546	16621.22
793.879	16531.27
794.211	16485.63
794.543	16405.18
794.875	16380.32
795.207	16392.29
795.539	16335.57
795.871	16264.84
796.203	16196.82
796.535	16093.55
796.867	16007.67
797.198	15973.55
797.53	16009.48
797.862	15868.01
798.193	16017.16
798.525	15835.47
798.856	15888.58
799.188	15665.08
799.519	15588.93
799.85	15560.68
800.182	15562.03
800.513	15510.28
800.844	15398.87
801.175	15552.54
801.506	15393.9
801.837	15434.81
802.168	15363.4
802.499	15349.61
802.83	15263.06
803.161	15169.73
803.491	15078.43
803.822	15130.86
804.153	15061.03
804.483	14920.47
804.814	14833.24
805.145	14892.9
805.475	14853.35
805.805	14845.89
806.136	14762.51
806.466	14748.72
806.796	14740.36
807.126	14565.45
807.457	14561.16
807.787	14592.34
808.117	14479.35
808.447	14431.89
808.777	14481.38
809.107	14370.65
809.436	14294.72
809.766	14351.9
810.096	14275.97
810.426	14195.74
810.755	14195.52
811.085	14201.62
811.414	14188.06
811.744	14086.37
812.073	13991
812.403	13982.19
812.732	13908.29
813.061	13909.42
813.39	13896.54
813.719	13831.46
814.049	13900.16
814.378	13836.66
814.707	13713.72
815.036	13764.12
815.365	13694.96
815.693	13570
816.022	13620.84
816.351	13585.14
816.68	13474.41
817.008	13492.03
817.337	13319.83
817.665	13349.89
817.994	13373.84
818.322	13365.03
818.651	13270.34
818.979	13215.43
819.307	13279.83
819.636	13231.25
819.964	13153.74
820.292	13234.86
820.62	13200.06
820.948	13177.69
821.276	13163.91
821.604	13120.06
821.932	13087.52
822.259	13085.94
822.587	13097.47
822.915	13127.07
823.243	13121.19
823.57	13048.43
823.898	13100.63
824.225	12996.45
824.553	13084.13
824.88	13051.82
825.207	13096.56
825.535	13068.77
825.862	13091.36
826.189	13102.89
826.516	13086.17
826.843	13068.99
827.17	13095.21
827.497	13085.26
827.824	13125.71
828.151	13120.29
828.478	13081.87
828.805	13042.55
829.131	12989.45
829.458	13009.79
829.785	12930.92
830.111	12968.66
830.438	13051.14
830.764	13012.95
831.09	13003.91
831.417	12983.8
831.743	12977.92
832.069	13027.19
832.395	12969.11
832.722	12984.25
833.048	12938.83
833.374	12897.92
833.7	12851.15
834.026	12947.87
834.351	12925.49
834.677	12900.64
835.003	12882.33
835.329	12927.08
835.654	12878.26
835.98	12852.28
836.306	12871.48
836.631	12698.83
836.956	12777.25
837.282	12764.14
837.607	12695.67
837.932	12700.19
838.258	12711.26
838.583	12619.51
838.908	12594.43
839.233	12690.7
839.558	12669
839.883	12630.81
840.208	12477.37
840.533	12484.15
840.858	12556.46
841.182	12482.57
841.507	12411.16
841.832	12416.81
842.156	12364.6
842.481	12321.89
842.805	12298.39
843.13	12338.16
843.454	12310.82
843.778	12276.92
844.103	12196.02
844.427	12262.23
844.751	12158.06
845.075	12183.59
845.399	12061.34
845.723	12033.09
846.047	12119.64
846.371	11967.55
846.695	11969.36
847.019	11887.1
847.343	11793.32
847.666	11791.51
847.99	11747.9
848.313	11685.98
848.637	11585.19
848.96	11644.62
849.284	11524.85
849.607	11507.9
849.931	11510.84
850.254	11405.31
850.577	11318.08
850.9	11262.49
851.223	11294.12
851.546	11212.77
851.869	11118.54
852.192	11200.57
852.515	11076.28
852.838	11028.82
853.161	11097.07
853.483	10986.34
853.806	10958.54
854.129	10922.61
854.451	10848.94
854.774	10867.47
855.096	10811.65
855.419	10728.26
855.741	10687.59
856.063	10718.77
856.385	10673.12
856.708	10603.75
857.03	10532.79
857.352	10560.13
857.674	10556.74
857.996	10546.57
858.318	10386.8
858.64	10429.29
858.961	10451.21
859.283	10308.61
859.605	10298.22
859.926	10326.92
860.248	10265.22
860.57	10297.31
860.891	10230.65
861.212	10262.96
861.534	10174.83
861.855	10161.05
862.176	10203.08
862.498	10136.87
862.819	10186.13
863.14	10099.58
863.461	10039.69
863.782	10048.96
864.103	10048.96
864.424	10014.84
864.745	10027.94
865.065	9943.65
865.386	9945.01
865.707	9926.25
866.027	9890.09
866.348	9930.77
866.668	9870.21
866.989	9848.51
867.309	9813.26
867.63	9816.42
867.95	9791.11
868.27	9864.78
868.59	9779.81
868.91	9744.56
869.23	9742.07
869.55	9633.83
869.87	9707.27
870.19	9707.5
870.51	9712.47
870.83	9728.06
871.15	9603.09
871.469	9674.96
871.789	9622.76
872.109	9658.69
872.428	9548.18
872.748	9611.23
873.067	9568.97
873.386	9615.52
873.706	9595.86
874.025	9531.68
874.344	9520.39
874.663	9493.72
874.982	9476.54
875.301	9446.71
875.62	9483.78
875.939	9446.26
876.258	9414.85
876.577	9370.33
876.896	9385.02
877.214	9302.31
877.533	9330.56
877.852	9265.93
878.17	9313.84
878.489	9354.06
878.807	9368.52
879.125	9290.79
879.444	9275.65
879.762	9183.44
880.08	9239.49
880.398	9227.06
880.716	9179.6
881.034	9198.36
881.352	9192.03
881.67	9069.32
881.988	9142.54
882.306	9089.21
882.624	9105.93
882.941	8997.46
883.259	8919.95
883.577	8952.72
883.894	8939.84
884.212	8953.62
884.529	8932.83
884.846	8892.38
885.164	8892.38
885.481	8824.36
885.798	8898.93
886.115	8808.54
886.432	8799.73
886.75	8818.71
887.067	8762.67
887.383	8745.04
887.7	8742.78
888.017	8693.29
888.334	8736.45
888.651	8691.48
888.967	8627.98
889.284	8629.34
889.6	8589.34
889.917	8510.69
890.233	8554.76
890.55	8493.52
890.866	8554.76
891.182	8480.19
891.498	8486.29
891.815	8430.7
892.131	8351.38
892.447	8393.18
892.763	8304.37
893.079	8340.98
893.395	8341.89
893.71	8249.23
894.026	8223.92
894.342	8249.91
894.657	8228.22
894.973	8191.38
895.289	8163.58
895.604	8147.09
895.92	8080.65
896.235	8025.28
896.55	8044.72
896.865	8007.43
897.181	7926.75
897.496	8065.06
897.811	7989.8
898.126	7910.94
898.441	7848.56
898.756	7859.19
899.071	7825.06
899.386	7818.74
899.7	7766.53
900.015	7737.38
900.33	7677.04
900.644	7728.34
900.959	7684.95
901.273	7693.77
901.588	7562.7
901.902	7512.3
902.216	7562.92
902.531	7541
902.845	7492.87
903.159	7461.68
903.473	7477.28
903.787	7432.76
904.101	7415.13
904.415	7387.56
904.729	7332.87
905.042	7279.09
905.356	7232.08
905.67	7295.81
905.984	7277.73
906.297	7267.34
906.611	7185.53
906.924	7168.81
907.237	7098.98
907.551	7156.83
907.864	7063.95
908.177	7049.04
908.491	7018.08
908.804	7044.07
909.117	7006.78
909.43	6889.04
909.743	6862.83
910.056	6914.35
910.368	6849.27
910.681	6830.74
910.994	6836.61
911.307	6787.12
911.619	6716.39
911.932	6695.6
912.244	6689.27
912.557	6704.19
912.869	6636.39
913.181	6586.68
913.494	6582.61
913.806	6504.42
914.118	6493.8
914.43	6442.73
914.742	6447.92
915.054	6474.36
915.366	6420.35
915.678	6371.99
915.99	6359.11
916.302	6316.63
916.613	6284.76
916.925	6279.57
917.236	6282.96
917.548	6220.59
917.859	6230.53
918.171	6203.18
918.482	6156.41
918.794	6164.99
919.105	6077.54
919.416	6041.15
919.727	6068.72
920.038	6021.72
920.349	6035.28
920.66	5968.84
920.971	5945.11
921.282	5941.5
921.593	5813.82
921.903	5880.71
922.214	5898.11
922.525	5847.26
922.835	5856.3
923.146	5769.3
923.456	5765.91
923.767	5718.45
924.077	5743.99
924.387	5669.64
924.697	5658.57
925.008	5697.43
925.318	5629.41
925.628	5650.2
925.938	5581.05
926.248	5494.73
926.558	5515.52
926.867	5516.2
927.177	5479.81
927.487	5459.02
927.796	5435.29
928.106	5389.65
928.416	5391.23
928.725	5356.2
929.034	5300.84
929.344	5384.9
929.653	5266.49
929.962	5296.77
930.271	5266.03
930.581	5210.44
930.89	5204.57
931.199	5209.99
931.508	5130.22
931.817	5160.27
932.125	5129.54
932.434	5171.35
932.743	5054.74
933.051	5068.07
933.36	5012.93
933.669	4977.45
933.977	4989.43
934.286	4969.54
934.594	4947.4
934.902	4915.08
935.21	4888.19
935.519	4917.12
935.827	4893.84
936.135	4850.68
936.443	4794.41
936.751	4799.15
937.059	4777.46
937.367	4731.36
937.674	4767.52
937.982	4728.19
938.29	4733.39
938.597	4705.6
938.905	4618.82
939.213	4640.06
939.52	4601.42
939.827	4584.02
940.135	4530.91
940.442	4589.89
940.749	4545.15
941.056	4576.79
941.363	4543.57
941.67	4480.29
941.977	4452.95
942.284	4412.27
942.591	4418.6
942.898	4433.51
943.205	4421.08
943.511	4365.04
943.818	4346.28
944.125	4297.25
944.431	4335.44
944.738	4295.21
945.044	4323.46
945.35	4253.18
945.657	4251.82
945.963	4217.7
946.269	4206.85
946.575	4214.76
946.881	4200.53
947.187	4164.82
947.493	4173.63
947.799	4134.99
948.105	4104.71
948.41	4075.33
948.716	4073.75
949.022	4073.97
949.327	4033.75
949.633	4019.96
949.938	4025.61
950.244	4028.33
950.549	3999.17
950.854	3960.76
951.16	3982.68
951.465	3927.76
951.77	3890.7
952.075	3898.39
952.38	3869.01
952.685	3908.33
952.99	3854.77
953.294	3838.73
953.599	3820.2
953.904	3777.71
954.209	3773.64
954.513	3761.89
954.818	3735.68
955.122	3751.27
955.426	3696.58
955.731	3701.33
956.035	3651.61
956.339	3643.48
956.643	3642.12
956.948	3640.77
957.252	3602.35
957.556	3591.28
957.86	3548.56
958.163	3582.01
958.467	3558.51
958.771	3501.33
959.075	3544.05
959.378	3495.23
959.682	3527.1
959.985	3473.54
960.289	3492.52
960.592	3439.87
960.896	3428.34
961.199	3444.61
961.502	3375.46
961.805	3387.89
962.108	3359.42
962.411	3351.51
962.714	3357.16
963.017	3347.67
963.32	3308.57
963.623	3302.7
963.926	3296.37
964.228	3247.33
964.531	3227.22
964.833	3244.39
965.136	3220.21
965.438	3184.05
965.741	3195.58
966.043	3228.12
966.345	3149.48
966.648	3130.04
966.95	3141.34
967.252	3130.5
967.554	3125.53
967.856	3100.67
968.158	3086.43
968.46	3108.12
968.761	3077.39
969.063	3066.77
969.365	3063.61
969.666	3019.77
969.968	2996.71
970.269	3014.12
970.571	2991.07
970.872	2940.45
971.174	2968.24
971.475	2965.98
971.776	2950.61
972.077	2932.76
972.378	2931.18
972.679	2904.74
972.98	2865.42
973.281	2854.35
973.582	2878.75
973.883	2853.44
974.183	2844.85
974.484	2813.67
974.785	2809.83
975.085	2826.1
975.386	2809.38
975.686	2759.21
975.986	2749.26
976.287	2770.05
976.587	2730.06
976.887	2738.42
977.187	2704.52
977.487	2735.25
977.787	2723.05
978.087	2679.66
978.387	2657.97
978.687	2674.24
978.987	2627.91
979.286	2599.21
979.586	2626.1
979.885	2583.17
980.185	2619.55
980.484	2596.95
980.784	2578.65
981.083	2533
981.382	2546.33
981.682	2573.45
981.981	2569.83
982.28	2531.19
982.579	2514.47
982.878	2516.28
983.177	2491.64
983.475	2471.08
983.774	2476.5
984.073	2446.45
984.372	2479.67
984.67	2462.49
984.969	2428.14
985.267	2453
985.566	2432.89
985.864	2384.75
986.162	2359.67
986.461	2368.03
986.759	2373.45
987.057	2380.91
987.355	2327.35
987.653	2324.87
987.951	2350.86
988.249	2314.47
988.547	2320.8
988.844	2300.91
989.142	2294.13
989.44	2238.54
989.737	2242.61
990.035	2253.23
990.332	2267.69
990.63	2209.84
990.927	2254.59
991.224	2217.98
991.521	2197.87
991.819	2196.74
992.116	2206
992.413	2159.67
992.71	2151.77
993.006	2163.52
993.303	2140.69
993.6	2136.62
993.897	2118.09
994.193	2112.9
994.49	2113.8
994.787	2095.72
995.083	2084.65
995.379	2086.68
995.676	2046.23
995.972	2061.15
996.268	2029.06
996.565	2027.02
996.861	2048.27
997.157	2013.01
997.453	2027.25
997.749	1995.16
998.044	1977.76
998.34	1975.72
998.636	1964.65
998.932	1975.5
999.227	1980.47
999.523	1936.4
999.818	1903.41
1000.114	1923.07
1000.409	1909.06
1000.704	1911.77
1001	1920.36
1001.295	1883.3
1001.59	1892.34
1001.885	1882.17
1002.18	1840.36
1002.475	1851.43
1002.77	1846.69
1003.065	1822.73
1003.359	1823.64
1003.654	1810.98
1003.949	1788.84
1004.243	1781.61
1004.538	1783.19
1004.832	1790.87
1005.127	1722.85
1005.421	1738.44
1005.715	1718.33
1006.009	1715.62
1006.304	1721.95
1006.598	1713.58
1006.892	1697.54
1007.186	1693.47
1007.48	1696.41
1007.773	1686.01
1008.067	1688.73
1008.361	1638.33
1008.655	1628.62
1008.948	1622.97
1009.242	1620.71
1009.535	1635.39
1009.829	1627.49
1010.122	1639.01
1010.415	1575.74
1010.708	1579.8
1011.001	1580.93
1011.295	1550.2
1011.588	1571.22
1011.881	1559.01
1012.173	1537.54
1012.466	1543.65
1012.759	1531.22
1013.052	1524.44
1013.344	1497.09
1013.637	1458.22
1013.93	1534.61
1014.222	1503.19
1014.514	1445.8
1014.807	1457.55
1015.099	1457.77
1015.391	1417.32
1015.683	1423.87
1015.976	1412.58
1016.268	1437.43
1016.56	1409.64
1016.851	1403.54
1017.143	1391.11
1017.435	1406.02
1017.727	1386.14
1018.018	1382.75
1018.31	1375.74
1018.602	1361.5
1018.893	1362.41
1019.185	1338.68
1019.476	1329.41
1019.767	1324.89
1020.058	1331.9
1020.35	1324.67
1020.641	1314.27
1020.932	1304.33
1021.223	1272.69
1021.514	1234.28
1021.804	1245.8
1022.095	1253.26
1022.386	1264.78
1022.677	1252.81
1022.967	1256.42
1023.258	1254.84
1023.548	1213.94
1023.839	1219.13
1024.129	1225.69
1024.419	1235.63
1024.709	1203.77
1025	1192.24
1025.29	1152.24
1025.58	1147.72
1025.87	1149.98
1026.16	1163.99
1026.449	1156.31
1026.739	1109.08
1027.029	1142.07
1027.319	1135.97
1027.608	1115.18
1027.898	1125.13
1028.187	1103.66
1028.477	1110.66
1028.766	1087.39
1029.055	1100.95
1029.344	1088.52
1029.634	1098.46
1029.923	1078.12
1030.212	1050.33
1030.501	1036.77
1030.79	1047.84
1031.078	1030.21
1031.367	1009.42
1031.656	1022.3
1031.945	1016.65
1032.233	1001.97
1032.522	1042.42
1032.81	1010.78
1033.099	990.67
1033.387	978.91
1033.675	980.5
1033.963	966.26
1034.251	977.56
1034.54	953.6
1034.828	961.51
1035.116	941.85
1035.403	952.02
1035.691	923.55
1035.979	948.18
1036.267	937.79
1036.554	930.55
1036.842	903.44
1037.129	896.43
1037.417	891.23
1037.704	892.14
1037.992	904.34
1038.279	891.91
1038.566	896.66
1038.853	896.66
1039.14	896.66
