Data from hue_40_FLMS001491_87.txt Node
Date: Mon Feb 06 15:08:41 GMT 2017
User: dcchb
Spectrometer: FLMS00149
Trigger mode: 0
Integration Time (sec): 2.000000E-2
Scans to average: 10
Electric dark correction enabled: true
Nonlinearity correction enabled: false
Boxcar width: 0
XAxis mode: Wavelengths
Number of Pixels in Spectrum: 2048
>>>>>Begin Spectral Data<<<<<
341.393	5.64
341.776	5.64
342.16	5.64
342.543	-48.6
342.927	-67.81
343.31	-77.98
343.693	-66.45
344.077	-59.45
344.46	-59
344.843	-68.26
345.226	-61.48
345.61	-32.1
345.993	-17.64
346.376	3.83
346.759	14
347.142	42.02
347.525	58.97
347.908	53.09
348.291	79.76
348.674	75.46
349.057	115.24
349.44	127.44
349.823	135.58
350.206	144.16
350.588	206.53
350.971	193.88
351.354	222.13
351.737	256.02
352.119	250.6
352.502	258.74
352.884	274.33
353.267	283.37
353.65	297.15
354.032	295.35
354.414	295.12
354.797	293.99
355.179	319.98
355.562	321.79
355.944	316.36
356.326	307.55
356.709	328.79
357.091	347.77
357.473	347.32
357.855	348.68
358.238	324.95
358.62	339.41
359.002	355.68
359.384	332.18
359.766	349.58
360.148	357.72
360.53	338.28
360.912	351.16
361.294	334.67
361.676	356.81
362.057	321.79
362.439	331.5
362.821	337.6
363.203	323.59
363.584	316.59
363.966	338.51
364.348	318.85
364.729	340.54
365.111	325.18
365.493	312.52
365.874	327.21
366.256	310.94
366.637	312.52
367.019	317.04
367.4	306.64
367.781	328.56
368.163	326.98
368.544	318.85
368.925	317.94
369.306	336.93
369.688	320.88
370.069	319.98
370.45	308.23
370.831	329.92
371.212	307.55
371.593	324.5
371.974	307.77
372.355	298.74
372.736	329.24
373.117	327.21
373.498	296.25
373.879	315.46
374.26	326.98
374.641	338.28
375.021	316.36
375.402	331.95
375.783	297.61
376.163	321.11
376.544	308.23
376.925	338.96
377.305	349.13
377.686	331.73
378.066	350.03
378.447	348.68
378.827	320.2
379.208	339.86
379.588	318.85
379.968	340.32
380.349	343.48
380.729	337.83
381.109	351.84
381.489	335.34
381.87	339.19
382.25	341.45
382.63	338.73
383.01	355.68
383.39	344.84
383.77	335.8
384.15	344.38
384.53	346.87
384.91	338.73
385.29	341.9
385.67	348.9
386.049	356.13
386.429	351.84
386.809	355.68
387.189	339.19
387.568	360.43
387.948	374.21
388.328	354.55
388.707	370.15
389.087	333.08
389.466	359.07
389.846	378.28
390.225	362.01
390.605	367.89
390.984	345.51
391.363	365.85
391.743	360.43
392.122	379.41
392.501	365.17
392.881	368.56
393.26	387.09
393.639	374.44
394.018	382.57
394.397	383.48
394.776	373.31
395.155	385.51
395.534	368.11
395.913	403.59
396.292	402.69
396.671	386.87
397.05	389.35
397.429	379.64
397.808	394.1
398.186	409.01
398.565	389.13
398.944	398.85
399.323	378.51
399.701	398.85
400.08	415.12
400.458	404.5
400.837	408.79
401.215	402.24
401.594	413.53
401.972	400.2
402.351	390.94
402.729	409.01
403.107	392.97
403.486	427.32
403.864	421.22
404.242	429.35
404.62	397.72
404.999	412.86
405.377	435.45
405.755	431.61
406.133	421.67
406.511	430.03
406.889	417.15
407.267	455.34
407.645	446.3
408.023	444.49
408.401	447.88
408.779	453.08
409.156	431.61
409.534	429.13
409.912	459.18
410.29	469.13
410.667	438.39
411.045	446.53
411.422	444.27
411.8	458.5
412.178	459.63
412.555	488.79
412.933	468
413.31	480.65
413.687	482.46
414.065	466.41
414.442	504.61
414.819	477.71
415.197	493.08
415.574	511.38
415.951	493.98
416.328	496.92
416.705	495.57
417.082	484.04
417.46	519.97
417.837	507.32
418.214	500.54
418.591	548.22
418.967	529.46
419.344	512.51
419.721	541.44
420.098	535.79
420.475	537.82
420.852	551.16
421.228	557.26
421.605	555.68
421.982	571.72
422.358	547.54
422.735	561.78
423.111	543.47
423.488	549.12
423.864	569.01
424.241	569.01
424.617	581.44
424.994	587.54
425.37	577.6
425.746	587.99
426.123	604.26
426.499	597.26
426.875	580.54
427.251	597.48
427.627	629.35
428.003	626.86
428.379	597.03
428.756	591.61
429.132	613.08
429.507	609.46
429.883	627.54
430.259	632.51
430.635	645.62
431.011	643.36
431.387	613.98
431.763	649.69
432.138	667.99
432.514	653.3
432.89	661.89
433.265	676.13
433.641	669.8
434.016	674.09
434.392	666.64
434.767	681.32
435.143	701.66
435.518	719.97
435.894	714.09
436.269	704.83
436.644	695.11
437.02	756.35
437.395	726.52
437.77	749.57
438.145	754.99
438.52	758.84
438.895	759.29
439.271	755.67
439.646	754.77
440.021	763.81
440.395	785.28
440.77	769.23
441.145	801.32
441.52	771.04
441.895	799.29
442.27	809.91
442.645	785.95
443.019	788.44
443.394	814.43
443.769	826.18
444.143	810.13
444.518	846.97
444.892	826.63
445.267	824.14
445.641	824.82
446.016	822.79
446.39	851.49
446.764	848.1
447.139	855.78
447.513	862.56
447.887	848.78
448.262	866.4
448.636	870.25
449.01	893.52
449.384	891.71
449.758	885.61
450.132	902.34
450.506	927.42
450.88	908.44
451.254	912.96
451.628	922
452.002	930.13
452.376	949.57
452.75	942.33
453.123	931.03
453.497	968.55
453.871	978.94
454.244	975.1
454.618	974.2
454.992	1004.48
455.365	996.12
455.739	1037.02
456.112	1026.17
456.486	1022.11
456.859	1055.33
457.232	1055.33
457.606	1052.61
457.979	1076.12
458.352	1089.9
458.725	1096.45
459.099	1109.79
459.472	1120.63
459.845	1149.79
460.218	1131.71
460.591	1150.69
460.964	1164.7
461.337	1186.4
461.71	1175.1
462.083	1240.18
462.456	1210.12
462.829	1219.16
463.201	1240.86
463.574	1228.2
463.947	1260.52
464.32	1287.18
464.692	1290.12
465.065	1330.35
465.438	1325.83
465.81	1378.71
466.183	1383
466.555	1399.05
466.928	1401.98
467.3	1418.03
467.672	1452.6
468.045	1493.28
468.417	1444.24
468.789	1515.65
469.161	1527.63
469.534	1558.81
469.906	1566.95
470.278	1591.81
470.65	1626.84
471.022	1638.13
471.394	1658.93
471.766	1707.96
472.138	1731.24
472.51	1757.91
472.882	1775.31
473.253	1827.96
473.625	1831.58
473.997	1880.16
474.369	1941.4
474.74	1984.57
475.112	2001.52
475.484	2041.29
475.855	2102.3
476.227	2107.05
476.598	2188.85
476.97	2174.17
477.341	2284.67
477.713	2300.72
478.084	2341.39
478.455	2440.6
478.827	2491.9
479.198	2565.12
479.569	2568.28
479.94	2667.26
480.311	2729.41
480.682	2803.53
481.053	2832.45
481.424	2968.04
481.795	2990.64
482.166	3062.96
482.537	3134.37
482.908	3233.12
483.279	3284.65
483.65	3379.33
484.021	3446
484.391	3516.96
484.762	3621.81
485.133	3659.1
485.503	3784.29
485.874	3837.4
486.244	3944.29
486.615	4050.05
486.985	4180.67
487.356	4240.33
487.726	4367.55
488.097	4485.29
488.467	4511.73
488.837	4652.74
489.207	4744.95
489.578	4854.55
489.948	4927.77
490.318	4962.57
490.688	5116.69
491.058	5232.62
491.428	5394.42
491.798	5480.97
492.168	5597.13
492.538	5605.26
492.908	5815.2
493.278	5915.54
493.648	5968.87
494.017	6073.05
494.387	6115.98
494.757	6271.91
495.126	6437.56
495.496	6441.4
495.866	6594.39
496.235	6600.49
496.605	6751.22
496.974	6827.83
497.344	6935.62
497.713	7036.86
498.082	7187.82
498.452	7284.54
498.821	7335.39
499.19	7417.42
499.559	7475.72
499.928	7625.1
500.298	7644.3
500.667	7750.97
501.036	7838.2
501.405	7953
501.774	7980.12
502.143	8124.29
502.512	8145.99
502.88	8270.28
503.249	8342.14
503.618	8431.85
503.987	8517.05
504.356	8582.59
504.724	8662.13
505.093	8738.06
505.462	8796.82
505.83	8890.6
506.199	8961.78
506.567	9131.95
506.936	9121.78
507.304	9293.3
507.672	9323.13
508.041	9348.44
508.409	9477.7
508.777	9561.77
509.145	9650.13
509.514	9739.39
509.882	9803.12
510.25	9826.17
510.618	9968.54
510.986	9992.94
511.354	10072.49
511.722	10151.81
512.09	10314.74
512.458	10341.41
512.826	10426.6
513.193	10472.93
513.561	10431.35
513.929	10600.16
514.297	10610.33
514.664	10785.01
515.032	10825.69
515.4	10868.63
515.767	11028.4
516.135	10962.18
516.502	10967.83
516.869	11208.28
517.237	11194.95
517.604	11225.45
517.972	11336.64
518.339	11389.74
518.706	11415.73
519.073	11543.19
519.44	11635.39
519.808	11760.35
520.175	11667.93
520.542	11902.95
520.909	11956.73
521.276	12045.32
521.643	12069.73
522.009	12148.37
522.376	12194.47
522.743	12333.9
523.11	12403.28
523.477	12540
523.843	12601.91
524.21	12659.54
524.577	12762.81
524.943	12856.15
525.31	12933.43
525.676	13012.53
526.043	13116.93
526.409	13155.8
526.776	13352.4
527.142	13313.08
527.508	13451.61
527.874	13537.03
528.241	13544.49
528.607	13622.68
528.973	13724.14
529.339	13825.16
529.705	13864.48
530.071	13990.13
530.437	14114.42
530.803	14180.63
531.169	14207.07
531.535	14233.06
531.901	14277.58
532.267	14429.44
532.632	14472.83
532.998	14582.88
533.364	14631.01
533.73	14612.71
534.095	14739.49
534.461	14831.23
534.826	14918.92
535.192	14917.56
535.557	15008.63
535.923	15062.87
536.288	15148.51
536.653	15292.47
537.019	15211.79
537.384	15285.01
537.749	15384.44
538.114	15422.63
538.479	15442.74
538.845	15560.03
539.21	15535.4
539.575	15678.9
539.94	15679.8
540.305	15802.06
540.67	15800.93
541.034	15793.24
541.399	15847.7
541.764	15948.72
542.129	16081.6
542.494	16095.38
542.858	16202.72
543.223	16199.79
543.587	16343.28
543.952	16332.89
544.316	16379.67
544.681	16375.15
545.045	16470.29
545.41	16611.07
545.774	16673.67
546.138	16673.67
546.503	16714.57
546.867	16705.31
547.231	16868.92
547.595	16917.73
547.959	17026.43
548.324	16993.89
548.688	17057.16
549.052	17209.48
549.416	17168.8
549.779	17274.11
550.143	17281.34
550.507	17438.62
550.871	17413.77
551.235	17464.61
551.599	17653.98
551.962	17532.63
552.326	17602.69
552.689	17771.5
553.053	17668.67
553.417	17736.02
553.78	17948.67
554.143	17927.2
554.507	17957.03
554.87	18029.34
555.234	18223.24
555.597	18162.45
555.96	18207.64
556.323	18347.3
556.686	18406.06
557.05	18460.97
557.413	18571.7
557.776	18639.95
558.139	18733.05
558.502	18749.32
558.865	18793.62
559.228	18891.92
559.59	18955.65
559.953	18978.02
560.316	19146.83
560.679	19181.4
561.041	19245.13
561.404	19349.99
561.767	19410.55
562.129	19423.66
562.492	19625.68
562.854	19474.5
563.217	19682.18
563.579	19656.19
563.941	19848.73
564.304	19934.15
564.666	19970.53
565.028	20022.74
565.39	20128.04
565.753	20177.76
566.115	20247.59
566.477	20378.21
566.839	20421.14
567.201	20489.62
567.563	20649.61
567.925	20695.94
568.287	20690.97
568.648	20770.29
569.01	20904.75
569.372	20979.1
569.734	20877.63
570.095	21130.28
570.457	21229.26
570.819	21208.69
571.18	21323.72
571.542	21486.65
571.903	21461.57
572.265	21695.46
572.626	21699.08
572.987	21664.5
573.349	21821.33
573.71	21930.48
574.071	21968
574.432	22078.28
574.794	22323.69
575.155	22323.69
575.516	22320.98
575.877	22486.63
576.238	22572.73
576.599	22745.15
576.96	22836.9
577.32	22866.5
577.681	23057.68
578.042	23171.81
578.403	23203.67
578.763	23224.46
579.124	23524.34
579.485	23552.13
579.845	23765.01
580.206	23933.14
580.566	23945.57
580.927	24149.86
581.287	24449.74
581.648	24330.65
582.008	24636.4
582.368	24600.24
582.728	24888.82
583.089	24905.09
583.449	25164.52
583.809	25276.38
584.169	25498.07
584.529	25529.94
584.889	25902.58
585.249	25838.85
585.609	26016.7
585.969	26322.91
586.329	26399.74
586.688	26711.15
587.048	26803.8
587.408	26922.67
587.768	27152.72
588.127	27135.32
588.487	27385.25
588.846	27775.75
589.206	27763.32
589.565	28058.46
589.925	28327.15
590.284	28344.1
590.643	28589.06
591.003	28756.07
591.362	28940.92
591.721	29045.32
592.08	29264.3
592.44	29339.55
592.799	29692.54
593.158	29797.17
593.517	29973.89
593.876	30151.51
594.235	30259.08
594.593	30600.99
594.952	30687.09
595.311	30785.17
595.67	30943.81
596.029	31239.62
596.387	31520.29
596.746	31637.35
597.104	31659.94
597.463	31779.26
597.822	32028.52
598.18	32156.88
598.538	32257.67
598.897	32616.08
599.255	32427.83
599.613	33089.96
599.972	32934.94
600.33	33233.01
600.688	33172
601.046	33510.97
601.404	33743.05
601.762	33753.9
602.12	34065.08
602.478	34104.17
602.836	34314.56
603.194	34143.72
603.552	34360.44
603.91	34361.34
604.268	34702.12
604.625	34721.56
604.983	35042.68
605.341	34939.18
605.698	35266.63
606.056	35329.45
606.413	35403.12
606.771	35705.71
607.128	35753.4
607.485	35821.19
607.843	35780.51
608.2	36103.67
608.557	36344.11
608.914	36116.32
609.272	36468.41
609.629	36715.63
609.986	36829.3
610.343	36777.32
610.7	37149.07
611.057	37057.09
611.414	37137.09
611.771	37098.9
612.127	37445.1
612.484	37649.62
612.841	37647.58
613.198	37610.07
613.554	37665.44
613.911	37964.86
614.267	37877.18
614.624	37971.64
614.98	38105.2
615.337	38291.86
615.693	38245.08
616.05	38413.89
616.406	38541.35
616.762	38422.48
617.118	38551.29
617.475	38593.77
617.831	38828.12
618.187	38892.3
618.543	38993.76
618.899	39145.62
619.255	39021.33
619.611	39256.81
619.967	39387.2
620.323	39596.23
620.678	39240.99
621.034	39253.64
621.39	39331.38
621.746	39448.44
622.101	39923.46
622.457	39474.43
622.812	39661.99
623.168	39785.83
623.523	39770.69
623.879	39923
624.234	39672.62
624.589	39887.07
624.945	39914.42
625.3	39976.34
625.655	40043.9
626.01	40240.96
626.365	40057.24
626.72	39948.99
627.075	40127.97
627.43	39986.73
627.785	39996.9
628.14	40111.47
628.495	40123.68
628.85	40099.5
629.205	40085.26
629.559	40341.07
629.914	40255.2
630.269	40179.95
630.623	40113.06
630.978	40096.33
631.332	40232.83
631.687	40286.61
632.041	40057.92
632.396	40269.89
632.75	40007.52
633.104	40142.66
633.459	39998.03
633.813	40076.45
634.167	40015.2
634.521	39936.56
634.875	40088.88
635.229	40007.97
635.583	39847.07
635.937	39842.78
636.291	39819.05
636.645	39890.01
636.999	39752.61
637.352	40067.63
637.706	39709.45
638.06	39975.21
638.413	39740.18
638.767	39834.64
639.121	39942.44
639.474	39679.39
639.828	39692.05
640.181	39796
640.534	39860.86
640.888	39668.77
641.241	39530.02
641.594	39563.47
641.947	39739.05
642.301	39600.75
642.654	39626.74
643.007	39456.12
643.36	39510.36
643.713	39558.04
644.066	39688.89
644.419	39317.82
644.771	39148.56
645.124	38790.83
645.477	38772.98
645.83	38433.55
646.182	38402.82
646.535	38342.93
646.888	38342.25
647.24	38086.89
647.593	38391.97
647.945	38259.32
648.298	38020.91
648.65	37900.23
649.002	37970.29
649.355	38013.45
649.707	37894.36
650.059	38184.07
650.411	38687.33
650.763	38688.23
651.115	39033.08
651.467	38900.66
651.819	38848.68
652.171	38743.83
652.523	38645.3
652.875	38724.39
653.227	38679.87
653.578	38840.55
653.93	38692.53
654.282	38512.65
654.633	38504.28
654.985	38617.73
655.337	38482.82
655.688	38525.3
656.039	38734.79
656.391	38386.32
656.742	38459.31
657.094	38460.22
657.445	38564.4
657.796	38412.99
658.147	38515.58
658.498	38441.23
658.849	38356.27
659.2	38377.28
659.551	38266.55
659.902	38491.63
660.253	38441.46
660.604	38458.64
660.955	38261.8
661.306	38311.75
661.656	38280.79
662.007	38328.47
662.358	38337.96
662.708	38409.15
663.059	38262.48
663.409	37961.25
663.76	38295.02
664.11	38204.86
664.461	38302.26
664.811	38294.35
665.161	38250.73
665.511	38198.98
665.862	38093.67
666.212	38238.75
666.562	38255.93
666.912	38182.03
667.262	38101.36
667.612	38116.72
667.962	38187.46
668.312	38006.67
668.662	38248.7
669.011	38055.03
669.361	38048.02
669.711	38026.33
670.06	38004.86
670.41	38005.31
670.76	37866.11
671.109	38034.92
671.459	37999.21
671.808	37990.63
672.157	37969.83
672.507	37695.94
672.856	37753.34
673.205	37872.66
673.554	37789.27
673.904	37862.72
674.253	38030.17
674.602	37898.88
674.951	37321.04
675.3	37174.6
675.649	37776.62
675.998	37625.44
676.346	37606.68
676.695	37772.55
677.044	37553.12
677.393	37705.21
677.741	37652.78
678.09	37613.23
678.438	37489.85
678.787	37645.32
679.135	37646.68
679.484	37377.31
679.832	37389.29
680.181	37292.56
680.529	37335.05
680.877	37264.09
681.225	37083.98
681.573	37475.16
681.922	37003.08
682.27	37023.87
682.618	36942.07
682.966	36856.42
683.314	37005.34
683.661	36902.74
684.009	36825.68
684.357	36587.05
684.705	36620.04
685.053	36742.97
685.4	36606.03
685.748	36320.84
686.095	36384.34
686.443	36361.29
686.79	36278.35
687.138	36426.6
687.485	36303.89
687.832	36152.03
688.18	36158.36
688.527	35954.29
688.874	36025.93
689.221	35912.71
689.568	35966.72
689.915	35676.34
690.262	35751.14
690.609	35721.31
690.956	35453.52
691.303	35423.69
691.65	35306.63
691.997	35381.88
692.344	35204.26
692.69	35038.61
693.037	35025.51
693.383	34867.32
693.73	35065.5
694.077	34801.56
694.423	34817.6
694.769	34659.19
695.116	34503.94
695.462	34501
695.808	34389.36
696.155	34454.45
696.501	34289.25
696.847	34211.29
697.193	33903.05
697.539	34167
697.885	33729.04
698.231	33786.22
698.577	33723.84
698.923	33721.36
699.269	33601.59
699.614	33348.49
699.96	33379.67
700.306	33398.88
700.651	33201.6
700.997	33082.28
701.342	33048.83
701.688	33054.71
702.033	32904.88
702.379	32802.29
702.724	32852.23
703.069	32840.03
703.415	32453.82
703.76	32480.71
704.105	32523.65
704.45	32315.97
704.795	32242.3
705.14	32115.07
705.485	32287.95
705.83	32052.7
706.175	32059.93
706.52	31924.12
706.865	31843.44
707.209	31678.47
707.554	31740.62
707.899	31813.16
708.243	31642.54
708.588	31520.06
708.932	31254.98
709.277	31260.63
709.621	31302.44
709.966	31112.16
710.31	31194.65
710.654	30854.09
710.998	30875.56
711.342	30976.8
711.687	30909
712.031	30870.59
712.375	30610.48
712.719	30585.4
713.063	30575.91
713.407	30654.77
713.75	30434.89
714.094	30394.21
714.438	30296.14
714.782	30442.12
715.125	30314.67
715.469	30312.41
715.812	30095.24
716.156	29959.88
716.499	29877.17
716.843	29975.24
717.186	29794.23
717.53	29901.12
717.873	29891.18
718.216	29830.16
718.559	29751.75
718.902	29548.14
719.246	29591.3
719.589	29465.88
719.932	29396.5
720.275	29366.45
720.617	29236.28
720.96	29194.7
721.303	29267.46
721.646	29274.7
721.989	29088.26
722.331	29093.01
722.674	28993.57
723.016	28923.52
723.359	28856.85
723.701	29033.8
724.044	28773.92
724.386	28676.52
724.729	28793.13
725.071	28627.93
725.413	28722.39
725.755	28606.01
726.097	28468.62
726.439	28396.98
726.782	28536.41
727.124	28511.1
727.465	28298.22
727.807	28341.16
728.149	28260.49
728.491	28201.05
728.833	28272.24
729.175	28206.7
729.516	28154.95
729.858	28113.14
730.199	28071.11
730.541	28029.76
730.882	28012.13
731.224	28050.77
731.565	27826.6
731.906	27872.25
732.248	27856.2
732.589	27724.45
732.93	27573.72
733.271	27670.67
733.612	27698.47
733.953	27709.99
734.294	27569.88
734.635	27456.44
734.976	27632.48
735.317	27394.07
735.658	27346.84
735.999	27342.54
736.339	27220.74
736.68	27319.04
737.021	27273.39
737.361	27225.48
737.702	27269.78
738.042	27178.48
738.383	27073.85
738.723	27080.86
739.063	27017.81
739.404	27017.81
739.744	26828.88
740.084	26858.04
740.424	26801.77
740.764	26842.44
741.104	26877.25
741.444	26599.29
741.784	26569.23
742.124	26679.74
742.464	26634.09
742.804	26574.65
743.143	26507.99
743.483	26534.66
743.823	26309.12
744.162	26391.83
744.502	26373.53
744.841	26278.39
745.181	26525.39
745.52	26284.49
745.86	26404.49
746.199	26220.77
746.538	26214.66
746.877	26215.79
747.216	26296.02
747.556	26077.27
747.895	26113.2
748.234	25947.33
748.573	25932.64
748.911	25927.89
749.25	25915.91
749.589	25830.27
749.928	25748.46
750.267	25833.43
750.605	25692.42
750.944	25594.79
751.283	25541.24
751.621	25673.44
751.96	25468.47
752.298	25524.74
752.636	25592.31
752.975	25261.69
753.313	25311.41
753.651	25303.73
753.989	25217.18
754.327	25057.63
754.666	24984.87
755.004	25085.43
755.342	25092.66
755.679	25030.51
756.017	24806.11
756.355	24918.2
756.693	24763.4
757.031	24782.84
757.368	24684.53
757.706	24611.99
758.044	24580.58
758.381	24541.26
758.719	24447.48
759.056	24486.57
759.394	24375.62
759.731	24250.87
760.068	24239.12
760.405	24132.46
760.743	24045.46
761.08	24122.06
761.417	23932.69
761.754	23911.45
762.091	23914.61
762.428	23722.98
762.765	23562.08
763.102	23767.5
763.438	23666.26
763.775	23495.41
764.112	23435.3
764.449	23379.03
764.785	23329.09
765.122	23127.51
765.458	23029.66
765.795	23020.4
766.131	23011.36
766.467	22950.34
766.804	22923.9
767.14	22744.7
767.476	22767.97
767.812	22656.11
768.148	22551.03
768.485	22499.73
768.821	22422.9
769.157	22349
769.492	22213.19
769.828	22225.84
770.164	22012.97
770.5	21969.35
770.836	22063.36
771.171	21903.36
771.507	21806.87
771.842	21622.69
772.178	21705.18
772.513	21682.58
772.849	21548.35
773.184	21417.28
773.519	21494.56
773.855	21412.98
774.19	21178.86
774.525	21247.79
774.86	21116.49
775.195	21048.25
775.53	21035.59
775.865	20945.2
776.2	20636.73
776.535	20563.96
776.87	20571.2
777.205	20578.88
777.539	20453.46
777.874	20525.32
778.209	20380.24
778.543	20363.52
778.878	20217.99
779.212	20180.25
779.547	19976.18
779.881	19969.18
780.215	19890.31
780.55	19933.02
780.884	19876.98
781.218	19755.17
781.552	19717.66
781.886	19675.85
782.22	19476.99
782.554	19425.01
782.888	19281.96
783.222	19270.89
783.556	19192.93
783.889	19113.38
784.223	18987.74
784.557	18940.05
784.89	18883.78
785.224	18785.71
785.557	18733.73
785.891	18719.04
786.224	18692.83
786.558	18631.59
786.891	18499.84
787.224	18374.87
787.557	18355.89
787.891	18251.48
788.224	18259.39
788.557	18182.56
788.89	18159.28
789.223	18137.36
789.556	18158.83
789.888	17961.32
790.221	17897.59
790.554	17773.98
790.887	17761.55
791.219	17646.08
791.552	17652.63
791.884	17568.11
792.217	17533.99
792.549	17484.27
792.882	17341.22
793.214	17278.85
793.546	17314.11
793.879	17160.21
794.211	17065.3
794.543	17153.66
794.875	17082.93
795.207	17069.59
795.539	16961.57
795.871	16984.62
796.203	16848.81
796.535	16653.56
796.867	16728.81
797.198	16703.73
797.53	16655.14
797.862	16542.6
798.193	16566.33
798.525	16491.98
798.856	16429.61
799.188	16312.33
799.519	16237.75
799.85	16054.93
800.182	16204.31
800.513	16045.89
800.844	16027.36
801.175	16072.56
801.506	15923.86
801.837	15938.55
802.168	15964.76
802.499	15917.53
802.83	15753.24
803.161	15784.66
803.491	15729.06
803.822	15711.89
804.153	15577.43
804.483	15481.61
804.814	15471.44
805.145	15501.05
805.475	15430.99
805.805	15319.81
806.136	15322.07
806.466	15283.2
806.796	15242.75
807.126	15160.72
807.457	15136.76
807.787	15157.78
808.117	15058.12
808.447	15045.69
808.777	15035.07
809.107	14928.63
809.436	14960.27
809.766	14901.29
810.096	14826.71
810.426	14748.75
810.755	14795.08
811.085	14739.71
811.414	14637.57
811.744	14606.83
812.073	14527.97
812.403	14632.82
812.732	14505.37
813.061	14516.89
813.39	14279.38
813.719	14432.6
814.049	14450.91
814.378	14310.57
814.707	14233.74
815.036	14259.5
815.365	14182.21
815.693	14071.25
816.022	14071.71
816.351	14085.72
816.68	13922.33
817.008	14021.76
817.337	13918.94
817.665	13859.96
817.994	13929.56
818.322	13857.02
818.651	13816.57
818.979	13717.82
819.307	13766.63
819.636	13771.15
819.964	13614.77
820.292	13651.38
820.62	13687.76
820.948	13651.15
821.276	13723.92
821.604	13659.29
821.932	13647.08
822.259	13672.17
822.587	13661.55
822.915	13582.68
823.243	13644.6
823.57	13563.7
823.898	13573.64
824.225	13527.54
824.553	13559.4
824.88	13582
825.207	13592.4
825.535	13517.82
825.862	13575.67
826.189	13483.25
826.516	13487.09
826.843	13645.5
827.17	13538.16
827.497	13658.84
827.824	13509.46
828.151	13645.95
828.478	13536.58
828.805	13553.08
829.131	13472.17
829.458	13482.8
829.785	13455
830.111	13528.44
830.438	13454.55
830.764	13490.93
831.09	13602.34
831.417	13382.23
831.743	13518.05
832.069	13443.93
832.395	13463.81
832.722	13473.98
833.048	13436.02
833.374	13390.14
833.7	13379.07
834.026	13369.8
834.351	13351.27
834.677	13303.59
835.003	13384.04
835.329	13344.95
835.654	13283.03
835.98	13248.68
836.306	13305.17
836.631	13200.99
836.956	13270.6
837.282	13280.77
837.607	13179.53
837.932	13086.87
838.258	13109.92
838.583	13166.65
838.908	13053.65
839.233	13167.78
839.558	13101.79
839.883	12979.31
840.208	13011.4
840.533	13004.39
840.858	12936.14
841.182	12992.41
841.507	12882.81
841.832	12887.33
842.156	12890.27
842.481	12892.3
842.805	12773.66
843.13	12727.56
843.454	12717.84
843.778	12726.66
844.103	12662.03
844.427	12633.78
844.751	12606.43
845.075	12627.68
845.399	12558.75
845.723	12477.17
846.047	12516.04
846.371	12424.52
846.695	12395.82
847.019	12361.02
847.343	12297.97
847.666	12243.51
847.99	12149.04
848.313	12205.77
848.637	12084.64
848.96	12069.73
849.284	12049.84
849.607	11940.01
849.931	11959.67
850.254	11809.84
850.577	11777.76
850.9	11677.42
851.223	11640.81
851.546	11600.13
851.869	11497.54
852.192	11597.87
852.515	11509.74
852.838	11427.93
853.161	11496.18
853.483	11383.64
853.806	11326.24
854.129	11260.25
854.451	11261.16
854.774	11193.36
855.096	11173.93
855.419	11169.86
855.741	11105.46
856.063	11058.45
856.385	10981.39
856.708	10925.35
857.03	10956.76
857.352	10938
857.674	10904.56
857.996	10902.98
858.318	10778.91
858.64	10843.54
858.961	10730.55
859.283	10708.4
859.605	10735.52
859.926	10702.53
860.248	10634.28
860.57	10707.5
860.891	10648.75
861.212	10620.72
861.534	10568.75
861.855	10525.36
862.176	10490.11
862.498	10515.87
862.819	10516.09
863.14	10416.21
863.461	10449.88
863.782	10387.28
864.103	10354.06
864.424	10400.62
864.745	10394.74
865.065	10382.54
865.386	10331.47
865.707	10292.14
866.027	10299.6
866.348	10202.2
866.668	10296.66
866.989	10194.97
867.309	10095.09
867.63	10160.62
867.95	10197.68
868.27	10070.23
868.59	10080.17
868.91	10165.14
869.23	10056.67
869.55	10050.34
869.87	10084.92
870.19	10105.26
870.51	9995.66
870.83	10012.83
871.15	9936.22
871.469	9967.18
871.789	10068.65
872.109	9996.56
872.428	9919.73
872.748	9923.79
873.067	9882.89
873.386	9947.29
873.706	9905.26
874.025	9853.51
874.344	9793.17
874.663	9791.82
874.982	9843.79
875.301	9829.33
875.62	9764.25
875.939	9651.71
876.258	9770.12
876.577	9673.86
876.896	9701.2
877.214	9623.46
877.533	9699.17
877.852	9695.32
878.17	9613.74
878.489	9611.03
878.807	9623.01
879.125	9610.81
879.444	9555.44
879.762	9588.66
880.08	9566.97
880.398	9517.93
880.716	9525.61
881.034	9406.29
881.352	9488.1
881.67	9458.72
881.988	9465.73
882.306	9373.75
882.624	9410.81
882.941	9349.8
883.259	9266.63
883.577	9288.33
883.894	9282.68
884.212	9314.77
884.529	9267.99
884.846	9253.98
885.164	9183.7
885.481	9196.58
885.798	9208.33
886.115	9097.37
886.432	9140.54
886.75	9137.37
887.067	9103.48
887.383	9047.43
887.7	9044.49
888.017	9020.54
888.334	9045.62
888.651	8952.07
888.967	9004.27
889.284	8904.61
889.6	8924.05
889.917	8813.09
890.233	8795.69
890.55	8867.1
890.866	8856.93
891.182	8803.14
891.498	8799.75
891.815	8777.83
892.131	8651.51
892.447	8652.41
892.763	8672.75
893.079	8634.79
893.395	8608.57
893.71	8576.03
894.026	8556.82
894.342	8579.2
894.657	8496.26
894.973	8474.57
895.289	8501.01
895.604	8437.5
895.92	8382.59
896.235	8338.75
896.55	8375.81
896.865	8338.3
897.181	8261.92
897.496	8254.68
897.811	8224.4
898.126	8229.6
898.441	8170.17
898.756	8112.31
899.071	8131.52
899.386	8133.11
899.7	8112.09
900.015	7986.22
900.33	7939.66
900.644	7952.77
900.959	8011.3
901.273	7945.99
901.588	7855.37
901.902	7826.22
902.216	7842.49
902.531	7806.79
902.845	7743.74
903.159	7713.23
903.473	7728.37
903.787	7689.28
904.101	7632.78
904.415	7669.84
904.729	7629.16
905.042	7515.49
905.356	7530.18
905.67	7523.4
905.984	7505.33
906.297	7469.62
906.611	7385.78
906.924	7420.58
907.237	7423.07
907.551	7336.52
907.864	7303.07
908.177	7268.95
908.491	7292.68
908.804	7229.4
909.117	7150.53
909.43	7168.84
909.743	7112.34
910.056	7136.07
910.368	7067.6
910.681	7108.73
910.994	6995.51
911.307	7022.85
911.619	6963.87
911.932	6931.1
912.244	6904.21
912.557	6859.01
912.869	6891.78
913.181	6809.75
913.494	6824.89
913.806	6695.63
914.118	6726.59
914.43	6678.68
914.742	6660.15
915.054	6660.15
915.366	6619.47
915.678	6624.9
915.99	6596.87
916.302	6521.85
916.613	6483.88
916.925	6520.04
917.236	6456.77
917.548	6485.69
917.859	6467.16
918.171	6382.19
918.482	6381.51
918.794	6296.09
919.105	6336.32
919.416	6273.27
919.727	6281.4
920.038	6266.49
920.349	6193.95
920.66	6198.69
920.971	6191.01
921.282	6138.81
921.593	6060.17
921.903	6073.05
922.214	6029.21
922.525	6062.2
922.835	6004.35
923.146	5951.92
923.456	5987.17
923.767	5932.49
924.077	5960.96
924.387	5908.98
924.697	5821.75
925.008	5830.79
925.318	5850.91
925.628	5798.48
925.938	5756.44
926.248	5674.19
926.558	5721.19
926.867	5680.51
927.177	5671.93
927.487	5638.71
927.796	5581.31
928.106	5579.95
928.416	5582.89
928.725	5591.7
929.034	5520.07
929.344	5573.85
929.653	5460.18
929.962	5400.97
930.271	5457.47
930.581	5364.82
930.89	5354.87
931.199	5348.55
931.508	5372.05
931.817	5360.3
932.125	5315.33
932.434	5275.1
932.743	5247.53
933.051	5229.23
933.36	5166.86
933.669	5222
933.977	5151.49
934.286	5099.29
934.594	5111.49
934.902	5041.44
935.21	5054.09
935.519	5071.94
935.827	5012.51
936.135	4977.48
936.443	4911.5
936.751	4924.83
937.059	4950.59
937.367	4914.21
937.674	4909.69
937.982	4883.93
938.29	4845.51
938.597	4865.39
938.905	4765.28
939.213	4790.59
939.52	4815.45
939.827	4755.34
940.135	4725.06
940.442	4751.27
940.749	4723.03
941.056	4683.93
941.363	4645.51
941.67	4669.47
941.977	4643.03
942.284	4569.13
942.591	4609.58
942.898	4559.64
943.205	4577.04
943.511	4508.34
943.818	4501.79
944.125	4441.45
944.431	4495.01
944.738	4401.45
945.044	4421.11
945.35	4418.4
945.657	4390.15
945.963	4342.24
946.269	4336.37
946.575	4301.34
946.881	4313.09
947.187	4287.78
947.493	4239.65
947.799	4323.04
948.105	4251.17
948.41	4231.51
948.716	4237.84
949.022	4211.85
949.327	4205.75
949.633	4090.05
949.938	4140.22
950.244	4178.41
950.549	4081.23
950.854	4062.7
951.16	4074.68
951.465	4035.13
951.77	4030.61
952.075	4008.69
952.38	4006.66
952.685	4005.98
952.99	3967.57
953.294	3938.19
953.599	3909.26
953.904	3920.11
954.209	3874.46
954.513	3873.78
954.818	3830.39
955.122	3823.61
955.426	3833.78
955.731	3788.36
956.035	3769.38
956.339	3746.33
956.643	3770.06
956.948	3705.88
957.252	3746.1
957.556	3726.22
957.86	3715.82
958.163	3693.45
958.467	3693.45
958.771	3644.18
959.075	3629.27
959.378	3634.01
959.682	3636.05
959.985	3591.98
960.289	3556.95
960.592	3567.35
960.896	3581.81
961.199	3494.81
961.502	3469.5
961.805	3460.01
962.108	3462.27
962.411	3465.66
962.714	3410.52
963.017	3416.17
963.32	3412.55
963.623	3420.69
963.926	3377.3
964.228	3355.38
964.531	3373.46
964.833	3345.21
965.136	3351.99
965.438	3324.42
965.741	3275.38
966.043	3279.67
966.345	3235.61
966.648	3257.53
966.95	3291.42
967.252	3231.09
967.554	3194.7
967.856	3193.8
968.158	3190.18
968.46	3179.34
968.761	3194.03
969.063	3128.27
969.365	3091.2
969.666	3101.37
969.968	3112.45
970.269	3079.9
970.571	3049.4
970.872	3079
971.174	3048.72
971.475	3006.46
971.776	3011.21
972.077	2992.22
972.378	2972.34
972.679	2987.03
972.98	2984.99
973.281	2957.87
973.582	2912.45
973.883	2917.42
974.183	2917.88
974.484	2905.22
974.785	2881.04
975.085	2874.49
975.386	2848.5
975.686	2873.13
975.986	2843.3
976.287	2888.05
976.587	2806.24
976.887	2819.35
977.187	2792.68
977.487	2783.19
977.787	2803.53
978.087	2757.43
978.387	2763.3
978.687	2770.08
978.987	2739.12
979.286	2732.34
979.586	2720.37
979.885	2690.99
980.185	2671.1
980.484	2657.77
980.784	2658.67
981.083	2625.45
981.382	2634.27
981.682	2608.73
981.981	2608.05
982.28	2582.74
982.579	2578.45
982.878	2537.09
983.177	2563.53
983.475	2544.55
983.774	2548.17
984.073	2514.72
984.372	2507.49
984.67	2512.91
984.969	2512.46
985.267	2526.47
985.566	2496.42
985.864	2448.51
986.162	2444.67
986.461	2427.72
986.759	2418.23
987.057	2435.4
987.355	2441.73
987.653	2394.05
987.951	2393.14
988.249	2385.69
988.547	2375.29
988.844	2342.52
989.142	2344.33
989.44	2330.32
989.737	2304.78
990.035	2358.34
990.332	2328.74
990.63	2279.25
990.927	2300.49
991.224	2264.79
991.521	2279.25
991.819	2249.87
992.116	2219.81
992.413	2276.31
992.71	2210.1
993.006	2217.33
993.303	2222.75
993.6	2199.02
993.897	2196.09
994.193	2192.24
994.49	2152.02
994.787	2167.16
995.083	2131.23
995.379	2140.95
995.676	2107.73
995.972	2079.25
996.268	2092.81
996.565	2090.78
996.861	2086.03
997.157	2067.5
997.453	2067.28
997.749	2067.5
998.044	2066.37
998.34	2043.77
998.636	2017.79
998.932	2024.57
999.227	1993.15
999.523	2006.94
999.818	1978.46
1000.114	1970.78
1000.409	1953.83
1000.704	1948.18
1001	1898.69
1001.295	1924.46
1001.59	1936.21
1001.885	1897.56
1002.18	1897.11
1002.475	1896.43
1002.77	1879.48
1003.065	1884
1003.359	1855.76
1003.654	1842.65
1003.949	1833.16
1004.243	1806.94
1004.538	1807.17
1004.832	1828.64
1005.127	1792.93
1005.421	1792.26
1005.715	1782.54
1006.009	1759.49
1006.304	1779.37
1006.598	1737.57
1006.892	1729.43
1007.186	1721.97
1007.48	1721.3
1007.773	1724.23
1008.067	1704.12
1008.361	1719.04
1008.655	1673.84
1008.948	1706.16
1009.242	1665.93
1009.535	1619.38
1009.829	1660.06
1010.122	1647.17
1010.415	1620.96
1010.708	1586.38
1011.001	1596.55
1011.295	1606.72
1011.588	1624.35
1011.881	1597.23
1012.173	1547.06
1012.466	1556.56
1012.759	1562.66
1013.052	1567.18
1013.344	1551.36
1013.637	1558.36
1013.93	1500.06
1014.222	1521.08
1014.514	1509.78
1014.807	1482.43
1015.099	1472.72
1015.391	1476.33
1015.683	1474.98
1015.976	1488.99
1016.268	1486.05
1016.56	1432.94
1016.851	1456.44
1017.143	1426.39
1017.435	1448.99
1017.727	1439.72
1018.018	1412.83
1018.31	1363.34
1018.602	1389.33
1018.893	1387.52
1019.185	1383.23
1019.476	1346.17
1019.767	1385.03
1020.058	1361.53
1020.35	1313.17
1020.641	1337.8
1020.932	1316.79
1021.223	1312.04
1021.514	1313.85
1021.804	1300.29
1022.095	1278.82
1022.386	1268.2
1022.677	1268.88
1022.967	1266.39
1023.258	1240.18
1023.548	1256
1023.839	1260.74
1024.129	1253.29
1024.419	1251.03
1024.709	1227.3
1025	1215.1
1025.29	1201.31
1025.58	1196.79
1025.87	1192.95
1026.16	1191.59
1026.449	1181.42
1026.739	1184.14
1027.029	1149.11
1027.319	1165.15
1027.608	1167.64
1027.898	1132.16
1028.187	1126.96
1028.477	1113.85
1028.766	1107.3
1029.055	1098.04
1029.344	1102.1
1029.634	1088.77
1029.923	1079.96
1030.212	1059.17
1030.501	1080.64
1030.79	1062.1
1031.078	1065.27
1031.367	1042.44
1031.656	1032.28
1031.945	1051.03
1032.233	995.21
1032.522	1032.95
1032.81	1006.97
1033.099	1035.21
1033.387	1006.06
1033.675	1002.45
1033.963	1019.85
1034.251	1000.86
1034.54	1003.58
1034.828	992.05
1035.116	987.08
1035.403	954.54
1035.691	954.54
1035.979	969
1036.267	947.31
1036.554	920.64
1036.842	931.49
1037.129	929.45
1037.417	901.88
1037.704	924.93
1037.992	886.74
1038.279	915.89
1038.566	897.82
1038.853	897.82
1039.14	897.82
