Data from hue_110_FLMS001491_00090.txt Node
Date: Tue Feb 07 17:01:57 GMT 2017
User: dcchb
Spectrometer: FLMS00149
Trigger mode: 0
Integration Time (sec): 2.000000E-2
Scans to average: 10
Electric dark correction enabled: true
Nonlinearity correction enabled: false
Boxcar width: 0
XAxis mode: Wavelengths
Number of Pixels in Spectrum: 2048
>>>>>Begin Spectral Data<<<<<
341.393	-20.85
341.776	-20.85
342.16	-20.85
342.543	-61.3
342.927	-48.19
343.31	-83.67
343.693	-80.05
344.077	-54.07
344.46	-54.07
344.843	-58.59
345.226	-26.04
345.61	-25.59
345.993	-42.54
346.376	-7.97
346.759	10.34
347.142	31.36
347.525	40.17
347.908	61.86
348.291	81.98
348.674	87.62
349.057	119.26
349.44	137.79
349.823	144.12
350.206	162.2
350.588	193.84
350.971	191.35
351.354	229.09
351.737	253.72
352.119	250.11
352.502	249.88
352.884	257.34
353.267	273.16
353.65	293.27
354.032	294.63
354.414	310.22
354.797	315.42
355.179	331.46
355.562	326.49
355.944	318.35
356.326	326.71
356.709	340.73
357.091	337.56
357.473	342.08
357.855	351.35
358.238	341.18
358.62	328.52
359.002	353.83
359.384	341.4
359.766	329.88
360.148	345.02
360.53	356.09
360.912	352.93
361.294	338.47
361.676	318.13
362.057	326.26
362.439	328.3
362.821	340.27
363.203	330.78
363.584	332.36
363.966	349.76
364.348	320.61
364.729	309.31
365.111	322.42
365.493	314.74
365.874	311.35
366.256	323.78
366.637	317.68
367.019	314.51
367.4	323.78
367.781	330.1
368.163	328.52
368.544	308.41
368.925	317.45
369.306	339.37
369.688	310.22
370.069	319.94
370.45	322.19
370.831	323.78
371.212	316.32
371.593	294.63
371.974	305.92
372.355	311.8
372.736	306.15
373.117	319.03
373.498	320.61
373.879	320.39
374.26	302.53
374.641	327.17
375.021	320.61
375.402	306.38
375.783	311.8
376.163	338.69
376.544	330.78
376.925	327.62
377.305	320.39
377.686	322.65
378.066	319.03
378.447	329.65
378.827	337.11
379.208	360.16
379.588	339.37
379.968	317.68
380.349	333.72
380.729	338.92
381.109	330.1
381.489	336.21
381.87	333.27
382.25	352.25
382.63	336.88
383.01	330.1
383.39	364.45
383.77	339.6
384.15	309.54
384.53	352.02
384.91	369.2
385.29	345.7
385.67	349.09
386.049	363.32
386.429	335.75
386.809	361.74
387.189	366.49
387.568	358.8
387.948	349.54
388.328	356.09
388.707	366.26
389.087	352.48
389.466	365.81
389.846	368.97
390.225	372.14
390.605	361.06
390.984	386.6
391.363	376.88
391.743	359.71
392.122	379.59
392.501	370.78
392.881	380.72
393.26	381.63
393.639	364.68
394.018	373.94
394.397	379.59
394.776	379.59
395.155	364.68
395.534	383.66
395.913	393.15
396.292	383.66
396.671	385.02
397.05	392.93
397.429	388.86
397.808	388.41
398.186	390.44
398.565	387.5
398.944	390.22
399.323	383.66
399.701	371.69
400.08	406.71
400.458	379.37
400.837	391.57
401.215	407.84
401.594	415.53
401.972	415.07
402.351	408.97
402.729	409.65
403.107	402.19
403.486	436.77
403.864	407.62
404.242	417.11
404.62	432.02
404.999	435.64
405.377	437.67
405.755	433.6
406.133	430.44
406.511	434.06
406.889	436.09
407.267	445.58
407.645	442.87
408.023	435.64
408.401	429.54
408.779	450.33
409.156	449.2
409.534	455.3
409.912	452.36
410.29	468.63
410.667	446.71
411.045	463.66
411.422	463.43
411.8	477.9
412.178	472.93
412.555	443.77
412.933	480.16
413.31	452.36
413.687	476.09
414.065	466.6
414.442	507.27
414.819	492.13
415.197	494.17
415.574	459.37
415.951	506.82
416.328	507.5
416.705	507.73
417.082	495.98
417.46	499.37
417.837	507.05
418.214	525.81
418.591	509.31
418.967	545.01
419.344	526.94
419.721	538.46
420.098	557.22
420.475	532.13
420.852	515.86
421.228	531
421.605	547.95
421.982	538.46
422.358	569.42
422.735	542.08
423.111	547.05
423.488	547.27
423.864	568.52
424.241	559.7
424.617	565.13
424.994	564
425.37	571.23
425.746	573.94
426.123	603.09
426.499	576.65
426.875	591.57
427.251	580.72
427.627	616.2
428.003	604.9
428.379	631.79
428.756	606.71
429.132	612.36
429.507	644.9
429.883	629.08
430.259	612.36
430.635	652.58
431.011	637.67
431.387	671.11
431.763	645.35
432.138	677.67
432.514	670.21
432.89	665.46
433.265	692.35
433.641	698
434.016	697.1
434.392	684.45
434.767	693.71
435.143	690.09
435.518	701.62
435.894	716.99
436.269	746.36
436.644	746.59
437.02	725.8
437.395	730.55
437.77	709.98
438.145	776.19
438.52	766.03
438.895	761.05
439.271	765.57
439.646	761.51
440.021	802.63
440.395	757.66
440.77	782.3
441.145	768.96
441.52	804.67
441.895	792.92
442.27	795.85
442.645	798.34
443.019	832.24
443.394	832.69
443.769	831.11
444.143	816.87
444.518	850.32
444.892	829.98
445.267	841.28
445.641	850.99
446.016	857.32
446.39	863.88
446.764	878.34
447.139	873.14
447.513	863.88
447.887	879.47
448.262	865.91
448.636	873.82
449.01	895.74
449.384	904.55
449.758	913.82
450.132	914.04
450.506	912.24
450.88	935.96
451.254	938.68
451.628	936.64
452.002	966.47
452.376	977.54
452.75	982.97
453.123	968.73
453.497	987.94
453.871	999.92
454.244	1027.04
454.618	1043.53
454.992	1037.88
455.365	1031.33
455.739	1069.29
456.112	1055.96
456.486	1068.84
456.859	1066.58
457.232	1101.84
457.606	1084.43
457.979	1087.6
458.352	1134.6
458.725	1148.39
459.099	1161.04
459.472	1177.54
459.845	1169.63
460.218	1188.84
460.591	1206.24
460.964	1200.59
461.337	1232.45
461.71	1263.64
462.083	1257.99
462.456	1294.37
462.829	1292.11
463.201	1302.06
463.574	1329.4
463.947	1354.48
464.32	1364.43
464.692	1381.15
465.065	1369.85
465.438	1398.55
465.81	1428.38
466.183	1460.02
466.555	1477.64
466.928	1472.67
467.3	1507.93
467.672	1497.31
468.045	1575.5
468.417	1573.01
468.789	1609.17
469.161	1621.82
469.534	1638.09
469.906	1677.19
470.278	1708.83
470.65	1737.3
471.022	1782.04
471.394	1818.88
471.766	1829.27
472.138	1854.36
472.51	1876.5
472.882	1944.07
473.253	1976.84
473.625	2035.82
473.997	2078.31
474.369	2106.78
474.74	2143.16
475.112	2208.7
475.484	2242.14
475.855	2300.22
476.227	2339.99
476.598	2426.55
476.97	2472.87
477.341	2513.55
477.713	2557.16
478.084	2639.2
478.455	2721.45
478.827	2784.73
479.198	2883.48
479.569	2968.68
479.94	3009.36
480.311	3100.43
480.682	3187.88
481.053	3241.89
481.424	3358.95
481.795	3428.78
482.166	3574.54
482.537	3616.35
482.908	3731.6
483.279	3836
483.65	3958.03
484.021	4031.7
484.391	4182.21
484.762	4216.78
485.133	4288.64
485.503	4427.4
485.874	4558.02
486.244	4643.44
486.615	4816.99
486.985	4930.21
487.356	5075.29
487.726	5197.09
488.097	5351.22
488.467	5396.41
488.837	5567.71
489.207	5670.08
489.578	5861.03
489.948	5954.14
490.318	6055.38
490.688	6191.65
491.058	6324.75
491.428	6469.6
491.798	6595.48
492.168	6766.77
492.538	6924.51
492.908	6992.98
493.278	7167.44
493.648	7238.4
494.017	7365.63
494.387	7631.38
494.757	7729.46
495.126	7792.51
495.496	7874.31
495.866	7991.15
496.235	8174.42
496.605	8350.68
496.974	8413.73
497.344	8571.24
497.713	8660.05
498.082	8740.96
498.452	8855.98
498.821	9006.03
499.19	9076.32
499.559	9205.8
499.928	9360.83
500.298	9427.94
500.667	9528.05
501.036	9609.86
501.405	9741.83
501.774	9763.53
502.143	9982.28
502.512	9944.31
502.88	10153.57
503.249	10116.97
503.618	10300.92
503.987	10310.63
504.356	10456.62
504.724	10549.72
505.093	10514.02
505.462	10671.75
505.83	10810.73
506.199	10853.9
506.567	10998.07
506.936	11019.09
507.304	11265.18
507.672	11210.04
508.041	11226.31
508.409	11330.72
508.777	11463.6
509.145	11577.04
509.514	11479.19
509.882	11637.15
510.25	11682.35
510.618	11742.91
510.986	11830.14
511.354	11935.9
511.722	12065.16
512.09	12109.23
512.458	12141.32
512.826	12223.58
513.193	12217.93
513.561	12313.74
513.929	12267.87
514.297	12420.86
514.664	12471.03
515.032	12546.51
515.4	12636
515.767	12603.91
516.135	12660.63
516.502	12606.17
516.869	12775.65
517.237	12814.52
517.604	12796.22
517.972	12920.73
518.339	12977.68
518.706	12865.82
519.073	13011.13
519.44	13050
519.808	13196.43
520.175	13052.93
520.542	13314.17
520.909	13245.02
521.276	13174.96
521.643	13348.97
522.009	13342.42
522.376	13388.97
522.743	13431.45
523.11	13485.01
523.477	13591.45
523.843	13520.04
524.21	13712.8
524.577	13766.36
524.943	13693.59
525.31	13749.41
525.676	13868.28
526.043	13874.83
526.409	13946.7
526.776	13939.92
527.142	13921.39
527.508	14007.26
527.874	14051.78
528.241	14021.04
528.607	14131.32
528.973	14008.84
529.339	14080.03
529.705	14100.82
530.071	14233.02
530.437	14178.78
530.803	14182.85
531.169	14210.42
531.535	14165.9
531.901	14127.48
532.267	14132.91
532.632	14203.86
532.998	14209.74
533.364	14261.26
533.73	14203.64
534.095	14279.79
534.461	14249.29
534.826	14223.98
535.192	14110.76
535.557	14295.16
535.923	14241.6
536.288	14181.94
536.653	14184.2
537.019	14100.36
537.384	14074.38
537.749	14177.88
538.114	14127.48
538.479	14126.8
538.845	14068.5
539.21	13918.67
539.575	13945.57
539.94	13962.29
540.305	14001.61
540.67	13895.17
541.034	14005.45
541.399	13942.18
541.764	13874.61
542.129	13888.84
542.494	13838.45
542.858	13815.17
543.223	13732.46
543.587	13786.02
543.952	13741.5
544.316	13770.65
544.681	13679.81
545.045	13729.07
545.41	13676.42
545.774	13708.96
546.138	13610.89
546.503	13549.87
546.867	13532.7
547.231	13552.13
547.595	13559.81
547.959	13537.21
548.324	13450.21
548.688	13466.93
549.052	13419.93
549.416	13411.34
549.779	13302.87
550.143	13302.19
550.507	13372.93
550.871	13302.87
551.235	13183.33
551.599	13234.85
551.962	13252.02
552.326	13222.87
552.689	13137.68
553.053	13135.64
553.417	13120.28
553.78	13278.46
554.143	13127.51
554.507	13149.88
554.87	13171.57
555.234	13168.86
555.597	13012.93
555.96	13082.09
556.323	13039.37
556.686	13060.17
557.05	13079.15
557.413	13167.05
557.776	13004.35
558.139	13065.59
558.502	13073.05
558.865	13061.29
559.228	13070.33
559.59	13094.06
559.953	13066.94
560.316	13126.15
560.679	13061.29
561.041	13085.02
561.404	13114.17
561.767	13126.6
562.129	13086.15
562.492	13124.8
562.854	13094.06
563.217	13069.2
563.579	13103.78
563.941	13159.37
564.304	13226.04
564.666	13211.57
565.028	13210.22
565.39	13135.19
565.753	13240.05
566.115	13246.6
566.477	13261.97
566.839	13233.49
567.201	13343.1
567.563	13241.4
567.925	13364.34
568.287	13343.55
568.648	13248.63
569.01	13309.88
569.372	13414.05
569.734	13340.38
570.095	13494.05
570.457	13460.15
570.819	13416.54
571.18	13450.66
571.542	13516.2
571.903	13443.43
572.265	13538.57
572.626	13517.1
572.987	13504.45
573.349	13511.9
573.71	13585.57
574.071	13611.56
574.432	13601.17
574.794	13606.14
575.155	13610.66
575.516	13539.25
575.877	13653.6
576.238	13589.64
576.599	13609.53
576.96	13685.23
577.32	13612.69
577.681	13638.91
578.042	13759.36
578.403	13638.45
578.763	13654.05
579.124	13641.17
579.485	13765.46
579.845	13711.9
580.206	13633.71
580.566	13676.87
580.927	13660.15
581.287	13809.3
581.648	13659.47
582.008	13673.71
582.368	13668.06
582.728	13679.36
583.089	13674.16
583.449	13598.68
583.809	13633.94
584.169	13701.96
584.529	13596.65
584.889	13639.81
585.249	13550.32
585.609	13594.16
585.969	13581.51
586.329	13564.78
586.688	13606.59
587.048	13542.41
587.408	13468.52
587.768	13546.25
588.127	13530.66
588.487	13545.35
588.846	13620.6
589.206	13468.74
589.565	13464.67
589.925	13530.44
590.284	13440.72
590.643	13493.37
591.003	13534.5
591.362	13496.31
591.721	13518.91
592.08	13476.43
592.44	13533.37
592.799	13559.81
593.158	13455.63
593.517	13454.73
593.876	13454.05
594.235	13406.6
594.593	13442.08
594.952	13377.44
595.311	13467.61
595.67	13440.27
596.029	13458.12
596.387	13474.84
596.746	13504.45
597.104	13313.94
597.463	13415.41
597.822	13414.51
598.18	13396.65
598.538	13366.15
598.897	13434.17
599.255	13298.12
599.613	13443.88
599.972	13347.62
600.33	13466.26
600.688	13389.65
601.046	13366.37
601.404	13497.89
601.762	13415.64
602.12	13498.57
602.478	13441.4
602.836	13424.9
603.194	13362.3
603.552	13420.61
603.91	13379.25
604.268	13431.45
604.625	13327.05
604.983	13437.33
605.341	13323.21
605.698	13408.86
606.056	13396.2
606.413	13449.08
606.771	13438.46
607.128	13467.16
607.485	13432.81
607.843	13452.02
608.2	13507.84
608.557	13457.67
608.914	13490.89
609.272	13517.78
609.629	13544.67
609.986	13503.09
610.343	13463.09
610.7	13585.35
611.057	13530.66
611.414	13481.17
611.771	13564.33
612.127	13620.83
612.484	13595.97
612.841	13575.41
613.198	13640.49
613.554	13633.48
613.911	13593.71
614.267	13689.75
614.624	13597.1
614.98	13751.9
615.337	13680.49
615.693	13716.19
616.05	13769.07
616.406	13687.72
616.762	13703.09
617.118	13779.02
617.475	13779.69
617.831	13753.71
618.187	13785.34
618.543	13823.31
618.899	13827.83
619.255	13866.7
619.611	13812.24
619.967	13815.4
620.323	13906.92
620.678	13749.86
621.034	13775.63
621.39	13820.6
621.746	13823.08
622.101	14004.55
622.457	13836.64
622.812	13846.81
623.168	13793.71
623.523	13944.66
623.879	13881.16
624.234	13815.63
624.589	13825.57
624.945	13907.37
625.3	13939.24
625.655	13882.97
626.01	13854.04
626.365	13821.28
626.72	13779.47
627.075	13763.65
627.43	13738.57
627.785	13767.49
628.14	13746.02
628.495	13802.97
628.85	13811.11
629.205	13782.63
629.559	13669.19
629.914	13798.68
630.269	13723.65
630.623	13754.38
630.978	13680.26
631.332	13712.58
631.687	13772.24
632.041	13676.19
632.396	13716.87
632.75	13615.4
633.104	13649.98
633.459	13615.86
633.813	13606.37
634.167	13663.31
634.521	13623.99
634.875	13615.4
635.229	13650.21
635.583	13459.25
635.937	13481.62
636.291	13500.83
636.645	13539.25
636.999	13485.69
637.352	13484.33
637.706	13499.93
638.06	13504.45
638.413	13550.55
638.767	13412.92
639.121	13448.86
639.474	13389.65
639.828	13318.01
640.181	13335.86
640.534	13394.85
640.888	13382.64
641.241	13290.67
641.594	13305.81
641.947	13337.67
642.301	13317.56
642.654	13333.83
643.007	13298.58
643.36	13293.83
643.713	13212.25
644.066	13386.48
644.419	13237.11
644.771	13153.5
645.124	13138.36
645.477	13035.08
645.83	12970.68
646.182	12912.82
646.535	12874.41
646.888	12837.57
647.24	12752.15
647.593	12872.83
647.945	12789.66
648.298	12813.39
648.65	12772.04
649.002	12751.7
649.355	12797.35
649.707	12778.14
650.059	12837.8
650.411	13007.96
650.763	13023.56
651.115	13132.93
651.467	13024.23
651.819	13073.72
652.171	13089.99
652.523	13075.76
652.875	13079.37
653.227	13049.54
653.578	13155.08
653.93	13068.53
654.282	13080.05
654.633	13042.99
654.985	13070.56
655.337	13070.11
655.688	13067.17
656.039	13136.1
656.391	13062.65
656.742	13003.44
657.094	13114.4
657.445	13067.4
657.796	13011.35
658.147	13031.92
658.498	13018.36
658.849	13041.41
659.2	13053.61
659.551	13058.13
659.902	13153.5
660.253	13138.58
660.604	13141.97
660.955	13135.19
661.306	13091.35
661.656	13112.37
662.007	13121.18
662.358	13130.9
662.708	13200.27
663.059	13191.91
663.409	13030.34
663.76	13242.53
664.11	13074.63
664.461	13179.26
664.811	13143.55
665.161	13121.18
665.511	13110.79
665.862	13144.68
666.212	13123.89
666.562	13175.87
666.912	13191.46
667.262	13153.04
667.612	13204.12
667.962	13213.16
668.312	13160.5
668.662	13226.04
669.011	13198.47
669.361	13125.25
669.711	13138.58
670.06	13130.22
670.41	13094.97
670.76	13098.13
671.109	13133.84
671.459	13123.89
671.808	13057.91
672.157	13188.98
672.507	13036.44
672.856	13017.91
673.205	13013.16
673.554	13033.95
673.904	13011.58
674.253	13114.63
674.602	13045.7
674.951	12838.25
675.3	12779.95
675.649	12961.86
675.998	12961.18
676.346	12934.07
676.695	12981.52
677.044	12855.65
677.393	12907.4
677.741	12840.28
678.09	12911.69
678.438	12821.98
678.787	12843.45
679.135	12890.45
679.484	12770.23
679.832	12797.35
680.181	12781.75
680.529	12799.83
680.877	12781.08
681.225	12830.57
681.573	12751.7
681.922	12735.65
682.27	12591.25
682.618	12658.37
682.966	12719.38
683.314	12655.66
683.661	12664.02
684.009	12471.93
684.357	12573.4
684.705	12516.9
685.053	12533.4
685.4	12454.08
685.748	12376.57
686.095	12374.76
686.443	12338.15
686.79	12348.55
687.138	12375.44
687.485	12407.3
687.832	12365.49
688.18	12327.53
688.527	12284.82
688.874	12106.74
689.221	12157.59
689.568	12130.92
689.915	12069
690.262	12009.35
690.609	12104.94
690.956	11976.35
691.303	11979.52
691.65	11857.03
691.997	11930.48
692.344	11776.58
692.69	11771.84
693.037	11817.03
693.383	11689.35
693.73	11726.64
694.077	11637.83
694.423	11645.74
694.769	11567.32
695.116	11564.39
695.462	11444.84
695.808	11488.45
696.155	11444.61
696.501	11415.91
696.847	11410.26
697.193	11333.2
697.539	11333.66
697.885	11344.28
698.231	11223.38
698.577	11195.58
698.923	11163.94
699.269	11141.57
699.614	11076.94
699.96	10952.42
700.306	11013.21
700.651	10885.08
700.997	10884.18
701.342	10885.08
701.688	10819.32
702.033	10794.91
702.379	10806.67
702.724	10770.06
703.069	10715.82
703.415	10510.63
703.76	10592.66
704.105	10636.5
704.45	10607.12
704.795	10500.23
705.14	10424.08
705.485	10425.88
705.83	10444.41
706.175	10373.68
706.52	10347.24
706.865	10339.11
707.209	10370.97
707.554	10223.4
707.899	10192.22
708.243	10173.01
708.588	10189.96
708.932	10108.38
709.277	10087.14
709.621	10062.73
709.966	9997.65
710.31	10133.01
710.654	9960.36
710.998	9926.46
711.342	9957.42
711.687	9986.35
712.031	9918.1
712.375	9874.71
712.719	9862.74
713.063	9801.72
713.407	9899.12
713.75	9762.62
714.094	9803.98
714.438	9721.72
714.782	9784.09
715.125	9738.44
715.469	9736.18
715.812	9731.21
716.156	9614.15
716.499	9649.63
716.843	9567.15
717.186	9615.28
717.53	9612.35
717.873	9580.93
718.216	9585
718.559	9539.81
718.902	9468.85
719.246	9546.13
719.589	9513.59
719.932	9435.18
720.275	9515.4
720.617	9463.88
720.96	9458.68
721.303	9458.45
721.646	9459.58
721.989	9363.99
722.331	9400.15
722.674	9401.28
723.016	9424.33
723.359	9375.52
723.701	9432.92
724.044	9341.84
724.386	9293.26
724.729	9387.95
725.071	9359.02
725.413	9311.11
725.755	9279.25
726.097	9340.04
726.439	9261.62
726.782	9230.89
727.124	9318.12
727.465	9260.94
727.807	9248.97
728.149	9232.7
728.491	9247.16
728.833	9252.58
729.175	9245.58
729.516	9189.08
729.858	9280.15
730.199	9188.85
730.541	9177.33
730.882	9213.03
731.224	9181.62
731.565	9111.79
731.906	9163.09
732.248	9188.63
732.589	9136.88
732.93	9150.21
733.271	9140.27
733.612	9127.84
733.953	9133.94
734.294	9188.4
734.635	9164.22
734.976	9185.92
735.317	9092.59
735.658	9131.45
735.999	9185.46
736.339	9170.32
736.68	9222.53
737.021	9184.56
737.361	9146.37
737.702	9202.64
738.042	9234.05
738.383	9154.28
738.723	9226.37
739.063	9220.04
739.404	9279.47
739.744	9166.93
740.084	9192.7
740.424	9186.82
740.764	9182.07
741.104	9257.55
741.444	9241.28
741.784	9271.34
742.124	9332.35
742.464	9264.33
742.804	9328.96
743.143	9284.9
743.483	9285.12
743.823	9338.46
744.162	9451.22
744.502	9449.64
744.841	9409.41
745.181	9483.54
745.52	9463.88
745.86	9585.91
746.199	9505
746.538	9600.6
746.877	9695.06
747.216	9623.42
747.556	9680.82
747.895	9714.49
748.234	9790.65
748.573	9794.26
748.911	9966.01
749.25	9961.49
749.589	9985.9
749.928	10103.18
750.267	10243.06
750.605	10209.84
750.944	10273.57
751.283	10276.28
751.621	10429.5
751.96	10457.52
752.298	10594.92
752.636	10753.33
752.975	10784.52
753.313	10909.71
753.651	11017.73
753.989	11077.84
754.327	11152.87
754.666	11219.99
755.004	11433.09
755.342	11539.53
755.679	11602.35
756.017	11751.05
756.355	11901.33
756.693	11997.82
757.031	12098.16
757.368	12218.61
757.706	12423.12
758.044	12475.77
758.381	12712.38
758.719	12852.71
759.056	12949.66
759.394	13144
759.731	13263.32
760.068	13330.44
760.405	13436.65
760.743	13673.48
761.08	13783.08
761.417	13944.44
761.754	14065.11
762.091	14234.82
762.428	14415.38
762.765	14510.52
763.102	14669.39
763.438	14840.46
763.775	14980.57
764.112	15202.71
764.449	15349.6
764.785	15512.76
765.122	15520.89
765.458	15634.56
765.795	15824.39
766.131	15901.22
766.467	16087.88
766.804	16200.65
767.14	16278.16
767.476	16414.65
767.812	16532.16
768.148	16692.16
768.485	16691.71
768.821	16738.71
769.157	16932.61
769.492	17115.65
769.828	17125.82
770.164	17127.4
770.5	17353.39
770.836	17433.38
771.171	17494.62
771.507	17550.67
771.842	17576.66
772.178	17727.61
772.513	17829.98
772.849	17855.97
773.184	17886.25
773.519	17979.36
773.855	18003.54
774.19	17966.25
774.525	18125.57
774.86	18149.97
775.195	18189.52
775.53	18140.03
775.865	18169.41
776.2	18144.1
776.535	18177.54
776.87	18253.93
777.205	18264.1
777.539	18263.42
777.874	18332.12
778.209	18289.41
778.543	18350.42
778.878	18309.29
779.212	18351.1
779.547	18279.01
779.881	18458.22
780.215	18347.03
780.55	18494.37
780.884	18498.21
781.218	18504.09
781.552	18567.59
781.886	18417.76
782.22	18306.35
782.554	18370.53
782.888	18280.59
783.222	18342.51
783.556	18308.39
783.889	18270.65
784.223	18232.23
784.557	18218.9
784.89	18291.89
785.224	18234.49
785.557	18152.23
785.891	18229.75
786.224	18050.77
786.558	18086.47
786.891	18045.57
787.224	18004.67
787.557	17996.76
787.891	18087.83
788.224	18006.02
788.557	17990.66
788.89	17915.4
789.223	17962.41
789.556	17888.06
789.888	17888.74
790.221	17822.98
790.554	17692.13
790.887	17754.28
791.219	17686.71
791.552	17704.34
791.884	17555.64
792.217	17683.55
792.549	17549.31
792.882	17505.7
793.214	17362.88
793.546	17519.71
793.879	17434.29
794.211	17267.51
794.543	17373.95
794.875	17325.82
795.207	17337.57
795.539	17215.76
795.871	17187.51
796.203	17002.66
796.535	17035.2
796.867	16886.28
797.198	16938.71
797.53	17018.03
797.862	16820.52
798.193	16910.46
798.525	16760.86
798.856	16784.13
799.188	16725.61
799.519	16689.67
799.85	16542.33
800.182	16605.83
800.513	16616.68
800.844	16437.7
801.175	16649
801.506	16421.21
801.837	16439.06
802.168	16415.33
802.499	16312.28
802.83	16244.94
803.161	16167.65
803.491	16317.71
803.822	16316.58
804.153	16185.05
804.483	16177.82
804.814	16103.02
805.145	16157.03
805.475	16074.32
805.805	15969.24
806.136	16050.82
806.466	15955.23
806.796	16014.66
807.126	15853.09
807.457	15823.71
807.787	15824.84
808.117	15738.06
808.447	15745.74
808.777	15795.46
809.107	15576.48
809.436	15611.28
809.766	15600.89
810.096	15514.79
810.426	15536.26
810.755	15489.25
811.085	15467.33
811.414	15442.48
811.744	15290.16
812.073	15274.34
812.403	15273.67
812.732	15213.1
813.061	15138.08
813.39	15130.85
813.719	15147.34
814.049	15248.58
814.378	15112.09
814.707	15028.25
815.036	15059.43
815.365	15014.01
815.693	14788.93
816.022	14908.03
816.351	14856.73
816.68	14685.89
817.008	14834.58
817.337	14802.94
817.665	14736.73
817.994	14723.17
818.322	14719.56
818.651	14610.86
818.979	14616.73
819.307	14724.53
819.636	14616.73
819.964	14493.8
820.292	14637.98
820.62	14590.75
820.948	14463.97
821.276	14581.03
821.604	14510.97
821.932	14522.27
822.259	14515.04
822.587	14447.47
822.915	14424.65
823.243	14536.06
823.57	14426.68
823.898	14523.4
824.225	14464.42
824.553	14407.25
824.88	14465.33
825.207	14403.86
825.535	14482.05
825.862	14427.36
826.189	14521.82
826.516	14484.08
826.843	14581.26
827.17	14532.44
827.497	14529.05
827.824	14477.08
828.151	14420.36
828.478	14512.56
828.805	14548.94
829.131	14404.08
829.458	14513.91
829.785	14476.63
830.111	14399.11
830.438	14454.03
830.764	14465.1
831.09	14503.74
831.417	14423.29
831.743	14466.91
832.069	14438.66
832.395	14449.28
832.722	14455.83
833.048	14365.67
833.374	14424.42
833.7	14368.61
834.026	14438.66
834.351	14437.3
834.677	14283.18
835.003	14451.77
835.329	14332.22
835.654	14290.42
835.98	14238.21
836.306	14283.41
836.631	14254.03
836.956	14252.68
837.282	14300.58
837.607	14223.98
837.932	14210.42
838.258	14172
838.583	14166.35
838.908	14072.79
839.233	14061.49
839.558	14054.94
839.883	14016.52
840.208	14058.1
840.533	13950.76
840.858	13938.56
841.182	13966.36
841.507	13899.01
841.832	13822.4
842.156	13890.65
842.481	13936.53
842.805	13795.74
843.13	13810.43
843.454	13883.42
843.778	13668.51
844.103	13704.44
844.427	13684.56
844.751	13596.65
845.075	13649.53
845.399	13617.89
845.723	13500.83
846.047	13477.33
846.371	13430.78
846.695	13377.9
847.019	13298.35
847.343	13294.74
847.666	13138.81
847.99	13184.46
848.313	13114.17
848.637	13057.45
848.96	13001.18
849.284	13003.67
849.607	12865.14
849.931	12879.6
850.254	12806.16
850.577	12723.45
850.9	12676.9
851.223	12649.33
851.546	12624.24
851.869	12510.8
852.192	12525.94
852.515	12461.31
852.838	12391.48
853.161	12283.91
853.483	12278.04
853.806	12264.03
854.129	12229.68
854.451	12253.63
854.774	12112.62
855.096	12121.21
855.419	12046.41
855.741	11976.13
856.063	11960.08
856.385	12036.92
856.708	11896.35
857.03	11822.46
857.352	11923.25
857.674	11836.69
857.996	11835.79
858.318	11689.13
858.64	11692.97
858.961	11664.95
859.283	11617.27
859.605	11582.24
859.926	11593.31
860.248	11513.99
860.57	11503.14
860.891	11523.71
861.212	11402.58
861.534	11395.8
861.855	11396.71
862.176	11401.23
862.498	11360.77
862.819	11421.56
863.14	11323.26
863.461	11341.11
863.782	11252.75
864.103	11235.58
864.424	11212.98
864.745	11290.04
865.065	11186.77
865.386	11163.49
865.707	11207.78
866.027	11131.4
866.348	11095.24
866.668	11059.99
866.989	11090.05
867.309	10983.38
867.63	11059.99
867.95	10957.4
868.27	10959.88
868.59	10969.37
868.91	11023.83
869.23	10909.04
869.55	10917.85
869.87	10911.75
870.19	10916.04
870.51	10877.62
870.83	10902.93
871.15	10840.34
871.469	10877.17
871.789	10890.73
872.109	10865.19
872.428	10705.88
872.748	10784.74
873.067	10720.79
873.386	10738.19
873.706	10711.98
874.025	10611.42
874.344	10604.64
874.663	10659.1
874.982	10562.15
875.301	10593.56
875.62	10561.7
875.939	10539.78
876.258	10537.75
876.577	10546.11
876.896	10517.18
877.214	10434.25
877.533	10462.95
877.852	10495.71
878.17	10436.51
878.489	10512.66
878.807	10463.85
879.125	10385.21
879.444	10358.54
879.762	10369.61
880.08	10398.99
880.398	10311.31
880.716	10298.88
881.034	10263.18
881.352	10284.19
881.67	10260.46
881.988	10231.99
882.306	10196.51
882.624	10153.57
882.941	10141.82
883.259	10162.16
883.577	10179.34
883.894	10109.96
884.212	10135.27
884.529	10126.68
884.846	10024.76
885.164	10012.34
885.481	9951.32
885.798	9940.25
886.115	9869.29
886.432	9922.39
886.75	9796.97
887.067	9895.05
887.383	9913.58
887.7	9897.76
888.017	9821.38
888.334	9838.78
888.651	9760.14
888.967	9725.34
889.284	9695.51
889.6	9668.62
889.917	9553.82
890.233	9549.97
890.55	9585.68
890.866	9600.37
891.182	9573.7
891.498	9512.69
891.815	9426.81
892.131	9437.44
892.447	9426.14
892.763	9385.91
893.079	9344.1
893.395	9385.46
893.71	9262.98
894.026	9243.99
894.342	9300.26
894.657	9189.76
894.973	9096.2
895.289	9123.09
895.604	9160.15
895.92	9044
896.235	9034.28
896.55	9042.64
896.865	9004.23
897.181	8982.31
897.496	8932.36
897.811	8926.26
898.126	8857.79
898.441	8857.79
898.756	8808.3
899.071	8751.13
899.386	8770.11
899.7	8694.18
900.015	8685.14
900.33	8599.94
900.644	8615.31
900.959	8589.77
901.273	8498.03
901.588	8542.09
901.902	8470.68
902.216	8424.58
902.531	8457.8
902.845	8431.59
903.159	8424.81
903.473	8320.63
903.787	8328.76
904.101	8307.97
904.415	8249.67
904.729	8176.68
905.042	8157.24
905.356	8133.97
905.67	8175.55
905.984	8148.43
906.297	8028.21
906.611	8020.75
906.924	7990.24
907.237	7971.03
907.551	7945.27
907.864	7905.27
908.177	7876.12
908.491	7906.63
908.804	7807.87
909.117	7729.68
909.43	7729.68
909.743	7610.82
910.056	7687.2
910.368	7603.13
910.681	7606.3
910.994	7598.16
911.307	7573.53
911.619	7482.01
911.932	7492.4
912.244	7408.11
912.557	7469.35
912.869	7411.95
913.181	7354.33
913.494	7380.31
913.806	7295.12
914.118	7256.93
914.43	7203.82
914.742	7209.7
915.054	7251.28
915.366	7195.91
915.678	7123.15
915.99	7086.31
916.302	7019.65
916.613	6973.32
916.925	7015.35
917.236	6958.86
917.548	6980.1
917.859	6994.11
918.171	6952.76
918.482	6833.21
918.794	6789.82
919.105	6811.52
919.416	6786.21
919.727	6744.62
920.038	6759.09
920.349	6712.99
920.66	6690.16
920.971	6686.1
921.282	6648.58
921.593	6608.13
921.903	6561.35
922.214	6600.67
922.525	6489.49
922.835	6499.66
923.146	6471.19
923.456	6474.58
923.767	6417.85
924.077	6441.13
924.387	6352.32
924.697	6295.82
925.008	6307.8
925.318	6298.08
925.628	6208.14
925.938	6241.36
926.248	6165.66
926.558	6151.65
926.867	6149.39
927.177	6145.32
927.487	6081.82
927.796	6058.32
928.106	6042.95
928.416	6054.25
928.725	6056.28
929.034	5984.87
929.344	5944.87
929.653	5928.6
929.962	5856.29
930.271	5892.67
930.581	5796.4
930.89	5790.3
931.199	5764.09
931.508	5740.81
931.817	5765.22
932.125	5708.27
932.434	5766.12
932.743	5682.51
933.051	5651.32
933.36	5604.77
933.669	5592.34
933.977	5587.14
934.286	5550.31
934.594	5554.37
934.902	5481.61
935.21	5509.4
935.519	5493.36
935.827	5423.76
936.135	5429.86
936.443	5412
936.751	5366.36
937.059	5380.82
937.367	5331.55
937.674	5349.41
937.982	5277.32
938.29	5287.04
938.597	5227.15
938.905	5233.03
939.213	5194.38
939.52	5180.37
939.827	5158.68
940.135	5119.81
940.442	5093.37
940.749	5127.04
941.056	5120.49
941.363	5074.61
941.67	5070.77
941.977	5042.3
942.284	4983.32
942.591	4921.85
942.898	4888.4
943.205	4943.99
943.511	4887.95
943.818	4969.98
944.125	4859.48
944.431	4817.22
944.738	4876.65
945.044	4818.57
945.35	4827.61
945.657	4759.59
945.963	4763.21
946.269	4739.93
946.575	4686.6
946.881	4674.62
947.187	4669.43
947.493	4614.06
947.799	4640.05
948.105	4586.26
948.41	4557.34
948.716	4521.86
949.022	4500.62
949.327	4519.37
949.633	4470.56
949.938	4496.1
950.244	4513.72
950.549	4461.97
950.854	4473.95
951.16	4449.77
951.465	4381.98
951.77	4377.46
952.075	4371.35
952.38	4327.51
952.685	4354.41
952.99	4269.66
953.294	4307.85
953.599	4257.46
953.904	4297.23
954.209	4279.83
954.513	4209.78
954.818	4168.87
955.122	4152.83
955.426	4194.41
955.731	4149.66
956.035	4108.76
956.339	4099.04
956.643	4089.78
956.948	4042.55
957.252	4036
957.556	4024.24
957.86	3975.21
958.163	3991.7
958.467	3982.89
958.771	3949.44
959.075	3969.78
959.378	3939.73
959.682	3917.13
959.985	3909.67
960.289	3897.47
960.592	3858.83
960.896	3842.55
961.199	3826.06
961.502	3810.46
961.805	3836.68
962.108	3786.51
962.411	3795.32
962.714	3707.19
963.017	3688.43
963.32	3741.09
963.623	3730.24
963.926	3678.72
964.228	3693.41
964.531	3650.47
964.833	3616.12
965.136	3610.02
965.438	3588.55
965.741	3569.79
966.043	3604.14
966.345	3572.96
966.648	3509.46
966.95	3524.6
967.252	3486.86
967.554	3511.94
967.856	3508.1
968.158	3457.03
968.46	3448.89
968.761	3418.38
969.063	3424.71
969.365	3433.3
969.666	3385.17
969.968	3370.25
970.269	3343.13
970.571	3355.56
970.872	3318.95
971.174	3304.94
971.475	3305.39
971.776	3285.51
972.077	3214.32
972.378	3285.05
972.679	3244.15
972.98	3250.71
973.281	3226.75
973.582	3213.87
973.883	3200.09
974.183	3178.84
974.484	3156.24
974.785	3145.62
975.085	3130.48
975.386	3162.57
975.686	3108.79
975.986	3114.21
976.287	3080.31
976.587	3021.11
976.887	3059.07
977.187	3055
977.487	3002.58
977.787	3019.75
978.087	3021.78
978.387	2982.92
978.687	2959.19
978.987	2980.66
979.286	2957.83
979.586	2969.58
979.885	2922.8
980.185	2935.91
980.484	2864.05
980.784	2864.95
981.083	2879.64
981.382	2868.34
981.682	2830.15
981.981	2789.47
982.28	2831.73
982.579	2776.37
982.878	2805.29
983.177	2808.01
983.475	2756.03
983.774	2732.53
984.073	2730.72
984.372	2747.44
984.67	2739.53
984.969	2705.64
985.267	2690.49
985.566	2692.75
985.864	2682.58
986.162	2632.19
986.461	2645.3
986.759	2649.59
987.057	2621.12
987.355	2613.66
987.653	2598.52
987.951	2579.08
988.249	2549.93
988.547	2597.16
988.844	2564.4
989.142	2516.04
989.44	2561.23
989.737	2511.29
990.035	2533.66
990.332	2518.75
990.63	2487.56
990.927	2485.75
991.224	2462.48
991.521	2452.53
991.819	2438.3
992.116	2402.82
992.413	2449.6
992.71	2381.35
993.006	2392.2
993.303	2353.78
993.6	2390.16
993.897	2358.3
994.193	2358.3
994.49	2360.11
994.787	2346.55
995.083	2288.24
995.379	2302.03
995.676	2313.55
995.972	2246.89
996.268	2292.54
996.565	2277.4
996.861	2243.95
997.157	2239.21
997.453	2240.79
997.749	2193.11
998.044	2191.3
998.34	2220.45
998.636	2165.31
998.932	2202.6
999.227	2143.16
999.523	2147.01
999.818	2142.26
1000.114	2115.37
1000.409	2104.75
1000.704	2097.52
1001	2089.15
1001.295	2071.75
1001.59	2095.26
1001.885	2052.09
1002.18	2026.56
1002.475	2024.07
1002.77	2006.22
1003.065	2013.45
1003.359	1965.77
1003.654	2011.19
1003.949	1970.51
1004.243	1980.68
1004.538	1959.67
1004.832	1968.71
1005.127	1931.42
1005.421	1938.42
1005.715	1909.05
1006.009	1883.51
1006.304	1862.27
1006.598	1861.82
1006.892	1882.61
1007.186	1868.37
1007.48	1866.11
1007.773	1831.76
1008.067	1853
1008.361	1834.47
1008.655	1830.86
1008.948	1795.38
1009.242	1808.94
1009.535	1770.29
1009.829	1777.07
1010.122	1753.57
1010.415	1752.67
1010.708	1737.75
1011.001	1749.5
1011.295	1736.85
1011.588	1727.81
1011.881	1718.32
1012.173	1694.36
1012.466	1684.42
1012.759	1686
1013.052	1676.06
1013.344	1695.72
1013.637	1651.2
1013.93	1629.96
1014.222	1624.08
1014.514	1625.66
1014.807	1584.99
1015.099	1594.03
1015.391	1581.6
1015.683	1602.39
1015.976	1562.84
1016.268	1554.93
1016.56	1540.47
1016.851	1574.59
1017.143	1549.73
1017.435	1526.68
1017.727	1525.78
1018.018	1516.29
1018.31	1508.6
1018.602	1473.8
1018.893	1489.62
1019.185	1473.13
1019.476	1453.24
1019.767	1451.2
1020.058	1466.12
1020.35	1424.99
1020.641	1413.47
1020.932	1401.71
1021.223	1408.49
1021.514	1387.25
1021.804	1407.14
1022.095	1383.18
1022.386	1363.07
1022.677	1347.25
1022.967	1358.1
1023.258	1347.7
1023.548	1361.04
1023.839	1319.91
1024.129	1314.26
1024.419	1309.74
1024.709	1280.36
1025	1303.41
1025.29	1288.05
1025.58	1275.62
1025.87	1275.16
1026.16	1249.18
1026.449	1232.23
1026.739	1233.13
1027.029	1246.24
1027.319	1214.15
1027.608	1215.96
1027.898	1234.71
1028.187	1207.6
1028.477	1185.45
1028.766	1198.33
1029.055	1194.71
1029.344	1212.79
1029.634	1180.03
1029.923	1169.4
1030.212	1171.21
1030.501	1123.98
1030.79	1137.31
1031.078	1137.77
1031.367	1107.71
1031.656	1102.29
1031.945	1103.42
1032.233	1103.87
1032.522	1095.51
1032.81	1107.71
1033.099	1109.97
1033.387	1083.08
1033.675	1083.76
1033.963	1050.31
1034.251	1027.49
1034.54	1063.19
1034.828	1017.09
1035.116	993.59
1035.403	1035.62
1035.691	1009.41
1035.979	987.26
1036.267	1010.09
1036.554	987.49
1036.842	1001.05
1037.129	983.42
1037.417	968.51
1037.704	968.96
1037.992	970.09
1038.279	956.75
1038.566	965.57
1038.853	965.57
1039.14	965.57
