Data from hue_270_FLMS001491_00047.txt Node
Date: Tue Feb 07 15:57:15 GMT 2017
User: dcchb
Spectrometer: FLMS00149
Trigger mode: 0
Integration Time (sec): 2.000000E-2
Scans to average: 10
Electric dark correction enabled: true
Nonlinearity correction enabled: false
Boxcar width: 0
XAxis mode: Wavelengths
Number of Pixels in Spectrum: 2048
>>>>>Begin Spectral Data<<<<<
341.393	-3.19
341.776	-3.19
342.16	-3.19
342.543	-71.89
342.927	-55.39
343.31	-94.04
343.693	-69.86
344.077	-59.91
344.46	-53.81
344.843	-47.94
345.226	-48.84
345.61	-20.37
345.993	-37.99
346.376	-7.03
346.759	11.95
347.142	26.64
347.525	41.78
347.908	65.96
348.291	73.42
348.674	103.25
349.057	116.8
349.44	120.65
349.823	147.31
350.206	158.84
350.588	199.29
350.971	197.48
351.354	242.68
351.737	245.39
352.119	235.67
352.502	250.36
352.884	272.51
353.267	274.09
353.65	274.09
354.032	284.26
354.414	300.53
354.797	315.67
355.179	314.77
355.562	305.5
355.944	325.39
356.326	331.04
356.709	324.26
357.091	317.25
357.473	317.03
357.855	332.84
358.238	340.98
358.62	329.45
359.002	340.3
359.384	320.42
359.766	351.83
360.148	336.69
360.53	340.53
360.912	347.99
361.294	334.43
361.676	313.64
362.057	344.6
362.439	330.81
362.821	325.16
363.203	310.92
363.584	331.94
363.966	331.26
364.348	296.24
364.729	314.54
365.111	300.3
365.493	331.71
365.874	303.69
366.256	323.13
366.637	322.9
367.019	292.62
367.4	310.7
367.781	317.48
368.163	307.53
368.544	319.06
368.925	296.24
369.306	309.79
369.688	307.31
370.069	321.55
370.45	329.23
370.831	312.73
371.212	317.48
371.593	306.63
371.974	316.57
372.355	321.55
372.736	309.34
373.117	313.41
373.498	316.57
373.879	299.4
374.26	315.44
374.641	296.24
375.021	313.86
375.402	322
375.783	318.83
376.163	315.9
376.544	324.03
376.925	307.53
377.305	327.65
377.686	309.57
378.066	337.59
378.447	301.88
378.827	330.36
379.208	330.81
379.588	337.14
379.968	327.19
380.349	317.03
380.729	362
381.109	339.85
381.489	330.81
381.87	332.62
382.25	326.74
382.63	360.41
383.01	338.49
383.39	345.27
383.77	329.68
384.15	355.22
384.53	343.69
384.91	351.37
385.29	350.25
385.67	343.47
386.049	363.8
386.429	342.34
386.809	362.9
387.189	358.38
387.568	358.38
387.948	343.47
388.328	367.42
388.707	347.76
389.087	347.08
389.466	351.15
389.846	370.81
390.225	370.58
390.605	366.52
390.984	366.29
391.363	370.58
391.743	373.3
392.122	360.64
392.501	376.46
392.881	366.29
393.26	381.88
393.639	401.32
394.018	368.55
394.397	371.26
394.776	376.69
395.155	394.54
395.534	394.99
395.913	385.72
396.292	389.11
396.671	391.83
397.05	408.77
397.429	401.77
397.808	432.5
398.186	375.56
398.565	401.77
398.944	413.07
399.323	419.85
399.701	410.36
400.08	403.58
400.458	418.72
400.837	402.67
401.215	432.73
401.594	412.62
401.972	434.76
402.351	429.79
402.729	439.51
403.107	422.33
403.486	430.47
403.864	438.15
404.242	440.19
404.62	448.77
404.999	441.99
405.377	462.33
405.755	446.51
406.133	447.87
406.511	482.44
406.889	466.4
407.267	460.52
407.645	479.06
408.023	484.48
408.401	499.39
408.779	501.43
409.156	511.6
409.534	507.3
409.912	514.53
410.29	523.8
410.667	523.57
411.045	542.1
411.422	526.74
411.8	529
412.178	535.55
412.555	563.35
412.933	557.47
413.31	572.84
413.687	582.1
414.065	602.44
414.442	586.17
414.819	575.55
415.197	599.28
415.574	597.02
415.951	599.5
416.328	614.19
416.705	611.03
417.082	629.79
417.46	608.32
417.837	656.9
418.214	655.32
418.591	639.5
418.967	674.76
419.344	697.81
419.721	680.86
420.098	681.99
420.475	684.93
420.852	709.11
421.228	715.89
421.605	725.15
421.982	724.25
422.358	738.26
422.735	763.57
423.111	745.49
423.488	774.64
423.864	757.92
424.241	794.08
424.617	778.71
424.994	802.66
425.37	838.37
425.746	810.35
426.123	840.85
426.499	849.44
426.875	854.64
427.251	858.03
427.627	884.02
428.003	881.98
428.379	894.86
428.756	923.11
429.132	920.4
429.507	939.16
429.883	947.74
430.259	963.34
430.635	961.98
431.011	961.3
431.387	987.97
431.763	1031.13
432.138	996.78
432.514	1014.41
432.89	1021.87
433.265	1062.54
433.641	1067.51
434.016	1098.7
434.392	1085.82
434.767	1104.35
435.143	1153.84
435.518	1159.72
435.894	1147.29
436.269	1180.73
436.644	1182.09
437.02	1182.99
437.395	1238.36
437.77	1246.94
438.145	1250.79
438.52	1265.93
438.895	1292.37
439.271	1305.25
439.646	1325.36
440.021	1339.6
440.395	1366.04
440.77	1352.48
441.145	1369.65
441.52	1385.02
441.895	1389.09
442.27	1433.15
442.645	1408.52
443.019	1427.5
443.394	1411.01
443.769	1460.95
444.143	1473.83
444.518	1491.23
444.892	1486.26
445.267	1510.44
445.641	1521.06
446.016	1523.32
446.39	1527.62
446.764	1523.55
447.139	1534.62
447.513	1573.04
447.887	1564.45
448.262	1551.8
448.636	1565.35
449.01	1599.03
449.384	1620.04
449.758	1611.68
450.132	1629.31
450.506	1625.47
450.88	1655.07
451.254	1660.49
451.628	1688.51
452.002	1699.36
452.376	1694.62
452.75	1706.82
453.123	1737.33
453.497	1746.37
453.871	1755.41
454.244	1767.61
454.618	1800.15
454.992	1816.65
455.365	1841.73
455.739	1856.42
456.112	1849.19
456.486	1890.54
456.859	1885.12
457.232	1930.09
457.606	1924.89
457.979	1927.38
458.352	1977.32
458.725	2000.37
459.099	1992.24
459.472	2032.91
459.845	2051.67
460.218	2065.91
460.591	2082.4
460.964	2069.3
461.337	2133.25
461.71	2146.13
462.083	2187.71
462.456	2177.54
462.829	2209.18
463.201	2199.46
463.574	2236.75
463.947	2248.27
464.32	2285.56
464.692	2315.84
465.065	2339.12
465.438	2356.52
465.81	2357.42
466.183	2410.53
466.555	2426.35
466.928	2451.43
467.3	2453.01
467.672	2458.66
468.045	2523.52
468.417	2530.53
468.789	2561.49
469.161	2602.39
469.534	2595.16
469.906	2659.34
470.278	2670.18
470.65	2691.43
471.022	2719.67
471.394	2765.1
471.766	2784.08
472.138	2833.57
472.51	2890.97
472.882	2916.05
473.253	2950.4
473.625	2993.34
473.997	3009.61
474.369	3023.62
474.74	3055.94
475.112	3092.77
475.484	3145.2
475.855	3166.67
476.227	3207.8
476.598	3276.5
476.97	3312.2
477.341	3320.34
477.713	3380.67
478.084	3420.22
478.455	3494.57
478.827	3511.29
479.198	3644.85
479.569	3584.06
479.94	3684.85
480.311	3690.27
480.682	3730.72
481.053	3821.34
481.424	3835.13
481.795	3872.19
482.166	3974.1
482.537	3951.05
482.908	4051.62
483.279	4052.29
483.65	4157.15
484.021	4171.16
484.391	4217.49
484.762	4246.87
485.133	4295.45
485.503	4324.83
485.874	4420.42
486.244	4414.77
486.615	4503.58
486.985	4546.74
487.356	4661.54
487.726	4675.1
488.097	4766.4
488.467	4767.53
488.837	4847.53
489.207	4874.87
489.578	4899.05
489.948	4913.29
490.318	5035.32
490.688	4955.55
491.058	5067.86
491.428	5129.33
491.798	5189.89
492.168	5293.17
492.538	5275.99
492.908	5281.87
493.278	5416.78
493.648	5412.94
494.017	5468.75
494.387	5459.26
494.757	5477.12
495.126	5549.88
495.496	5585.81
495.866	5587.4
496.235	5606.6
496.605	5647.51
496.974	5704.91
497.344	5771.57
497.713	5734.06
498.082	5793.49
498.452	5824
498.821	5863.77
499.19	5889.99
499.559	5932.47
499.928	5964.33
500.298	5977.89
500.667	6010.44
501.036	5972.47
501.405	6062.41
501.774	6073.03
502.143	6065.12
502.512	6092.47
502.88	6153.03
503.249	6132.92
503.618	6167.04
503.987	6196.42
504.356	6237.32
504.724	6261.73
505.093	6230.32
505.462	6219.02
505.83	6306.47
506.199	6337.43
506.567	6453.14
506.936	6383.98
507.304	6431.67
507.672	6420.14
508.041	6437.99
508.409	6485.9
508.777	6481.84
509.145	6529.07
509.514	6580.59
509.882	6587.14
510.25	6599.12
510.618	6616.07
510.986	6559.8
511.354	6665.56
511.722	6719.34
512.09	6681.83
512.458	6703.52
512.826	6742.17
513.193	6763.64
513.561	6745.33
513.929	6752.79
514.297	6857.64
514.664	6860.81
515.032	6856.06
515.4	6925.21
515.767	6932.67
516.135	6925.21
516.502	6810.19
516.869	6971.31
517.237	6926.57
517.604	6887.7
517.972	6995.04
518.339	7012.22
518.706	7010.18
519.073	7055.83
519.44	7018.54
519.808	7134.02
520.175	7066
520.542	7069.16
520.909	7130.86
521.276	7096.73
521.643	7167.92
522.009	7214.92
522.376	7234.58
522.743	7225.77
523.11	7260.12
523.477	7294.47
523.843	7292.89
524.21	7379.21
524.577	7457.63
524.943	7399.33
525.31	7474.13
525.676	7543.5
526.043	7503.28
526.409	7516.38
526.776	7593.44
527.142	7568.81
527.508	7656.72
527.874	7669.37
528.241	7651.52
528.607	7627.34
528.973	7653.1
529.339	7741.69
529.705	7736.04
530.071	7767.9
530.437	7844.74
530.803	7828.92
531.169	7839.77
531.535	7823.72
531.901	7849.93
532.267	7865.3
532.632	7919.76
532.998	7922.7
533.364	7929.25
533.73	7881.35
534.095	7998.86
534.461	7994.56
534.826	8008.57
535.192	7979.87
535.557	8006.31
535.923	8029.59
536.288	8030.5
536.653	8064.84
537.019	8094.67
537.384	8055.13
537.749	8033.88
538.114	8090.61
538.479	8119.98
538.845	8118.85
539.21	8070.27
539.575	8145.07
539.94	8130.61
540.305	8222.35
540.67	8126.09
541.034	8144.84
541.399	8176.71
541.764	8238.85
542.129	8142.36
542.494	8213.77
542.858	8207.44
543.223	8209.02
543.587	8230.26
543.952	8303.26
544.316	8273.2
544.681	8210.6
545.045	8319.3
545.41	8310.04
545.774	8320.88
546.138	8232.98
546.503	8278.85
546.867	8305.29
547.231	8354.55
547.595	8347.1
547.959	8335.12
548.324	8352.07
548.688	8406.98
549.052	8418.06
549.416	8333.31
549.779	8343.93
550.143	8383.25
550.507	8446.76
550.871	8397.27
551.235	8431.16
551.599	8519.3
551.962	8446.76
552.326	8452.63
552.689	8521.56
553.053	8495.79
553.417	8479.97
553.78	8530.37
554.143	8510.03
554.507	8565.17
554.87	8588.45
555.234	8617.6
555.597	8577.37
555.96	8611.27
556.323	8679.29
556.686	8648.56
557.05	8743.47
557.413	8674.32
557.776	8746.18
558.139	8737.37
558.502	8757.26
558.865	8716.58
559.228	8831.83
559.59	8863.24
559.953	8860.53
560.316	8893.52
560.679	8914.09
561.041	8952.73
561.404	8944.6
561.767	9015.55
562.129	8921.09
562.492	9063.01
562.854	9049
563.217	9076.34
563.579	9064.59
563.941	9123.57
564.304	9219.39
564.666	9213.51
565.028	9267.3
565.39	9188.88
565.753	9285.6
566.115	9318.82
566.477	9382.55
566.839	9377.58
567.201	9436.11
567.563	9410.12
567.925	9475.2
568.287	9495.09
568.648	9506.39
569.01	9569.44
569.372	9602.88
569.734	9590.91
570.095	9659.38
570.457	9714.97
570.819	9667.06
571.18	9717.91
571.542	9770.79
571.903	9761.52
572.265	9796.55
572.626	9807.85
572.987	9886.72
573.349	9917.68
573.71	9925.36
574.071	9923.33
574.432	10025.24
574.794	10056.88
575.155	9980.05
575.516	10015.08
575.877	10053.49
576.238	10097.11
576.599	10191.79
576.96	10187.5
577.32	10233.6
577.681	10269.98
578.042	10335.97
578.403	10378.46
578.763	10380.04
579.124	10409.42
579.485	10408.51
579.845	10425.46
580.206	10444.89
580.566	10491.45
580.927	10546.14
581.287	10520.37
581.648	10552.01
582.008	10624.78
582.368	10687.15
582.728	10709.29
583.089	10675.62
583.449	10754.27
583.809	10723.98
584.169	10759.91
584.529	10810.08
584.889	10901.61
585.249	10797.88
585.609	10785.68
585.969	10894.37
586.329	10959.46
586.688	10944.99
587.048	10862.74
587.408	11008.72
587.768	10946.8
588.127	11040.36
588.487	11023.64
588.846	11086.23
589.206	11101.15
589.565	11139.57
589.925	11138.21
590.284	11126.46
590.643	11193.8
591.003	11221.6
591.362	11268.15
591.721	11243.29
592.08	11300.69
592.44	11330.07
592.799	11347.92
593.158	11385.44
593.517	11350.18
593.876	11433.34
594.235	11386.11
594.593	11423.63
594.952	11405.32
595.311	11393.12
595.67	11454.13
596.029	11507.01
596.387	11605.09
596.746	11593.11
597.104	11439.9
597.463	11523.51
597.822	11561.25
598.18	11597.86
598.538	11598.76
598.897	11696.16
599.255	11486.45
599.613	11755.82
599.972	11715.37
600.33	11708.14
600.688	11720.57
601.046	11715.14
601.404	11763.5
601.762	11777.74
602.12	11852.09
602.478	11819.1
602.836	11895.25
603.194	11774.35
603.552	11790.17
603.91	11793.56
604.268	11796.27
604.625	11925.31
604.983	11811.41
605.341	11843.5
605.698	11876.5
606.056	11874.69
606.413	11936.61
606.771	11956.04
607.128	11955.14
607.485	11878.76
607.843	11977.28
608.2	11991.29
608.557	12053.89
608.914	11999.43
609.272	12022.03
609.629	12100.67
609.986	12059.77
610.343	11993.33
610.7	12147
611.057	12067.45
611.414	12107.22
611.771	12129.82
612.127	12232.64
612.484	12172.76
612.841	12234.9
613.198	12094.79
613.554	12222.93
613.911	12231.97
614.267	12294.79
614.624	12243.72
614.98	12238.75
615.337	12322.36
615.693	12255.47
616.05	12350.83
616.406	12395.35
616.762	12351.29
617.118	12269.93
617.475	12365.97
617.831	12383.15
618.187	12389.48
618.543	12379.08
618.899	12500.43
619.255	12391.51
619.611	12373.43
619.967	12506.08
620.323	12445.29
620.678	12457.72
621.034	12416.37
621.39	12401
621.746	12345.64
622.101	12547.66
622.457	12457.95
622.812	12485.07
623.168	12404.62
623.523	12450.72
623.879	12552.41
624.234	12452.3
624.589	12494.56
624.945	12410.49
625.3	12487.78
625.655	12519.64
626.01	12467.67
626.365	12516.7
626.72	12448.23
627.075	12380.89
627.43	12464.05
627.785	12450.04
628.14	12360.32
628.495	12473.99
628.85	12446.42
629.205	12373.88
629.559	12440.32
629.914	12372.3
630.269	12416.37
630.623	12424.28
630.978	12325.75
631.332	12401.45
631.687	12382.92
632.041	12372.75
632.396	12290.27
632.75	12298.86
633.104	12328.91
633.459	12273.77
633.813	12263.38
634.167	12311.06
634.521	12254.56
634.875	12252.3
635.229	12248.01
635.583	12235.13
635.937	12138.64
636.291	12177.73
636.645	12203.94
636.999	12197.17
637.352	12177.05
637.706	12057.51
638.06	12103.61
638.413	12113.78
638.767	12103.16
639.121	12165.53
639.474	12024.74
639.828	12036.72
640.181	12001.46
640.534	12018.19
640.888	11935.03
641.241	11998.53
641.594	12003.95
641.947	12024.29
642.301	12023.84
642.654	11970.05
643.007	12055.47
643.36	11943.16
643.713	11939.77
644.066	11855.25
644.419	11844.63
644.771	11805.54
645.124	11756.27
645.477	11710.85
645.83	11550.4
646.182	11604.19
646.535	11552.66
646.888	11529.61
647.24	11523.28
647.593	11634.02
647.945	11539.1
648.298	11466.11
648.65	11496.62
649.002	11497.75
649.355	11474.7
649.707	11503.62
650.059	11484.42
650.411	11614.58
650.763	11639.44
651.115	11815.93
651.467	11751.53
651.819	11806.67
652.171	11756.95
652.523	11694.13
652.875	11716.27
653.227	11715.37
653.578	11755.37
653.93	11709.72
654.282	11657.07
654.633	11688.7
654.985	11692.77
655.337	11777.29
655.688	11755.14
656.039	11766.67
656.391	11601.02
656.742	11711.08
657.094	11669.27
657.445	11777.97
657.796	11695.26
658.147	11693.45
658.498	11618.42
658.849	11783.39
659.2	11758.31
659.551	11697.74
659.902	11805.54
660.253	11732.09
660.604	11751.08
660.955	11681.92
661.306	11728.7
661.656	11641.02
662.007	11707.23
662.358	11730.96
662.708	11689.83
663.059	11644.41
663.409	11641.25
663.76	11782.49
664.11	11706.33
664.461	11736.84
664.811	11783.39
665.161	11701.13
665.511	11684.18
665.862	11754.46
666.212	11754.69
666.562	11793.56
666.912	11712.88
667.262	11777.97
667.612	11702.26
667.962	11742.04
668.312	11738.42
668.662	11792.88
669.011	11684.41
669.361	11704.3
669.711	11748.36
670.06	11674.69
670.41	11733
670.76	11667.01
671.109	11741.81
671.459	11685.09
671.808	11574.81
672.157	11670.4
672.507	11598.76
672.856	11566.45
673.205	11605.77
673.554	11612.32
673.904	11646.9
674.253	11591.98
674.602	11592.89
674.951	11453
675.3	11415.72
675.649	11569.16
675.998	11539.78
676.346	11552.44
676.695	11542.95
677.044	11523.06
677.393	11463.85
677.741	11519.44
678.09	11509.05
678.438	11432.89
678.787	11411.88
679.135	11477.18
679.484	11363.74
679.832	11449.61
680.181	11349.28
680.529	11399.67
680.877	11293.23
681.225	11344.31
681.573	11413.91
681.922	11254.14
682.27	11273.8
682.618	11196.97
682.966	11289.17
683.314	11277.19
683.661	11203.74
684.009	11192.22
684.357	11110.19
684.705	11132.33
685.053	11089.4
685.4	11150.41
685.748	11044.2
686.095	11107.7
686.443	10940.25
686.79	10984.32
687.138	10980.02
687.485	11053.01
687.832	10924.88
688.18	10947.71
688.527	10857.99
688.874	10946.12
689.221	10894.83
689.568	10826.13
689.915	10822.74
690.262	10776.19
690.609	10751.1
690.956	10734.38
691.303	10633.82
691.65	10598.79
691.997	10617.32
692.344	10539.36
692.69	10529.19
693.037	10535.29
693.383	10464.33
693.73	10473.14
694.077	10413.26
694.423	10367.83
694.769	10456.87
695.116	10389.98
695.462	10294.62
695.808	10250.32
696.155	10267.05
696.501	10183.66
696.847	10245.13
697.193	10146.82
697.539	10189.08
697.885	10052.36
698.231	9982.08
698.577	10041.97
698.923	9981.18
699.269	9955.42
699.614	9841.07
699.96	9848.3
700.306	9866.38
700.651	9864.35
700.997	9767.85
701.342	9719.04
701.688	9752.03
702.033	9674.52
702.379	9637.68
702.724	9627.52
703.069	9645.37
703.415	9570.79
703.76	9457.8
704.105	9486.5
704.45	9487.86
704.795	9372.83
705.14	9412.61
705.485	9375.32
705.83	9347.75
706.175	9331.93
706.52	9286.73
706.865	9251.71
707.209	9255.1
707.554	9243.57
707.899	9225.04
708.243	9205.83
708.588	9150.47
708.932	9082.67
709.277	9043.12
709.621	9066.63
709.966	9025.72
710.31	9056.23
710.654	8924.26
710.998	9021.66
711.342	8985.27
711.687	8932.84
712.031	8907.08
712.375	8866.18
712.719	8918.83
713.063	8877.93
713.407	8960.87
713.75	8856.91
714.094	8843.13
714.438	8831.15
714.782	8777.59
715.125	8710.48
715.469	8778.5
715.812	8718.39
716.156	8685.39
716.499	8717.03
716.843	8687.2
717.186	8649.91
717.53	8664.15
717.873	8675
718.216	8717.03
718.559	8669.57
718.902	8609.01
719.246	8623.93
719.589	8636.81
719.932	8530.59
720.275	8566.53
720.617	8483.59
720.96	8561.33
721.303	8529.92
721.646	8520.43
721.989	8426.42
722.331	8536.92
722.674	8524.27
723.016	8477.71
723.359	8526.75
723.701	8469.58
724.044	8435.46
724.386	8365.85
724.729	8415.34
725.071	8357.27
725.413	8339.19
725.755	8387.77
726.097	8335.12
726.439	8278.17
726.782	8277.72
727.124	8359.75
727.465	8352.52
727.807	8322.92
728.149	8298.51
728.491	8310.26
728.833	8327.44
729.175	8262.13
729.516	8291.51
729.858	8288.79
730.199	8307.32
730.541	8303.71
730.882	8232.75
731.224	8344.16
731.565	8303.71
731.906	8267.78
732.248	8228
732.589	8242.47
732.93	8188.23
733.271	8250.15
733.612	8214.9
733.953	8222.58
734.294	8190.72
734.635	8147.33
734.976	8239.98
735.317	8184.62
735.658	8220.09
735.999	8185.29
736.339	8158.4
736.68	8227.78
737.021	8257.61
737.361	8138.74
737.702	8244.27
738.042	8215.35
738.383	8253.77
738.723	8257.16
739.063	8195.46
739.404	8260.77
739.744	8208.12
740.084	8246.76
740.424	8338.74
740.764	8290.83
741.104	8339.19
741.444	8253.31
741.784	8336.25
742.124	8293.31
742.464	8309.58
742.804	8365.63
743.143	8343.71
743.483	8419.64
743.823	8351.39
744.162	8364.5
744.502	8334.67
744.841	8396.36
745.181	8454.66
745.52	8438.85
745.86	8516.58
746.199	8557.71
746.538	8574.66
746.877	8610.14
747.216	8675.68
747.556	8567.2
747.895	8661.21
748.234	8712.06
748.573	8678.39
748.911	8811.49
749.25	8863.69
749.589	8801.32
749.928	8913.41
750.267	9040.64
750.605	9076.12
750.944	9115.44
751.283	9178.71
751.621	9264.36
751.96	9276.11
752.298	9316.11
752.636	9428.65
752.975	9461.64
753.313	9557.69
753.651	9717.23
753.989	9784.8
754.327	9914.74
754.666	9930.11
755.004	10099.82
755.342	10174.62
755.679	10282.41
756.017	10394.27
756.355	10511.11
756.693	10620.03
757.031	10768.95
757.368	10798.11
757.706	10965.79
758.044	11081.26
758.381	11295.49
758.719	11357.19
759.056	11518.09
759.394	11622.49
759.731	11685.54
760.068	11867
760.405	11981.35
760.743	12166.21
761.08	12355.13
761.417	12408.69
761.754	12656.36
762.091	12772.52
762.428	12918.5
762.765	12998.5
763.102	13244.14
763.438	13288.89
763.775	13452.95
764.112	13603.68
764.449	13821.98
764.785	13938.59
765.122	14038.02
765.458	14293.38
765.795	14419.71
766.131	14464.22
766.467	14587.38
766.804	14755.97
767.14	14906.02
767.476	14951.89
767.812	15107.37
768.148	15216.07
768.485	15352.79
768.821	15460.58
769.157	15577.19
769.492	15735.83
769.828	15830.52
770.164	15837.75
770.5	16046.78
770.836	16146.67
771.171	16066.22
771.507	16311.63
771.842	16298.98
772.178	16436.83
772.513	16583.49
772.849	16691.06
773.184	16750.49
773.519	16809.47
773.855	16818.29
774.19	16908
774.525	17026.19
774.86	17111.61
775.195	17105.74
775.53	17180.99
775.865	17189.12
776.2	17217.37
776.535	17168.79
776.87	17275.22
777.205	17305.96
777.539	17316.8
777.874	17499.17
778.209	17454.65
778.543	17517.93
778.878	17410.14
779.212	17477.48
779.547	17514.09
779.881	17617.81
780.215	17518.38
780.55	17639.73
780.884	17572.84
781.218	17594.76
781.552	17623.24
781.886	17626.4
782.22	17602.67
782.554	17639.51
782.888	17521.09
783.222	17547.76
783.556	17516.8
783.889	17547.08
784.223	17497.14
784.557	17484.26
784.89	17575.78
785.224	17469.12
785.557	17533.97
785.891	17528.55
786.224	17501.88
786.558	17515.22
786.891	17444.71
787.224	17386.41
787.557	17296.01
787.891	17373.53
788.224	17351.15
788.557	17296.69
788.89	17378.27
789.223	17340.76
789.556	17278.84
789.888	17297.6
790.221	17265.51
790.554	17170.82
790.887	17236.35
791.219	17177.15
791.552	17149.35
791.884	17133.98
792.217	17123.82
792.549	17030.48
792.882	16938.28
793.214	16889.25
793.546	16939.41
793.879	16847.21
794.211	16856.25
794.543	16993.2
794.875	16821.22
795.207	17014.89
795.539	16889.92
795.871	16861.68
796.203	16802.47
796.535	16539.65
796.867	16668.23
797.198	16675.01
797.53	16586.43
797.862	16422.14
798.193	16535.81
798.525	16362.71
798.856	16416.04
799.188	16333.33
799.519	16256.72
799.85	16148.7
800.182	16244.52
800.513	16224.63
800.844	16122.26
801.175	16130.4
801.506	16120.68
801.837	16121.13
802.168	16086.1
802.499	16041.13
802.83	15934.69
803.161	15919.33
803.491	15887.92
803.822	15929.04
804.153	15843.62
804.483	15729.73
804.814	15691.08
805.145	15631.43
805.475	15699.9
805.805	15565.66
806.136	15684.31
806.466	15659.22
806.796	15598.88
807.126	15511.65
807.457	15419.45
807.787	15474.37
808.117	15435.72
808.447	15287.03
808.777	15393.47
809.107	15390.53
809.436	15402.96
809.766	15224.43
810.096	15259.46
810.426	15243.86
810.755	15198.22
811.085	15161.83
811.414	15079.58
811.744	15066.24
812.073	15060.14
812.403	15085.9
812.732	15021.95
813.061	15020.37
813.39	14895.4
813.719	14888.62
814.049	14900.14
814.378	14826.25
814.707	14833.71
815.036	14830.99
815.365	14612.92
815.693	14701.96
816.022	14659.02
816.351	14668.51
816.68	14529.53
817.008	14595.29
817.337	14536.54
817.665	14480.04
817.994	14504
818.322	14381.97
818.651	14360.5
818.979	14347.62
819.307	14440.72
819.636	14372.48
819.964	14285.25
820.292	14352.59
820.62	14304.91
820.948	14215.19
821.276	14290.67
821.604	14272.59
821.932	14333.83
822.259	14333.61
822.587	14286.15
822.915	14228.52
823.243	14256.55
823.57	14266.72
823.898	14239.37
824.225	14185.36
824.553	14256.77
824.88	14306.71
825.207	14297.45
825.535	14261.74
825.862	14297.22
826.189	14241.41
826.516	14305.13
826.843	14339.26
827.17	14413.15
827.497	14348.07
827.824	14333.38
828.151	14371.57
828.478	14370.22
828.805	14453.6
829.131	14323.44
829.458	14231.91
829.785	14223.33
830.111	14303.78
830.438	14391.68
830.764	14373.83
831.09	14327.28
831.417	14250.67
831.743	14282.53
832.069	14310.1
832.395	14287.05
832.722	14363.44
833.048	14217
833.374	14343.1
833.7	14213.84
834.026	14258.13
834.351	14228.3
834.677	14229.65
835.003	14201.18
835.329	14173.61
835.654	14203.44
835.98	14117.11
836.306	14221.29
836.631	14128.41
836.956	14129.09
837.282	14169.32
837.607	14094.74
837.932	14035.76
838.258	14036.21
838.583	14027.17
838.908	13932.71
839.233	13912.83
839.558	13911.24
839.883	13905.14
840.208	13819.72
840.533	13862.21
840.858	13805.26
841.182	13846.84
841.507	13744.24
841.832	13851.81
842.156	13793.51
842.481	13786.73
842.805	13725.71
843.13	13643.91
843.454	13639.16
843.778	13601.87
844.103	13518.94
844.427	13534.98
844.751	13490.46
845.075	13409.56
845.399	13451.6
845.723	13318.72
846.047	13379.51
846.371	13238.49
846.695	13294.31
847.019	13164.82
847.343	13044.15
847.666	13047.99
847.99	12931.61
848.313	13025.17
848.637	12919.86
848.96	12812.74
849.284	12871.05
849.607	12702.01
849.931	12728.68
850.254	12610.26
850.577	12595.12
850.9	12499.98
851.223	12536.37
851.546	12472.19
851.869	12387.67
852.192	12276.26
852.515	12365.07
852.838	12198.52
853.161	12246.66
853.483	12233.1
853.806	12172.31
854.129	12126.21
854.451	12125.75
854.774	12038.53
855.096	11995.14
855.419	11892.99
855.741	11885.08
856.063	11838.76
856.385	11870.39
856.708	11800.79
857.03	11752.43
857.352	11685.54
857.674	11752.66
857.996	11612.77
858.318	11595.83
858.64	11643.06
858.961	11605.77
859.283	11515.83
859.605	11477.18
859.926	11560.57
860.248	11453
860.57	11409.84
860.891	11349.73
861.212	11347.7
861.534	11300.69
861.855	11258.88
862.176	11237.64
862.498	11287.81
862.819	11311.99
863.14	11250.3
863.461	11123.3
863.782	11208.49
864.103	11208.26
864.424	11126.46
864.745	11159.23
865.065	11030.19
865.386	11010.53
865.707	11088.72
866.027	11092.34
866.348	11048.27
866.668	11037.42
866.989	11036.07
867.309	10922.62
867.63	10962.85
867.95	10949.06
868.27	10794.72
868.59	10862.74
868.91	10814.6
869.23	10787.71
869.55	10759.69
869.87	10873.13
870.19	10759.46
870.51	10753.14
870.83	10807.82
871.15	10658.22
871.469	10710.2
871.789	10747.71
872.109	10725.11
872.428	10608.73
872.748	10736.86
873.067	10666.13
873.386	10670.2
873.706	10613.25
874.025	10557.21
874.344	10536.64
874.663	10574.61
874.982	10461.39
875.301	10553.37
875.62	10446.02
875.939	10502.97
876.258	10451.9
876.577	10461.17
876.896	10403.99
877.214	10385.91
877.533	10398.12
877.852	10380.04
878.17	10398.79
878.489	10371.22
878.807	10336.42
879.125	10276.76
879.444	10249.87
879.762	10268.18
880.08	10285.13
880.398	10213.04
880.716	10217.33
881.034	10173.72
881.352	10192.47
881.67	10252.13
881.988	10119.03
882.306	10165.13
882.624	10117.9
882.941	10036.77
883.259	10000.84
883.577	10021.63
883.894	9968.07
884.212	9897.56
884.529	9967.39
884.846	9981.18
885.164	9982.76
885.481	9862.54
885.798	9914.06
886.115	9810.34
886.432	9815.98
886.75	9805.82
887.067	9838.13
887.383	9804.23
887.7	9754.97
888.017	9687.17
888.334	9717.91
888.651	9664.8
888.967	9592.49
889.284	9643.33
889.6	9587.52
889.917	9499.83
890.233	9545.71
890.55	9458.71
890.866	9485.37
891.182	9403.34
891.498	9405.37
891.815	9354.3
892.131	9277.24
892.447	9370.12
892.763	9303.91
893.079	9293.96
893.395	9189.79
893.71	9196.79
894.026	9284.47
894.342	9150.47
894.657	9103.69
894.973	9055.55
895.289	9039.73
895.604	8969
895.92	8948.66
896.235	8929
896.55	8918.16
896.865	8909.12
897.181	8930.81
897.496	8878.38
897.811	8826.86
898.126	8783.02
898.441	8694.43
898.756	8709.35
899.071	8712.51
899.386	8627.54
899.7	8594.77
900.015	8579.18
900.33	8542.12
900.644	8470.26
900.959	8474.33
901.273	8438.17
901.588	8396.59
901.902	8395.01
902.216	8430.48
902.531	8365.85
902.845	8344.39
903.159	8167.44
903.473	8235.91
903.787	8176.25
904.101	8131.74
904.415	8138.97
904.729	8153.43
905.042	8054
905.356	8044.51
905.67	8032.3
905.984	8040.89
906.297	8039.53
906.611	7920.89
906.924	7936.03
907.237	7914.34
907.551	7839.09
907.864	7842.03
908.177	7847.9
908.491	7787.79
908.804	7739.66
909.117	7703.27
909.43	7624.63
909.743	7622.37
910.056	7592.54
910.368	7597.29
910.681	7581.24
910.994	7512.99
911.307	7499.21
911.619	7391.64
911.932	7442.94
912.244	7324.98
912.557	7371.98
912.869	7299.21
913.181	7265.77
913.494	7293.57
913.806	7226.9
914.118	7221.48
914.43	7140.12
914.742	7067.36
915.054	7074.59
915.366	7073.01
915.678	7078.88
915.99	7035.27
916.302	7007.7
916.613	7022.39
916.925	6908.72
917.236	6913.01
917.548	6877.98
917.859	6898.77
918.171	6800.7
918.482	6781.49
918.794	6778.1
919.105	6769.74
919.416	6757.99
919.727	6642.51
920.038	6660.59
920.349	6612
920.66	6564.32
920.971	6599.12
921.282	6551.44
921.593	6537.65
921.903	6478.45
922.214	6471.44
922.525	6477.32
922.835	6468.5
923.146	6338.11
923.456	6353.7
923.767	6313.48
924.077	6290.2
924.387	6286.59
924.697	6254.27
925.008	6273.03
925.318	6228.73
925.628	6250.65
925.938	6169.98
926.248	6117.33
926.558	6139.92
926.867	6131.11
927.177	6071.68
927.487	6090.66
927.796	5952.36
928.106	6022.41
928.416	5955.07
928.725	6005.24
929.034	5866.48
929.344	5894.28
929.653	5919.82
929.962	5893.6
930.271	5856.31
930.581	5810.89
930.89	5737.67
931.199	5778.12
931.508	5723.21
931.817	5738.58
932.125	5683.89
932.434	5654.96
932.743	5620.61
933.051	5599.6
933.36	5621.52
933.669	5583.1
933.977	5551.92
934.286	5508.98
934.594	5484.35
934.902	5487.74
935.21	5506.72
935.519	5420.39
935.827	5424.91
936.135	5357.35
936.443	5340.85
936.751	5322.32
937.059	5321.41
937.367	5312.83
937.674	5286.61
937.982	5268.99
938.29	5250.46
938.597	5222.43
938.905	5154.86
939.213	5187.63
939.52	5171.36
939.827	5190.12
940.135	5090.46
940.442	5043.91
940.749	5042.78
941.056	5056.56
941.363	4977.24
941.67	4996
941.977	4970.69
942.284	4904.48
942.591	4914.19
942.898	4847.53
943.205	4839.62
943.511	4881.2
943.818	4859.73
944.125	4825.16
944.431	4812.95
944.738	4760.52
945.044	4748.32
945.35	4719.4
945.657	4665.84
945.963	4690.47
946.269	4671.49
946.575	4637.59
946.881	4621.32
947.187	4626.74
947.493	4597.36
947.799	4587.87
948.105	4567.76
948.41	4537.48
948.716	4535.9
949.022	4520.08
949.327	4491.15
949.633	4487.31
949.938	4491.83
950.244	4440.53
950.549	4381.33
950.854	4408.9
951.16	4321.67
951.465	4365.73
951.77	4319.86
952.075	4318.95
952.38	4262.68
952.685	4301.78
952.99	4228.11
953.294	4207.09
953.599	4197.38
953.904	4171.16
954.209	4161.22
954.513	4156.25
954.818	4115.34
955.122	4140.65
955.426	4156.25
955.731	4099.07
956.035	4046.19
956.339	4064.27
956.643	4047.55
956.948	4038.28
957.252	4023.14
957.556	4007.32
957.86	3991.28
958.163	3958.51
958.467	3947.44
958.771	3952.41
959.075	3885.97
959.378	3915.35
959.682	3899.98
959.985	3887.33
960.289	3880.1
960.592	3819.53
960.896	3811.17
961.199	3791.06
961.502	3797.16
961.805	3739.76
962.108	3725.52
962.411	3723.72
962.714	3749.93
963.017	3704.06
963.32	3699.76
963.623	3711.74
963.926	3664.06
964.228	3662.7
964.531	3604.85
964.833	3587.22
965.136	3601.91
965.438	3577.28
965.741	3515.13
966.043	3539.77
966.345	3536.15
966.648	3526.21
966.95	3511.74
967.252	3492.76
967.554	3485.76
967.856	3475.13
968.158	3458.64
968.46	3414.12
968.761	3397.85
969.063	3374.12
969.365	3370.05
969.666	3355.14
969.968	3332.77
970.269	3287.34
970.571	3308.13
970.872	3282.6
971.174	3275.14
971.475	3242.82
971.776	3277.4
972.077	3231.53
972.378	3235.82
972.679	3243.5
972.98	3221.58
973.281	3171.64
973.582	3168.7
973.883	3164.18
974.183	3124.18
974.484	3174.58
974.785	3104.75
975.085	3096.16
975.386	3108.59
975.686	3063.85
975.986	3052.77
976.287	3047.35
976.587	3022.94
976.887	2973.45
977.187	3041.25
977.487	3010.06
977.787	3007.8
978.087	2980.91
978.387	2931.19
978.687	2923.51
978.987	2950.18
979.286	2930.52
979.586	2887.58
979.885	2905.21
980.185	2894.58
980.484	2850.97
980.784	2853.23
981.083	2853.23
981.382	2784.31
981.682	2833.34
981.981	2835.6
982.28	2813.68
982.579	2785.89
982.878	2770.29
983.177	2728.26
983.475	2742.27
983.774	2711.99
984.073	2724.65
984.372	2691.43
984.67	2713.8
984.969	2683.07
985.267	2692.1
985.566	2677.42
985.864	2650.52
986.162	2639.68
986.461	2627.02
986.759	2593.12
987.057	2588.83
987.355	2558.1
987.653	2551.09
987.951	2575.5
988.249	2512.45
988.547	2536.85
988.844	2514.71
989.142	2521.04
989.44	2481.04
989.737	2494.82
990.035	2472
990.332	2507.02
990.63	2462.28
990.927	2441.26
991.224	2466.35
991.521	2435.16
991.819	2398.78
992.116	2417.76
992.413	2389.97
992.71	2361.04
993.006	2343.64
993.303	2377.31
993.6	2371.21
993.897	2340.48
994.193	2354.71
994.49	2322.85
994.787	2300.02
995.083	2262.74
995.379	2279.46
995.676	2253.47
995.972	2265
996.268	2261.16
996.565	2257.77
996.861	2257.31
997.157	2201.95
997.453	2173.47
997.749	2208.73
998.044	2135.06
998.34	2155.4
998.636	2195.85
998.932	2158.11
999.227	2122.18
999.523	2113.81
999.818	2105.68
1000.114	2077.43
1000.409	2065.91
1000.704	2074.04
1001	2050.54
1001.295	2041.27
1001.59	2022.74
1001.885	2041.5
1002.18	1999.02
1002.475	2014.38
1002.77	1999.69
1003.065	1973.48
1003.359	1959.24
1003.654	1963.76
1003.949	1970.32
1004.243	1970.77
1004.538	1955.63
1004.832	1945.23
1005.127	1940.49
1005.421	1891.9
1005.715	1884.89
1006.009	1887.61
1006.304	1883.31
1006.598	1867.95
1006.892	1834.95
1007.186	1856.19
1007.48	1829.3
1007.773	1810.32
1008.067	1785.46
1008.361	1789.76
1008.655	1764.22
1008.948	1790.89
1009.242	1774.61
1009.535	1746.59
1009.829	1764.45
1010.122	1721.73
1010.415	1732.36
1010.708	1738.01
1011.001	1682.19
1011.295	1704.11
1011.588	1719.7
1011.881	1671.79
1012.173	1685.13
1012.466	1656.88
1012.759	1655.07
1013.052	1638.12
1013.344	1639.48
1013.637	1611.23
1013.93	1592.92
1014.222	1611.91
1014.514	1587.05
1014.807	1603.32
1015.099	1566.48
1015.391	1556.54
1015.683	1532.36
1015.976	1528.52
1016.268	1509.31
1016.56	1519.03
1016.851	1539.59
1017.143	1546.82
1017.435	1514.73
1017.727	1484.9
1018.018	1506.6
1018.31	1458.46
1018.602	1459.37
1018.893	1446.71
1019.185	1452.14
1019.476	1424.57
1019.767	1424.79
1020.058	1403.32
1020.35	1384.34
1020.641	1386.15
1020.932	1363.33
1021.223	1365.36
1021.514	1384.57
1021.804	1366.49
1022.095	1379.82
1022.386	1368.98
1022.677	1328.52
1022.967	1349.77
1023.258	1324
1023.548	1307.96
1023.839	1310.45
1024.129	1305.25
1024.419	1307.51
1024.709	1283.78
1025	1282.42
1025.29	1263.89
1025.58	1241.52
1025.87	1234.29
1026.16	1224.57
1026.449	1244.68
1026.739	1239.26
1027.029	1215.98
1027.319	1196.55
1027.608	1199.94
1027.898	1182.54
1028.187	1191.8
1028.477	1185.93
1028.766	1174.86
1029.055	1146.16
1029.344	1144.57
1029.634	1130.11
1029.923	1098.93
1030.212	1111.81
1030.501	1114.29
1030.79	1100.06
1031.078	1088.76
1031.367	1084.01
1031.656	1100.28
1031.945	1098.47
1032.233	1065.48
1032.522	1079.27
1032.81	1071.13
1033.099	1065.71
1033.387	1030.91
1033.675	1040.17
1033.963	1036.78
1034.251	1052.6
1034.54	1035.2
1034.828	1033.62
1035.116	1005.14
1035.403	1006.05
1035.691	1010.34
1035.979	975.31
1036.267	978.25
1036.554	993.62
1036.842	968.08
1037.129	955.2
1037.417	961.3
1037.704	970.79
1037.992	931.25
1038.279	925.82
1038.566	950.46
1038.853	950.46
1039.14	950.46
