Data from hue_90_FLMS001491_8.txt Node
Date: Mon Feb 06 15:24:36 GMT 2017
User: dcchb
Spectrometer: FLMS00149
Trigger mode: 0
Integration Time (sec): 2.000000E-2
Scans to average: 10
Electric dark correction enabled: true
Nonlinearity correction enabled: false
Boxcar width: 0
XAxis mode: Wavelengths
Number of Pixels in Spectrum: 2048
>>>>>Begin Spectral Data<<<<<
341.393	-15.72
341.776	-15.72
342.16	-15.72
342.543	-84.64
342.927	-83.29
343.31	-82.16
343.693	-59.56
344.077	-66.57
344.46	-66.57
344.843	-48.94
345.226	-40.35
345.61	-24.76
345.993	-29.28
346.376	4.39
346.759	19.53
347.142	19.31
347.525	29.93
347.908	73.54
348.291	65.18
348.674	92.3
349.057	113.99
349.44	122.81
349.823	126.2
350.206	157.16
350.588	198.51
350.971	212.3
351.354	206.65
351.737	237.61
352.119	253.88
352.502	265.85
352.884	262.46
353.267	278.74
353.65	268.57
354.032	303.14
354.414	303.59
354.797	298.4
355.179	296.14
355.562	333.88
355.944	311.73
356.326	309.47
356.709	337.04
357.091	314.67
357.473	321.22
357.855	332.07
358.238	339.07
358.62	342.01
359.002	329.36
359.384	321.67
359.766	330.71
360.148	328.45
360.53	319.19
360.912	330.03
361.294	318.73
361.676	308.79
362.057	326.42
362.439	307.44
362.821	311.96
363.203	322.8
363.584	323.93
363.966	334.1
364.348	324.84
364.729	305.4
365.111	308.79
365.493	315.34
365.874	307.44
366.256	302.92
366.637	337.72
367.019	310.15
367.4	287.55
367.781	307.66
368.163	306.53
368.544	328.68
368.925	307.66
369.306	287.32
369.688	317.6
370.069	313.76
370.45	321.9
370.831	308.79
371.212	291.16
371.593	309.24
371.974	304.05
372.355	311.5
372.736	304.5
373.117	315.57
373.498	313.31
373.879	319.64
374.26	313.99
374.641	307.89
375.021	287.77
375.402	288.9
375.783	324.16
376.163	297.72
376.544	322.35
376.925	332.29
377.305	296.59
377.686	304.05
378.066	310.83
378.447	322.12
378.827	321.22
379.208	298.62
379.588	317.38
379.968	330.94
380.349	328
380.729	331.39
381.109	341.11
381.489	322.12
381.87	306.53
382.25	356.02
382.63	325.29
383.01	333.2
383.39	340.65
383.77	350.6
384.15	330.03
384.53	328.23
384.91	333.2
385.29	358.96
385.67	338.85
386.049	351.05
386.429	334.33
386.809	363.25
387.189	330.94
387.568	333.65
387.948	360.99
388.328	366.42
388.707	349.02
389.087	363.93
389.466	332.97
389.846	363.03
390.225	359.86
390.605	350.82
390.984	369.35
391.363	363.93
391.743	357.6
392.122	363.48
392.501	349.92
392.881	373.65
393.26	372.29
393.639	379.75
394.018	372.74
394.397	380.88
394.776	365.96
395.155	358.96
395.534	372.74
395.913	360.09
396.292	372.97
396.671	372.74
397.05	399.18
397.429	375
397.808	367.09
398.186	372.97
398.565	389.24
398.944	385.4
399.323	394.66
399.701	393.76
400.08	386.98
400.458	392.4
400.837	388.79
401.215	400.31
401.594	398.51
401.972	417.72
402.351	394.66
402.729	397.38
403.107	406.64
403.486	395.34
403.864	386.08
404.242	415.91
404.62	405.51
404.999	435.34
405.377	409.35
405.755	399.86
406.133	437.38
406.511	419.97
406.889	436.02
407.267	429.24
407.645	437.15
408.023	428.11
408.401	417.49
408.779	429.47
409.156	419.97
409.534	420.2
409.912	457.71
410.29	432.63
410.667	439.64
411.045	463.14
411.422	439.18
411.8	456.81
412.178	455.23
412.555	456.36
412.933	478.05
413.31	442.57
413.687	464.04
414.065	463.14
414.442	482.12
414.819	490.71
415.197	493.19
415.574	490.03
415.951	473.76
416.328	479.41
416.705	469.24
417.082	493.19
417.46	491.39
417.837	500.88
418.214	488.45
418.591	496.81
418.967	503.59
419.344	509.92
419.721	515.11
420.098	528.45
420.475	516.92
420.852	517.15
421.228	535.68
421.605	534.77
421.982	527.09
422.358	550.59
422.735	535.9
423.111	526.19
423.488	543.14
423.864	541.78
424.241	549.91
424.617	557.6
424.994	550.14
425.37	552.85
425.746	553.98
426.123	560.08
426.499	555.34
426.875	575
427.251	574.55
427.627	600.54
428.003	574.77
428.379	611.16
428.756	593.76
429.132	604.15
429.507	606.18
429.883	610.93
430.259	616.58
430.635	609.8
431.011	620.87
431.387	619.29
431.763	652.06
432.138	631.95
432.514	675.11
432.89	637.37
433.265	643.47
433.641	648.9
434.016	670.36
434.392	645.05
434.767	679.63
435.143	698.16
435.518	700.19
435.894	682.57
436.269	690.93
436.644	704.71
437.02	699.74
437.395	738.61
437.77	708.78
438.145	721.44
438.52	726.18
438.895	739.06
439.271	744.03
439.646	760.76
440.021	765.5
440.395	770.93
440.77	774.99
441.145	770.47
441.52	774.99
441.895	780.19
442.27	798.72
442.645	791.72
443.019	772.96
443.394	784.49
443.769	805.95
444.143	793.07
444.518	807.76
444.892	805.5
445.267	802.79
445.641	811.6
446.016	832.17
446.39	849.79
446.764	858.61
447.139	826.29
447.513	862
447.887	862.68
448.262	849.57
448.636	872.17
449.01	875.78
449.384	881.43
449.758	897.7
450.132	877.14
450.506	896.57
450.88	926.63
451.254	909.91
451.628	913.3
452.002	900.19
452.376	919.17
452.75	942.67
453.123	960.07
453.497	952.62
453.871	954.88
454.244	961.43
454.618	1001.65
454.992	985.84
455.365	993.52
455.739	995.33
456.112	998.49
456.486	1046.17
456.859	1059.28
457.232	1036.46
457.606	1068.77
457.979	1077.36
458.352	1094.31
458.725	1118.04
459.099	1097.92
459.472	1137.02
459.845	1113.29
460.218	1129.79
460.591	1156.9
460.964	1139.96
461.337	1196.23
461.71	1207.3
462.083	1209.11
462.456	1202.33
462.829	1251.37
463.201	1236.45
463.574	1244.81
463.947	1276
464.32	1282.78
464.692	1300.18
465.065	1339.05
465.438	1356
465.81	1360.52
466.183	1356
466.555	1417.91
466.928	1419.27
467.3	1449.78
467.672	1455.2
468.045	1489.1
468.417	1497.69
468.789	1498.82
469.161	1537.23
469.534	1567.52
469.906	1628.3
470.278	1621.75
470.65	1662.65
471.022	1660.85
471.394	1720.51
471.766	1728.87
472.138	1780.17
472.51	1795.53
472.882	1855.64
473.253	1871.46
473.625	1907.85
473.997	1940.16
474.369	1998.01
474.74	2064.23
475.112	2036.2
475.484	2126.82
475.855	2149.42
476.227	2174.73
476.598	2283.43
476.97	2280.94
477.341	2358.23
477.713	2394.84
478.084	2438.68
478.455	2499.92
478.827	2607.26
479.198	2655.4
479.569	2670.99
479.94	2807.48
480.311	2828.5
480.682	2900.36
481.053	2989.62
481.424	3094.71
481.795	3159.56
482.166	3233.91
482.537	3292.22
482.908	3407.01
483.279	3482.72
483.65	3567.01
484.021	3645.43
484.391	3756.16
484.762	3829.83
485.133	3873.44
485.503	4031.18
485.874	4151.18
486.244	4252.19
486.615	4318.86
486.985	4445.18
487.356	4521.34
487.726	4655.57
488.097	4804.04
488.467	4846.07
488.837	4943.47
489.207	5079.74
489.578	5218.49
489.948	5280.64
490.318	5409
490.688	5504.13
491.058	5690.12
491.428	5811.25
491.798	5928.98
492.168	6037.23
492.538	6134.17
492.908	6265.47
493.278	6370.78
493.648	6484.67
494.017	6629.53
494.387	6749.3
494.757	6833.14
495.126	6923.53
495.496	7051.89
495.866	7148.39
496.235	7284.88
496.605	7387.25
496.974	7482.39
497.344	7554.7
497.713	7695.26
498.082	7767.58
498.452	7900.23
498.821	7993.56
499.19	8042.83
499.559	8178.41
499.928	8265.64
500.298	8323.5
500.667	8396.94
501.036	8484.17
501.405	8610.04
501.774	8608.91
502.143	8749.93
502.512	8844.84
502.88	8923.71
503.249	8953.76
503.618	9052.74
503.987	9191.5
504.356	9245.28
504.724	9310.59
505.093	9371.6
505.462	9464.71
505.83	9540.86
506.199	9673.97
506.567	9774.98
506.936	9709.22
507.304	9792.84
507.672	9896.11
508.041	9930.23
508.409	10083
508.777	10106.27
509.145	10143.79
509.514	10195.09
509.882	10280.51
510.25	10299.49
510.618	10363.44
510.986	10385.14
511.354	10437.34
511.722	10547.17
512.09	10692.93
512.458	10579.71
512.826	10716.43
513.193	10690.67
513.561	10722.75
513.929	10752.13
514.297	10924.11
514.664	10952.35
515.032	10996.65
515.4	11051.11
515.767	11059.7
516.135	11047.94
516.502	11047.04
516.869	11179.47
517.237	11224.44
517.604	11195.28
517.972	11233.02
518.339	11249.75
518.706	11274.15
519.073	11375.84
519.44	11330.42
519.808	11452.68
520.175	11387.82
520.542	11570.42
520.909	11532.23
521.276	11534.26
521.643	11658.32
522.009	11651.32
522.376	11684.54
522.743	11729.51
523.11	11782.84
523.477	11827.58
523.843	11877.07
524.21	11930.86
524.577	11929.73
524.943	11971.31
525.31	11990.07
525.676	12074.81
526.043	12038.43
526.409	12083.85
526.776	12125.2
527.142	12156.62
527.508	12155.49
527.874	12215.82
528.241	12167.69
528.607	12213.11
528.973	12274.13
529.339	12242.04
529.705	12285.2
530.071	12273.45
530.437	12307.8
530.803	12352.09
531.169	12301.7
531.535	12294.69
531.901	12296.5
532.267	12329.49
532.632	12331.53
532.998	12309.61
533.364	12336.5
533.73	12293.11
534.095	12385.08
534.461	12319.55
534.826	12349.83
535.192	12252.66
535.557	12332.2
535.923	12290.62
536.288	12247.23
536.653	12301.92
537.019	12135.82
537.384	12138.76
537.749	12220.57
538.114	12181.25
538.479	12164.07
538.845	12198.65
539.21	12045.21
539.575	12075.26
539.94	12072.1
540.305	12151.42
540.67	11946.68
541.034	12023.74
541.399	11994.59
541.764	11995.72
542.129	12071.19
542.494	11935.38
542.858	11935.83
543.223	11909.84
543.587	11927.92
543.952	11900.35
544.316	11844.31
544.681	11783.74
545.045	11771.31
545.41	11831.2
545.774	11740.36
546.138	11696.29
546.503	11696.97
546.867	11577.87
547.231	11686.57
547.595	11636.63
547.959	11633.69
548.324	11569.51
548.688	11529.06
549.052	11545.11
549.416	11559.12
549.779	11506.46
550.143	11465.56
550.507	11518.44
550.871	11520.93
551.235	11452
551.599	11483.86
551.962	11354.15
552.326	11473.24
552.689	11410.42
553.053	11377.2
553.417	11292.01
553.78	11479.12
554.143	11323.19
554.507	11285.23
554.87	11420.59
555.234	11454.94
555.597	11265.11
555.96	11293.59
556.323	11292.91
556.686	11329.97
557.05	11313.25
557.413	11276.64
557.776	11210.65
558.139	11322.29
558.502	11284.32
558.865	11222.85
559.228	11212.46
559.59	11214.04
559.953	11256.75
560.316	11353.47
560.679	11332.46
561.041	11352.12
561.404	11357.54
561.767	11347.15
562.129	11299.01
562.492	11476.41
562.854	11396.18
563.217	11397.54
563.579	11327.94
563.941	11384.21
564.304	11336.52
564.666	11388.05
565.028	11375.84
565.39	11371.55
565.753	11571.77
566.115	11489.97
566.477	11492.23
566.839	11423.53
567.201	11555.5
567.563	11510.08
567.925	11577.65
568.287	11587.59
568.648	11479.57
569.01	11582.62
569.372	11693.8
569.734	11539.46
570.095	11664.65
570.457	11682.5
570.819	11688.61
571.18	11636.4
571.542	11650.64
571.903	11721.15
572.265	11663.07
572.626	11704.65
572.987	11748.26
573.349	11713.01
573.71	11680.47
574.071	11765.89
574.432	11787.81
574.794	11875.49
575.155	11803.18
575.516	11729.28
575.877	11782.39
576.238	11842.5
576.599	11813.8
576.96	11796.4
577.32	11818.55
577.681	11877.07
578.042	11863.52
578.403	11881.37
578.763	11912.1
579.124	11886.11
579.485	11900.58
579.845	11960.91
580.206	11942.38
580.566	11861.26
580.927	11888.6
581.287	11892.44
581.648	11869.84
582.008	11821.26
582.368	11867.58
582.728	11921.37
583.089	11857.64
583.449	11829.62
583.809	11916.62
584.169	11811.31
584.529	11829.39
584.889	11898.54
585.249	11812.22
585.609	11740.81
585.969	11832.33
586.329	11768.83
586.688	11811.99
587.048	11817.64
587.408	11777.64
587.768	11751.2
588.127	11774.48
588.487	11767.93
588.846	11840.69
589.206	11600.92
589.565	11760.24
589.925	11844.76
590.284	11650.87
590.643	11681.15
591.003	11773.57
591.362	11799.56
591.721	11729.28
592.08	11767.7
592.44	11664.2
592.799	11663.52
593.158	11687.48
593.517	11751.65
593.876	11727.02
594.235	11677.98
594.593	11681.83
594.952	11690.41
595.311	11706.23
595.67	11643.86
596.029	11779.45
596.387	11691.77
596.746	11756.17
597.104	11704.2
597.463	11648.61
597.822	11677.98
598.18	11619.91
598.538	11715.05
598.897	11628.95
599.255	11547.82
599.613	11691.32
599.972	11651.32
600.33	11594.14
600.688	11557.54
601.046	11687.7
601.404	11692.22
601.762	11566.57
602.12	11659.45
602.478	11661.04
602.836	11596.63
603.194	11631.66
603.552	11741.26
603.91	11557.31
604.268	11696.97
604.625	11627.14
604.983	11642.05
605.341	11524.99
605.698	11717.76
606.056	11671.88
606.413	11706.91
606.771	11661.49
607.128	11757.76
607.485	11632.56
607.843	11751.88
608.2	11681.83
608.557	11736.74
608.914	11636.63
609.272	11793.24
609.629	11769.73
609.986	11817.87
610.343	11730.41
610.7	11813.35
611.057	11815.61
611.414	11761.82
611.771	11750.3
612.127	11868.49
612.484	11829.17
612.841	11900.58
613.198	11785.78
613.554	11782.16
613.911	11943.74
614.267	11911.42
614.624	11828.71
614.98	11865.55
615.337	12000.01
615.693	11907.58
616.05	11908.94
616.406	11999.56
616.762	11889.05
617.118	11874.36
617.475	11908.49
617.831	11958.2
618.187	12016.96
618.543	11991.87
618.899	12054.02
619.255	12034.81
619.611	12006.34
619.967	12104.19
620.323	12022.38
620.678	12029.39
621.034	11947.81
621.39	11949.62
621.746	12013.12
622.101	12159.78
622.457	11987.13
622.812	12065.77
623.168	12058.54
623.523	12060.12
623.879	12063.06
624.234	11971.31
624.589	12030.52
624.945	12000.91
625.3	12065.09
625.655	12124.07
626.01	12030.29
626.365	12011.76
626.72	12016.51
627.075	12004.53
627.43	12029.16
627.785	12028.26
628.14	12010.86
628.495	11936.06
628.85	12048.6
629.205	11928.37
629.559	12041.82
629.914	11931.54
630.269	11959.56
630.623	11934.47
630.978	11900.8
631.332	11948.49
631.687	11933.8
632.041	11843.4
632.396	11886.57
632.75	11909.62
633.104	11877.07
633.459	11812.67
633.813	11804.99
634.167	11871.43
634.521	11817.64
634.875	11844.76
635.229	11769.51
635.583	11758.89
635.937	11769.28
636.291	11691.09
636.645	11743.97
636.999	11709.85
637.352	11734.93
637.706	11685.67
638.06	11727.25
638.413	11630.75
638.767	11723.63
639.121	11709.85
639.474	11592.34
639.828	11641.37
640.181	11681.6
640.534	11664.2
640.888	11593.69
641.241	11446.35
641.594	11585.1
641.947	11647.48
642.301	11535.61
642.654	11449.29
643.007	11461.72
643.36	11536.52
643.713	11498.1
644.066	11553.92
644.419	11406.8
644.771	11375.84
645.124	11277.99
645.477	11258.11
645.83	11237.09
646.182	11176.08
646.535	11103.08
646.888	11222.63
647.24	11132.01
647.593	11160.03
647.945	11096.08
648.298	11099.47
648.65	11080.26
649.002	11084.78
649.355	11058.34
649.707	11051.56
650.059	11109.64
650.411	11238.45
650.763	11281.61
651.115	11451.1
651.467	11358.9
651.819	11330.87
652.171	11234.15
652.523	11275.96
652.875	11320.71
653.227	11296.53
653.578	11370.65
653.93	11339.69
654.282	11292.01
654.633	11317.32
654.985	11274.15
655.337	11369.74
655.688	11339.91
656.039	11395.51
656.391	11254.72
656.742	11361.16
657.094	11315.51
657.445	11264.21
657.796	11331.78
658.147	11223.98
658.498	11265.79
658.849	11227.15
659.2	11223.53
659.551	11289.29
659.902	11278.9
660.253	11300.82
660.604	11347.82
660.955	11245.45
661.306	11280.03
661.656	11287.94
662.007	11254.94
662.358	11261.27
662.708	11261.27
663.059	11319.58
663.409	11225.57
663.76	11336.07
664.11	11292.68
664.461	11365.22
664.811	11360.25
665.161	11370.2
665.511	11346.24
665.862	11340.59
666.212	11407.48
666.562	11407.48
666.912	11301.95
667.262	11376.52
667.612	11363.64
667.962	11409.06
668.312	11342.4
668.662	11409.97
669.011	11349.86
669.361	11316.64
669.711	11340.82
670.06	11323.87
670.41	11299.69
670.76	11308.28
671.109	11270.76
671.459	11277.32
671.808	11311.67
672.157	11264.44
672.507	11227.15
672.856	11213.59
673.205	11173.14
673.554	11236.64
673.904	11226.24
674.253	11291.78
674.602	11155.29
674.951	11029.19
675.3	10991
675.649	11175.85
675.998	11195.51
676.346	11172.91
676.695	11216.08
677.044	11107.6
677.393	11138.34
677.741	11173.36
678.09	11160.26
678.438	11086.36
678.787	11117.32
679.135	11017.89
679.484	11014.27
679.832	11052.01
680.181	11043.42
680.529	11048.4
680.877	11021.28
681.225	10965.69
681.573	11005.46
681.922	10984.89
682.27	10929.08
682.618	10845.46
682.966	10909.87
683.314	10936.08
683.661	10847.72
684.009	10794.17
684.357	10727.05
684.705	10702.42
685.053	10768.4
685.4	10697.44
685.748	10657.67
686.095	10714.39
686.443	10647.95
686.79	10644.79
687.138	10643.66
687.485	10595.75
687.832	10600.27
688.18	10638.24
688.527	10493.38
688.874	10540.39
689.221	10478.92
689.568	10385.14
689.915	10382.65
690.262	10444.12
690.609	10370.9
690.956	10353.05
691.303	10317.12
691.65	10317.57
691.997	10248.19
692.344	10172.26
692.69	10210
693.037	10143.33
693.383	10109.66
693.73	10161.41
694.077	10094.52
694.423	10066.05
694.769	9979.27
695.116	9991.02
695.462	9923.68
695.808	9922.1
696.155	9918.71
696.501	9810.24
696.847	9786.28
697.193	9797.58
697.539	9802.78
697.885	9663.12
698.231	9694.08
698.577	9689.11
698.923	9692.5
699.269	9630.58
699.614	9519.85
699.96	9520.98
700.306	9507.65
700.651	9404.6
700.997	9445.95
701.342	9436.46
701.688	9353.98
702.033	9386.29
702.379	9293.41
702.724	9245.96
703.069	9346.75
703.415	9182
703.76	9254.09
704.105	9189.46
704.45	9147.65
704.795	9062.01
705.14	9041.9
705.485	9024.27
705.83	9001.44
706.175	8977.26
706.52	8999.18
706.865	8946.08
707.209	8923.93
707.554	8922.12
707.899	8865.4
708.243	8822.92
708.588	8797.61
708.932	8779.3
709.277	8760.09
709.621	8766.42
709.966	8660.89
710.31	8725.75
710.654	8630.61
710.998	8616.6
711.342	8626.31
711.687	8660.21
712.031	8608.23
712.375	8559.87
712.719	8541.12
713.063	8586.54
713.407	8604.17
713.75	8505.19
714.094	8476.49
714.438	8424.51
714.782	8495.24
715.125	8462.02
715.469	8447.56
715.812	8393.78
716.156	8406.43
716.499	8371.63
716.843	8369.6
717.186	8342.93
717.53	8393.1
717.873	8306.77
718.216	8322.82
718.559	8294.57
718.902	8217.74
719.246	8263.61
719.589	8210.73
719.932	8218.64
720.275	8195.82
720.617	8252.54
720.96	8253.44
721.303	8183.61
721.646	8197.17
721.989	8164.63
722.331	8178.41
722.674	8181.58
723.016	8214.12
723.359	8171.86
723.701	8108.81
724.044	8114.24
724.386	8096.84
724.729	8082.82
725.071	8092.32
725.413	8133.22
725.755	8124.41
726.097	8057.74
726.439	8102.03
726.782	8084.41
727.124	8076.5
727.465	7999.89
727.807	8063.16
728.149	8030.85
728.491	8060.9
728.833	7994.01
729.175	8001.92
729.516	7987.91
729.858	8074.69
730.199	8026.78
730.541	8003.73
730.882	7941.36
731.224	7922.15
731.565	7969.15
731.906	8033.79
732.248	8009.15
732.589	7921.02
732.93	7900.23
733.271	7977.74
733.612	7974.8
733.953	7914.47
734.294	7889.38
734.635	7920.12
734.976	8005.76
735.317	7927.57
735.658	7994.01
735.999	7969.61
736.339	7965.09
736.68	7965.54
737.021	7989.27
737.361	7884.86
737.702	7983.62
738.042	7980.91
738.383	7967.35
738.723	7968.93
739.063	7954.47
739.404	8000.57
739.744	7990.17
740.084	7935.03
740.424	8006.89
740.764	8021.36
741.104	8030.62
741.444	7991.98
741.784	7995.14
742.124	7967.35
742.464	7965.09
742.804	8017.74
743.143	8053.45
743.483	8074.01
743.823	8035.59
744.162	8031.53
744.502	8090.51
744.841	8098.19
745.181	8205.08
745.52	8128.02
745.86	8220.22
746.199	8215.25
746.538	8330.05
746.877	8340.44
747.216	8356.49
747.556	8385.42
747.895	8397.62
748.234	8372.31
748.573	8475.58
748.911	8544.06
749.25	8553.09
749.589	8621.79
749.928	8664.5
750.267	8750.6
750.605	8815.46
750.944	8869.47
751.283	8845.29
751.621	8993.99
751.96	8964.61
752.298	9094.32
752.636	9209.8
752.975	9262.23
753.313	9302
753.651	9472.62
753.989	9448.89
754.327	9525.27
754.666	9623.57
755.004	9785.83
755.342	9772.27
755.679	9972.72
756.017	10011.36
756.355	10256.55
756.693	10246.16
757.031	10403.22
757.368	10517.56
757.706	10675.52
758.044	10726.37
758.381	10866.48
758.719	10921.17
759.056	11125.68
759.394	11195.51
759.731	11298.78
760.068	11466.24
760.405	11596.86
760.743	11743.74
761.08	11888.83
761.417	11905.77
761.754	12189.16
762.091	12282.26
762.428	12401.35
762.765	12449.26
763.102	12659.43
763.438	12782.59
763.775	12879.99
764.112	13029.36
764.449	13201.56
764.785	13334.21
765.122	13352.52
765.458	13431.61
765.795	13643.58
766.131	13732.39
766.467	13851.71
766.804	13980.75
767.14	14005.83
767.476	14132.83
767.812	14271.36
768.148	14466.39
768.485	14398.36
768.821	14526.95
769.157	14751.12
769.492	14773.72
769.828	14867.28
770.164	14892.59
770.5	15006.94
770.836	15154.73
771.171	15112.92
771.507	15291.22
771.842	15281.05
772.178	15375.97
772.513	15474.95
772.849	15493.02
773.184	15537.54
773.519	15542.06
773.855	15660.93
774.19	15725.34
774.525	15790.87
774.86	15882.17
775.195	15888.49
775.53	16002.84
775.865	15925.78
776.2	15896.86
776.535	15877.65
776.87	15970.07
777.205	16090.52
777.539	16087.81
777.874	16152.89
778.209	16073.8
778.543	16047.36
778.878	16090.98
779.212	16229.05
779.547	16100.92
779.881	16155.83
780.215	16149.73
780.55	16206.9
780.884	16240.8
781.218	16179.79
781.552	16259.78
781.886	16180.69
782.22	16193.35
782.554	16137.08
782.888	16134.82
783.222	16114.7
783.556	16074.48
783.889	16067.92
784.223	16028.15
784.557	16047.36
784.89	16043.07
785.224	16127.36
785.557	15946.35
785.891	16027.02
786.224	15987.93
786.558	16031.09
786.891	15919.45
787.224	15904.09
787.557	15813.24
787.891	15874.71
788.224	15863.18
788.557	15883.75
788.89	15953.58
789.223	15855.5
789.556	15749.29
789.888	15754.49
790.221	15729.18
790.554	15576.64
790.887	15650.08
791.219	15578.45
791.552	15696.18
791.884	15559.92
792.217	15600.14
792.549	15546.13
792.882	15369.41
793.214	15412.8
793.546	15485.12
793.879	15350.43
794.211	15288.74
794.543	15292.58
794.875	15279.7
795.207	15319.02
795.539	15195.86
795.871	15248.06
796.203	15160.15
796.535	15102.07
796.867	15026.82
797.198	15044.9
797.53	15033.6
797.862	14964.23
798.193	14934.85
798.525	14911.57
798.856	14923.32
799.188	14790.9
799.519	14831.35
799.85	14727.4
800.182	14717.68
800.513	14733.04
800.844	14566.5
801.175	14668.64
801.506	14710.45
801.837	14621.64
802.168	14554.97
802.499	14531.24
802.83	14454.86
803.161	14481.98
803.491	14361.53
803.822	14428.87
804.153	14328.54
804.483	14218.93
804.814	14187.07
805.145	14187.07
805.475	14223.23
805.805	14205.38
806.136	14193.4
806.466	14171.25
806.796	14140.97
807.126	14067.3
807.457	13981.65
807.787	13993.18
808.117	13857.81
808.447	13907.76
808.777	13891.26
809.107	13901.2
809.436	13787.53
809.766	13691.26
810.096	13791.37
810.426	13724.26
810.755	13751.38
811.085	13731.94
811.414	13683.13
811.744	13474.32
812.073	13552.28
812.403	13547.77
812.732	13467.99
813.061	13475.22
813.39	13444.72
813.719	13431.61
814.049	13512.29
814.378	13409.92
814.707	13351.84
815.036	13282.01
815.365	13284.95
815.693	13140.77
816.022	13305.29
816.351	13239.07
816.68	13053.77
817.008	13136.25
817.337	13037.95
817.665	13050.6
817.994	13026.65
818.322	13058.06
818.651	12933.09
818.979	12912.75
819.307	12998.85
819.636	12955.01
819.964	12913.66
820.292	12939.65
820.62	12881.12
820.948	12852.42
821.276	12883.83
821.604	12879.31
821.932	12925.63
822.259	12917.95
822.587	12902.13
822.915	12846.31
823.243	12933.77
823.57	12822.59
823.898	12829.82
824.225	12784.85
824.553	12863.94
824.88	12812.87
825.207	12942.81
825.535	12836.15
825.862	12870.27
826.189	12885.18
826.516	12896.48
826.843	12955.01
827.17	12905.97
827.497	12883.38
827.824	12903.04
828.151	12931.51
828.478	12883.15
828.805	12955.24
829.131	12791.63
829.458	12911.62
829.785	12742.14
830.111	12817.16
830.438	12937.16
830.764	12813.77
831.09	12892.64
831.417	12858.74
831.743	12838.41
832.069	12796.82
832.395	12772.42
832.722	12844.73
833.048	12838.18
833.374	12834.79
833.7	12718.18
834.026	12727.67
834.351	12778.07
834.677	12733.78
835.003	12715.24
835.329	12781.91
835.654	12709.14
835.98	12598.86
836.306	12732.19
836.631	12632.99
836.956	12631.41
837.282	12640.44
837.607	12590.73
837.932	12593.89
838.258	12564.74
838.583	12534.23
838.908	12530.62
839.233	12572.88
839.558	12498.75
839.883	12505.53
840.208	12401.81
840.533	12487.45
840.858	12440.9
841.182	12477.74
841.507	12338.08
841.832	12338.08
842.156	12293.33
842.481	12362.94
842.805	12303.28
843.13	12237.29
843.454	12242.94
843.778	12154.58
844.103	12195.03
844.427	12055.83
844.751	12084.53
845.075	12091.08
845.399	12049.27
845.723	11934.25
846.047	12013.79
846.371	11917.53
846.695	11921.37
847.019	11810.64
847.343	11811.54
847.666	11684.31
847.99	11617.42
848.313	11685.67
848.637	11528.16
848.96	11531.32
849.284	11601.6
849.607	11436.63
849.931	11498.55
850.254	11359.8
850.577	11339.24
850.9	11264.89
851.223	11231.67
851.546	11127.94
851.869	11127.49
852.192	11153.7
852.515	10987.61
852.838	10989.41
853.161	10977.89
853.483	10970.43
853.806	10922.52
854.129	10858.8
854.451	10798.68
854.774	10749.42
855.096	10827.61
855.419	10693.83
855.741	10823.09
856.063	10623.32
856.385	10614.51
856.708	10489.09
857.03	10493.61
857.352	10518.69
857.674	10467.39
857.996	10558.01
858.318	10420.84
858.64	10435.3
858.961	10380.39
859.283	10400.05
859.605	10247.74
859.926	10312.37
860.248	10298.59
860.57	10231.24
860.891	10200.96
861.212	10154.63
861.534	10167.52
861.855	10097.46
862.176	10134.52
862.498	10082.09
862.819	10096.1
863.14	10048.65
863.461	10046.16
863.782	9976.33
864.103	9931.59
864.424	9936.11
864.745	9992.15
865.065	9984.7
865.386	9866.28
865.707	9834.87
866.027	9919.84
866.348	9906.28
866.668	9866.05
866.989	9816.11
867.309	9755.55
867.63	9799.84
867.95	9818.37
868.27	9778.15
868.59	9660.41
868.91	9704.25
869.23	9765.94
869.55	9665.38
869.87	9738.15
870.19	9682.1
870.51	9735.66
870.83	9696.57
871.15	9612.5
871.469	9596.46
871.789	9621.09
872.109	9654.31
872.428	9566.63
872.748	9593.07
873.067	9589.23
873.386	9602.33
873.706	9551.94
874.025	9464.93
874.344	9488.89
874.663	9456.35
874.982	9459.29
875.301	9454.31
875.62	9345.16
875.939	9364.15
876.258	9416.35
876.577	9342.23
876.896	9277.14
877.214	9337.48
877.533	9384.94
877.852	9339.97
878.17	9332.28
878.489	9352.17
878.807	9260.42
879.125	9255.22
879.444	9243.25
879.762	9253.19
880.08	9212.96
880.398	9135.23
880.716	9147.43
881.034	9140.2
881.352	9138.84
881.67	9094.77
881.988	9146.3
882.306	9032.4
882.624	9074.21
882.941	8982.69
883.259	9032.63
883.577	9035.57
883.894	8972.29
884.212	8957.83
884.529	8934.78
884.846	8892.07
885.164	8878.74
885.481	8866.08
885.798	8880.77
886.115	8778.85
886.432	8875.35
886.75	8760.09
887.067	8731.39
887.383	8795.8
887.7	8752.41
888.017	8734.78
888.334	8714.45
888.651	8680.77
888.967	8589.93
889.284	8612.98
889.6	8616.6
889.917	8568.01
890.233	8551.96
890.55	8555.13
890.866	8512.42
891.182	8535.69
891.498	8394.45
891.815	8442.14
892.131	8334.79
892.447	8367.79
892.763	8359.2
893.079	8274.68
893.395	8266.32
893.71	8210.5
894.026	8225.87
894.342	8249.83
894.657	8102.94
894.973	8150.17
895.289	8136.38
895.604	8196.72
895.92	8034.92
896.235	7999.21
896.55	8065.42
896.865	8051.19
897.181	8026.1
897.496	7934.35
897.811	7985.88
898.126	7956.05
898.441	7902.04
898.756	7870.85
899.071	7830.18
899.386	7791.53
899.7	7695.49
900.015	7739.56
900.33	7711.76
900.644	7673.12
900.959	7636.06
901.273	7536.85
901.588	7603.51
901.902	7503.4
902.216	7467.93
902.531	7516.51
902.845	7441.71
903.159	7455.95
903.473	7363.75
903.787	7337.31
904.101	7361.49
904.415	7336.4
904.729	7290.53
905.042	7228.38
905.356	7185.22
905.67	7239
905.984	7154.04
906.297	7144.54
906.611	7146.13
906.924	7073.59
907.237	7079.91
907.551	7072.23
907.864	7008.28
908.177	6993.81
908.491	6977.99
908.804	6952.01
909.117	6909.07
909.43	6942.06
909.743	6834.5
910.056	6763.54
910.368	6779.58
910.681	6807.15
910.994	6761.05
911.307	6771.67
911.619	6653.71
911.932	6715.18
912.244	6627.5
912.557	6597.89
912.869	6562.41
913.181	6542.3
913.494	6595.86
913.806	6539.14
914.118	6457.78
914.43	6416.88
914.742	6464.34
915.054	6395.18
915.366	6382.98
915.678	6384.79
915.99	6293.94
916.302	6242.42
916.613	6271.57
916.925	6265.24
917.236	6236.55
917.548	6219.37
917.859	6209.43
918.171	6168.3
918.482	6131.24
918.794	6148.86
919.105	6099.37
919.416	6081.52
919.727	6041.97
920.038	6008.3
920.349	5941.86
920.66	5942.32
920.971	5927.63
921.282	5856.22
921.593	5822.54
921.903	5873.62
922.214	5853.5
922.525	5819.61
922.835	5769.44
923.146	5773.51
923.456	5728.08
923.767	5701.87
924.077	5697.58
924.387	5698.25
924.697	5673.85
925.008	5674.07
925.318	5650.57
925.628	5635.2
925.938	5559.5
926.248	5496.45
926.558	5484.02
926.867	5488.54
927.177	5419.62
927.487	5456
927.796	5401.31
928.106	5412.61
928.416	5389.79
928.725	5357.47
929.034	5369
929.344	5343.01
929.653	5312.28
929.962	5226.63
930.271	5265.27
930.581	5226.85
930.89	5152.51
931.199	5153.41
931.508	5145.27
931.817	5192.28
932.125	5152.28
932.434	5122.9
932.743	5117.03
933.051	5036.35
933.36	4998.16
933.669	5010.59
933.977	4957.71
934.286	4956.35
934.594	4998.84
934.902	4915.45
935.21	4907.77
935.519	4884.94
935.827	4862.57
936.135	4908.22
936.443	4784.15
936.751	4832.51
937.059	4796.81
937.367	4780.09
937.674	4762.46
937.982	4742.8
938.29	4741.9
938.597	4741.67
938.905	4644.27
939.213	4627.55
939.52	4615.34
939.827	4626.64
940.135	4589.36
940.442	4552.52
940.749	4580.77
941.056	4585.06
941.363	4494.9
941.67	4520.88
941.977	4455.35
942.284	4467.33
942.591	4471.85
942.898	4398.18
943.205	4417.61
943.511	4399.76
943.818	4404.28
944.125	4342.58
944.431	4341.23
944.738	4330.15
945.044	4307.56
945.35	4266.2
945.657	4258.52
945.963	4235.02
946.269	4241.12
946.575	4174
946.881	4176.49
947.187	4160.89
947.493	4166.09
947.799	4132.19
948.105	4128.58
948.41	4131.74
948.716	4108.01
949.022	4097.17
949.327	4040.9
949.633	4041.8
949.938	4028.47
950.244	4003.84
950.549	3993.44
950.854	3965.19
951.16	3951.86
951.465	3872.54
951.77	3916.15
952.075	3891.07
952.38	3917.51
952.685	3889.49
952.99	3814.91
953.294	3802.03
953.599	3809.04
953.904	3790.96
954.209	3796.38
954.513	3782.15
954.818	3767.01
955.122	3731.98
955.426	3733.56
955.731	3733.11
956.035	3704.86
956.339	3663.51
956.643	3648.82
956.948	3645.65
957.252	3622.6
957.556	3656.5
957.86	3610.85
958.163	3603.39
958.467	3564.07
958.771	3579.89
959.075	3564.98
959.378	3543.51
959.682	3518.42
959.985	3525.2
960.289	3479.78
960.592	3496.96
960.896	3472.78
961.199	3467.35
961.502	3434.58
961.805	3444.75
962.108	3422.61
962.411	3400.69
962.714	3335.6
963.017	3311.2
963.32	3330.86
963.623	3331.54
963.926	3292.89
964.228	3297.19
964.531	3282.27
964.833	3287.47
965.136	3234.59
965.438	3183.52
965.741	3185.1
966.043	3226.45
966.345	3201.82
966.648	3178.77
966.95	3172.9
967.252	3144.65
967.554	3168.83
967.856	3130.64
968.158	3111.43
968.46	3110.53
968.761	3106.91
969.063	3048.15
969.365	3077.31
969.666	3076.4
969.968	3012.68
970.269	3022.84
970.571	2994.14
970.872	3009.51
971.174	2964.09
971.475	2964.54
971.776	2925.9
972.077	2923.64
972.378	2950.76
972.679	2907.14
972.98	2888.84
973.281	2886.8
973.582	2890.19
973.883	2899.68
974.183	2849.74
974.484	2843.19
974.785	2871.66
975.085	2796.41
975.386	2844.09
975.686	2808.61
975.986	2792.57
976.287	2781.72
976.587	2729.29
976.887	2724.32
977.187	2725.9
977.487	2722.74
977.787	2695.17
978.087	2669.63
978.387	2674.38
978.687	2691.33
978.987	2617.66
979.286	2635.28
979.586	2652.23
979.885	2609.97
980.185	2603.19
980.484	2588.05
980.784	2604.78
981.083	2596.64
981.382	2555.96
981.682	2570.88
981.981	2554.16
982.28	2534.04
982.579	2534.5
982.878	2495.85
983.177	2503.76
983.475	2495.4
983.774	2482.52
984.073	2466.25
984.372	2449.53
984.67	2465.34
984.969	2420.83
985.267	2441.84
985.566	2420.37
985.864	2419.24
986.162	2418.34
986.461	2380.6
986.759	2379.25
987.057	2359.36
987.355	2370.88
987.653	2365.01
987.951	2334.05
988.249	2330.89
988.547	2328.17
988.844	2299.02
989.142	2289.98
989.44	2314.61
989.737	2297.44
990.035	2276.42
990.332	2236.2
990.63	2223.32
990.927	2208.63
991.224	2239.59
991.521	2200.04
991.819	2166.37
992.116	2197.78
992.413	2175.18
992.71	2173.15
993.006	2160.95
993.303	2181.06
993.6	2159.36
993.897	2106.94
994.193	2123.21
994.49	2069.65
994.787	2122.75
995.083	2074.39
995.379	2067.62
995.676	2087.05
995.972	2005.02
996.268	2021.97
996.565	2049.31
996.861	2035.98
997.157	2014.06
997.453	2024
997.749	2029.2
998.044	1987.62
998.34	1951.46
998.636	1965.02
998.932	1982.42
999.227	1935.42
999.523	1954.62
999.818	1925.47
1000.114	1958.24
1000.409	1913.49
1000.704	1892.93
1001	1915.75
1001.295	1877.56
1001.59	1883.44
1001.885	1870.56
1002.18	1870.33
1002.475	1828.53
1002.77	1826.04
1003.065	1834.4
1003.359	1761.63
1003.654	1795.08
1003.949	1783.55
1004.243	1804.35
1004.538	1781.52
1004.832	1765.25
1005.127	1735.19
1005.421	1745.36
1005.715	1736.32
1006.009	1720.73
1006.304	1728.87
1006.598	1694.29
1006.892	1711.24
1007.186	1689.09
1007.48	1680.51
1007.773	1666.72
1008.067	1671.47
1008.361	1674.18
1008.655	1664.24
1008.948	1616.1
1009.242	1621.07
1009.535	1605.25
1009.829	1620.85
1010.122	1583.56
1010.415	1571.36
1010.708	1586.72
1011.001	1570.68
1011.295	1556.89
1011.588	1553.96
1011.881	1535.88
1012.173	1526.39
1012.466	1532.71
1012.759	1533.39
1013.052	1512.83
1013.344	1486.16
1013.637	1482.09
1013.93	1478.25
1014.222	1460.17
1014.514	1463.56
1014.807	1454.07
1015.099	1438.03
1015.391	1459.27
1015.683	1443.9
1015.976	1442.09
1016.268	1429.89
1016.56	1445.94
1016.851	1427.86
1017.143	1405.03
1017.435	1390.12
1017.727	1361.87
1018.018	1376.56
1018.31	1340.63
1018.602	1336.33
1018.893	1347.86
1019.185	1339.5
1019.476	1334.3
1019.767	1290.46
1020.058	1311.02
1020.35	1302.89
1020.641	1277.58
1020.932	1283.23
1021.223	1277.58
1021.514	1294.53
1021.804	1267.64
1022.095	1247.75
1022.386	1253.4
1022.677	1234.42
1022.967	1233.29
1023.258	1207.07
1023.548	1228.09
1023.839	1228.77
1024.129	1211.82
1024.419	1180.18
1024.709	1168.66
1025	1184.02
1025.29	1148.32
1025.58	1142.44
1025.87	1140.18
1026.16	1163.46
1026.449	1168.43
1026.739	1123.01
1027.029	1141.54
1027.319	1104.02
1027.608	1106.06
1027.898	1114.87
1028.187	1099.05
1028.477	1098.83
1028.766	1091.14
1029.055	1081.88
1029.344	1044.59
1029.634	1058.83
1029.923	1068.09
1030.212	1057.7
1030.501	1032.61
1030.79	1041.43
1031.078	1037.81
1031.367	1026.74
1031.656	1005.95
1031.945	1019.73
1032.233	987.64
1032.522	996.91
1032.81	992.39
1033.099	983.12
1033.387	987.87
1033.675	966.18
1033.963	978.38
1034.251	945.16
1034.54	958.27
1034.828	941.09
1035.116	930.02
1035.403	945.16
1035.691	912.62
1035.979	933.63
1036.267	916.91
1036.554	932.96
1036.842	912.62
1037.129	922.11
1037.417	923.92
1037.704	912.17
1037.992	892.5
1038.279	902.67
1038.566	863.13
1038.853	863.13
1039.14	863.13
