Data from hue_290_FLMS001491_00045.txt Node
Date: Tue Feb 07 15:52:47 GMT 2017
User: dcchb
Spectrometer: FLMS00149
Trigger mode: 0
Integration Time (sec): 2.000000E-2
Scans to average: 10
Electric dark correction enabled: true
Nonlinearity correction enabled: false
Boxcar width: 0
XAxis mode: Wavelengths
Number of Pixels in Spectrum: 2048
>>>>>Begin Spectral Data<<<<<
341.393	-17.37
341.776	-17.37
342.16	-17.37
342.543	-32.97
342.927	-75
343.31	-66.41
343.693	-65.05
344.077	-50.59
344.46	-56.69
344.843	-51.72
345.226	-55.56
345.61	-23.25
345.993	-23.7
346.376	0.48
346.759	2.06
347.142	-2.68
347.525	61.95
347.908	59.69
348.291	83.87
348.674	97.2
349.057	90.42
349.44	125.45
349.823	131.32
350.206	176.29
350.588	178.1
350.971	201.6
351.354	214.94
351.737	233.69
352.119	243.86
352.502	261.49
352.884	265.78
353.267	265.33
353.65	271.89
354.032	285.44
354.414	307.14
354.797	307.59
355.179	317.08
355.562	320.47
355.944	327.93
356.326	305.1
356.709	339.91
357.091	323.86
357.473	331.09
357.855	329.74
358.238	320.92
358.62	313.92
359.002	329.51
359.384	323.64
359.766	345.33
360.148	334.71
360.53	329.51
360.912	332
361.294	319.79
361.676	329.96
362.057	307.14
362.439	308.72
362.821	320.47
363.203	319.34
363.584	336.06
363.966	309.62
364.348	304.88
364.729	290.64
365.111	314.37
365.493	313.01
365.874	305.56
366.256	326.8
366.637	319.57
367.019	312.56
367.4	300.13
367.781	304.43
368.163	315.5
368.544	311.43
368.925	292.22
369.306	337.19
369.688	314.37
370.069	315.27
370.45	313.47
370.831	306.91
371.212	300.36
371.593	315.27
371.974	294.26
372.355	322.96
372.736	300.81
373.117	310.08
373.498	315.05
373.879	323.86
374.26	290.42
374.641	327.7
375.021	321.38
375.402	316.86
375.783	313.92
376.163	329.51
376.544	321.83
376.925	340.13
377.305	327.48
377.686	322.51
378.066	315.05
378.447	321.15
378.827	324.09
379.208	294.26
379.588	341.04
379.968	340.13
380.349	345.1
380.729	331.09
381.109	340.58
381.489	339.23
381.87	336.74
382.25	335.61
382.63	341.26
383.01	338.78
383.39	339
383.77	329.96
384.15	341.71
384.53	340.58
384.91	343.3
385.29	342.84
385.67	329.06
386.049	354.82
386.429	339.45
386.809	361.83
387.189	355.27
387.568	361.83
387.948	349.62
388.328	365.67
388.707	376.06
389.087	365.44
389.466	360.47
389.846	358.21
390.225	349.85
390.605	360.02
390.984	358.44
391.363	366.12
391.743	362.5
392.122	368.15
392.501	380.13
392.881	377.42
393.26	370.64
393.639	397.31
394.018	387.81
394.397	375.16
394.776	402.28
395.155	379.68
395.534	400.24
395.913	397.31
396.292	398.89
396.671	393.92
397.05	394.14
397.429	426.91
397.808	399.11
398.186	397.31
398.565	418.1
398.944	391.66
399.323	431.66
399.701	415.16
400.08	410.41
400.458	423.52
400.837	424.2
401.215	425.55
401.594	448.38
401.972	429.62
402.351	417.87
402.729	423.75
403.107	448.6
403.486	449.96
403.864	473.24
404.242	452.22
404.62	431.2
404.999	460.81
405.377	482.05
405.755	476.17
406.133	457.42
406.511	485.67
406.889	477.76
407.267	474.59
407.645	497.42
408.023	489.05
408.401	522.05
408.779	502.84
409.156	508.72
409.534	527.92
409.912	516.85
410.29	569.73
410.667	532.22
411.045	541.48
411.422	540.35
411.8	552.1
412.178	558.21
412.555	571.54
412.933	563.18
413.31	567.24
413.687	595.94
414.065	613.35
414.442	616.06
414.819	591.43
415.197	615.15
415.574	614.02
415.951	620.8
416.328	647.02
416.705	649.28
417.082	673.23
417.46	661.71
417.837	691.31
418.214	686.79
418.591	694.02
418.967	714.13
419.344	697.86
419.721	724.75
420.098	727.47
420.475	729.73
420.852	739.22
421.228	745.32
421.605	736.05
421.982	765.88
422.358	788.03
422.735	783.96
423.111	787.13
423.488	801.59
423.864	827.58
424.241	833.68
424.617	851.53
424.994	858.08
425.37	873.45
425.746	879.1
426.123	860.8
426.499	866.22
426.875	889.04
427.251	878.2
427.627	892.66
428.003	938.99
428.379	927.46
428.756	929.27
429.132	947.12
429.507	975.37
429.883	979.66
430.259	1000
430.635	1026.89
431.011	1001.81
431.387	1029.83
431.763	1010.4
432.138	1052.66
432.514	1070.51
432.89	1052.2
433.265	1119.55
433.641	1114.8
434.016	1102.15
434.392	1150.51
434.767	1160
435.143	1155.93
435.518	1187.79
435.894	1200.45
436.269	1194.57
436.644	1225.98
437.02	1249.94
437.395	1276.6
437.77	1246.78
438.145	1266.89
438.52	1307.34
438.895	1336.72
439.271	1287
439.646	1343.5
440.021	1343.27
440.395	1335.59
440.77	1315.93
441.145	1366.77
441.52	1409.93
441.895	1376.94
442.27	1399.77
442.645	1383.04
443.019	1422.14
443.394	1427.11
443.769	1431.4
444.143	1425.98
444.518	1443.15
444.892	1430.05
445.267	1429.6
445.641	1474.79
446.016	1448.35
446.39	1487.45
446.764	1494
447.139	1492.64
447.513	1483.83
447.887	1496.71
448.262	1514.11
448.636	1512.76
449.01	1525.19
449.384	1566.31
449.758	1553.89
450.132	1562.25
450.506	1569.48
450.88	1612.19
451.254	1582.59
451.628	1603.6
452.002	1624.17
452.376	1576.94
452.75	1646.54
453.123	1641.79
453.497	1664.84
453.871	1642.7
454.244	1674.56
454.618	1698.29
454.992	1723.82
455.365	1717.72
455.739	1757.04
456.112	1745.29
456.486	1776.25
456.859	1750.72
457.232	1816.25
457.606	1822.35
457.979	1797.72
458.352	1840.66
458.725	1862.8
459.099	1856.48
459.472	1867.78
459.845	1931.73
460.218	1926.76
460.591	1930.37
460.964	1938.73
461.337	1985.74
461.71	1976.47
462.083	2032.97
462.456	2030.26
462.829	2017.38
463.201	2054.21
463.574	2046.08
463.947	2107.77
464.32	2106.19
464.692	2088.56
465.065	2132.18
465.438	2137.15
465.81	2162.46
466.183	2190.48
466.555	2225.73
466.928	2237.26
467.3	2256.92
467.672	2267.77
468.045	2304.15
468.417	2330.81
468.789	2340.31
469.161	2312.74
469.534	2380.08
469.906	2378.5
470.278	2418.04
470.65	2426.63
471.022	2477.7
471.394	2554.76
471.766	2549.34
472.138	2575.55
472.51	2564.71
472.882	2631.6
473.253	2674.08
473.625	2688.77
473.997	2687.87
474.369	2742.78
474.74	2735.1
475.112	2817.13
475.484	2823.68
475.855	2838.15
476.227	2879.73
476.598	2948.65
476.97	2992.04
477.341	3027.52
477.713	3023.9
478.084	3005.6
478.455	3098.93
478.827	3115.2
479.198	3236.1
479.569	3225.25
479.94	3290.79
480.311	3285.82
480.682	3371.92
481.053	3431.58
481.424	3457.79
481.795	3448.98
482.166	3518.13
482.537	3537.34
482.908	3567.84
483.279	3619.59
483.65	3659.37
484.021	3739.36
484.391	3710.67
484.762	3823.66
485.133	3816.43
485.503	3860.49
485.874	3919.47
486.244	3957.21
486.615	3985.69
486.985	4013.26
487.356	4051.67
487.726	4135.51
488.097	4131.9
488.467	4170.54
488.837	4266.13
489.207	4290.08
489.578	4316.3
489.948	4357.43
490.318	4413.92
490.688	4446.69
491.058	4486.46
491.428	4523.75
491.798	4523.07
492.168	4621.38
492.538	4663.86
492.908	4669.74
493.278	4724.42
493.648	4690.53
494.017	4804.65
494.387	4814.36
494.757	4832.67
495.126	4905.66
495.496	4885.55
495.866	4903.85
496.235	4933.68
496.605	4975.49
496.974	5008.48
497.344	5019.33
497.713	5023.62
498.082	5076.28
498.452	5116.96
498.821	5105.88
499.19	5198.99
499.559	5203.73
499.928	5188.37
500.298	5230.17
500.667	5282.83
501.036	5248.25
501.405	5285.54
501.774	5303.62
502.143	5353.56
502.512	5340.68
502.88	5436.72
503.249	5429.49
503.618	5421.81
503.987	5443.5
504.356	5540
504.724	5461.35
505.093	5523.05
505.462	5559.2
505.83	5526.21
506.199	5608.24
506.567	5601.01
506.936	5608.24
507.304	5692.99
507.672	5679.65
508.041	5683.95
508.409	5766.43
508.777	5732.53
509.145	5819.99
509.514	5810.5
509.882	5817.05
510.25	5853.66
510.618	5871.74
510.986	5891.85
511.354	5868.57
511.722	5938.4
512.09	5980.66
512.458	5937.05
512.826	5993.09
513.193	6018.63
513.561	6022.47
513.929	6032.41
514.297	6094.78
514.664	6130.04
515.032	6159.41
515.4	6229.02
515.767	6175.46
516.135	6258.39
516.502	6154.89
516.869	6250.49
517.237	6264.04
517.604	6226.76
517.972	6340.88
518.339	6282.35
518.706	6343.36
519.073	6351.05
519.44	6394.66
519.808	6435.11
520.175	6391.72
520.542	6439.63
520.909	6516.24
521.276	6466.98
521.643	6491.38
522.009	6544.26
522.376	6614.09
522.743	6641.44
523.11	6663.13
523.477	6706.07
523.843	6768.66
524.21	6770.7
524.577	6805.05
524.943	6770.7
525.31	6868.1
525.676	6934.31
526.043	6954.2
526.409	7022.22
526.776	7008.43
527.142	7039.39
527.508	7024.48
527.874	7086.17
528.241	7126.85
528.607	7091.82
528.973	7242.32
529.339	7156.45
529.705	7267.18
530.071	7238.93
530.437	7296.11
530.803	7327.07
531.169	7326.62
531.535	7327.29
531.901	7377.91
532.267	7471.24
532.632	7481.19
532.998	7498.14
533.364	7582.2
533.73	7492.49
534.095	7606.38
534.461	7559.38
534.826	7611.81
535.192	7621.52
535.557	7662.88
535.923	7655.65
536.288	7725.02
536.653	7767.28
537.019	7743.1
537.384	7734.97
537.749	7792.59
538.114	7819.03
538.479	7781.74
538.845	7918.01
539.21	7863.1
539.575	7918.69
539.94	7891.35
540.305	7951.68
540.67	7964.11
541.034	7985.58
541.399	8041.4
541.764	8049.76
542.129	8015.64
542.494	8115.97
542.858	8090.44
543.223	8130.89
543.587	8158.68
543.952	8167.72
544.316	8205.69
544.681	8265.8
545.045	8205.91
545.41	8314.16
545.774	8289.75
546.138	8284.78
546.503	8334.72
546.867	8377.21
547.231	8414.72
547.595	8408.62
547.959	8425.34
548.324	8445.68
548.688	8412.91
549.052	8443.2
549.416	8456.76
549.779	8513.7
550.143	8508.73
550.507	8550.09
550.871	8555.96
551.235	8524.78
551.599	8586.92
551.962	8677.09
552.326	8663.76
552.689	8677.09
553.053	8651.1
553.417	8704.21
553.78	8782.85
554.143	8755.96
554.507	8750.98
554.87	8765
555.234	8849.06
555.597	8844.09
555.96	8848.61
556.323	8889.74
556.686	8903.3
557.05	8951.66
557.413	8906.46
557.776	8948.27
558.139	9000.24
558.502	8973.35
558.865	9074.59
559.228	9045.21
559.59	9088.6
559.953	9060.35
560.316	9136.51
560.679	9209.28
561.041	9222.84
561.404	9249.5
561.767	9273.23
562.129	9245.66
562.492	9368.37
562.854	9362.04
563.217	9388.03
563.579	9372.21
563.941	9416.96
564.304	9463.51
564.666	9481.13
565.028	9486.11
565.39	9533.56
565.753	9598.87
566.115	9603.39
566.477	9646.1
566.839	9640
567.201	9738.08
567.563	9758.19
567.925	9816.27
568.287	9844.97
568.648	9814.69
569.01	9866.89
569.372	9978.3
569.734	9877.28
570.095	9912.54
570.457	10049.71
570.819	10051.29
571.18	10039.31
571.542	10145.3
571.903	10130.84
572.265	10201.12
572.626	10254.45
572.987	10283.83
573.349	10250.38
573.71	10303.03
574.071	10367.21
574.432	10450.6
574.794	10521.56
575.155	10547.77
575.516	10530.6
575.877	10574.89
576.238	10617.15
576.599	10719.97
576.96	10745.73
577.32	10793.19
577.681	10864.83
578.042	10912.51
578.403	10910.7
578.763	11049.91
579.124	11126.97
579.485	11195.21
579.845	11265.49
580.206	11313.86
580.566	11337.13
580.927	11427.07
581.287	11567.41
581.648	11553.17
582.008	11667.52
582.368	11735.99
582.728	11881.75
583.089	11946.83
583.449	11984.12
583.809	12098.02
584.169	12186.83
584.529	12305.47
584.889	12497.55
585.249	12474.73
585.609	12561.96
585.969	12738
586.329	12837.43
586.688	12970.99
587.048	13188.38
587.408	13192
587.768	13301.15
588.127	13355.61
588.487	13469.73
588.846	13728.93
589.206	13761.7
589.565	13855.71
589.925	14094.8
590.284	14219.09
590.643	14430.61
591.003	14476.71
591.362	14711.73
591.721	14724.61
592.08	14983.82
592.44	15130.25
592.799	15262.23
593.158	15396.01
593.517	15469.9
593.876	15622.44
594.235	15700.41
594.593	15910.8
594.952	16024.47
595.311	16136.55
595.67	16322.76
596.029	16609.99
596.387	16645.92
596.746	16839.36
597.104	16865.12
597.463	16991.9
597.822	17115.96
598.18	17205.23
598.538	17319.57
598.897	17519.34
599.255	17500.36
599.613	17851.31
599.972	17866.45
600.33	18147.57
600.688	18094.92
601.046	18287.68
601.404	18375.14
601.762	18464.85
602.12	18639.09
602.478	18762.92
602.836	18812.64
603.194	18881.11
603.552	18945.07
603.91	19058.96
604.268	19159.07
604.625	19235.91
604.983	19329.24
605.341	19364.49
605.698	19473.19
606.056	19603.13
606.413	19714.99
606.771	19775.33
607.128	19958.6
607.485	19967.86
607.843	19958.15
608.2	20253.73
608.557	20326.05
608.914	20270.46
609.272	20446.95
609.629	20639.49
609.986	20651.69
610.343	20666.83
610.7	20866.37
611.057	20874.06
611.414	20927.61
611.771	21047.38
612.127	21156.76
612.484	21135.74
612.841	21282.41
613.198	21252.8
613.554	21341.61
613.911	21377.32
614.267	21488.28
614.624	21491.44
614.98	21594.94
615.337	21816.86
615.693	21764.88
616.05	21841.94
616.406	21951.54
616.762	21925.1
617.118	21945.67
617.475	21908.6
617.831	22022.5
618.187	22134.14
618.543	22166.45
618.899	22255.94
619.255	22264.98
619.611	22335.71
619.967	22394.02
620.323	22433.79
620.678	22542.94
621.034	22354.69
621.39	22476.27
621.746	22414.58
622.101	22760.79
622.457	22583.39
622.812	22719.88
623.168	22750.39
623.523	22763.95
623.879	22843.72
624.234	22634.24
624.589	22825.64
624.945	22874.91
625.3	22915.81
625.655	22939.54
626.01	22889.14
626.365	22921.46
626.72	22935.92
627.075	22982.93
627.43	22957.62
627.785	22902.48
628.14	22981.12
628.495	22925.53
628.85	22904.51
629.205	22927.11
629.559	23069.48
629.914	23018.18
630.269	23065.86
630.623	22909.26
630.978	22880.1
631.332	23060.21
631.687	23073.09
632.041	22944.28
632.396	23076.03
632.75	22971.85
633.104	23037.39
633.459	22758.07
633.813	22822.93
634.167	22974.79
634.521	22985.86
634.875	22920.1
635.229	22942.48
635.583	22840.78
635.937	22860.67
636.291	22828.13
636.645	22863.16
636.999	22859.99
637.352	22938.18
637.706	22731.18
638.06	22852.53
638.413	22799.88
638.767	22736.15
639.121	22771.41
639.474	22685.08
639.828	22728.7
640.181	22693.89
640.534	22742.71
640.888	22654.57
641.241	22551.3
641.594	22561.69
641.947	22675.14
642.301	22638.3
642.654	22715.59
643.007	22657.96
643.36	22613.9
643.713	22437.86
644.066	22653.22
644.419	22512.88
644.771	22382.72
645.124	22318.09
645.477	22124.42
645.83	22128.26
646.182	21951.32
646.535	21860.47
646.888	21882.84
647.24	21862.73
647.593	21951.99
647.945	21865.22
648.298	21728.27
648.65	21715.39
649.002	21682.17
649.355	21847.59
649.707	21865.67
650.059	21977.3
650.411	22230.86
650.763	22208.03
651.115	22532.54
651.467	22421.13
651.819	22417.97
652.171	22361.47
652.523	22396.5
652.875	22285.54
653.227	22240.8
653.578	22334.58
653.93	22380.91
654.282	22220.23
654.633	22159.22
654.985	22357.18
655.337	22372.32
655.688	22475.14
656.039	22299.55
656.391	22186.56
656.742	22324.64
657.094	22311.08
657.445	22411.64
657.796	22298.88
658.147	22336.39
658.498	22322.15
658.849	22379.55
659.2	22354.02
659.551	22324.86
659.902	22370.97
660.253	22341.14
660.604	22390.63
660.955	22321.93
661.306	22458.87
661.656	22377.52
662.007	22444.18
662.358	22286.67
662.708	22437.86
663.059	22431.08
663.409	22293
663.76	22449.61
664.11	22441.25
664.461	22518.53
664.811	22460.91
665.161	22358.99
665.511	22425.43
665.862	22386.11
666.212	22483.28
666.562	22515.14
666.912	22400.12
667.262	22395.6
667.612	22382.94
667.962	22397.18
668.312	22482.15
668.662	22529.61
669.011	22411.19
669.361	22447.57
669.711	22317.18
670.06	22391.53
670.41	22302.72
670.76	22262.72
671.109	22331.87
671.459	22338.2
671.808	22284.64
672.157	22307.01
672.507	22092.78
672.856	22170.52
673.205	22341.36
673.554	22294.13
673.904	22218.43
674.253	22324.41
674.602	22271.76
674.951	21929.62
675.3	21815.5
675.649	22192.44
675.998	22175.72
676.346	22107.47
676.695	22231.53
677.044	22000.81
677.393	22126.68
677.741	22121.03
678.09	22100.24
678.438	21853.01
678.787	22030.41
679.135	21921.26
679.484	21762.62
679.832	21893.01
680.181	21769.17
680.529	21752.22
680.877	21728.5
681.225	21734.15
681.573	21946.34
681.922	21629.74
682.27	21735.95
682.618	21671.55
682.966	21700.47
683.314	21668.61
683.661	21565.56
684.009	21503.87
684.357	21402.86
684.705	21404.44
685.053	21347.72
685.4	21424.1
685.748	21286.93
686.095	21253.25
686.443	21161.96
686.79	21116.08
687.138	21148.17
687.485	21148.62
687.832	21081.06
688.18	21086.25
688.527	20908.63
688.874	20928.74
689.221	20946.37
689.568	20764.23
689.915	20758.13
690.262	20747.28
690.609	20714.06
690.956	20527.62
691.303	20638.13
691.65	20439.94
691.997	20384.35
692.344	20389.55
692.69	20346.61
693.037	20268.2
693.383	20094.19
693.73	20152.49
694.077	20059.39
694.423	20020.07
694.769	19937.13
695.116	19902.33
695.462	19935.78
695.808	19737.59
696.155	19780.98
696.501	19673.86
696.847	19705.72
697.193	19385.28
697.539	19560.19
697.885	19382.57
698.231	19322.23
698.577	19301.89
698.923	19279.97
699.269	19122.69
699.614	19022.58
699.96	18957.5
700.306	18999.75
700.651	18875.24
700.997	18895.35
701.342	18804.05
701.688	18806.54
702.033	18678.18
702.379	18677.5
702.724	18583.95
703.069	18658.97
703.415	18437.96
703.76	18440.67
704.105	18409.94
704.45	18308.7
704.795	18202.49
705.14	18210.17
705.485	18169.27
705.83	18033.9
706.175	18014.02
706.52	18047.24
706.865	17914.59
707.209	17926.11
707.554	17792.1
707.899	17846.56
708.243	17781.03
708.588	17746
708.932	17606.12
709.277	17558.21
709.621	17608.6
709.966	17477.31
710.31	17444.99
710.654	17336.97
710.998	17378.33
711.342	17361.15
711.687	17272.12
712.031	17187.15
712.375	17092.69
712.719	17137.88
713.063	17093.82
713.407	17137.88
713.75	17005.46
714.094	17010.43
714.438	17038.45
714.782	16955.06
715.125	16927.04
715.469	17004.78
715.812	16915.97
716.156	16776.76
716.499	16737.44
716.843	16792.58
717.186	16742.86
717.53	16831.9
717.873	16781.51
718.216	16788.51
718.559	16633.94
718.902	16527.5
719.246	16584.9
719.589	16471.23
719.932	16532.25
720.275	16458.13
720.617	16495.87
720.96	16394.4
721.303	16402.08
721.646	16416.32
721.989	16240.28
722.331	16371.58
722.674	16356.21
723.016	16369.32
723.359	16271.69
723.701	16288.41
724.044	16218.81
724.386	16109.66
724.729	16244.35
725.071	16139.04
725.413	16143.33
725.755	16213.61
726.097	16120.51
726.439	16059.04
726.782	16053.84
727.124	16150.79
727.465	15982.88
727.807	16040.74
728.149	16008.65
728.491	15948.76
728.833	15977.69
729.175	15931.59
729.516	15921.19
729.858	15957.12
730.199	15997.57
730.541	15859.95
730.882	15853.4
731.224	15972.26
731.565	15807.75
731.906	15853.17
732.248	15900.63
732.589	15826.5
732.93	15775.88
733.271	15797.8
733.612	15810.01
733.953	15856.33
734.294	15729.78
734.635	15720.52
734.976	15767.75
735.317	15741.31
735.658	15777.69
735.999	15802.1
736.339	15732.04
736.68	15855.88
737.021	15774.3
737.361	15682.78
737.702	15825.37
738.042	15758.71
738.383	15854.07
738.723	15711.48
739.063	15852.27
739.404	15738.37
739.744	15752.83
740.084	15666.51
740.424	15825.37
740.764	15749.22
741.104	15791.25
741.444	15777.47
741.784	15811.59
742.124	15816.34
742.464	15777.92
742.804	15855.43
743.143	15880.29
743.483	15873.28
743.823	15773.62
744.162	15810.01
744.502	15910.12
744.841	15897.24
745.181	15971.59
745.52	15958.93
745.86	16094.75
746.199	15975.88
746.538	16140.39
746.877	16145.37
747.216	16183.56
747.556	16186.5
747.895	16235.99
748.234	16223.1
748.573	16282.31
748.911	16401.63
749.25	16550.78
749.589	16550.1
749.928	16613.15
750.267	16689.98
750.605	16665.8
750.944	16796.2
751.283	16757.33
751.621	16963.2
751.96	16932.46
752.298	17042.29
752.636	17210.42
752.975	17154.61
753.313	17212.91
753.651	17387.59
753.989	17413.81
754.327	17558.21
754.666	17615.84
755.004	17630.07
755.342	17846.79
755.679	17928.14
756.017	17992.1
756.355	18160
756.693	18192.32
757.031	18361.58
757.368	18387.12
757.706	18490.62
758.044	18628.92
758.381	18811.06
758.719	18835.01
759.056	18974.22
759.394	19047.66
759.731	19100.99
760.068	19173.54
760.405	19346.41
760.743	19431.38
761.08	19524.71
761.417	19513.19
761.754	19663.47
762.091	19887.19
762.428	19845.38
762.765	19907.3
763.102	20095.09
763.438	20137.13
763.775	20034.08
764.112	20239.04
764.449	20384.13
764.785	20440.17
765.122	20384.35
765.458	20504.8
765.795	20569.66
766.131	20600.84
766.467	20687.62
766.804	20713.61
767.14	20726.71
767.476	20781.63
767.812	20806.49
768.148	20897.33
768.485	20935.3
768.821	20863.43
769.157	21084.22
769.492	20933.04
769.828	20979.14
770.164	20977.1
770.5	20922.64
770.836	21142.98
771.171	21034.05
771.507	21114.05
771.842	20973.04
772.178	21078.34
772.513	21091.9
772.849	21033.83
773.184	20978.91
773.519	21079.47
773.855	21074.73
774.19	21081.96
774.525	21024.11
774.86	21007.61
775.195	21086.48
775.53	20980.27
775.865	21037.89
776.2	20905.92
776.535	20807.62
776.87	20906.37
777.205	20820.5
777.539	20816.43
777.874	20751.35
778.209	20771.01
778.543	20667.73
778.878	20555.42
779.212	20637.45
779.547	20591.8
779.881	20637.45
780.215	20535.99
780.55	20637.9
780.884	20495.76
781.218	20417.12
781.552	20445.82
781.886	20295.54
782.22	20317.69
782.554	20162.44
782.888	20152.04
783.222	20078.37
783.556	20048.31
783.889	20074.3
784.223	19954.98
784.557	19883.12
784.89	19910.92
785.224	19821.65
785.557	19684.48
785.891	19726.74
786.224	19663.69
786.558	19665.5
786.891	19426.64
787.224	19419.63
787.557	19524.49
787.891	19490.36
788.224	19328.33
788.557	19381.44
788.89	19315
789.223	19277.49
789.556	19243.14
789.888	19121.11
790.221	19033.2
790.554	18932.86
790.887	18968.12
791.219	18805.64
791.552	18751.4
791.884	18762.92
792.217	18753.89
792.549	18686.77
792.882	18560.44
793.214	18418.08
793.546	18498.98
793.879	18376.72
794.211	18293.11
794.543	18330.17
794.875	18256.5
795.207	18284.97
795.539	18173.79
795.871	18236.84
796.203	18044.98
796.535	17967.01
796.867	17913.46
797.198	17884.53
797.53	17874.81
797.862	17793.46
798.193	17845.89
798.525	17700.35
798.856	17718.88
799.188	17579.45
799.519	17546.69
799.85	17508.49
800.182	17381.49
800.513	17482.73
800.844	17367.71
801.175	17373.13
801.506	17295.84
801.837	17325.22
802.168	17125.23
802.499	17189.86
802.83	17094.04
803.161	17007.94
803.491	16974.72
803.822	17016.53
804.153	16888.17
804.483	16786.25
804.814	16765.01
805.145	16777.89
805.475	16788.29
805.805	16611.34
806.136	16642.53
806.466	16613.83
806.796	16582.87
807.126	16431.23
807.457	16455.41
807.787	16334.51
808.117	16292.93
808.447	16329.54
808.777	16325.93
809.107	16242.09
809.436	16213.84
809.766	16160.06
810.096	16092.71
810.426	15992.38
810.755	16018.82
811.085	15968.42
811.414	15884.13
811.744	15904.92
812.073	15837.8
812.403	15868.76
812.732	15740.63
813.061	15754.87
813.39	15682.78
813.719	15688.88
814.049	15736.79
814.378	15570.24
814.707	15496.12
815.036	15581.99
815.365	15452.5
815.693	15346.52
816.022	15371.15
816.351	15271.04
816.68	15250.47
817.008	15363.47
817.337	15215.45
817.665	15138.39
817.994	15160.31
818.322	15128.9
818.651	15066.3
818.979	15037.6
819.307	15029.01
819.636	15031.72
819.964	14999.86
820.292	14907.21
820.62	14975.91
820.948	14916.25
821.276	14963.93
821.604	14858.17
821.932	14940.2
822.259	14904.5
822.587	14910.37
822.915	14797.15
823.243	14870.15
823.57	14866.08
823.898	14860.65
824.225	14829.24
824.553	14816.59
824.88	14891.61
825.207	14956.02
825.535	14822.69
825.862	14821.33
826.189	14862.01
826.516	14915.57
826.843	14920.77
827.17	14852.07
827.497	14894.1
827.824	14875.12
828.151	14883.93
828.478	14908.11
828.805	15021.1
829.131	14840.54
829.458	14846.19
829.785	14809.58
830.111	14747.66
830.438	14916.47
830.764	14838.73
831.09	14892.29
831.417	14786.53
831.743	14840.77
832.069	14807.77
832.395	14713.31
832.722	14800.54
833.048	14735.46
833.374	14732.97
833.7	14723.26
834.026	14658.85
834.351	14750.6
834.677	14714.22
835.003	14709.47
835.329	14657.72
835.654	14582.47
835.98	14557.61
836.306	14608.68
836.631	14495.69
836.956	14575.69
837.282	14614.33
837.607	14533.43
837.932	14410.5
838.258	14484.39
838.583	14451.63
838.908	14372.08
839.233	14359.2
839.558	14348.35
839.883	14318.52
840.208	14323.49
840.533	14297.51
840.858	14225.42
841.182	14286.21
841.507	14262.03
841.832	14156.27
842.156	14137.28
842.481	14112.2
842.805	14142.48
843.13	14080.34
843.454	14036.72
843.778	13996.72
844.103	13985.42
844.427	13914.69
844.751	13952.2
845.075	13903.84
845.399	13852.77
845.723	13770.29
846.047	13730.51
846.371	13699.78
846.695	13661.14
847.019	13571.65
847.343	13490.97
847.666	13426.57
847.99	13423.63
848.313	13403.52
848.637	13295.5
848.96	13255.95
849.284	13142.28
849.607	13209.17
849.931	13143.64
850.254	13009.63
850.577	13000.59
850.9	12933.02
851.223	12781.39
851.546	12861.38
851.869	12640.6
852.192	12772.12
852.515	12671.56
852.838	12575.97
853.161	12656.42
853.483	12493.26
853.806	12464.33
854.129	12447.16
854.451	12439.7
854.774	12378.69
855.096	12250.1
855.419	12292.59
855.741	12221.4
856.063	12198.8
856.385	12176.21
856.708	12106.15
857.03	12107.28
857.352	12083.78
857.674	12008.75
857.996	12003.1
858.318	11902.77
858.64	11938.47
858.961	11918.58
859.283	11808.53
859.605	11811.02
859.926	11873.39
860.248	11745.03
860.57	11705.48
860.891	11693.51
861.212	11646.95
861.534	11645.82
861.855	11618.25
862.176	11673.62
862.498	11637.24
862.819	11604.47
863.14	11524.7
863.461	11558.59
863.782	11432.72
864.103	11483.12
864.424	11422.55
864.745	11483.12
865.065	11332.61
865.386	11304.14
865.707	11346.17
866.027	11261.43
866.348	11336.68
866.668	11325.15
866.989	11261.43
867.309	11210.58
867.63	11187.08
867.95	11118.61
868.27	11147.53
868.59	11153.86
868.91	11105.27
869.23	11100.53
869.55	11016.91
869.87	11085.39
870.19	11049.23
870.51	11030.47
870.83	11089.23
871.15	10962.68
871.469	11029.12
871.789	11003.58
872.109	10939.18
872.428	10858.73
872.748	10959.51
873.067	10943.02
873.386	10971.27
873.706	10833.19
874.025	10798.61
874.344	10829.8
874.663	10800.2
874.982	10823.02
875.301	10822.79
875.62	10677.26
875.939	10721.1
876.258	10708.67
876.577	10723.59
876.896	10735.79
877.214	10680.88
877.533	10634.1
877.852	10604.5
878.17	10640.65
878.489	10661.22
878.807	10609.01
879.125	10625.96
879.444	10595.68
879.762	10491.96
880.08	10505.51
880.398	10458.28
880.716	10594.55
881.034	10477.49
881.352	10408.57
881.67	10397.27
881.988	10470.04
882.306	10358.17
882.624	10406.76
882.941	10279.53
883.259	10294.45
883.577	10271.4
883.894	10255.58
884.212	10275.92
884.529	10296.03
884.846	10162.47
885.164	10137.84
885.481	10116.6
885.798	10104.4
886.115	10067.11
886.432	10082.25
886.75	10034.34
887.067	10049.93
887.383	9981.01
887.7	10015.81
888.017	9946.66
888.334	9872.54
888.651	9842.93
888.967	9887.68
889.284	9820.79
889.6	9815.59
889.917	9783.73
890.233	9692.2
890.55	9687.01
890.866	9671.86
891.182	9642.49
891.498	9677.51
891.815	9633.9
892.131	9523.85
892.447	9550.29
892.763	9490.85
893.079	9505.32
893.395	9491.98
893.71	9442.72
894.026	9391.65
894.342	9343.29
894.657	9334.25
894.973	9297.41
895.289	9308.03
895.604	9297.86
895.92	9133.35
896.235	9122.5
896.55	9222.38
896.865	9096.06
897.181	9097.19
897.496	9131.54
897.811	9062.39
898.126	9020.13
898.441	9000.24
898.756	8948.72
899.071	8948.04
899.386	8903.75
899.7	8833.69
900.015	8767.93
900.33	8728.61
900.644	8736.07
900.959	8779.46
901.273	8701.49
901.588	8624.66
901.902	8596.41
902.216	8560.03
902.531	8541.72
902.845	8464.21
903.159	8498.34
903.473	8433.48
903.787	8436.87
904.101	8356.64
904.415	8380.15
904.729	8370.88
905.042	8302.18
905.356	8275.52
905.67	8222.18
905.984	8279.13
906.297	8193.71
906.611	8155.29
906.924	8129.08
907.237	8145.35
907.551	8084.56
907.864	8075.3
908.177	8067.39
908.491	7978.58
908.804	7965.69
909.117	7971.12
909.43	7885.02
909.743	7837.11
910.056	7832.14
910.368	7762.99
910.681	7731.8
910.994	7729.09
911.307	7705.81
911.619	7610.45
911.932	7613.84
912.244	7565.03
912.557	7582.88
912.869	7517.8
913.181	7466.27
913.494	7457.23
913.806	7360.06
914.118	7417.91
914.43	7357.12
914.742	7324.36
915.054	7383.34
915.366	7320.51
915.678	7310.57
915.99	7223.57
916.302	7195.09
916.613	7129.78
916.925	7098.6
917.236	7098.82
917.548	7029.67
917.859	7045.04
918.171	7040.3
918.482	6971.6
918.794	6893.63
919.105	6970.24
919.416	6830.36
919.727	6888.89
920.038	6852.28
920.349	6817.25
920.66	6795.1
920.971	6791.49
921.282	6753.3
921.593	6669.91
921.903	6619.06
922.214	6603.92
922.525	6601.44
922.835	6557.14
923.146	6532.74
923.456	6526.64
923.767	6523.7
924.077	6496.35
924.387	6435.57
924.697	6408.9
925.008	6408.9
925.318	6369.13
925.628	6343.59
925.938	6319.18
926.248	6275.57
926.558	6252.07
926.867	6186.31
927.177	6196.25
927.487	6171.62
927.796	6142.69
928.106	6133.65
928.416	6077.83
928.725	6055.01
929.034	6001.23
929.344	6044.62
929.653	6003.26
929.962	5883.72
930.271	5951.96
930.581	5896.6
930.89	5810.95
931.199	5836.26
931.508	5852.76
931.817	5876.48
932.125	5784.51
932.434	5808.24
932.743	5723.72
933.051	5729.37
933.36	5683.95
933.669	5676.94
933.977	5632.87
934.286	5638.52
934.594	5594.91
934.902	5590.39
935.21	5565.08
935.519	5507.45
935.827	5463.61
936.135	5489.6
936.443	5442.6
936.751	5439.21
937.059	5455.93
937.367	5358.76
937.674	5408.02
937.982	5328.48
938.29	5301.36
938.597	5281.47
938.905	5268.14
939.213	5259.55
939.52	5253.45
939.827	5226.33
940.135	5191.53
940.442	5161.93
940.749	5164.64
941.056	5175.03
941.363	5114.47
941.67	5099.33
941.977	5036.28
942.284	5001.48
942.591	5036.28
942.898	4994.93
943.205	4950.41
943.511	4927.58
943.818	4911.09
944.125	4913.8
944.431	4867.02
944.738	4865.21
945.044	4794.7
945.35	4805.55
945.657	4768.72
945.963	4801.26
946.269	4731.43
946.575	4728.49
946.881	4679.23
947.187	4672
947.493	4677.42
947.799	4620.92
948.105	4641.04
948.41	4599.23
948.716	4621.15
949.022	4545.67
949.327	4569.4
949.633	4525.11
949.938	4490.53
950.244	4483.98
950.549	4495.73
950.854	4443.98
951.16	4441.27
951.465	4413.92
951.77	4399.91
952.075	4370.76
952.38	4327.15
952.685	4346.58
952.99	4308.39
953.294	4290.76
953.599	4239.69
953.904	4263.42
954.209	4227.04
954.513	4194.95
954.818	4187.49
955.122	4201.73
955.426	4184.78
955.731	4138.45
956.035	4139.35
956.339	4112.91
956.643	4087.83
956.948	4062.07
957.252	4048.51
957.556	4030.43
957.86	4019.81
958.163	4015.06
958.467	3941.17
958.771	3994.73
959.075	3991.11
959.378	3984.78
959.682	3942.75
959.985	3927.16
960.289	3896.42
960.592	3875.63
960.896	3846.48
961.199	3855.97
961.502	3856.88
961.805	3791.79
962.108	3769.87
962.411	3791.12
962.714	3788.63
963.017	3724
963.32	3751.12
963.623	3744.34
963.926	3724.22
964.228	3682.87
964.531	3705.69
964.833	3653.04
965.136	3617.11
965.438	3589.99
965.741	3596.54
966.043	3573.72
966.345	3602.42
966.648	3563.32
966.95	3534.85
967.252	3500.5
967.554	3472.03
967.856	3479.26
968.158	3465.7
968.46	3439.71
968.761	3454.4
969.063	3432.71
969.365	3420.73
969.666	3394.29
969.968	3404.23
970.269	3331.69
970.571	3378.02
970.872	3351.13
971.174	3331.92
971.475	3318.36
971.776	3285.82
972.077	3276.1
972.378	3299.15
972.679	3224.12
972.98	3257.34
973.281	3238.81
973.582	3229.55
973.883	3203.11
974.183	3209.66
974.484	3184.8
974.785	3125.6
975.085	3143
975.386	3152.26
975.686	3097.12
975.986	3124.69
976.287	3098.48
976.587	3056.45
976.887	3050.57
977.187	3028.88
977.487	3052.6
977.787	3007.86
978.087	2996.33
978.387	2951.36
978.687	2997.01
978.987	2957.24
979.286	2972.61
979.586	2915.21
979.885	2948.65
980.185	2933.51
980.484	2885.15
980.784	2867.3
981.083	2837.24
981.382	2854.19
981.682	2848.77
981.981	2865.72
982.28	2786.62
982.579	2780.07
982.878	2818.71
983.177	2740.52
983.475	2775.77
983.774	2759.5
984.073	2771.93
984.372	2692.84
984.67	2698.04
984.969	2672.27
985.267	2677.7
985.566	2649
985.864	2652.39
986.162	2652.39
986.461	2646.96
986.759	2640.86
987.057	2607.42
987.355	2590.92
987.653	2599.96
987.951	2559.06
988.249	2606.29
988.547	2562.45
988.844	2550.47
989.142	2569.68
989.44	2561.99
989.737	2524.93
990.035	2502.56
990.332	2491.49
990.63	2484.48
990.927	2455.56
991.224	2473.86
991.521	2445.61
991.819	2445.16
992.116	2417.14
992.413	2407.87
992.71	2405.61
993.006	2423.47
993.303	2419.4
993.6	2372.4
993.897	2389.34
994.193	2347.54
994.49	2345.05
994.787	2350.47
995.083	2295.79
995.379	2318.84
995.676	2284.94
995.972	2294.43
996.268	2268.44
996.565	2242.68
996.861	2224.38
997.157	2218.73
997.453	2214.89
997.749	2228.44
998.044	2207.65
998.34	2198.16
998.636	2152.74
998.932	2155
999.227	2140.08
999.523	2143.47
999.818	2117.94
1000.114	2148.22
1000.409	2097.15
1000.704	2103.25
1001	2096.7
1001.295	2091.95
1001.59	2048.34
1001.885	2028.22
1002.18	2035.45
1002.475	2030.48
1002.77	2015.79
1003.065	2023.03
1003.359	1985.29
1003.654	1979.86
1003.949	1999.07
1004.243	1955.91
1004.538	1939.86
1004.832	1936.02
1005.127	1929.92
1005.421	1943.03
1005.715	1925.85
1006.009	1936.25
1006.304	1894.44
1006.598	1883.59
1006.892	1868
1007.186	1834.1
1007.48	1821.68
1007.773	1802.47
1008.067	1848.12
1008.361	1777.16
1008.655	1794.56
1008.948	1818.74
1009.242	1773.09
1009.535	1762.24
1009.829	1772.86
1010.122	1723.37
1010.415	1757.5
1010.708	1707.78
1011.001	1729.7
1011.295	1718.4
1011.588	1677.72
1011.881	1690.61
1012.173	1674.11
1012.466	1662.58
1012.759	1663.26
1013.052	1647.44
1013.344	1635.92
1013.637	1653.32
1013.93	1620.55
1014.222	1611.96
1014.514	1576.26
1014.807	1607.67
1015.099	1580.1
1015.391	1595.24
1015.683	1574.45
1015.976	1561.57
1016.268	1521.34
1016.56	1560.89
1016.851	1513.21
1017.143	1499.42
1017.435	1516.15
1017.727	1500.1
1018.018	1483.83
1018.31	1493.32
1018.602	1472.76
1018.893	1518.18
1019.185	1425.98
1019.476	1447.9
1019.767	1433.89
1020.058	1455.13
1020.35	1409.71
1020.641	1421.69
1020.932	1422.36
1021.223	1396.6
1021.514	1398.41
1021.804	1350.28
1022.095	1370.84
1022.386	1334.46
1022.677	1338.75
1022.967	1352.99
1023.258	1345.3
1023.548	1329.71
1023.839	1337.17
1024.129	1300.11
1024.419	1301.24
1024.709	1264.18
1025	1265.53
1025.29	1273.44
1025.58	1253.1
1025.87	1247.68
1026.16	1278.64
1026.449	1261.92
1026.739	1225.31
1027.029	1227.79
1027.319	1208.58
1027.608	1202.03
1027.898	1207.68
1028.187	1210.39
1028.477	1201.13
1028.766	1176.95
1029.055	1150.73
1029.344	1155.7
1029.634	1152.31
1029.923	1155.93
1030.212	1145.53
1030.501	1134.69
1030.79	1127.91
1031.078	1124.52
1031.367	1109.6
1031.656	1102.82
1031.945	1083.84
1032.233	1090.17
1032.522	1092.43
1032.81	1060.34
1033.099	1071.19
1033.387	1067.12
1033.675	1065.08
1033.963	1056.72
1034.251	1043.16
1034.54	1019.89
1034.828	1032.09
1035.116	1014.46
1035.403	1001.36
1035.691	984.41
1035.979	1009.72
1036.267	1005.65
1036.554	1001.13
1036.842	986.44
1037.129	983.73
1037.417	962.71
1037.704	974.47
1037.992	916.16
1038.279	959.33
1038.566	961.58
1038.853	961.58
1039.14	961.58
