Data from hue_120_FLMS001491_00064.txt Node
Date: Tue Feb 07 16:59:49 GMT 2017
User: dcchb
Spectrometer: FLMS00149
Trigger mode: 0
Integration Time (sec): 2.000000E-2
Scans to average: 10
Electric dark correction enabled: true
Nonlinearity correction enabled: false
Boxcar width: 0
XAxis mode: Wavelengths
Number of Pixels in Spectrum: 2048
>>>>>Begin Spectral Data<<<<<
341.393	-6.2
341.776	-6.2
342.16	-6.2
342.543	-77.38
342.927	-58.4
343.31	-59.76
343.693	-74
344.077	-88.46
344.46	-64.73
344.843	-36.71
345.226	-23.15
345.61	-26.99
345.993	-38.74
346.376	-7.1
346.759	-10.04
347.142	23.63
347.525	59.56
347.908	78.32
348.291	67.24
348.674	95.49
349.057	105.44
349.44	135.49
349.823	153.12
350.206	173.46
350.588	196.05
350.971	221.59
351.354	228.37
351.737	254.13
352.119	239.67
352.502	274.47
352.884	286
353.267	288.48
353.65	304.3
354.032	315.6
354.414	316.5
354.797	330.06
355.179	306.56
355.562	315.83
355.944	340.01
356.326	334.13
356.709	320.57
357.091	342.72
357.473	343.85
357.855	336.16
358.238	348.14
358.62	354.47
359.002	348.82
359.384	350.85
359.766	338.2
360.148	354.02
360.53	352.89
360.912	349.27
361.294	330.06
361.676	344.3
362.057	338.42
362.439	337.75
362.821	339.33
363.203	334.36
363.584	334.36
363.966	344.52
364.348	322.15
364.729	329.38
365.111	335.94
365.493	334.36
365.874	346.33
366.256	313.34
366.637	332.1
367.019	329.61
367.4	323.06
367.781	334.36
368.163	328.93
368.544	304.3
368.925	320.12
369.306	353.11
369.688	341.59
370.069	323.51
370.45	309.95
370.831	312.66
371.212	335.71
371.593	303.62
371.974	325.09
372.355	339.1
372.736	316.73
373.117	315.37
373.498	326.67
373.879	330.74
374.26	316.95
374.641	309.95
375.021	327.58
375.402	361.02
375.783	331.87
376.163	354.69
376.544	356.73
376.925	347.24
377.305	323.28
377.686	326.45
378.066	318.76
378.447	356.28
378.827	335.03
379.208	333.45
379.588	345.2
379.968	337.52
380.349	339.1
380.729	329.16
381.109	356.95
381.489	353.56
381.87	365.77
382.25	347.01
382.63	352.21
383.01	358.76
383.39	355.6
383.77	350.4
384.15	354.47
384.53	381.36
384.91	375.71
385.29	360.12
385.67	354.47
386.049	361.93
386.429	350.63
386.809	365.99
387.189	374.58
387.568	370.29
387.948	358.54
388.328	358.99
388.707	384.3
389.087	374.35
389.466	375.03
389.846	365.09
390.225	370.06
390.605	393.56
390.984	382.26
391.363	383.39
391.743	373.68
392.122	372.77
392.501	386.56
392.881	397.18
393.26	406.67
393.639	403.73
394.018	413.68
394.397	395.6
394.776	404.41
395.155	393.34
395.534	398.99
395.913	411.42
396.292	424.52
396.671	414.13
397.05	425.2
397.429	419.78
397.808	401.47
398.186	431.75
398.565	402.38
398.944	416.61
399.323	420.68
399.701	430.85
400.08	410.29
400.458	407.57
400.837	440.57
401.215	448.25
401.594	420.23
401.972	412.55
402.351	432.21
402.729	444.41
403.107	431.3
403.486	427.46
403.864	435.82
404.242	460.68
404.62	439.66
404.999	438.53
405.377	442.15
405.755	455.26
406.133	443.73
406.511	451.19
406.889	457.52
407.267	475.59
407.645	471.98
408.023	462.26
408.401	494.8
408.779	471.3
409.156	481.47
409.534	483.96
409.912	506.1
410.29	499.32
410.667	491.87
411.045	481.47
411.422	521.24
411.8	527.57
412.178	530.96
412.555	517.4
412.933	538.19
413.31	526.89
413.687	503.39
414.065	518.98
414.442	552.43
414.819	519.21
415.197	536.84
415.574	547.01
415.951	557.63
416.328	545.2
416.705	532.09
417.082	549.72
417.46	551.53
417.837	570.73
418.214	575.25
418.591	593.11
418.967	579.55
419.344	572.77
419.721	589.94
420.098	575.25
420.475	604.41
420.852	587.23
421.228	599.43
421.605	611.41
421.982	603.28
422.358	601.24
422.735	620.22
423.111	635.82
423.488	624.74
423.864	625.87
424.241	649.83
424.617	622.03
424.994	651.64
425.37	648.25
425.746	656.61
426.123	664.97
426.499	663.16
426.875	673.78
427.251	666.32
427.627	660.9
428.003	691.86
428.379	695.25
428.756	685.53
429.132	703.61
429.507	700.67
429.883	735.48
430.259	706.55
430.635	708.58
431.011	707.91
431.387	734.35
431.763	742.93
432.138	749.03
432.514	727.57
432.89	752.88
433.265	770.95
433.641	752.65
434.016	774.8
434.392	803.72
434.767	802.59
435.143	819.77
435.518	809.82
435.894	833.33
436.269	816.6
436.644	821.57
437.02	814.57
437.395	853.66
437.77	865.42
438.145	871.52
438.52	886.88
438.895	884.17
439.271	849.14
439.646	908.58
440.021	904.74
440.395	889.37
440.77	888.92
441.145	925.07
441.52	924.4
441.895	909.03
442.27	933.44
442.645	924.85
443.019	951.97
443.394	927.11
443.769	945.64
444.143	951.74
444.518	939.09
444.892	949.48
445.267	971.85
445.641	955.36
446.016	980.67
446.39	979.31
446.764	989.48
447.139	1015.24
447.513	1014.34
447.887	1011.4
448.262	1019.76
448.636	1034.45
449.01	1036.48
449.384	1039.87
449.758	1043.72
450.132	1085.75
450.506	1080.78
450.88	1089.59
451.254	1060.66
451.628	1064.28
452.002	1097.27
452.376	1137.72
452.75	1116.03
453.123	1135.92
453.497	1158.97
453.871	1175.92
454.244	1197.61
454.618	1175.69
454.992	1168.46
455.365	1176.59
455.739	1239.87
456.112	1241.68
456.486	1259.98
456.859	1249.36
457.232	1281.45
457.606	1299.08
457.979	1298.17
458.352	1321.45
458.725	1318.51
459.099	1378.17
459.472	1386.76
459.845	1409.36
460.218	1409.58
460.591	1426.98
460.964	1416.14
461.337	1472.63
461.71	1490.94
462.083	1480.31
462.456	1483.03
462.829	1502.69
463.201	1543.59
463.574	1544.49
463.947	1590.82
464.32	1614.77
464.692	1615.45
465.065	1649.58
465.438	1678.05
465.81	1700.87
466.183	1692.51
466.555	1752.85
466.928	1762.57
467.3	1798.72
467.672	1818.38
468.045	1843.47
468.417	1862.23
468.789	1890.02
469.161	1924.37
469.534	1950.36
469.906	2018.61
470.278	1978.61
470.65	2033.75
471.022	2088.43
471.394	2114.65
471.766	2202.33
472.138	2194.19
472.51	2266.28
472.882	2286.85
473.253	2323.46
473.625	2410.23
473.997	2465.82
474.369	2487.07
474.74	2528.87
475.112	2576.78
475.484	2634.41
475.855	2739.26
476.227	2771.35
476.598	2864.23
476.97	2916.66
477.341	2986.94
477.713	3058.35
478.084	3128.18
478.455	3243.66
478.827	3261.51
479.198	3364.11
479.569	3444.33
479.94	3585.8
480.311	3645.45
480.682	3779.91
481.053	3877.77
481.424	3964.54
481.795	4042.51
482.166	4157.53
482.537	4264.65
482.908	4386.9
483.279	4479.11
483.65	4629.84
484.021	4743.96
484.391	4870.51
484.762	4964.52
485.133	5058.07
485.503	5226.88
485.874	5342.36
486.244	5479.98
486.615	5614.22
486.985	5739.64
487.356	5909.8
487.726	6037.26
488.097	6187.99
488.467	6333.52
488.837	6505.72
489.207	6615.32
489.578	6823.68
489.948	6886.5
490.318	7042.88
490.688	7168.98
491.058	7404
491.428	7572.81
491.798	7697.78
492.168	7912.91
492.538	8049.41
492.908	8153.59
493.278	8338.66
493.648	8456.4
494.017	8668.15
494.387	8786.79
494.757	8909.5
495.126	9094.35
495.496	9179.32
495.866	9328.02
496.235	9490.73
496.605	9605.75
496.974	9699.76
497.344	9898.17
497.713	10034.67
498.082	10093.87
498.452	10312.85
498.821	10414.09
499.19	10479.63
499.559	10622.22
499.928	10746.74
500.298	10918.03
500.667	10975.66
501.036	11014.53
501.405	11252.49
501.774	11212.94
502.143	11422.2
502.512	11498.13
502.88	11697.9
503.249	11709.42
503.618	11825.8
503.987	11899.25
504.356	12089.07
504.724	12162.97
505.093	12148.51
505.462	12320.71
505.83	12349.86
506.199	12568.16
506.567	12731.54
506.936	12633.47
507.304	12836.4
507.672	12915.49
508.041	12999.33
508.409	13073.91
508.777	13178.31
509.145	13253.11
509.514	13211.31
509.882	13340.12
510.25	13375.82
510.618	13536.04
510.986	13518.19
511.354	13663.04
511.722	13764.96
512.09	13898.52
512.458	13859.42
512.826	13901.91
513.193	14056.71
513.561	14140.32
513.929	14144.39
514.297	14238.4
514.664	14362.46
515.032	14407.43
515.4	14489.69
515.767	14476.36
516.135	14526.75
516.502	14483.36
516.869	14683.58
517.237	14604.49
517.604	14674.77
517.972	14764.26
518.339	14768.55
518.706	14846.74
519.073	14894.88
519.44	15000.41
519.808	15068.66
520.175	15024.36
520.542	15198.37
520.909	15224.36
521.276	15233.85
521.643	15311.36
522.009	15402.66
522.376	15368.54
522.743	15382.77
523.11	15529.44
523.477	15630.68
523.843	15712.48
524.21	15749.09
524.577	15874.29
524.943	15898.01
525.31	15904.57
525.676	15983.89
526.043	15950.89
526.409	16041.06
526.776	16044
527.142	16106.14
527.508	16189.76
527.874	16164.9
528.241	16192.24
528.607	16134.17
528.973	16251.45
529.339	16259.13
529.705	16295.07
530.071	16401.05
530.437	16377.32
530.803	16513.82
531.169	16420.94
531.535	16264.33
531.901	16297.55
532.267	16368.74
532.632	16398.11
532.998	16414.16
533.364	16380.94
533.73	16466.59
534.095	16471.33
534.461	16365.57
534.826	16446.93
535.192	16454.38
535.557	16493.48
535.923	16441.28
536.288	16458.45
536.653	16356.08
537.019	16323.31
537.384	16354.73
537.749	16342.97
538.114	16380.94
538.479	16363.54
538.845	16319.47
539.21	16250.32
539.575	16287.83
539.94	16147.5
540.305	16344.1
540.67	16181.17
541.034	16217.78
541.399	16157.67
541.764	16092.36
542.129	16110.89
542.494	16045.58
542.858	16063.89
543.223	15979.37
543.587	16136.88
543.952	15954.96
544.316	15954.74
544.681	15883.78
545.045	15956.54
545.41	15919.26
545.774	15858.47
546.138	15815.3
546.503	15781.41
546.867	15786.6
547.231	15831.8
547.595	15665.25
547.959	15764.68
548.324	15657.57
548.688	15600.39
549.052	15719.04
549.416	15552.71
549.779	15613.73
550.143	15441.53
550.507	15526.27
550.871	15632.03
551.235	15476.1
551.599	15500.96
551.962	15380.74
552.326	15466.84
552.689	15503.67
553.053	15354.3
553.417	15338.93
553.78	15484.69
554.143	15366.95
554.507	15301.19
554.87	15352.27
555.234	15412.15
555.597	15334.64
555.96	15327.18
556.323	15344.81
556.686	15272.04
557.05	15364.02
557.413	15349.1
557.776	15329.89
558.139	15344.13
558.502	15244.02
558.865	15186.62
559.228	15260.74
559.59	15279.95
559.953	15267.75
560.316	15302.78
560.679	15347.75
561.041	15393.17
561.404	15378.93
561.767	15362.66
562.129	15282.21
562.492	15416.67
562.854	15350.01
563.217	15346.84
563.579	15435.43
563.941	15415.77
564.304	15452.6
564.666	15402.66
565.028	15473.62
565.39	15515.65
565.753	15502.32
566.115	15514.52
566.477	15608.76
566.839	15520.4
567.201	15701.41
567.563	15620.06
567.925	15656.21
568.287	15651.02
568.648	15709.32
569.01	15691.92
569.372	15755.65
569.734	15766.72
570.095	15757
570.457	15809.43
570.819	15752.71
571.18	15807.85
571.542	15795.42
571.903	15849.2
572.265	15830.45
572.626	15854.63
572.987	15867.96
573.349	15899.82
573.71	15972.59
574.071	15902.08
574.432	15953.38
574.794	16044.23
575.155	15999.71
575.516	16033.38
575.877	16047.16
576.238	16014.17
576.599	16072.47
576.96	16030.21
577.32	15998.35
577.681	16037.45
578.042	16116.54
578.403	16017.11
578.763	16114.73
579.124	16115.41
579.485	16129.65
579.845	16077.9
580.206	16127.84
580.566	16105.69
580.927	16124
581.287	16124
581.648	16057.78
582.008	16142.98
582.368	16016.43
582.728	16010.55
583.089	16099.36
583.449	16089.42
583.809	16038.58
584.169	16021.63
584.529	16074.28
584.889	16155.63
585.249	16064.56
585.609	15970.78
585.969	16120.61
586.329	15968.97
586.688	16130.1
587.048	15893.04
587.408	15946.6
587.768	15939.6
588.127	15987.5
588.487	15903.66
588.846	15960.16
589.206	15881.74
589.565	15930.78
589.925	16031.57
590.284	15881.07
590.643	15961.74
591.003	15972.14
591.362	15978.46
591.721	15975.53
592.08	15945.24
592.44	15924.68
592.799	15989.54
593.158	15929.88
593.517	15829.99
593.876	15856.89
594.235	15837
594.593	15893.95
594.952	15827.96
595.311	15775.98
595.67	15775.98
596.029	15932.14
596.387	15891.91
596.746	15846.04
597.104	15764.46
597.463	15801.97
597.822	15886.04
598.18	15867.73
598.538	15874.06
598.897	15780.96
599.255	15716.78
599.613	15934.17
599.972	15797.23
600.33	15789.32
600.688	15825.02
601.046	15886.94
601.404	15959.93
601.762	15853.27
602.12	15994.73
602.478	15947.73
602.836	15919.48
603.194	15805.59
603.552	15873.38
603.91	15843.78
604.268	15903.44
604.625	15745.93
604.983	15939.37
605.341	15746.83
605.698	15855.53
606.056	15888.52
606.413	15835.64
606.771	15868.18
607.128	15937.56
607.485	15850.33
607.843	15739.6
608.2	15895.75
608.557	15903.89
608.914	15907.51
609.272	15955.87
609.629	16059.82
609.986	16030.44
610.343	16072.7
610.7	16129.42
611.057	16124.45
611.414	16054.85
611.771	16046.26
612.127	16064.34
612.484	16095.3
612.841	16063.43
613.198	16159.25
613.554	16062.08
613.911	16178.68
614.267	16072.47
614.624	16127.84
614.98	16066.6
615.337	16148.4
615.693	16151.11
616.05	16138.01
616.406	16235.63
616.762	16165.58
617.118	16196.99
617.475	16224.56
617.831	16240.38
618.187	16255.52
618.543	16292.35
618.899	16326.7
619.255	16304.33
619.611	16283.31
619.967	16479.92
620.323	16380.71
620.678	16338.91
621.034	16265.24
621.39	16263.65
621.746	16192.92
622.101	16413.03
622.457	16325.12
622.812	16320.83
623.168	16315.86
623.523	16420.03
623.879	16437.44
624.234	16313.14
624.589	16353.82
624.945	16345.46
625.3	16312.92
625.655	16303.88
626.01	16360.37
626.365	16405.8
626.72	16335.29
627.075	16380.04
627.43	16283.31
627.785	16285.57
628.14	16314.95
628.495	16291.45
628.85	16234.95
629.205	16260.72
629.559	16320.38
629.914	16272.47
630.269	16281.51
630.623	16233.6
630.978	16227.72
631.332	16281.05
631.687	16291.9
632.041	16196.54
632.396	16273.15
632.75	16159.25
633.104	16131.68
633.459	16155.18
633.813	16136.88
634.167	16065.24
634.521	16113.15
634.875	16077.9
635.229	16015.3
635.583	16021.17
635.937	15925.81
636.291	16009.88
636.645	15896.43
636.999	15861.63
637.352	15931.69
637.706	15843.55
638.06	15941.63
638.413	15879.26
638.767	15859.82
639.121	15842.65
639.474	15773.5
639.828	15790.22
640.181	15796.77
640.534	15810.78
640.888	15741.18
641.241	15614.41
641.594	15710.45
641.947	15695.31
642.301	15700.73
642.654	15775.98
643.007	15744.35
643.36	15668.42
643.713	15657.12
644.066	15646.04
644.419	15570.11
644.771	15454.41
645.124	15427.29
645.477	15403.79
645.83	15240.63
646.182	15133.51
646.535	15184.59
646.888	15211.7
647.24	15134.87
647.593	15071.6
647.945	15118.37
648.298	15042.9
648.65	15025.72
649.002	14982.33
649.355	15099.17
649.707	15129.22
650.059	15237.47
650.411	15338.71
650.763	15360.63
651.115	15442.43
651.467	15379.84
651.819	15493.51
652.171	15471.36
652.523	15353.85
652.875	15422.32
653.227	15378.93
653.578	15456.67
653.93	15478.82
654.282	15324.7
654.633	15324.24
654.985	15386.62
655.337	15372.6
655.688	15400.4
656.039	15433.85
656.391	15327.63
656.742	15414.19
657.094	15392.72
657.445	15410.57
657.796	15484.01
658.147	15421.42
658.498	15516.78
658.849	15455.54
659.2	15460.74
659.551	15358.59
659.902	15437.24
660.253	15439.27
660.604	15388.2
660.955	15387.75
661.306	15501.19
661.656	15521.75
662.007	15376.22
662.358	15436.78
662.708	15486.05
663.059	15448.08
663.409	15407.63
663.76	15358.37
664.11	15427.07
664.461	15421.64
664.811	15520.4
665.161	15465.03
665.511	15382.77
665.862	15461.42
666.212	15505.93
666.562	15526.27
666.912	15449.89
667.262	15354.07
667.612	15481.3
667.962	15458.7
668.312	15444.24
668.662	15504.8
669.011	15521.75
669.361	15446.5
669.711	15464.13
670.06	15371.93
670.41	15368.99
670.76	15353.62
671.109	15470.91
671.459	15427.07
671.808	15380.97
672.157	15368.08
672.507	15230.91
672.856	15303.45
673.205	15304.36
673.554	15339.84
673.904	15314.07
674.253	15384.58
674.602	15319.95
674.951	15117.24
675.3	15041.99
675.649	15319.05
675.998	15294.64
676.346	15236.56
676.695	15262.1
677.044	15186.85
677.393	15227.98
677.741	15135.55
678.09	15165.83
678.438	15107.98
678.787	15034.53
679.135	15076.34
679.484	15010.81
679.832	15004.48
680.181	14872.28
680.529	14976
680.877	14990.24
681.225	14940.98
681.573	15003.57
681.922	14856.23
682.27	14829.34
682.618	14820.53
682.966	14814.43
683.314	14873.18
683.661	14822.34
684.009	14681.32
684.357	14696.46
684.705	14691.27
685.053	14720.87
685.4	14611.95
685.748	14519.07
686.095	14528.11
686.443	14526.75
686.79	14494.44
687.138	14514.32
687.485	14478.84
687.832	14306.64
688.18	14385.06
688.527	14246.08
688.874	14324.04
689.221	14187.55
689.568	14166.53
689.915	14155.01
690.262	14131.51
690.609	14072.98
690.956	14091.28
691.303	14007.22
691.65	13892.64
691.997	13901.91
692.344	13845.86
692.69	13849.71
693.037	13849.03
693.383	13718.41
693.73	13834.34
694.077	13620.56
694.423	13644.06
694.769	13678.41
695.116	13555.25
695.462	13503.95
695.808	13466.21
696.155	13470.28
696.501	13365.2
696.847	13393.45
697.193	13246.56
697.539	13363.17
697.885	13239.33
698.231	13115.04
698.577	13215.37
698.923	13117.75
699.269	13037.75
699.614	12978.54
699.96	12985.32
700.306	12896.74
700.651	12840.24
700.997	12846.12
701.342	12773.35
701.688	12770.41
702.033	12732.9
702.379	12693.35
702.724	12606.8
703.069	12618.78
703.415	12457.65
703.76	12449.29
704.105	12444.32
704.45	12406.81
704.795	12353.02
705.14	12299.92
705.485	12146.02
705.83	12272.57
706.175	12202.97
706.52	12210.65
706.865	12146.47
707.209	12069.64
707.554	12118.9
707.899	12097.21
708.243	12052.47
708.588	11965.69
708.932	11802.08
709.277	11841.62
709.621	11894.96
709.966	11821.06
710.31	11774.96
710.654	11729.08
710.998	11702.87
711.342	11741.29
711.687	11664.23
712.031	11581.74
712.375	11640.27
712.719	11563.66
713.063	11538.13
713.407	11599.6
713.75	11562.31
714.094	11600.95
714.438	11481.63
714.782	11544.91
715.125	11396.21
715.469	11429.21
715.812	11375.87
716.156	11373.61
716.499	11332.48
716.843	11337.23
717.186	11273.5
717.53	11371.35
717.873	11250
718.216	11284.58
718.559	11217.91
718.902	11152.38
719.246	11172.71
719.589	11171.13
719.932	11167.74
720.275	11152.38
720.617	11076.9
720.96	11101.53
721.303	11120.06
721.646	11077.12
721.989	11023.34
722.331	11130.23
722.674	11068.99
723.016	11073.06
723.359	11003.91
723.701	10970.01
724.044	10912.61
724.386	10968.88
724.729	11018.59
725.071	10948.31
725.413	10979.5
725.755	10971.14
726.097	10862.67
726.439	10854.3
726.782	10821.09
727.124	10916.45
727.465	10918.94
727.807	10793.29
728.149	10894.76
728.491	10845.94
728.833	10819.73
729.175	10809.79
729.516	10826.74
729.858	10840.07
730.199	10842.1
730.541	10826.74
730.882	10736.57
731.224	10787.87
731.565	10778.37
731.906	10752.84
732.248	10759.17
732.589	10697.47
732.93	10646.63
733.271	10804.59
733.612	10757.81
733.953	10772.5
734.294	10690.69
734.635	10683.46
734.976	10718.72
735.317	10636.68
735.658	10677.59
735.999	10680.52
736.339	10683.69
736.68	10798.26
737.021	10742.44
737.361	10682.11
737.702	10724.82
738.042	10763.91
738.383	10747.19
738.723	10731.82
739.063	10651.37
739.404	10811.37
739.744	10760.52
740.084	10751.71
740.424	10741.31
740.764	10791.26
741.104	10828.77
741.444	10738.83
741.784	10778.83
742.124	10815.66
742.464	10814.53
742.804	10909.22
743.143	10861.99
743.483	10859.05
743.823	10915.77
744.162	10965.94
744.502	10943.34
744.841	10968.88
745.181	11013.17
745.52	11007.75
745.86	11104.24
746.199	11118.03
746.538	11249.77
746.877	11217.69
747.216	11280.28
747.556	11351.47
747.895	11344.69
748.234	11344.24
748.573	11430.34
748.911	11478.24
749.25	11555.53
749.589	11605.92
749.928	11716.88
750.267	11770.21
750.605	11766.6
750.944	11931.11
751.283	11989.87
751.621	12101.73
751.96	12182.41
752.298	12248.39
752.636	12356.41
752.975	12355.96
753.313	12449.52
753.651	12649.06
753.989	12790.3
754.327	12850.18
754.666	12932.44
755.004	13074.81
755.342	13227.58
755.679	13293.34
756.017	13452.88
756.355	13635.93
756.693	13734.91
757.031	13904.85
757.368	14040.21
757.706	14159.53
758.044	14314.78
758.381	14479.07
758.719	14552.74
759.056	14806.97
759.394	15022.78
759.731	15041.77
760.068	15214.19
760.405	15396.56
760.743	15464.81
761.08	15763.33
761.417	15971.91
761.754	15994.28
762.091	16229.53
762.428	16293.03
762.765	16483.99
763.102	16834.94
763.438	16799.23
763.775	16934.82
764.112	17158.77
764.449	17341.37
764.785	17498.88
765.122	17521.02
765.458	17727.34
765.795	17885.53
766.131	18061.35
766.467	18189.71
766.804	18298.18
767.14	18461.79
767.476	18578.85
767.812	18660.65
768.148	18877.6
768.485	18934.54
768.821	19064.26
769.157	18998.5
769.492	19222.22
769.828	19400.75
770.164	19399.39
770.5	19471.71
770.836	19621.08
771.171	19650.68
771.507	19766.39
771.842	19765.94
772.178	19989.43
772.513	19971.13
772.849	20122.76
773.184	20135.19
773.519	20205.25
773.855	20259.71
774.19	20273.72
774.525	20395.3
774.86	20508.74
775.195	20519.14
775.53	20666.93
775.865	20640.71
776.2	20478.91
776.535	20486.37
776.87	20491.79
777.205	20599.81
777.539	20671.9
777.874	20758.23
778.209	20681.62
778.543	20654.27
778.878	20594.16
779.212	20735.85
779.547	20613.37
779.881	20747.38
780.215	20562.75
780.55	20748.06
780.884	20627.16
781.218	20687.27
781.552	20813.14
781.886	20721.84
782.22	20663.31
782.554	20727.04
782.888	20599.59
783.222	20595.07
783.556	20515.52
783.889	20573.15
784.223	20446.14
784.557	20403.21
784.89	20528.4
785.224	20474.62
785.557	20357.33
785.891	20446.82
786.224	20431
786.558	20407.5
786.891	20361.63
787.224	20289.99
787.557	20198.24
787.891	20200.5
788.224	20261.52
788.557	20316.88
788.89	20217.22
789.223	20146.94
789.556	20100.62
789.888	20042.09
790.221	19873.5
790.554	19968.19
790.887	19888.19
791.219	19898.36
791.552	19807.52
791.884	19780.85
792.217	19720.06
792.549	19776.1
792.882	19608.2
793.214	19555.32
793.546	19699.95
793.879	19470.12
794.211	19305.83
794.543	19550.12
794.875	19372.5
795.207	19559.39
795.539	19327.75
795.871	19427.41
796.203	19165.95
796.535	19135.44
796.867	19207.76
797.198	19053.19
797.53	19105.84
797.862	18977.48
798.193	19069.91
798.525	18984.71
798.856	19015.67
799.188	18792.85
799.519	18725.51
799.85	18727.32
800.182	18757.37
800.513	18730.48
800.844	18420.43
801.175	18703.36
801.506	18564.84
801.837	18462.47
802.168	18521.9
802.499	18386.76
802.83	18325.75
803.161	18289.36
803.491	18280.32
803.822	18278.06
804.153	18252.98
804.483	18044.4
804.814	17969.37
805.145	17995.59
805.475	17941.58
805.805	17914.46
806.136	17912.88
806.466	17910.39
806.796	17900.22
807.126	17774.35
807.457	17649.83
807.787	17754.01
808.117	17643.28
808.447	17582.49
808.777	17688.25
809.107	17492.77
809.436	17427.92
809.766	17469.72
810.096	17490.29
810.426	17358.31
810.755	17336.62
811.085	17395.83
811.414	17264.31
811.744	17208.04
812.073	17150.64
812.403	17193.8
812.732	17021.15
813.061	17082.62
813.39	17011.88
813.719	16902.06
814.049	17078.1
814.378	16901.83
814.707	16886.91
815.036	16898.67
815.365	16782.28
815.693	16762.4
816.022	16715.62
816.351	16671.55
816.68	16573.93
817.008	16584.1
817.337	16480.6
817.665	16440.6
817.994	16522.63
818.322	16485.8
818.651	16481.73
818.979	16376.19
819.307	16417.77
819.636	16327.16
819.964	16255.97
820.292	16359.47
820.62	16404.22
820.948	16343.65
821.276	16307.27
821.604	16283.09
821.932	16251.45
822.259	16238.57
822.587	16197.22
822.915	16146.14
823.243	16282.41
823.57	16248.06
823.898	16235.86
824.225	16168.52
824.553	16204.45
824.88	16224.11
825.207	16307.27
825.535	16225.69
825.862	16247.16
826.189	16174.84
826.516	16211.68
826.843	16338
827.17	16310.88
827.497	16302.3
827.824	16304.78
828.151	16275.18
828.478	16253.26
828.805	16296.42
829.131	16267.95
829.458	16227.27
829.785	16197.89
830.111	16228.63
830.438	16316.76
830.764	16287.61
831.09	16232.47
831.417	16149.53
831.743	16248.29
832.069	16233.6
832.395	16129.19
832.722	16200.61
833.048	16167.61
833.374	16131.45
833.7	16083.55
834.026	16153.15
834.351	16176.2
834.677	16107.27
835.003	16058.91
835.329	16120.61
835.654	16083.77
835.98	15979.82
836.306	16014.85
836.631	15999.71
836.956	16009.42
837.282	16074.96
837.607	15942.53
837.932	15914.74
838.258	15898.92
838.583	15845.36
838.908	15781.18
839.233	15815.76
839.558	15825.47
839.883	15749.32
840.208	15672.71
840.533	15679.04
840.858	15705.7
841.182	15727.4
841.507	15685.82
841.832	15581.64
842.156	15526.5
842.481	15557.91
842.805	15535.76
843.13	15429.1
843.454	15499.15
843.778	15354.53
844.103	15307.75
844.427	15333.74
844.751	15318.14
845.075	15178.49
845.399	15289.67
845.723	15206.73
846.047	15190.69
846.371	15114.53
846.695	15045.38
847.019	14967.42
847.343	14930.36
847.666	14809.46
847.99	14750.47
848.313	14693.75
848.637	14608.78
848.96	14618.05
849.284	14503.25
849.607	14480.88
849.931	14420.09
850.254	14301.67
850.577	14312.29
850.9	14129.7
851.223	14173.31
851.546	14158.62
851.869	14110.04
852.192	14032.07
852.515	13939.65
852.838	13839.31
853.161	13896.03
853.483	13818.07
853.806	13746.88
854.129	13726.09
854.451	13650.39
854.774	13533.56
855.096	13560.22
855.419	13624.63
855.741	13587.34
856.063	13449.49
856.385	13380.11
856.708	13359.55
857.03	13267.8
857.352	13353.67
857.674	13259.21
857.996	13201.14
858.318	13156.17
858.64	13142.61
858.961	13138.31
859.283	13053.8
859.605	12867.59
859.926	13063.06
860.248	12918.88
860.57	12909.84
860.891	12952.55
861.212	12795.5
861.534	12777.87
861.855	12818.55
862.176	12786.46
862.498	12761.6
862.819	12801.82
863.14	12672.56
863.461	12703.75
863.782	12679.34
864.103	12673.47
864.424	12579.68
864.745	12563.19
865.065	12547.14
865.386	12547.82
865.707	12471.44
866.027	12514.83
866.348	12421.95
866.668	12414.72
866.989	12383.98
867.309	12360.93
867.63	12384.89
867.95	12346.02
868.27	12284.32
868.59	12282.06
868.91	12291.78
869.23	12278.45
869.55	12255.85
869.87	12270.76
870.19	12222.86
870.51	12210.65
870.83	12201.61
871.15	12133.82
871.469	12198.22
871.789	12150.54
872.109	12179.69
872.428	12095.18
872.748	12053.37
873.067	12051.79
873.386	12107.38
873.706	12072.58
874.025	11932.92
874.344	11849.08
874.663	11974.28
874.982	11995.52
875.301	11859.25
875.62	11855.18
875.939	11844.11
876.258	11856.31
876.577	11824.22
876.896	11877.33
877.214	11772.25
877.533	11755.98
877.852	11695.86
878.17	11741.51
878.489	11691.57
878.807	11691.8
879.125	11676.2
879.444	11671.01
879.762	11618.58
880.08	11592.82
880.398	11532.71
880.716	11533.84
881.034	11556.66
881.352	11568.18
881.67	11432.14
881.988	11456.1
882.306	11404.12
882.624	11405.48
882.941	11355.53
883.259	11276.67
883.577	11299.72
883.894	11350.79
884.212	11264.69
884.529	11139.5
884.846	11227.4
885.164	11170.23
885.481	11098.59
885.798	11126.39
886.115	11081.42
886.432	11010.46
886.75	11049.55
887.067	11050.23
887.383	11022.89
887.7	11013.62
888.017	10938.82
888.334	10979.73
888.651	10932.5
888.967	10841.88
889.284	10839.84
889.6	10900.86
889.917	10739.28
890.233	10722.33
890.55	10729.56
890.866	10789
891.182	10575.22
891.498	10576.57
891.815	10593.52
892.131	10570.47
892.447	10511.49
892.763	10553.07
893.079	10526.4
893.395	10431.72
893.71	10416.8
894.026	10420.87
894.342	10366.41
894.657	10295
894.973	10225.39
895.289	10238.05
895.604	10249.35
895.92	10168.45
896.235	10093.42
896.55	10140.2
896.865	10118.51
897.181	10065.17
897.496	10010.49
897.811	10023.14
898.126	9930.26
898.441	9989.02
898.756	9882.81
899.071	9777.95
899.386	9812.98
899.7	9731.85
900.015	9706.99
900.33	9636.48
900.644	9602.13
900.959	9622.92
901.273	9560.55
901.588	9525.75
901.902	9581.34
902.216	9446.43
902.531	9424.29
902.845	9372.31
903.159	9393.1
903.473	9267.68
903.787	9297.96
904.101	9186.78
904.415	9210.05
904.729	9138.64
905.042	9145.2
905.356	9092.32
905.67	9130.28
905.984	9054.58
906.297	9029.04
906.611	9013
906.924	8931.19
907.237	8981.59
907.551	8874.7
907.864	8867.01
908.177	8775.26
908.491	8787.01
908.804	8719.22
909.117	8744.3
909.43	8643.97
909.743	8582.95
910.056	8621.6
910.368	8587.02
910.681	8503.86
910.994	8534.59
911.307	8450.98
911.619	8399.45
911.932	8441.71
912.244	8370.53
912.557	8303.19
912.869	8248.5
913.181	8241.49
913.494	8233.13
913.806	8195.39
914.118	8093.25
914.43	8134.83
914.742	8141.61
915.054	8054.15
915.366	8076.52
915.678	8009.63
915.99	7991.33
916.302	7930.77
916.613	7851.22
916.925	7880.6
917.236	7854.61
917.548	7798.11
917.859	7815.51
918.171	7726.25
918.482	7676.99
918.794	7609.42
919.105	7651.68
919.416	7598.8
919.727	7588.63
920.038	7505.01
920.349	7427.5
920.66	7466.15
920.971	7498.01
921.282	7395.19
921.593	7358.8
921.903	7357.67
922.214	7318.58
922.525	7285.13
922.835	7226.38
923.146	7209.43
923.456	7168.3
923.767	7174.85
924.077	7142.54
924.387	7186.83
924.697	7046.5
925.008	7029.32
925.318	7004.01
925.628	6999.49
925.938	6924.46
926.248	6909.1
926.558	6904.13
926.867	6846.05
927.177	6871.13
927.487	6849.89
927.796	6799.04
928.106	6746.62
928.416	6734.41
928.725	6764.24
929.034	6662.55
929.344	6691.7
929.653	6616
929.962	6592.95
930.271	6482.67
930.581	6547.98
930.89	6540.75
931.199	6439.96
931.508	6418.72
931.817	6442.9
932.125	6422.56
932.434	6380.75
932.743	6355.44
933.051	6325.16
933.36	6297.59
933.669	6233.64
933.977	6263.69
934.286	6234.77
934.594	6246.06
934.902	6175.33
935.21	6132.4
935.519	6142.11
935.827	6096.92
936.135	6075.45
936.443	6003.36
936.751	6028.67
937.059	5962.91
937.367	5960.65
937.674	5982.34
937.982	5898.28
938.29	5859.18
938.597	5885.17
938.905	5842.69
939.213	5785.96
939.52	5770.82
939.827	5760.43
940.135	5721.33
940.442	5733.76
940.749	5698.73
941.056	5691.95
941.363	5642.92
941.67	5646.08
941.977	5587.32
942.284	5546.87
942.591	5553.88
942.898	5509.81
943.205	5516.59
943.511	5479.08
943.818	5445.18
944.125	5341.46
944.431	5374.9
944.738	5396.37
945.044	5388.46
945.35	5317.28
945.657	5286.09
945.963	5288.8
946.269	5252.19
946.575	5219.2
946.881	5186.21
947.187	5176.71
947.493	5128.13
947.799	5148.24
948.105	5106.66
948.41	5140.33
948.716	5094.68
949.022	5072.54
949.327	5058.3
949.633	5040.9
949.938	4985.53
950.244	5010.16
950.549	4948.47
950.854	4935.59
951.16	4915.7
951.465	4913.67
951.77	4902.82
952.075	4840.23
952.38	4830.96
952.685	4830.73
952.99	4772.66
953.294	4745.99
953.599	4754.13
953.904	4745.54
954.209	4669.38
954.513	4697.18
954.818	4634.81
955.122	4673.22
955.426	4625.99
955.731	4625.09
956.035	4604.75
956.339	4524.53
956.643	4574.92
956.948	4492.66
957.252	4441.14
957.556	4509.84
957.86	4457.19
958.163	4479.33
958.467	4433
958.771	4418.77
959.075	4404.76
959.378	4384.64
959.682	4332.67
959.985	4338.32
960.289	4313.23
960.592	4329.28
960.896	4293.35
961.199	4264.65
961.502	4233.01
961.805	4199.34
962.108	4282.05
962.411	4173.58
962.714	4160.47
963.017	4203.86
963.32	4149.4
963.623	4099.23
963.926	4097.19
964.228	4108.27
964.531	4075.05
964.833	4076.86
965.136	4014.71
965.438	3982.62
965.741	3981.72
966.043	3973.58
966.345	3973.81
966.648	3940.59
966.95	3880.03
967.252	3936.29
967.554	3865.79
967.856	3869.86
968.158	3861.95
968.46	3822.17
968.761	3806.58
969.063	3801.61
969.365	3772.46
969.666	3768.39
969.968	3747.37
970.269	3699.01
970.571	3739.46
970.872	3695.17
971.174	3673.25
971.475	3663.08
971.776	3661.27
972.077	3631.22
972.378	3609.07
972.679	3581.28
972.98	3607.72
973.281	3547.38
973.582	3527.94
973.883	3596.19
974.183	3502.86
974.484	3506.93
974.785	3506.93
975.085	3468.06
975.386	3509.87
975.686	3441.39
975.986	3423.54
976.287	3419.25
976.587	3412.69
976.887	3393.94
977.187	3386.48
977.487	3395.74
977.787	3356.65
978.087	3350.77
978.387	3356.2
978.687	3304.22
978.987	3288.63
979.286	3243.66
979.586	3238.69
979.885	3213.6
980.185	3223.77
980.484	3207.73
980.784	3219.48
981.083	3211.79
981.382	3150.33
981.682	3154.17
981.981	3169.31
982.28	3132.02
982.579	3074.4
982.878	3100.16
983.177	3090.67
983.475	3053.61
983.774	3054.51
984.073	3032.36
984.372	3035.98
984.67	3009.99
984.969	3008.41
985.267	2993.72
985.566	2941.07
985.864	2938.58
986.162	2952.14
986.461	2955.76
986.759	2922.31
987.057	2885.93
987.355	2840.05
987.653	2878.7
987.951	2854.52
988.249	2845.25
988.547	2873.95
988.844	2839.83
989.142	2854.29
989.44	2785.82
989.737	2781.97
990.035	2788.98
990.332	2771.35
990.63	2718.47
990.927	2768.19
991.224	2727.29
991.521	2713.95
991.819	2719.15
992.116	2696.55
992.413	2659.94
992.71	2677.34
993.006	2673.05
993.303	2649.77
993.6	2619.27
993.897	2588.76
994.193	2598.48
994.49	2592.15
994.787	2578.59
995.083	2558.25
995.379	2545.14
995.676	2523.68
995.972	2488.88
996.268	2534.52
996.565	2491.81
996.861	2491.59
997.157	2465.6
997.453	2454.53
997.749	2486.39
998.044	2438.26
998.34	2455.66
998.636	2388.99
998.932	2427.18
999.227	2357.58
999.523	2360.97
999.818	2368.43
1000.114	2376.11
1000.409	2326.85
1000.704	2303.34
1001	2306.28
1001.295	2270.8
1001.59	2284.59
1001.885	2291.82
1002.18	2283.91
1002.475	2237.81
1002.77	2197.58
1003.065	2213.4
1003.359	2233.51
1003.654	2201.2
1003.949	2169.11
1004.243	2203.91
1004.538	2151.03
1004.832	2157.36
1005.127	2120.75
1005.421	2111.71
1005.715	2139.96
1006.009	2097.47
1006.304	2093.86
1006.598	2063.58
1006.892	2046.63
1007.186	2072.16
1007.48	2056.57
1007.773	2043.69
1008.067	2020.41
1008.361	2000.3
1008.655	1984.48
1008.948	1972.96
1009.242	2012.73
1009.535	1963.24
1009.829	1945.39
1010.122	1913.07
1010.415	1941.54
1010.708	1925.5
1011.001	1899.06
1011.295	1864.71
1011.588	1871.94
1011.881	1882.34
1012.173	1884.82
1012.466	1849.12
1012.759	1845.5
1013.052	1847.08
1013.344	1817.93
1013.637	1833.07
1013.93	1815.67
1014.222	1761.89
1014.514	1803.92
1014.807	1778.16
1015.099	1763.47
1015.391	1748.1
1015.683	1741.55
1015.976	1708.78
1016.268	1690.7
1016.56	1690.93
1016.851	1697.03
1017.143	1676.24
1017.435	1680.76
1017.727	1660.42
1018.018	1676.47
1018.31	1622.46
1018.602	1612.29
1018.893	1612.74
1019.185	1613.64
1019.476	1592.85
1019.767	1575.45
1020.058	1565.28
1020.35	1553.98
1020.641	1562.35
1020.932	1552.63
1021.223	1540.2
1021.514	1496.58
1021.804	1533.19
1022.095	1479.18
1022.386	1469.69
1022.677	1478.28
1022.967	1479.18
1023.258	1458.85
1023.548	1468.79
1023.839	1461.33
1024.129	1433.54
1024.419	1422.91
1024.709	1415.91
1025	1418.85
1025.29	1405.97
1025.58	1390.83
1025.87	1370.71
1026.16	1367.77
1026.449	1387.89
1026.739	1338.17
1027.029	1350.83
1027.319	1311.05
1027.608	1342.92
1027.898	1314.89
1028.187	1294.33
1028.477	1301.56
1028.766	1297.72
1029.055	1290.04
1029.344	1283.48
1029.634	1258.63
1029.923	1263.6
1030.212	1259.3
1030.501	1256.82
1030.79	1258.4
1031.078	1248.91
1031.367	1200.1
1031.656	1204.62
1031.945	1188.8
1032.233	1193.77
1032.522	1207.33
1032.81	1173.43
1033.099	1159.64
1033.387	1141.34
1033.675	1155.58
1033.963	1142.7
1034.251	1140.89
1034.54	1137.95
1034.828	1133.2
1035.116	1130.72
1035.403	1101.57
1035.691	1117.61
1035.979	1094.79
1036.267	1111.06
1036.554	1083.94
1036.842	1046.65
1037.129	1062.7
1037.417	1046.65
1037.704	1047.33
1037.992	1023.15
1038.279	1024.51
1038.566	1054.34
1038.853	1054.34
1039.14	1054.34
