Data from hue_300_FLMS001491_00024.txt Node
Date: Tue Feb 07 15:50:30 GMT 2017
User: dcchb
Spectrometer: FLMS00149
Trigger mode: 0
Integration Time (sec): 2.000000E-2
Scans to average: 10
Electric dark correction enabled: true
Nonlinearity correction enabled: false
Boxcar width: 0
XAxis mode: Wavelengths
Number of Pixels in Spectrum: 2048
>>>>>Begin Spectral Data<<<<<
341.393	-13.14
341.776	-13.14
342.16	-13.14
342.543	-62.17
342.927	-79.12
343.31	-64.89
343.693	-54.94
344.077	-59.24
344.46	-49.74
344.843	-64.89
345.226	-45.9
345.61	-37.32
345.993	2.46
346.376	-7.03
346.759	9.69
347.142	28.9
347.525	40.87
347.908	73.87
348.291	60.31
348.674	82.23
349.057	85.62
349.44	113.42
349.823	128.1
350.206	144.6
350.588	204.94
350.971	220.76
351.354	227.54
351.737	228.21
352.119	245.84
352.502	242.68
352.884	252.85
353.267	276.12
353.65	284.94
354.032	286.29
354.414	299.62
354.797	296.01
355.179	312.28
355.562	320.64
355.944	326.74
356.326	316.8
356.709	317.48
357.091	331.49
357.473	345.27
357.855	342.79
358.238	338.27
358.62	343.24
359.002	330.13
359.384	350.25
359.766	329.68
360.148	326.97
360.53	329.68
360.912	325.16
361.294	326.97
361.676	326.74
362.057	331.49
362.439	334.43
362.821	326.29
363.203	323.81
363.584	307.08
363.966	313.41
364.348	305.5
364.729	333.52
365.111	309.57
365.493	317.93
365.874	302.79
366.256	335.78
366.637	327.65
367.019	312.05
367.4	318.61
367.781	318.83
368.163	312.28
368.544	311.38
368.925	318.83
369.306	313.18
369.688	304.6
370.069	305.73
370.45	309.12
370.831	306.63
371.212	315.9
371.593	313.64
371.974	310.7
372.355	288.55
372.736	310.25
373.117	328.32
373.498	330.13
373.879	314.77
374.26	311.38
374.641	311.38
375.021	289.91
375.402	334.65
375.783	304.14
376.163	318.38
376.544	342.79
376.925	338.49
377.305	324.03
377.686	319.51
378.066	317.7
378.447	330.36
378.827	334.43
379.208	349.12
379.588	314.31
379.968	288.33
380.349	335.33
380.729	314.77
381.109	336.91
381.489	345.27
381.87	342.56
382.25	338.49
382.63	329.23
383.01	325.16
383.39	336.23
383.77	322
384.15	352.5
384.53	356.12
384.91	334.88
385.29	349.34
385.67	331.94
386.049	352.73
386.429	344.82
386.809	336.69
387.189	342.11
387.568	364.93
387.948	350.47
388.328	347.99
388.707	359.96
389.087	374.2
389.466	343.69
389.846	346.63
390.225	390.7
390.605	381.66
390.984	352.28
391.363	348.66
391.743	381.88
392.122	369.23
392.501	371.71
392.881	374.2
393.26	379.85
393.639	395.89
394.018	376.23
394.397	375.78
394.776	372.84
395.155	384.82
395.534	359.96
395.913	384.82
396.292	394.76
396.671	385.05
397.05	409.45
397.429	382.11
397.808	386.18
398.186	406.51
398.565	372.62
398.944	398.15
399.323	395.67
399.701	379.17
400.08	395.22
400.458	395.67
400.837	422.56
401.215	396.35
401.594	405.16
401.972	433.63
402.351	426.4
402.729	419.85
403.107	425.72
403.486	417.14
403.864	427.98
404.242	426.4
404.62	436.57
404.999	448.1
405.377	442.67
405.755	449.68
406.133	456.68
406.511	462.11
406.889	464.59
407.267	467.98
407.645	464.14
408.023	491.94
408.401	489.68
408.779	466.4
409.156	495.78
409.534	486.96
409.912	504.82
410.29	513.63
410.667	517.25
411.045	526.29
411.422	531.71
411.8	555.21
412.178	533.29
412.555	565.61
412.933	545.49
413.31	571.48
413.687	580.3
414.065	565.83
414.442	625.94
414.819	599.28
415.197	606.51
415.574	605.61
415.951	613.06
416.328	605.38
416.705	638.6
417.082	644.93
417.46	652.84
417.837	666.17
418.214	658.03
418.591	674.08
418.967	685.6
419.344	682.67
419.721	695.09
420.098	714.08
420.475	723.34
420.852	760.18
421.228	738.26
421.605	755.43
421.982	759.05
422.358	757.01
422.735	780.74
423.111	789.1
423.488	804.47
423.864	770.57
424.241	807.86
424.617	826.39
424.994	828.42
425.37	832.72
425.746	834.3
426.123	838.82
426.499	837.01
426.875	860.51
427.251	900.74
427.627	876.11
428.003	891.93
428.379	885.37
428.756	898.48
429.132	938.7
429.507	952.04
429.883	950.91
430.259	961.98
430.635	943.45
431.011	989.32
431.387	981.87
431.763	1011.47
432.138	1018.48
432.514	1032.94
432.89	1054.18
433.265	1060.28
433.641	1053.05
434.016	1078.14
434.392	1119.04
434.767	1085.82
435.143	1119.94
435.518	1119.04
435.894	1138.25
436.269	1154.52
436.644	1170.56
437.02	1161.3
437.395	1171.69
437.77	1199.71
438.145	1222.09
438.52	1222.31
438.895	1239.26
439.271	1227.51
439.646	1261.41
440.021	1262.99
440.395	1302.31
440.77	1253.27
441.145	1249.43
441.52	1301.86
441.895	1272.48
442.27	1303.89
442.645	1269.99
443.019	1267.96
443.394	1296.89
443.769	1313.38
444.143	1334.63
444.518	1326.72
444.892	1331.01
445.267	1308.86
445.641	1331.91
446.016	1346.6
446.39	1357.45
446.764	1339.6
447.139	1366.04
447.513	1378.01
447.887	1363.78
448.262	1378.24
448.636	1369.65
449.01	1386.6
449.384	1389.77
449.758	1391.12
450.132	1408.07
450.506	1409.88
450.88	1400.84
451.254	1419.6
451.628	1420.73
452.002	1453.04
452.376	1492.14
452.75	1475.19
453.123	1483.32
453.497	1480.61
453.871	1468.18
454.244	1513.38
454.618	1488.97
454.992	1537.11
455.365	1495.53
455.739	1566.26
456.112	1565.35
456.486	1558.35
456.859	1573.49
457.232	1595.18
457.606	1566.71
457.979	1595.64
458.352	1642.64
458.725	1624.56
459.099	1658.46
459.472	1670.21
459.845	1675.86
460.218	1663.43
460.591	1676.54
460.964	1696.42
461.337	1710.66
461.71	1750.21
462.083	1757.44
462.456	1750.21
462.829	1738.01
463.201	1768.29
463.574	1780.49
463.947	1766.25
464.32	1832.92
464.692	1796.53
465.065	1846.7
465.438	1852.58
465.81	1871.33
466.183	1871.11
466.555	1916.31
466.928	1905.01
467.3	1897.32
467.672	1971.45
468.045	1985.23
468.417	1958.34
468.789	2011.22
469.161	1993.82
469.534	2019.58
469.906	2059.58
470.278	2049.64
470.65	2030.43
471.022	2075.85
471.394	2116.98
471.766	2162.63
472.138	2113.59
472.51	2148.62
472.882	2236.98
473.253	2207.37
473.625	2256.86
473.997	2263.64
474.369	2267.93
474.74	2260.7
475.112	2272.23
475.484	2358.33
475.855	2347.48
476.227	2380.7
476.598	2417.54
476.97	2427.48
477.341	2472.22
477.713	2476.06
478.084	2484.43
478.455	2561.49
478.827	2557.64
479.198	2582.05
479.569	2610.98
479.94	2641.94
480.311	2681.26
480.682	2711.76
481.053	2716.06
481.424	2782.05
481.795	2757.19
482.166	2812.55
482.537	2818.43
482.908	2883.74
483.279	2914.25
483.65	2903.4
484.021	2961.7
484.391	3008.71
484.762	2978.88
485.133	2999.67
485.503	3039.21
485.874	3097.97
486.244	3105.43
486.615	3142.26
486.985	3137.74
487.356	3207.57
487.726	3252.54
488.097	3250.28
488.467	3277.4
488.837	3328.7
489.207	3354.46
489.578	3397.85
489.948	3417.06
490.318	3459.54
490.688	3412.99
491.058	3485.98
491.428	3523.04
491.798	3544.29
492.168	3589.26
492.538	3581.8
492.908	3631.51
493.278	3618.86
493.648	3630.84
494.017	3656.6
494.387	3692.53
494.757	3677.62
495.126	3748.57
495.496	3744.96
495.866	3774.34
496.235	3795.58
496.605	3809.36
496.974	3845.52
497.344	3830.61
497.713	3853.2
498.082	3909.25
498.452	3925.97
498.821	3916.03
499.19	3919.64
499.559	3941.34
499.928	3958.96
500.298	3986.53
500.667	4021.11
501.036	4002.13
501.405	4021.33
501.774	4007.32
502.143	4071.05
502.512	4090.26
502.88	4099.52
503.249	4086.42
503.618	4149.02
503.987	4117.38
504.356	4126.42
504.724	4185.4
505.093	4124.84
505.462	4154.66
505.83	4189.24
506.199	4207.77
506.567	4239.41
506.936	4223.14
507.304	4300.88
507.672	4260.2
508.041	4296.36
508.409	4324.38
508.777	4310.14
509.145	4312.4
509.514	4372.74
509.882	4349.91
510.25	4365.73
510.618	4426.3
510.986	4411.61
511.354	4378.16
511.722	4411.16
512.09	4419.97
512.458	4480.08
512.826	4465.17
513.193	4496.35
513.561	4513.07
513.929	4527.08
514.297	4552.39
514.664	4559.17
515.032	4523.69
515.4	4572.96
515.767	4578.83
516.135	4612.28
516.502	4579.29
516.869	4613.86
517.237	4610.25
517.604	4624.03
517.972	4631.71
518.339	4669.23
518.706	4672.17
519.073	4671.26
519.44	4708.77
519.808	4678.94
520.175	4682.11
520.542	4746.74
520.909	4767.08
521.276	4778.15
521.643	4812.05
522.009	4789.9
522.376	4817.92
522.743	4836
523.11	4853.4
523.477	4926.17
523.843	4959.62
524.21	4924.14
524.577	4963.91
524.943	4972.72
525.31	5001.2
525.676	5029.44
526.043	5051.36
526.409	5078.93
526.776	5150.34
527.142	5115.09
527.508	5146.73
527.874	5126.62
528.241	5202.09
528.607	5210.68
528.973	5225.15
529.339	5269.21
529.705	5278.7
530.071	5298.59
530.437	5376.1
530.803	5372.49
531.169	5402.09
531.535	5411.13
531.901	5376.78
532.267	5418.36
532.632	5472.6
532.998	5480.96
533.364	5497.91
533.73	5505.82
534.095	5619.71
534.461	5561.86
534.826	5639.82
535.192	5606.6
535.557	5616.55
535.923	5639.82
536.288	5648.86
536.653	5696.77
537.019	5682.53
537.384	5695.42
537.749	5737
538.114	5795.75
538.479	5777.22
538.845	5790.33
539.21	5811.8
539.575	5841.4
539.94	5891.57
540.305	5913.04
540.67	5899.93
541.034	5923.66
541.399	5982.19
541.764	5993.71
542.129	5996.65
542.494	5996.42
542.858	6049.3
543.223	6072.13
543.587	6087.5
543.952	6098.34
544.316	6179.47
544.681	6168.62
545.045	6206.14
545.41	6206.36
545.774	6304.89
546.138	6281.16
546.503	6296.76
546.867	6293.59
547.231	6304.66
547.595	6376.75
547.959	6334.27
548.324	6424.21
548.688	6431.67
549.052	6442.29
549.416	6415.62
549.779	6459.69
550.143	6476.41
550.507	6504.43
550.871	6570.65
551.235	6552.12
551.599	6568.16
551.962	6588.05
552.326	6623.75
552.689	6665.33
553.053	6603.41
553.417	6573.58
553.78	6772.45
554.143	6743.3
554.507	6727.48
554.87	6737.87
555.234	6772.22
555.597	6751.43
555.96	6775.39
556.323	6803.18
556.686	6837.53
557.05	6877.98
557.413	6880.69
557.776	6901.94
558.139	6938.77
558.502	6954.59
558.865	6920.24
559.228	7006.57
559.59	7019.9
559.953	7058.09
560.316	7105.1
560.679	7073.68
561.041	7152.33
561.404	7081.37
561.767	7201.14
562.129	7175.6
562.492	7259.67
562.854	7141.7
563.217	7296.5
563.579	7277.52
563.941	7289.72
564.304	7306.22
564.666	7351.87
565.028	7415.37
565.39	7374.47
565.753	7464.86
566.115	7484.29
566.477	7506.89
566.839	7472.09
567.201	7503.96
567.563	7567.91
567.925	7551.41
568.287	7581.24
568.648	7618.3
569.01	7661.01
569.372	7701.24
569.734	7724.06
570.095	7755.93
570.457	7783.5
570.819	7895.13
571.18	7828.69
571.542	7884.74
571.903	7880.67
572.265	7910.05
572.626	8018.52
572.987	8001.12
573.349	8119.98
573.71	8126.31
574.071	8152.3
574.432	8223.03
574.794	8339.19
575.155	8405.85
575.516	8358.62
575.877	8442.91
576.238	8486.53
576.599	8561.33
576.96	8626.86
577.32	8704.6
577.681	8842.68
578.042	8919.51
578.403	8924.03
578.763	9105.04
579.124	9163.12
579.485	9365.6
579.845	9400.4
580.206	9553.17
580.566	9589.78
580.927	9684.01
581.287	9870.67
581.648	9960.16
582.008	10100.27
582.368	10252.81
582.728	10484.67
583.089	10587.72
583.449	10755.85
583.809	10950.87
584.169	11160.58
584.529	11255.5
584.889	11513.79
585.249	11651.42
585.609	11840.34
585.969	12184.74
586.329	12308.57
586.688	12551.73
587.048	12826.3
587.408	13076.69
587.768	13193.52
588.127	13452.27
588.487	13702.21
588.846	14043.22
589.206	14225.81
589.565	14563.88
589.925	14777.89
590.284	14979.24
590.643	15318.21
591.003	15629.17
591.362	15965.65
591.721	16151.64
592.08	16491.06
592.44	16790.72
592.799	17070.48
593.158	17381.66
593.517	17650.58
593.876	18004.7
594.235	18314.07
594.593	18647.62
594.952	18930.32
595.311	19143.65
595.67	19577.76
596.029	19915.83
596.387	20140.91
596.746	20615.93
597.104	20709.26
597.463	21050.94
597.822	21474.89
598.18	21581.78
598.538	21938.38
598.897	22350.34
599.255	22431.25
599.613	22999.59
599.972	23087.73
600.33	23419.69
600.688	23624.21
601.046	23980.58
601.404	24360.24
601.762	24513.23
602.12	25090.84
602.478	25337.16
602.836	25475.01
603.194	25621.67
603.552	25916.13
603.91	26134.2
604.268	26559.95
604.625	26705.71
604.983	26871.36
605.341	27258.69
605.698	27538.91
606.056	27844.44
606.413	27917.66
606.771	28341.83
607.128	28481.26
607.485	28606.23
607.843	28904.75
608.2	29276.49
608.557	29616.37
608.914	29711.96
609.272	30017.26
609.629	30261.77
609.986	30639.39
610.343	30647.08
610.7	30949.21
611.057	31241.41
611.414	31246.16
611.771	31427.62
612.127	31770.44
612.484	31881.17
612.841	32146.02
613.198	32174.94
613.554	32385.33
613.911	32757.08
614.267	32811.31
614.624	32984.64
614.98	33174.24
615.337	33587.56
615.693	33508.47
616.05	33604.29
616.406	33941.23
616.762	33911.4
617.118	34190.26
617.475	34234.55
617.831	34413.08
618.187	34588.21
618.543	34729.91
618.899	35049.45
619.255	35156.34
619.611	35085.38
619.967	35322.66
620.323	35569.21
620.678	35408.08
621.034	35492.82
621.39	35672.48
621.746	35859.37
622.101	36245.35
622.457	35899.59
622.812	36105.69
623.168	36292.12
623.523	36289.64
623.879	36562.4
624.234	36497.77
624.589	36697.54
624.945	36695.73
625.3	36900.24
625.655	36791.32
626.01	37019.34
626.365	36955.84
626.72	37081.48
627.075	37094.59
627.43	37135.04
627.785	37226.79
628.14	37337.07
628.495	37310.63
628.85	37476.73
629.205	37410.74
629.559	37609.15
629.914	37525.31
630.269	37570.74
630.623	37546.1
630.978	37589.27
631.332	37674.91
631.687	37881.69
632.041	37718.3
632.396	37817.51
632.75	37680.79
633.104	37784.06
633.459	37654.35
633.813	37697.96
634.167	37826.32
634.521	37753.1
634.875	37812.08
635.229	37751.52
635.583	37719.43
635.937	37801.69
636.291	37894.79
636.645	37774.35
636.999	37736.38
637.352	37902.48
637.706	37747.45
638.06	37868.35
638.413	37862.25
638.767	37662.03
639.121	37793.1
639.474	37627.68
639.828	37766.89
640.181	37794.01
640.534	37700.45
640.888	37640.79
641.241	37529.83
641.594	37724.63
641.947	37742.93
642.301	37774.57
642.654	37800.33
643.007	37789.49
643.36	37659.32
643.713	37717.4
644.066	37765.76
644.419	37530.06
644.771	37386.33
645.124	37215.72
645.477	37057.3
645.83	36752
646.182	36777.31
646.535	36628.61
646.888	36562.85
647.24	36521.5
647.593	36819.34
647.945	36739.34
648.298	36522.85
648.65	36487.6
649.002	36418.22
649.355	36676.75
649.707	36546.81
650.059	36636.07
650.411	37012.56
650.763	37289.39
651.115	37569.15
651.467	37519.66
651.819	37422.94
652.171	37388.37
652.523	37360.12
652.875	37372.1
653.227	37106.34
653.578	37408.03
653.93	37236.51
654.282	37266.56
654.633	37104.31
654.985	37243.29
655.337	37226.11
655.688	37259.78
656.039	37341.81
656.391	36942.28
656.742	37063.18
657.094	37128.26
657.445	37166.9
657.796	37170.52
658.147	37143.4
658.498	37120.35
658.849	37320.35
659.2	37125.32
659.551	36988.15
659.902	37175.94
660.253	37130.75
660.604	37112.89
660.955	36980.69
661.306	37156.51
661.656	37023.63
662.007	37112.44
662.358	37128.04
662.708	37173.23
663.059	36998.55
663.409	36842.39
663.76	36963.07
664.11	36999.68
664.461	37062.95
664.811	37086.68
665.161	36995.16
665.511	37049.62
665.862	37008.94
666.212	37129.39
666.562	37115.61
666.912	37112.67
667.262	37050.07
667.612	36965.55
667.962	37119.45
668.312	37035.83
668.662	37185.89
669.011	37108.15
669.361	37104.76
669.711	36955.16
670.06	36822.96
670.41	36887.59
670.76	36847.82
671.109	36967.59
671.459	36823.41
671.808	36812.34
672.157	36916.97
672.507	36814.6
672.856	36709.06
673.205	36872.45
673.554	36944.99
673.904	36821.15
674.253	37034.03
674.602	36824.54
674.951	36381.16
675.3	36251.22
675.649	36662.96
675.998	36525.79
676.346	36619.8
676.695	36728.5
677.044	36537.54
677.393	36694.37
677.741	36562.17
678.09	36514.49
678.438	36359.02
678.787	36539.12
679.135	36610.08
679.484	36340.49
679.832	36521.5
680.181	36265.91
680.529	36238.79
680.877	36246.93
681.225	36202.64
681.573	36408.96
681.922	36189.53
682.27	35997.9
682.618	36048.97
682.966	36047.84
683.314	36084.67
683.661	35862.98
684.009	35745.25
684.357	35738.69
684.705	35786.6
685.053	35717.45
685.4	35650.11
685.748	35451.24
686.095	35483.33
686.443	35236.11
686.79	35340.29
687.138	35381.64
687.485	35404.24
687.832	35176.22
688.18	35392.49
688.527	35093.51
688.874	35008.32
689.221	34958.83
689.568	34882.67
689.915	34804.93
690.262	34806.51
690.609	34735.1
690.956	34473.64
691.303	34561.55
691.65	34445.85
691.997	34443.59
692.344	34182.58
692.69	34220.77
693.037	34183.93
693.383	33999.98
693.73	34114.78
694.077	33831.4
694.423	34045.86
694.769	33743.27
695.116	33759.08
695.462	33685.41
695.808	33583.72
696.155	33669.82
696.501	33422.6
696.847	33386.44
697.193	33153.68
697.539	33277.74
697.885	33084.75
698.231	32783.52
698.577	32930.63
698.923	32844.31
699.269	32724.08
699.614	32534.94
699.96	32682.73
700.306	32513.47
700.651	32383.53
700.997	32307.82
701.342	32238.9
701.688	32132.01
702.033	32107.38
702.379	32080.94
702.724	32014.5
703.069	32079.81
703.415	31556.2
703.76	31765.69
704.105	31681.17
704.45	31656.31
704.795	31395.3
705.14	31349.43
705.485	31362.54
705.83	31167.51
706.175	31186.04
706.52	31132.26
706.865	31103.11
707.209	31070.57
707.554	30774.08
707.899	30946.5
708.243	30732.27
708.588	30696.79
708.932	30508.32
709.277	30399.4
709.621	30659.73
709.966	30378.16
710.31	30339.06
710.654	30221.1
710.998	30327.76
711.342	30270.14
711.687	30117.15
712.031	29936.13
712.375	29899.98
712.719	29849.58
713.063	29894.78
713.407	29948.56
713.75	29785.63
714.094	29728.68
714.438	29648.23
714.782	29569.59
715.125	29535.69
715.469	29579.98
715.812	29415.92
716.156	29192.42
716.499	29389.71
716.843	29206.21
717.186	29091.64
717.53	29274.23
717.873	29309.26
718.216	29165.98
718.559	29049.38
718.902	28861.81
719.246	28961.02
719.589	28848.7
719.932	28668.14
720.275	28761.25
720.617	28686.9
720.96	28639.9
721.303	28625.89
721.646	28676.51
721.989	28488.94
722.331	28485.55
722.674	28482.39
723.016	28452.56
723.359	28469.73
723.701	28307.25
724.044	28118.55
724.386	28080.59
724.729	28209.85
725.071	28069.97
725.413	28111.77
725.755	28059.12
726.097	28006.69
726.439	27792.24
726.782	27752.69
727.124	28024.09
727.465	27813.25
727.807	27753.82
728.149	27827.49
728.491	27605.8
728.833	27638.34
729.175	27563.99
729.516	27538.68
729.858	27554.73
730.199	27610.32
730.541	27491.9
730.882	27487.61
731.224	27551.56
731.565	27218.24
731.906	27293.27
732.248	27410.1
732.589	27249.65
732.93	27003.56
733.271	27140.73
733.612	27136.89
733.953	27201.52
734.294	27066.38
734.635	26880.39
734.976	27070.22
735.317	26943.67
735.658	26864.35
735.999	26843.11
736.339	26717.24
736.68	26936.66
737.021	26796.33
737.361	26698.48
737.702	26862.32
738.042	26627.75
738.383	26620.97
738.723	26671.81
739.063	26579.39
739.404	26638.37
739.744	26483.8
740.084	26473.17
740.424	26525.83
740.764	26420.07
741.104	26558.14
741.444	26378.04
741.784	26310.01
742.124	26267.98
742.464	26153.63
742.804	26220.07
743.143	26199.28
743.483	26224.14
743.823	26100.53
744.162	26034.09
744.502	26098.49
744.841	25806.07
745.181	26115.22
745.52	25981.21
745.86	26017.59
746.199	25989.57
746.538	25921.1
746.877	25910.02
747.216	26004.26
747.556	25837.94
747.895	25763.81
748.234	25753.87
748.573	25706.41
748.911	25680.2
749.25	25672.74
749.589	25592.97
749.928	25585.06
750.267	25685.62
750.605	25540.54
750.944	25479.98
751.283	25413.77
751.621	25458.96
751.96	25353.88
752.298	25396.14
752.636	25408.8
752.975	25270.04
753.313	25047.9
753.651	25285.63
753.989	25235.01
754.327	25106.66
754.666	25043.16
755.004	25086.77
755.342	25110.05
755.679	25070.95
756.017	24915.93
756.355	25080.44
756.693	24854.23
757.031	24868.47
757.368	24770.17
757.706	24828.92
758.044	24615.37
758.381	24785.53
758.719	24660.34
759.056	24682.94
759.394	24496.95
759.731	24430.52
760.068	24463.51
760.405	24239.56
760.743	24371.53
761.08	24311.42
761.417	24193.46
761.754	24210.41
762.091	24075.04
762.428	24015.61
762.765	23987.36
763.102	24082.73
763.438	23908.5
763.775	23784.43
764.112	23801.61
764.449	23824.88
764.785	23650.2
765.122	23568.62
765.458	23409.98
765.795	23557.32
766.131	23365.69
766.467	23282.75
766.804	23168.85
767.14	23085.69
767.476	23151.68
767.812	23077.11
768.148	23076.2
768.485	22931.57
768.821	22769.99
769.157	22610.68
769.492	22529.1
769.828	22690.67
770.164	22477.35
770.5	22424.24
770.836	22512.83
771.171	22298.59
771.507	22191.93
771.842	22079.39
772.178	22048.66
772.513	22118.94
772.849	21920.75
773.184	21845.5
773.519	21833.97
773.855	21744.26
774.19	21617.26
774.525	21611.38
774.86	21572.29
775.195	21507.65
775.53	21493.19
775.865	21235.12
776.2	21170.26
776.535	21147.44
776.87	21129.59
777.205	20940.21
777.539	20966.2
777.874	20912.87
778.209	20760.33
778.543	20775.24
778.878	20574.8
779.212	20653.44
779.547	20415.71
779.881	20598.07
780.215	20374.58
780.55	20254.13
780.884	20230.63
781.218	20139.33
781.552	20253.45
781.886	20046.22
782.22	19897.98
782.554	19843.29
782.888	19747.48
783.222	19664.99
783.556	19654.82
783.889	19655.95
784.223	19498.89
784.557	19472
784.89	19495.05
785.224	19323.08
785.557	19223.42
785.891	19192.91
786.224	19105.46
786.558	19126.02
786.891	18927.16
787.224	18811
787.557	18840.61
787.891	18686.71
788.224	18739.37
788.557	18674.96
788.89	18690.33
789.223	18557.22
789.556	18440.16
789.888	18364.46
790.221	18226.39
790.554	18163.79
790.887	18091.25
791.219	18010.57
791.552	18078.37
791.884	17927.41
792.217	17976
792.549	17984.58
792.882	17785.27
793.214	17673.86
793.546	17632.73
793.879	17459.17
794.211	17468.89
794.543	17512.96
794.875	17420.76
795.207	17450.36
795.539	17386.86
795.871	17369.23
796.203	17213.53
796.535	17193.19
796.867	17116.13
797.198	17083.82
797.53	17058.05
797.862	16974.21
798.193	16943.03
798.525	16862.13
798.856	16740.77
799.188	16722.92
799.519	16653.77
799.85	16537.62
800.182	16577.39
800.513	16545.75
800.844	16399.31
801.175	16472.53
801.506	16394.79
801.837	16333.1
802.168	16320.9
802.499	16330.39
802.83	16192.54
803.161	16056.95
803.491	16137.4
803.822	16079.32
804.153	16082.71
804.483	15952.09
804.814	15869.84
805.145	15816.51
805.475	15831.19
805.805	15783.29
806.136	15726.79
806.466	15754.59
806.796	15644.76
807.126	15478.21
807.457	15520.47
807.787	15589.62
808.117	15527.7
808.447	15313.02
808.777	15436.4
809.107	15261.72
809.436	15315.05
809.766	15257.2
810.096	15201.83
810.426	15134.04
810.755	15235.28
811.085	15215.62
811.414	15056.3
811.744	14949.64
812.073	15012.68
812.403	14909.86
812.732	14943.53
813.061	14835.97
813.39	14753.71
813.719	14760.94
814.049	14839.13
814.378	14692.01
814.707	14600.72
815.036	14626.93
815.365	14524.56
815.693	14433.49
816.022	14522.98
816.351	14456.31
816.68	14287.28
817.008	14405.69
817.337	14225.81
817.665	14254.29
817.994	14257.9
818.322	14215.42
818.651	14123.89
818.979	14145.14
819.307	14133.84
819.636	14160.96
819.964	13980.85
820.292	14000.06
820.62	13995.76
820.948	13968.87
821.276	13977.46
821.604	13990.79
821.932	13977.68
822.259	13984.46
822.587	13937.91
822.915	13929.55
823.243	13972.49
823.57	13830.12
823.898	13913.96
824.225	13925.26
824.553	13898.36
824.88	13934.52
825.207	13922.77
825.535	13860.4
825.862	13927.06
826.189	13922.54
826.516	13931.58
826.843	13990.11
827.17	13958.25
827.497	13992.82
827.824	13977.23
828.151	14028.3
828.478	13927.29
828.805	13866.73
829.131	13918.02
829.458	13759.38
829.785	13803.9
830.111	13818.59
830.438	13907.63
830.764	13888.65
831.09	13868.76
831.417	13785.6
831.743	13895.65
832.069	13836.22
832.395	13744.47
832.722	13882.54
833.048	13724.58
833.374	13745.83
833.7	13655.43
834.026	13778.37
834.351	13809.33
834.677	13698.82
835.003	13722.32
835.329	13727.97
835.654	13639.84
835.98	13636
836.306	13672.38
836.631	13653.17
836.956	13688.65
837.282	13603.68
837.607	13555.32
837.932	13527.98
838.258	13562.1
838.583	13515.1
838.908	13413.18
839.233	13455.89
839.558	13497.47
839.883	13388.55
840.208	13304.03
840.533	13333.41
840.858	13316.91
841.182	13344.71
841.507	13270.36
841.832	13172.51
842.156	13137.25
842.481	13178.83
842.805	13160.53
843.13	13117.82
843.454	13109.23
843.778	13079.63
844.103	12973.87
844.427	12986.3
844.751	12986.52
845.075	12966.64
845.399	12890.48
845.723	12844.38
846.047	12838.05
846.371	12723.7
846.695	12707.89
847.019	12619.53
847.343	12589.92
847.666	12528.91
847.99	12375.47
848.313	12477.38
848.637	12382.25
848.96	12322.59
849.284	12278.52
849.607	12198.3
849.931	12215.02
850.254	12107.68
850.577	12103.61
850.9	11996.49
851.223	11984.06
851.546	11938.19
851.869	11786.78
852.192	11931.41
852.515	11823.84
852.838	11708.82
853.161	11742.26
853.483	11679.21
853.806	11637.63
854.129	11566.9
854.451	11550.4
854.774	11602.83
855.096	11512.44
855.419	11424.76
855.741	11434.47
856.063	11324.87
856.385	11431.54
856.708	11338.43
857.03	11282.39
857.352	11245.78
857.674	11264.99
857.996	11133.92
858.318	11109.96
858.64	11106.57
858.961	11123.75
859.283	11148.38
859.605	11078.1
859.926	11018.21
860.248	11062.05
860.57	10919.46
860.891	10909.74
861.212	10832.23
861.534	10871.55
861.855	10806.02
862.176	10839.69
862.498	10814.15
862.819	10784.09
863.14	10748.62
863.461	10742.29
863.782	10714.04
864.103	10713.81
864.424	10637.43
864.745	10633.14
865.065	10642.63
865.386	10559.02
865.707	10598.34
866.027	10582.52
866.348	10591.78
866.668	10572.35
866.989	10526.02
867.309	10484.67
867.63	10483.31
867.95	10504.55
868.27	10399.02
868.59	10384.78
868.91	10361.96
869.23	10455.52
869.55	10311.57
869.87	10378.68
870.19	10329.87
870.51	10320.15
870.83	10348.17
871.15	10241.51
871.469	10230.21
871.789	10295.29
872.109	10222.3
872.428	10173.94
872.748	10199.03
873.067	10161.06
873.386	10272.47
873.706	10197.9
874.025	10122.64
874.344	10102.3
874.663	10024.11
874.982	10064.11
875.301	10018.01
875.62	10012.36
875.939	9998.13
876.258	10003.32
876.577	10058.92
876.896	9957.22
877.214	9940.05
877.533	9978.01
877.852	9879.71
878.17	9919.94
878.489	9879.49
878.807	9848.3
879.125	9871.12
879.444	9843.55
879.762	9788.64
880.08	9788.87
880.398	9779.15
880.716	9754.52
881.034	9741.64
881.352	9724.24
881.67	9764.46
881.988	9712.94
882.306	9695.31
882.624	9634.52
882.941	9624.58
883.259	9506.84
883.577	9562.66
883.894	9485.6
884.212	9555.88
884.529	9568.08
884.846	9464.36
885.164	9508.2
885.481	9413.96
885.798	9420.06
886.115	9359.27
886.432	9415.09
886.75	9336.68
887.067	9298.71
887.383	9316.11
887.7	9288.99
888.017	9295.77
888.334	9256.9
888.651	9262.1
888.967	9290.35
889.284	9173.97
889.6	9165.61
889.917	9063.01
890.233	9086.29
890.55	9096.68
890.866	9119.05
891.182	9043.58
891.498	9042.45
891.815	8942.11
892.131	8850.59
892.447	8898.72
892.763	8857.59
893.079	8840.64
893.395	8858.72
893.71	8818.5
894.026	8802.9
894.342	8796.58
894.657	8716.8
894.973	8729.46
895.289	8684.94
895.604	8662.12
895.92	8653.3
896.235	8551.84
896.55	8519.75
896.865	8521.33
897.181	8489.24
897.496	8463.25
897.811	8446.76
898.126	8476.36
898.441	8397.49
898.756	8351.62
899.071	8293.54
899.386	8312.97
899.7	8278.62
900.015	8266.87
900.33	8242.24
900.644	8159.53
900.959	8157.72
901.273	8108.46
901.588	8086.54
901.902	8001.8
902.216	7988.01
902.531	8029.14
902.845	7950.72
903.159	7938.97
903.473	7932.42
903.787	7855.13
904.101	7870.27
904.415	7788.69
904.729	7811.29
905.042	7760.45
905.356	7714.35
905.67	7680.9
905.984	7707.11
906.297	7675.7
906.611	7611.3
906.924	7667.11
907.237	7615.36
907.551	7599.09
907.864	7518.64
908.177	7458.76
908.491	7449.04
908.804	7388.7
909.117	7403.84
909.43	7371.08
909.743	7279.78
910.056	7292.66
910.368	7283.4
910.681	7240.69
910.994	7215.15
911.307	7210.63
911.619	7165.89
911.932	7175.38
912.244	7059.45
912.557	7059.9
912.869	7054.7
913.181	7021.03
913.494	6991.43
913.806	6950.07
914.118	6869.62
914.43	6855.84
914.742	6861.94
915.054	6821.26
915.366	6815.61
915.678	6757.53
915.99	6752.56
916.302	6713.24
916.613	6670.53
916.925	6681.83
917.236	6608.16
917.548	6628.72
917.859	6648.61
918.171	6547.6
918.482	6517.09
918.794	6487.48
919.105	6501.72
919.416	6445.68
919.727	6402.52
920.038	6358.22
920.349	6384.21
920.66	6362.97
920.971	6355.51
921.282	6261.05
921.593	6327.49
921.903	6242.97
922.214	6200.94
922.525	6187.38
922.835	6177.44
923.146	6069.64
923.456	6094.5
923.767	6090.43
924.077	6111.68
924.387	6040.26
924.697	6000.49
925.008	5928.4
925.318	5919.36
925.628	5892.47
925.938	5931.79
926.248	5856.09
926.558	5835.75
926.867	5823.77
927.177	5781.51
927.487	5778.12
927.796	5736.32
928.106	5715.75
928.416	5702.19
928.725	5668.07
929.034	5596.66
929.344	5646.38
929.653	5561.41
929.962	5591.01
930.271	5585.59
930.581	5514.18
930.89	5515.76
931.199	5504.46
931.508	5476.44
931.817	5483.44
932.125	5412.03
932.434	5390.56
932.743	5359.15
933.051	5368.87
933.36	5330.23
933.669	5257.69
933.977	5306.95
934.286	5323
934.594	5236.67
934.902	5205.94
935.21	5199.38
935.519	5175.43
935.827	5159.38
936.135	5101.08
936.443	5086.84
936.751	5058.6
937.059	5064.47
937.367	5036
937.674	5009.33
937.982	4969.56
938.29	5005.26
938.597	4951.03
938.905	4900.41
939.213	4882.56
939.52	4856.79
939.827	4941.54
940.135	4841.2
940.442	4857.92
940.749	4782.22
941.056	4816.12
941.363	4730.02
941.67	4737.25
941.977	4749.9
942.284	4711.03
942.591	4671.49
942.898	4660.41
943.205	4676.46
943.511	4582.45
943.818	4565.28
944.125	4593.07
944.431	4586.97
944.738	4558.04
945.044	4541.77
945.35	4473.07
945.657	4451.38
945.963	4473.75
946.269	4406.86
946.575	4436.47
946.881	4397.37
947.187	4372.51
947.493	4379.29
947.799	4378.39
948.105	4346.07
948.41	4297.94
948.716	4306.07
949.022	4257.94
949.327	4244.15
949.633	4202.8
949.938	4261.33
950.244	4193.76
950.549	4167.77
950.854	4161.44
951.16	4155.79
951.465	4118.28
951.77	4099.52
952.075	4065.4
952.38	4052.29
952.685	4076.02
952.99	4020.43
953.294	3987.21
953.599	3999.87
953.904	4003.48
954.209	3883.49
954.513	3971.39
954.818	3957.61
955.122	3942.01
955.426	3919.42
955.731	3904.95
956.035	3840.32
956.339	3845.52
956.643	3860.44
956.948	3817.95
957.252	3773.66
957.556	3774.79
957.86	3780.21
958.163	3756.48
958.467	3737.73
958.771	3739.53
959.075	3700.67
959.378	3656.37
959.682	3643.49
959.985	3656.37
960.289	3654.79
960.592	3626.32
960.896	3593.32
961.199	3588.58
961.502	3553.55
961.805	3531.86
962.108	3539.31
962.411	3537.73
962.714	3514.46
963.017	3477.62
963.32	3525.08
963.623	3496.6
963.926	3440.79
964.228	3445.08
964.531	3439.2
964.833	3386.1
965.136	3396.94
965.438	3399.2
965.741	3323.95
966.043	3334.57
966.345	3384.06
966.648	3288.02
966.95	3344.29
967.252	3316.95
967.554	3289.6
967.856	3308.59
968.158	3193.56
968.46	3206.67
968.761	3249.6
969.063	3209.83
969.365	3163.5
969.666	3197.85
969.968	3145.65
970.269	3153.11
970.571	3149.04
970.872	3132.09
971.174	3098.65
971.475	3098.2
971.776	3127.8
972.077	3075.37
972.378	3066.33
972.679	3022.27
972.98	3020.68
973.281	3048.25
973.582	2997.63
973.883	2984.07
974.183	2970.97
974.484	2970.29
974.785	2939.1
975.085	2921.7
975.386	2933.91
975.686	2928.71
975.986	2868.82
976.287	2876.96
976.587	2860.01
976.887	2894.81
977.187	2848.26
977.487	2850.52
977.787	2824.53
978.087	2805.1
978.387	2794.25
978.687	2798.32
978.987	2761.26
979.286	2765.77
979.586	2776.85
979.885	2741.59
980.185	2713.8
980.484	2711.31
980.784	2708.6
981.083	2689.84
981.382	2677.19
981.682	2654.37
981.981	2680.35
982.28	2667.02
982.579	2627.25
982.878	2616.85
983.177	2601.49
983.475	2584.99
983.774	2567.81
984.073	2540.02
984.372	2543.86
984.67	2556.51
984.969	2538.89
985.267	2532.33
985.566	2498.44
985.864	2482.17
986.162	2496.4
986.461	2436.29
986.759	2442.85
987.057	2459.57
987.355	2441.04
987.653	2455.5
987.951	2433.13
988.249	2397.65
988.547	2386.35
988.844	2362.17
989.142	2369.63
989.44	2364.43
989.737	2334.83
990.035	2304.32
990.332	2341.83
990.63	2323.53
990.927	2264.32
991.224	2311.78
991.521	2286.24
991.819	2232.91
992.116	2301.61
992.413	2264.54
992.71	2237.88
993.006	2225.22
993.303	2210.54
993.6	2229.29
993.897	2181.84
994.193	2247.14
994.49	2206.24
994.787	2183.42
995.083	2163.08
995.379	2155.4
995.676	2162.17
995.972	2129.41
996.268	2149.75
996.565	2102.74
996.861	2134.6
997.157	2096.19
997.453	2091.44
997.749	2085.11
998.044	2088.28
998.34	2055.28
998.636	2054.38
998.932	2028.84
999.227	2037.43
999.523	2014.83
999.818	1985.23
1000.114	2015.29
1000.409	2007.6
1000.704	1952.01
1001	1942.97
1001.295	1956.3
1001.59	1982.74
1001.885	1930.99
1002.18	1949.3
1002.475	1906.59
1002.77	1911.56
1003.065	1902.52
1003.359	1901.16
1003.654	1868.17
1003.949	1860.71
1004.243	1860.94
1004.538	1850.09
1004.832	1817.33
1005.127	1807.83
1005.421	1822.07
1005.715	1829.75
1006.009	1809.42
1006.304	1764.22
1006.598	1759.47
1006.892	1763.09
1007.186	1700.49
1007.48	1716.08
1007.773	1711.34
1008.067	1708.4
1008.361	1722.64
1008.655	1684.22
1008.948	1692.81
1009.242	1687.61
1009.535	1639.93
1009.829	1642.87
1010.122	1674.96
1010.415	1615.52
1010.708	1626.6
1011.001	1610.78
1011.295	1609.87
1011.588	1588.4
1011.881	1598.57
1012.173	1603.32
1012.466	1591.12
1012.759	1577.78
1013.052	1575.75
1013.344	1565.81
1013.637	1541.17
1013.93	1509.54
1014.222	1531.91
1014.514	1501.18
1014.807	1516.99
1015.099	1485.58
1015.391	1520.16
1015.683	1479.93
1015.976	1500.05
1016.268	1476.32
1016.56	1446.71
1016.851	1439.03
1017.143	1435.41
1017.435	1427.28
1017.727	1427.5
1018.018	1413.95
1018.31	1394.74
1018.602	1383.66
1018.893	1372.14
1019.185	1392.93
1019.476	1349.54
1019.767	1359.03
1020.058	1349.09
1020.35	1338.02
1020.641	1338.24
1020.932	1317.68
1021.223	1304.12
1021.514	1319.49
1021.804	1288.53
1022.095	1293.05
1022.386	1297.11
1022.677	1257.34
1022.967	1264.35
1023.258	1267.74
1023.548	1251.69
1023.839	1234.74
1024.129	1243.1
1024.419	1219.6
1024.709	1206.27
1025	1185.48
1025.29	1201.07
1025.58	1179.6
1025.87	1202.43
1026.16	1185.93
1026.449	1161.07
1026.739	1147.29
1027.029	1167.85
1027.319	1166.27
1027.608	1157.46
1027.898	1136.44
1028.187	1125.14
1028.477	1116.1
1028.766	1106.16
1029.055	1116.78
1029.344	1101.19
1029.634	1085.59
1029.923	1081.3
1030.212	1074.52
1030.501	1075.42
1030.79	1052.6
1031.078	1073.84
1031.367	1043.79
1031.656	1053.05
1031.945	1063.9
1032.233	1026.61
1032.522	1015.76
1032.81	1023.67
1033.099	1027.74
1033.387	1015.54
1033.675	1012.15
1033.963	977.8
1034.251	964.24
1034.54	994.3
1034.828	977.8
1035.116	968.53
1035.403	954.75
1035.691	951.81
1035.979	962.88
1036.267	974.18
1036.554	933.28
1036.842	920.85
1037.129	933.51
1037.417	946.61
1037.704	917.46
1037.992	918.82
1038.279	923.79
1038.566	904.81
1038.853	904.81
1039.14	904.81
