Data from hue_24_FLMS001491_00048.txt Node
Date: Tue Feb 07 17:12:20 GMT 2017
User: dcchb
Spectrometer: FLMS00149
Trigger mode: 0
Integration Time (sec): 2.000000E-2
Scans to average: 10
Electric dark correction enabled: true
Nonlinearity correction enabled: false
Boxcar width: 0
XAxis mode: Wavelengths
Number of Pixels in Spectrum: 2048
>>>>>Begin Spectral Data<<<<<
341.393	-23.54
341.776	-23.54
342.16	-23.54
342.543	-68.74
342.927	-52.47
343.31	-60.15
343.693	-83.88
344.077	-66.71
344.46	-66.26
344.843	-60.61
345.226	-45.01
345.61	-27.39
345.993	-14.73
346.376	-7.27
346.759	14.65
347.142	17.13
347.525	31.6
347.908	43.12
348.291	100.97
348.674	105.04
349.057	119.5
349.44	126.28
349.823	140.07
350.206	139.61
350.588	194.3
350.971	220.29
351.354	219.84
351.737	238.14
352.119	245.83
352.502	246.73
352.884	259.39
353.267	286.5
353.65	305.26
354.032	305.26
354.414	319.95
354.797	322.21
355.179	335.09
355.562	314.98
355.944	330.57
356.326	347.29
356.709	338.48
357.091	348.88
357.473	362.21
357.855	352.26
358.238	357.91
358.62	351.59
359.002	339.84
359.384	314.53
359.766	347.07
360.148	324.24
360.53	338.03
360.912	333.51
361.294	340.51
361.676	306.62
362.057	336.22
362.439	319.95
362.821	339.16
363.203	357.91
363.584	340.51
363.966	334.64
364.348	329.44
364.729	324.69
365.111	316.11
365.493	324.02
365.874	331.47
366.256	329.89
366.637	310.23
367.019	332.15
367.4	311.36
367.781	334.64
368.163	310.68
368.544	313.17
368.925	308.42
369.306	306.16
369.688	337.35
370.069	286.96
370.45	320.18
370.831	321.76
371.212	323.79
371.593	332.83
371.974	327.18
372.355	326.05
372.736	312.94
373.117	321.98
373.498	312.04
373.879	321.53
374.26	329.67
374.641	316.33
375.021	313.17
375.402	308.65
375.783	322.44
376.163	337.8
376.544	330.8
376.925	334.64
377.305	317.01
377.686	321.08
378.066	314.53
378.447	323.11
378.827	356.33
379.208	323.11
379.588	321.31
379.968	330.12
380.349	335.09
380.729	329.21
381.109	346.39
381.489	338.03
381.87	336.45
382.25	363.11
382.63	347.75
383.01	340.74
383.39	335.77
383.77	361.98
384.15	339.84
384.53	346.62
384.91	378.48
385.29	364.92
385.67	336.9
386.049	348.88
386.429	343.9
386.809	347.97
387.189	353.62
387.568	377.57
387.948	356.33
388.328	364.47
388.707	371.47
389.087	365.6
389.466	361.3
389.846	380.06
390.225	342.32
390.605	359.5
390.984	374.19
391.363	357.46
391.743	374.64
392.122	372.83
392.501	378.48
392.881	365.82
393.26	375.54
393.639	386.39
394.018	396.78
394.397	374.19
394.776	382.32
395.155	385.48
395.534	371.02
395.913	396.33
396.292	426.16
396.671	386.16
397.05	385.94
397.429	405.37
397.808	383
398.186	396.56
398.565	388.2
398.944	398.37
399.323	411.02
399.701	419.83
400.08	385.03
400.458	402.88
400.837	402.21
401.215	413.96
401.594	425.03
401.972	410.34
402.351	404.01
402.729	392.04
403.107	396.56
403.486	434.07
403.864	432.26
404.242	406.05
404.62	444.01
404.999	438.82
405.377	404.24
405.755	437.69
406.133	423.22
406.511	450.12
406.889	445.37
407.267	439.49
407.645	447.63
408.023	444.47
408.401	458.25
408.779	449.89
409.156	446.27
409.534	468.42
409.912	448.08
410.29	459.83
410.667	470.68
411.045	448.99
411.422	451.92
411.8	455.54
412.178	468.42
412.555	487.85
412.933	458.02
413.31	498.93
413.687	495.54
414.065	487.85
414.442	493.5
414.819	503
415.197	505.03
415.574	493.28
415.951	519.27
416.328	493.28
416.705	514.29
417.082	502.77
417.46	516.33
417.837	519.27
418.214	531.7
418.591	521.75
418.967	533.95
419.344	534.41
419.721	536.44
420.098	529.21
420.475	530.34
420.852	526.5
421.228	542.32
421.605	535.99
421.982	552.03
422.358	559.72
422.735	544.8
423.111	546.84
423.488	560.62
423.864	566.27
424.241	549.32
424.617	553.84
424.994	580.73
425.37	558.14
425.746	567.4
426.123	590
426.499	587.29
426.875	582.32
427.251	582.54
427.627	613.05
428.003	617.79
428.379	622.77
428.756	619.38
429.132	618.92
429.507	627.06
429.883	630.45
430.259	669.77
430.635	645.36
431.011	625.93
431.387	657.12
431.763	640.62
432.138	661.64
432.514	685.59
432.89	675.42
433.265	682.65
433.641	672.48
434.016	682.65
434.392	669.32
434.767	728.07
435.143	688.53
435.518	710
435.894	689.88
436.269	719.94
436.644	729.66
437.02	736.44
437.395	733.95
437.77	751.12
438.145	731.24
438.52	755.64
438.895	738.92
439.271	737.34
439.646	771.69
440.021	755.64
440.395	808.75
440.77	787.96
441.145	793.84
441.52	800.39
441.895	811.46
442.27	778.92
442.645	778.24
443.019	805.13
443.394	815.53
443.769	815.08
444.143	790.9
444.518	835.64
444.892	805.36
445.267	811.46
445.641	855.3
446.016	845.59
446.39	841.52
446.764	852.14
447.139	852.59
447.513	863.66
447.887	826.15
448.262	854.85
448.636	874.28
449.01	871.57
449.384	879.93
449.758	909.76
450.132	891.01
450.506	903.21
450.88	905.92
451.254	921.29
451.628	923.55
452.002	907.5
452.376	927.84
452.75	963.1
453.123	955.86
453.497	974.4
453.871	988.86
454.244	982.76
454.618	984.79
454.992	1001.74
455.365	978.01
455.739	1006.71
456.112	1043.09
456.486	1041.51
456.859	1058.01
457.232	1042.19
457.606	1033.6
457.979	1074.28
458.352	1065.92
458.725	1079.7
459.099	1086.93
459.472	1109.76
459.845	1147.27
460.218	1136.2
460.591	1141.17
460.964	1132.58
461.337	1164.45
461.71	1180.72
462.083	1199.25
462.456	1187.72
462.829	1199.25
463.201	1232.02
463.574	1233.82
463.947	1250.09
464.32	1279.92
464.692	1269.08
465.065	1264.11
465.438	1323.09
465.81	1316.08
466.183	1340.71
466.555	1368.51
466.928	1351.11
467.3	1362.86
467.672	1367.83
468.045	1408.28
468.417	1440.6
468.789	1434.5
469.161	1462.52
469.534	1452.57
469.906	1542.52
470.278	1566.02
470.65	1536.19
471.022	1599.69
471.394	1597.66
471.766	1624.1
472.138	1608.5
472.51	1677.43
472.882	1667.48
473.253	1723.98
473.625	1755.39
473.997	1746.58
474.369	1785.22
474.74	1791.1
475.112	1872.9
475.484	1851.43
475.855	1905.9
476.227	1908.61
476.598	1969.85
476.97	1996.74
477.341	2040.81
477.713	2054.14
478.084	2155.16
478.455	2161.48
478.827	2207.13
479.198	2230.41
479.569	2257.3
479.94	2310.86
480.311	2358.31
480.682	2408.03
481.053	2471.08
481.424	2484.86
481.795	2517.41
482.166	2547.91
482.537	2593.79
482.908	2665.42
483.279	2681.02
483.65	2725.76
484.021	2833.1
484.391	2836.72
484.762	2878.3
485.133	2918.98
485.503	2977.96
485.874	3038.52
486.244	3057.96
486.615	3161.23
486.985	3164.62
487.356	3257.73
487.726	3279.19
488.097	3347.21
488.467	3423.82
488.837	3433.99
489.207	3519.41
489.578	3559.41
489.948	3597.38
490.318	3682.35
490.688	3722.57
491.058	3740.42
491.428	3816.81
491.798	3833.76
492.168	3920.98
492.538	3967.76
492.908	4044.6
493.278	4091.83
493.648	4078.49
494.017	4166.18
494.387	4164.82
494.757	4247.08
495.126	4254.99
495.496	4315.1
495.866	4346.74
496.235	4380.18
496.605	4461.76
496.974	4414.3
497.344	4485.94
497.713	4527.52
498.082	4578.82
498.452	4650.68
498.821	4660.4
499.19	4618.14
499.559	4727.06
499.928	4715.99
500.298	4783.56
500.667	4823.11
501.036	4838.25
501.405	4871.02
501.774	4874.18
502.143	4923.9
502.512	4950.79
502.88	4995.31
503.249	5024.01
503.618	4986.95
503.987	5091.35
504.356	5140.39
504.724	5163.66
505.093	5187.62
505.462	5174.74
505.83	5177.22
506.199	5268.29
506.567	5311
506.936	5291.8
507.304	5346.94
507.672	5355.07
508.041	5421.51
508.409	5470.77
508.777	5509.87
509.145	5512.58
509.514	5550.55
509.882	5547.61
510.25	5577.21
510.618	5583.09
510.986	5620.83
511.354	5662.18
511.722	5670.54
512.09	5739.92
512.458	5710.54
512.826	5819.69
513.193	5822.86
513.561	5817.88
513.929	5856.75
514.297	5911.67
514.664	5921.61
515.032	5919.8
515.4	5967.48
515.767	5964.55
516.135	6028.95
516.502	5946.69
516.869	6065.33
517.237	6123.19
517.604	6075.28
517.972	6106.92
518.339	6216.52
518.706	6169.06
519.073	6184.88
519.44	6239.57
519.808	6244.77
520.175	6253.8
520.542	6302.39
520.909	6395.5
521.276	6330.19
521.643	6455.38
522.009	6423.97
522.376	6486.11
522.743	6503.29
523.11	6506.45
523.477	6577.41
523.843	6582.16
524.21	6674.58
524.577	6728.14
524.943	6736.73
525.31	6769.95
525.676	6767.69
526.043	6871.42
526.409	6945.76
526.776	6935.37
527.142	6954.35
527.508	7037.74
527.874	6991.41
528.241	7086.32
528.607	7096.04
528.973	7148.24
529.339	7160.67
529.705	7243.16
530.071	7321.12
530.437	7341.01
530.803	7383.94
531.169	7316.83
531.535	7419.2
531.901	7352.08
532.267	7428.69
532.632	7522.02
532.998	7470.27
533.364	7589.14
533.73	7589.81
534.095	7667.33
534.461	7677.27
534.826	7766.31
535.192	7720.43
535.557	7781.45
535.923	7780.32
536.288	7827.32
536.653	7855.34
537.019	7907.77
537.384	7928.34
537.749	7931.05
538.114	8042.68
538.479	7971.5
538.845	8013.31
539.21	8025.06
539.575	8081.78
539.94	8155.22
540.305	8204.04
540.67	8204.49
541.034	8165.17
541.399	8272.96
541.764	8232.28
542.129	8267.99
542.494	8361.09
542.858	8363.58
543.223	8390.7
543.587	8451.26
543.952	8436.57
544.316	8459.85
544.681	8532.61
545.045	8601.99
545.41	8606.29
545.774	8604.48
546.138	8660.52
546.503	8727.41
546.867	8708.66
547.231	8777.35
547.595	8778.26
547.959	8828.88
548.324	8863.68
548.688	8846.73
549.052	8876.79
549.416	8915.88
549.779	8931.7
550.143	8973.73
550.507	9084.69
550.871	9031.58
551.235	9071.36
551.599	9133.28
551.962	9147.29
552.326	9203.11
552.689	9251.92
553.053	9162.88
553.417	9207.63
553.78	9361.29
554.143	9335.31
554.507	9360.39
554.87	9310.45
555.234	9451.46
555.597	9371.01
555.96	9415.53
556.323	9498.69
556.686	9524.68
557.05	9538.46
557.413	9558.58
557.776	9646.03
558.139	9650.78
558.502	9728.52
558.865	9668.63
559.228	9829.53
559.59	9865.91
559.953	9816.87
560.316	9965.35
560.679	9876.31
561.041	10011.45
561.404	10047.83
561.767	10045.57
562.129	9975.74
562.492	10093.93
562.854	10133.93
563.217	10105.23
563.579	10165.57
563.941	10241.95
564.304	10250.99
564.666	10280.59
565.028	10298.22
565.39	10392.9
565.753	10439.46
566.115	10475.16
566.477	10469.96
566.839	10477.65
567.201	10551.09
567.563	10554.93
567.925	10709.05
568.287	10662.28
568.648	10700.47
569.01	10776.62
569.372	10838.99
569.734	10869.73
570.095	10874.93
570.457	10922.83
570.819	10962.38
571.18	11019.33
571.542	11088.48
571.903	11110.4
572.265	11144.52
572.626	11159.44
572.987	11242.6
573.349	11245.99
573.71	11338.42
574.071	11374.57
574.432	11471.29
574.794	11551.29
575.155	11636.49
575.516	11524.85
575.877	11700.67
576.238	11729.59
576.599	11856.14
576.96	11824.73
577.32	11923.94
577.681	12066.98
578.042	12078.28
578.403	12264.95
578.763	12357.82
579.124	12393.76
579.485	12581.77
579.845	12669
580.206	12709.45
580.566	12890.69
580.927	12987.64
581.287	13177.01
581.648	13173.17
582.008	13460.62
582.368	13521.86
582.728	13719.6
583.089	13885.24
583.449	14018.12
583.809	14225.57
584.169	14388.96
584.529	14463.08
584.889	14844.31
585.249	14844.54
585.609	15006.57
585.969	15337.18
586.329	15408.82
586.688	15659.66
587.048	15909.82
587.408	16022.81
587.768	16293.31
588.127	16550.03
588.487	16703.25
588.846	17103.01
589.206	17227.53
589.565	17626.84
589.925	17798.81
590.284	17997.9
590.643	18329.19
591.003	18645.34
591.362	18997.65
591.721	19180.02
592.08	19425.89
592.44	19802.83
592.799	20119.43
593.158	20405.07
593.517	20582.02
593.876	20951.27
594.235	21155.56
594.593	21570.24
594.952	21832.38
595.311	22060.39
595.67	22363.44
596.029	22823.31
596.387	23088.16
596.746	23344.88
597.104	23658.77
597.463	23843.85
597.822	24344.18
598.18	24558.86
598.538	24754.33
598.897	25297.15
599.255	25484.26
599.613	26067.07
599.972	26152.72
600.33	26484.23
600.688	26724.23
601.046	27084.9
601.404	27467.48
601.762	27579.35
602.12	28082.38
602.478	28292.1
602.836	28706.55
603.194	28727.11
603.552	29132.07
603.91	29228.57
604.268	29652.29
604.625	29949.9
604.983	30237.35
605.341	30292.27
605.698	30862.2
606.056	31010.22
606.413	31253.83
606.771	31619.47
607.128	31868.5
607.485	31962.51
607.843	32213.12
608.2	32770.62
608.557	32993.21
608.914	32975.36
609.272	33453.54
609.629	33730.82
609.986	34030.93
610.343	34045.62
610.7	34529.45
611.057	34595.21
611.414	34702.32
611.771	35004.46
612.127	35322.19
612.484	35396.54
612.841	35722.63
613.198	35668.85
613.554	36036.52
613.911	36260.47
614.267	36412.11
614.624	36571.2
614.98	36818.65
615.337	37079.89
615.693	37212.99
616.05	37358.3
616.406	37685.75
616.762	37620.21
617.118	37908.34
617.475	38024.49
617.831	38389
618.187	38388.33
618.543	38639.17
618.899	38869.9
619.255	38964.58
619.611	39051.81
619.967	39315.08
620.323	39459.94
620.678	39433.72
621.034	39442.76
621.39	39572.93
621.746	39713.49
622.101	40298.11
622.457	39922.3
622.812	40188.51
623.168	40266.47
623.523	40352.57
623.879	40653.13
624.234	40484.77
624.589	40692
624.945	40663.97
625.3	40902.38
625.655	41009.73
626.01	41041.82
626.365	41100.12
626.72	41157.52
627.075	41049.05
627.43	41220.79
627.785	41167.46
628.14	41322.49
628.495	41360
628.85	41497.17
629.205	41467.57
629.559	41732.42
629.914	41531.97
630.269	41681.35
630.623	41536.27
630.978	41458.53
631.332	41819.2
631.687	41896.48
632.041	41763.15
632.396	41954.79
632.75	41759.09
633.104	41972.87
633.459	41791.18
633.813	41825.98
634.167	41942.36
634.521	42013.99
634.875	42007.67
635.229	42012.19
635.583	41935.35
635.937	42000.89
636.291	41940.32
636.645	42080.21
636.999	41847.22
637.352	42028.91
637.706	41877.95
638.06	42020.77
638.413	42089.47
638.767	41855.58
639.121	42017.16
639.474	41725.19
639.828	41793.89
640.181	41868.46
640.534	41931.74
640.888	41725.19
641.241	41751.4
641.594	41898.29
641.947	41919.31
642.301	41872.08
642.654	41875.69
643.007	41861.91
643.36	41825.52
643.713	41753.21
644.066	41993.2
644.419	41780.55
644.771	41440.9
645.124	41047.69
645.477	41205.2
645.83	40849.28
646.182	40773.8
646.535	40779
646.888	40753.46
647.24	40560.47
647.593	40842.73
647.945	40846.12
648.298	40540.13
648.65	40593.92
649.002	40409.06
649.355	40689.74
649.707	40604.54
650.059	40782.39
650.411	41102.83
650.763	41220.79
651.115	41684.51
651.467	41552.54
651.819	41582.14
652.171	41392.32
652.523	41309.38
652.875	41234.35
653.227	41169.72
653.578	41391.64
653.93	41289.95
654.282	41302.15
654.633	41023.29
654.985	41396.61
655.337	41225.31
655.688	41284.97
656.039	41437.74
656.391	40991.87
656.742	41178.76
657.094	41266.44
657.445	41341.24
657.796	41253.79
658.147	41151.64
658.498	41259.44
658.849	41266.9
659.2	41101.48
659.551	41296.5
659.902	41220.12
660.253	41158.88
660.604	41174.02
660.955	41062.38
661.306	41161.59
661.656	41103.74
662.007	41213.56
662.358	41099.22
662.708	41131.76
663.059	41046.34
663.409	41061.25
663.76	41217.18
664.11	41243.17
664.461	41219.89
664.811	41135.83
665.161	41250.62
665.511	40979.45
665.862	41087.46
666.212	41031.87
666.562	41144.86
666.912	41091.08
667.262	41049.05
667.612	40908.71
667.962	41069.84
668.312	40964.98
668.662	41198.2
669.011	40955.04
669.361	40993.68
669.711	40868.49
670.06	40951.42
670.41	40869.62
670.76	40714.59
671.109	40805.44
671.459	40934.25
671.808	40805.66
672.157	40846.12
672.507	40747.13
672.856	40822.39
673.205	40847.47
673.554	41002.5
673.904	40663.07
674.253	40909.39
674.602	40896.28
674.951	40176.75
675.3	40052.69
675.649	40798.66
675.998	40651.77
676.346	40596.4
676.695	40757.98
677.044	40475.28
677.393	40567.93
677.741	40813.57
678.09	40477.09
678.438	40440.93
678.787	40564.54
679.135	40541.94
679.484	40244.78
679.832	40560.93
680.181	40155.96
680.529	40293.81
680.877	40130.2
681.225	40052.92
681.573	40198.67
681.922	40116.64
682.27	40030.77
682.618	40040.71
682.966	39870.55
683.314	39868.06
683.661	39856.31
684.009	39631.68
684.357	39609.09
684.705	39625.13
685.053	39657.9
685.4	39575.19
685.748	39432.37
686.095	39424.68
686.443	39354.63
686.79	39222.43
687.138	39364.57
687.485	39367.74
687.832	39146.72
688.18	39163.67
688.527	38908.54
688.874	38914.41
689.221	38799.39
689.568	38797.36
689.915	38844.81
690.262	38687.75
690.609	38521.43
690.956	38438.95
691.303	38545.16
691.65	38252.06
691.997	38350.81
692.344	38168.45
692.69	38149.69
693.037	38131.16
693.383	37715.12
693.73	37826.99
694.077	37644.39
694.423	37539.76
694.769	37704.5
695.116	37543.15
695.462	37528.01
695.808	37351.74
696.155	37447.33
696.501	37193.78
696.847	37091.64
697.193	36944.3
697.539	37063.62
697.885	36921.7
698.231	36694.13
698.577	36756.73
698.923	36698.65
699.269	36372.56
699.614	36330.53
699.96	36260.25
700.306	36311.77
700.651	36101.38
700.997	35974.83
701.342	35836.98
701.688	35890.77
702.033	35716.76
702.379	35744.33
702.724	35568.06
703.069	35700.94
703.415	35320.61
703.76	35272.48
704.105	35347.73
704.45	35293.49
704.795	35048.75
705.14	34985.03
705.485	34983.67
705.83	34834.3
706.175	34833.62
706.52	34890.34
706.865	34676.56
707.209	34699.38
707.554	34467.07
707.899	34571.7
708.243	34329.22
708.588	34217.36
708.932	34162.68
709.277	34092.39
709.621	34090.59
709.966	33967.65
710.31	34075.67
710.654	33702.8
710.998	33789.8
711.342	33734.44
711.687	33654.21
712.031	33492.18
712.375	33289.25
712.719	33515.46
713.063	33383.03
713.407	33432.75
713.75	33301.45
714.094	33265.07
714.438	33158.18
714.782	33108.01
715.125	33000.22
715.469	32999.09
715.812	32848.59
716.156	32783.73
716.499	32703.05
716.843	32736.95
717.186	32657.63
717.53	32674.35
717.873	32778.98
718.216	32556.16
718.559	32457.41
718.902	32265.1
719.246	32339.9
719.589	32294.25
719.932	32091.09
720.275	32153.01
720.617	31901.49
720.96	32045.22
721.303	31904.2
721.646	32029.62
721.989	31839.57
722.331	31919.8
722.674	31805.9
723.016	31868.27
723.359	31724.55
723.701	31819.91
724.044	31509.41
724.386	31337.66
724.729	31503.99
725.071	31520.48
725.413	31323.2
725.755	31443.2
726.097	31300.15
726.439	31052.02
726.782	31077.56
727.124	31186.26
727.465	31088.18
727.807	30937.45
728.149	30994.17
728.491	30824.01
728.833	30967.73
729.175	30818.58
729.516	30795.31
729.858	30716.89
730.199	30782.2
730.541	30615.65
730.882	30706.72
731.224	30723.9
731.565	30466.28
731.906	30508.76
732.248	30423.79
732.589	30293.4
732.93	30312.61
733.271	30198.94
733.612	30410.91
733.953	30343.79
734.294	30231.25
734.635	30117.36
734.976	30226.73
735.317	30030.58
735.658	29998.49
735.999	30030.81
736.339	29921.66
736.68	30184.47
737.021	29842.79
737.361	29762.56
737.702	29931.37
738.042	29861.32
738.383	29606.86
738.723	29811.38
739.063	29630.82
739.404	29666.75
739.744	29761.21
740.084	29506.53
740.424	29559.18
740.764	29519.63
741.104	29464.72
741.444	29357.6
741.784	29264.72
742.124	29382.24
742.464	29284.84
742.804	29274.89
743.143	29206.2
743.483	29146.76
743.823	29050.72
744.162	29031.96
744.502	29156.48
744.841	28897.5
745.181	29071.06
745.52	28864.51
745.86	28937.95
746.199	28952.42
746.538	28878.52
746.877	28853.89
747.216	28979.31
747.556	28805.3
747.895	28863.15
748.234	28740.44
748.573	28554.24
748.911	28647.57
749.25	28514.69
749.589	28499.1
749.928	28533.67
750.267	28616.15
750.605	28485.54
750.944	28418.65
751.283	28243.96
751.621	28475.14
751.96	28189.05
752.298	28229.95
752.636	28165.54
752.975	28082.16
753.313	28035.83
753.651	28079.22
753.989	27842.62
754.327	27971.43
754.666	27729.4
755.004	27917.19
755.342	27806.23
755.679	27849.62
756.017	27599.23
756.355	27732.79
756.693	27574.83
757.031	27555.62
757.368	27364.89
757.706	27333.48
758.044	27289.86
758.381	27399.01
758.719	27212.35
759.056	27303.42
759.394	27072.01
759.731	26969.42
760.068	26913.83
760.405	26871.57
760.743	26728.75
761.08	26791.8
761.417	26722.19
761.754	26659.14
762.091	26510.67
762.428	26507.96
762.765	26457.12
763.102	26388.64
763.438	26304.35
763.775	26146.16
764.112	26199.27
764.449	26247.86
764.785	25945.72
765.122	25993.17
765.458	25716.57
765.795	25732.61
766.131	25754.99
766.467	25656.91
766.804	25545.95
767.14	25469.12
767.476	25364.04
767.812	25358.84
768.148	25237.71
768.485	25172.86
768.821	25000.88
769.157	24958.62
769.492	24908
769.828	25004.72
770.164	24661.23
770.5	24608.35
770.836	24628.91
771.171	24459.2
771.507	24511.18
771.842	24353.89
772.178	24221.69
772.513	24154.58
772.849	24077.97
773.184	24103.28
773.519	24024.41
773.855	23768.6
774.19	23685.44
774.525	23749.39
774.86	23656.06
775.195	23593.69
775.53	23504.65
775.865	23391.66
776.2	23226.69
776.535	23066.47
776.87	23097.43
777.205	23002.74
777.539	22846.59
777.874	22972.23
778.209	22767.27
778.543	22678.91
778.878	22507.16
779.212	22608.63
779.547	22502.42
779.881	22557.78
780.215	22365.92
780.55	22330.9
780.884	22190.79
781.218	22165.7
781.552	22107.4
781.886	22108.3
782.22	21748.31
782.554	21872.15
782.888	21497.25
783.222	21673.29
783.556	21408.89
783.889	21450.69
784.223	21358.27
784.557	21238.72
784.89	21357.59
785.224	21160.31
785.557	20994.89
785.891	20937.49
786.224	20905.4
786.558	20872.86
786.891	20711.28
787.224	20636.03
787.557	20643.71
787.891	20497.5
788.224	20540.66
788.557	20507.67
788.89	20398.52
789.223	20367.33
789.556	20215.92
789.888	20188.81
790.221	20021.8
790.554	19902.03
790.887	19923.28
791.219	19763.73
791.552	19818.87
791.884	19657.75
792.217	19689.61
792.549	19650.74
792.882	19483.29
793.214	19387.02
793.546	19499.33
793.879	19289.62
794.211	19198.55
794.543	19239.9
794.875	19149.51
795.207	19233.12
795.539	19046.46
795.871	19102.96
796.203	18869.29
796.535	18800.37
796.867	18778.22
797.198	18671.33
797.53	18802.18
797.862	18580.26
798.193	18658.45
798.525	18473.82
798.856	18478.34
799.188	18206.94
799.519	18248.29
799.85	18145.7
800.182	18169.2
800.513	18218.69
800.844	17995.19
801.175	18098.46
801.506	17998.81
801.837	17893.95
802.168	17958.58
802.499	17785.7
802.83	17744.8
803.161	17595.2
803.491	17658.48
803.822	17660.06
804.153	17593.62
804.483	17428.88
804.814	17396.34
805.145	17411.25
805.475	17288.99
805.805	17257.36
806.136	17336.9
806.466	17293.74
806.796	17218.71
807.126	17108.43
807.457	17135.33
807.787	17095.55
808.117	16900.08
808.447	16893.52
808.777	16851.49
809.107	16727.88
809.436	16758.39
809.766	16663.02
810.096	16593.19
810.426	16606.75
810.755	16648.11
811.085	16604.72
811.414	16524.27
811.744	16463.48
812.073	16364.27
812.403	16391.84
812.732	16233.66
813.061	16228.68
813.39	16106.2
813.719	16116.14
814.049	16168.57
814.378	16120.21
814.707	15978.75
815.036	16054.68
815.365	15880.44
815.693	15865.08
816.022	15784.63
816.351	15804.51
816.68	15729.49
817.008	15731.3
817.337	15603.84
817.665	15595.48
817.994	15621.47
818.322	15569.72
818.651	15568.36
818.979	15507.35
819.307	15575.82
819.636	15492.66
819.964	15369.5
820.292	15388.25
820.62	15416.28
820.948	15396.84
821.276	15372.89
821.604	15335.37
821.932	15367.92
822.259	15360.23
822.587	15319.33
822.915	15183.29
823.243	15287.69
823.57	15300.57
823.898	15278.88
824.225	15232.78
824.553	15261.7
824.88	15255.15
825.207	15337.63
825.535	15275.49
825.862	15385.54
826.189	15231.65
826.516	15281.82
826.843	15293.57
827.17	15247.24
827.497	15279.33
827.824	15274.36
828.151	15352.32
828.478	15291.98
828.805	15287.01
829.131	15229.61
829.458	15210.18
829.785	15214.92
830.111	15193.23
830.438	15250.63
830.764	15272.78
831.09	15267.35
831.417	15114.14
831.743	15135.15
832.069	15248.82
832.395	15126.11
832.722	15116.4
833.048	15105.55
833.374	15041.82
833.7	15013.12
834.026	15054.03
834.351	15082.95
834.677	15100.13
835.003	15111.42
835.329	15021.48
835.654	14942.16
835.98	14979.22
836.306	14955.04
836.631	14974.71
836.956	14953.24
837.282	15004.76
837.607	14932.9
837.932	14870.75
838.258	14773.13
838.583	14810.64
838.908	14723.64
839.233	14745.56
839.558	14642.74
839.883	14606.13
840.208	14634.38
840.533	14660.82
840.858	14631.44
841.182	14620.82
841.507	14496.07
841.832	14415.4
842.156	14455.85
842.481	14472.57
842.805	14463.31
843.13	14309.64
843.454	14355.51
843.778	14320.71
844.103	14285.23
844.427	14309.41
844.751	14310.99
845.075	14214.27
845.399	14157.33
845.723	14106.71
846.047	14113.03
846.371	13884.11
846.695	13921.4
847.019	13796.43
847.343	13800.95
847.666	13687.06
847.99	13691.12
848.313	13675.3
848.637	13527.29
848.96	13568.19
849.284	13598.02
849.607	13416.78
849.931	13360.74
850.254	13265.15
850.577	13217.92
850.9	13159.39
851.223	13105.38
851.546	13141.08
851.869	13029.22
852.192	13057.02
852.515	12915.32
852.838	12904.25
853.161	12915.1
853.483	12822.22
853.806	12740.64
854.129	12804.59
854.451	12720.3
854.774	12643.69
855.096	12561.21
855.419	12619.96
855.741	12579.97
856.063	12393.98
856.385	12421.55
856.708	12387.88
857.03	12347.43
857.352	12353.98
857.674	12248.45
857.996	12242.35
858.318	12203.03
858.64	12294.1
858.961	12224.49
859.283	12105.63
859.605	12081.45
859.926	12089.58
860.248	11918.97
860.57	12014.33
860.891	12040.54
861.212	11866.31
861.534	11887.55
861.855	11859.08
862.176	11850.04
862.498	11818.63
862.819	11839.42
863.14	11733.66
863.461	11685.75
863.782	11749.93
864.103	11729.59
864.424	11662.48
864.745	11627.22
865.065	11610.95
865.386	11562.37
865.707	11596.71
866.027	11563.95
866.348	11499.32
866.668	11511.07
866.989	11450.05
867.309	11442.59
867.63	11432.43
867.95	11374.57
868.27	11324.86
868.59	11356.5
868.91	11384.52
869.23	11342.71
869.55	11232.66
869.87	11375.48
870.19	11310.85
870.51	11288.02
870.83	11274.92
871.15	11245.54
871.469	11232.2
871.789	11280.56
872.109	11201.92
872.428	11129.61
872.748	11153.56
873.067	11100.46
873.386	11155.82
873.706	11130.06
874.025	11030.85
874.344	11120.12
874.663	11069.72
874.982	11082.38
875.301	10954.25
875.62	10963.96
875.939	10964.87
876.258	10934.81
876.577	10934.59
876.896	10942.27
877.214	10887.81
877.533	10843.97
877.852	10733.69
878.17	10791.09
878.489	10857.98
878.807	10847.58
879.125	10763.06
879.444	10790.41
879.762	10717.64
880.08	10773.46
880.398	10723.97
880.716	10735.27
881.034	10649.85
881.352	10695.95
881.67	10603.52
881.988	10615.5
882.306	10593.8
882.624	10611.88
882.941	10445.11
883.259	10441.94
883.577	10455.05
883.894	10496.18
884.212	10467.7
884.529	10467.03
884.846	10377.99
885.164	10359.69
885.481	10357.43
885.798	10317.65
886.115	10244.89
886.432	10293.92
886.75	10245.56
887.067	10267.48
887.383	10173.48
887.7	10251.67
888.017	10180.93
888.334	10225.45
888.651	10118.11
888.967	10116.53
889.284	10065.46
889.6	10006.93
889.917	10008.06
890.233	9969.19
890.55	9916.76
890.866	9870.66
891.182	9934.39
891.498	9805.8
891.815	9830.66
892.131	9776.2
892.447	9800.38
892.763	9727.16
893.079	9717.44
893.395	9664.79
893.71	9658.01
894.026	9662.3
894.342	9638.12
894.657	9523.32
894.973	9577.56
895.289	9505.47
895.604	9531.91
895.92	9389.09
896.235	9376.66
896.55	9344.12
896.865	9371.69
897.181	9280.39
897.496	9337.57
897.811	9284.46
898.126	9203.11
898.441	9206.5
898.756	9174.86
899.071	9117.68
899.386	9151.58
899.7	8994.75
900.015	9027.74
900.33	8944.58
900.644	8911.59
900.959	8946.39
901.273	8923.34
901.588	8830.69
901.902	8803.79
902.216	8797.47
902.531	8711.37
902.845	8761.08
903.159	8656.23
903.473	8676.34
903.787	8625.27
904.101	8610.58
904.415	8560.64
904.729	8584.82
905.042	8521.99
905.356	8484.03
905.67	8467.08
905.984	8465.05
906.297	8429.57
906.611	8370.36
906.924	8373.75
907.237	8331.26
907.551	8341.66
907.864	8209.69
908.177	8211.95
908.491	8212.4
908.804	8115.45
909.117	8084.26
909.43	8084.49
909.743	7997.04
910.056	8020.99
910.368	7959.52
910.681	7922.91
910.994	7863.03
911.307	7929.01
911.619	7842.92
911.932	7832.29
912.244	7717.27
912.557	7734.9
912.869	7792.52
913.181	7713.2
913.494	7631.17
913.806	7656.93
914.118	7550.95
914.43	7579.42
914.742	7574.22
915.054	7484.73
915.366	7411.97
915.678	7456.03
915.99	7399.09
916.302	7351.4
916.613	7356.83
916.925	7339.2
917.236	7284.74
917.548	7204.06
917.859	7202.03
918.171	7169.94
918.482	7134.01
918.794	7067.12
919.105	7125.19
919.416	7028.7
919.727	7075.7
920.038	7001.13
920.349	6973.33
920.66	6967.68
920.971	6956.38
921.282	6955.25
921.593	6902.15
921.903	6840.91
922.214	6820.57
922.525	6788.48
922.835	6719.33
923.146	6777.86
923.456	6697.18
923.767	6644.75
924.077	6661.03
924.387	6593.46
924.697	6596.39
925.008	6544.64
925.318	6542.84
925.628	6496.96
925.938	6457.41
926.248	6411.31
926.558	6417.64
926.867	6378.55
927.177	6360.47
927.487	6365.21
927.796	6331.77
928.106	6281.6
928.416	6244.99
928.725	6266.46
929.034	6199.79
929.344	6239.79
929.653	6107.59
929.962	6075.28
930.271	6101.27
930.581	6047.03
930.89	6047.26
931.199	6004.32
931.508	6055.17
931.817	5943.3
932.125	5926.36
932.434	5897.43
932.743	5854.94
933.051	5868.5
933.36	5829.86
933.669	5778.79
933.977	5792.8
934.286	5793.48
934.594	5726.36
934.902	5709.64
935.21	5682.75
935.519	5676.19
935.827	5650.2
936.135	5629.64
936.443	5590.32
936.751	5580.38
937.059	5555.97
937.367	5514.61
937.674	5496.08
937.982	5496.31
938.29	5444.56
938.597	5483.88
938.905	5342.19
939.213	5350.1
939.52	5395.52
939.827	5337.44
940.135	5317.33
940.442	5318.24
940.749	5231.01
941.056	5250.89
941.363	5200.95
941.67	5199.59
941.977	5161.18
942.284	5151.23
942.591	5113.95
942.898	5096.77
943.205	5115.98
943.511	5032.59
943.818	5042.76
944.125	5035.76
944.431	4991.01
944.738	5004.35
945.044	4945.59
945.35	4916.21
945.657	4847.51
945.963	4856.55
946.269	4888.42
946.575	4835.99
946.881	4833.28
947.187	4837.57
947.493	4777.23
947.799	4790.57
948.105	4744.24
948.41	4712.6
948.716	4710.34
949.022	4680.74
949.327	4642.1
949.633	4656.11
949.938	4628.76
950.244	4656.33
950.549	4564.81
950.854	4567.97
951.16	4507.64
951.465	4523.91
951.77	4460.86
952.075	4483.91
952.38	4436.23
952.685	4455.21
952.99	4395.77
953.294	4427.41
953.599	4349.67
953.904	4332.05
954.209	4330.47
954.513	4360.07
954.818	4283.69
955.122	4278.04
955.426	4312.61
955.731	4287.75
956.035	4217.93
956.339	4199.85
956.643	4223.35
956.948	4135.44
957.252	4149.23
957.556	4176.12
957.86	4167.76
958.163	4117.36
958.467	4098.15
958.771	4075.33
959.075	4070.13
959.378	4033.3
959.682	4073.75
959.985	4000.76
960.289	4013.41
960.592	3962.57
960.896	3969.12
961.199	3939.52
961.502	3894.77
961.805	3928.22
962.108	3847.77
962.411	3854.55
962.714	3836.47
963.017	3831.27
963.32	3822.23
963.623	3789.69
963.926	3812.96
964.228	3758.05
964.531	3713.76
964.833	3723.25
965.136	3753.08
965.438	3699.75
965.741	3709.69
966.043	3673.08
966.345	3646.87
966.648	3635.57
966.95	3603.25
967.252	3605.96
967.554	3587.43
967.856	3575.46
968.158	3580.2
968.46	3537.49
968.761	3508.79
969.063	3483.03
969.365	3473.09
969.666	3485.97
969.968	3501.33
970.269	3465.63
970.571	3472.41
970.872	3445.06
971.174	3436.03
971.475	3426.76
971.776	3377.72
972.077	3366.87
972.378	3351.06
972.679	3339.3
972.98	3336.14
973.281	3280.1
973.582	3327.33
973.883	3240.1
974.183	3247.78
974.484	3264.05
974.785	3225.41
975.085	3248.23
975.386	3222.02
975.686	3195.13
975.986	3189.93
976.287	3137.5
976.587	3131.63
976.887	3153.77
977.187	3142.25
977.487	3138.86
977.787	3118.97
978.087	3085.3
978.387	3072.65
978.687	3057.73
978.987	3059.76
979.286	3007.11
979.586	3037.39
979.885	3013.44
980.185	3006.43
980.484	3013.66
980.784	2954.46
981.083	2921.24
981.382	2942.71
981.682	2905.42
981.981	2934.8
982.28	2884.63
982.579	2891.41
982.878	2913.1
983.177	2840.56
983.475	2848.47
983.774	2850.5
984.073	2794.69
984.372	2794.23
984.67	2782.03
984.969	2761.92
985.267	2743.84
985.566	2759.21
985.864	2736.38
986.162	2762.6
986.461	2741.58
986.759	2693.67
987.057	2685.99
987.355	2671.98
987.653	2658.87
987.951	2663.16
988.249	2659.77
988.547	2620.68
988.844	2630.4
989.142	2615.26
989.44	2600.79
989.737	2573
990.035	2569.61
990.332	2559.44
990.63	2544.98
990.927	2546.11
991.224	2541.81
991.521	2527.8
991.819	2505.2
992.116	2512.89
992.413	2485.77
992.71	2458.65
993.006	2473.34
993.303	2455.49
993.6	2455.03
993.897	2420.01
994.193	2413.68
994.49	2431.53
994.787	2376.17
995.083	2335.72
995.379	2377.75
995.676	2351.53
995.972	2376.17
996.268	2306.56
996.565	2295.72
996.861	2295.94
997.157	2286.23
997.453	2264.08
997.749	2261.82
998.044	2273.12
998.34	2263.4
998.636	2250.07
998.932	2241.03
999.227	2205.78
999.523	2253.91
999.818	2192.22
1000.114	2190.41
1000.409	2158.77
1000.704	2157.19
1001	2137.98
1001.295	2132.56
1001.59	2144.08
1001.885	2154.7
1002.18	2094.37
1002.475	2096.17
1002.77	2088.49
1003.065	2066.8
1003.359	2052.33
1003.654	2043.07
1003.949	2043.52
1004.243	2044.65
1004.538	2018.66
1004.832	1992.22
1005.127	1983.86
1005.421	1984.76
1005.715	1982.28
1006.009	1952.9
1006.304	1956.29
1006.598	1925.1
1006.892	1909.06
1007.186	1900.47
1007.48	1945.44
1007.773	1870.42
1008.067	1896.18
1008.361	1831.1
1008.655	1844.43
1008.948	1877.2
1009.242	1867.03
1009.535	1832.45
1009.829	1832
1010.122	1830.87
1010.415	1814.6
1010.708	1793.58
1011.001	1776.86
1011.295	1773.92
1011.588	1769.4
1011.881	1738.44
1012.173	1746.58
1012.466	1722.4
1012.759	1741.61
1013.052	1710.65
1013.344	1673.81
1013.637	1700.7
1013.93	1690.08
1014.222	1669.97
1014.514	1653.7
1014.807	1656.19
1015.099	1639.69
1015.391	1640.37
1015.683	1639.69
1015.976	1623.87
1016.268	1609.63
1016.56	1560.82
1016.851	1546.58
1017.143	1566.7
1017.435	1567.37
1017.727	1536.87
1018.018	1543.42
1018.31	1556.3
1018.602	1531.67
1018.893	1532.8
1019.185	1519.24
1019.476	1499.58
1019.767	1517.21
1020.058	1491.44
1020.35	1494.61
1020.641	1454.83
1020.932	1426.13
1021.223	1445.57
1021.514	1429.3
1021.804	1436.3
1022.095	1412.8
1022.386	1413.48
1022.677	1396.76
1022.967	1392.01
1023.258	1382.75
1023.548	1360.15
1023.839	1377.55
1024.129	1338.68
1024.419	1343.2
1024.709	1337.78
1025	1342.3
1025.29	1305.23
1025.58	1314.05
1025.87	1283.31
1026.16	1281.28
1026.449	1275.86
1026.739	1259.36
1027.029	1291.45
1027.319	1268.17
1027.608	1240.6
1027.898	1263.65
1028.187	1250.09
1028.477	1206.25
1028.766	1205.12
1029.055	1204.45
1029.344	1225.01
1029.634	1221.85
1029.923	1189.76
1030.212	1186.59
1030.501	1156.54
1030.79	1153.37
1031.078	1168.51
1031.367	1157.22
1031.656	1119.25
1031.945	1153.83
1032.233	1147.05
1032.522	1094.39
1032.81	1100.95
1033.099	1118.8
1033.387	1114.96
1033.675	1098.91
1033.963	1082.42
1034.251	1081.51
1034.54	1072.25
1034.828	1057.78
1035.116	1057.56
1035.403	1064.11
1035.691	1026.82
1035.979	1040.61
1036.267	1029.54
1036.554	1018.01
1036.842	1014.62
1037.129	996.09
1037.417	1001.29
1037.704	998.35
1037.992	973.04
1038.279	991.12
1038.566	990.67
1038.853	990.67
1039.14	990.67
