Data from hue_150_FLMS001491_00056.txt Node
Date: Tue Feb 07 16:54:14 GMT 2017
User: dcchb
Spectrometer: FLMS00149
Trigger mode: 0
Integration Time (sec): 2.000000E-2
Scans to average: 10
Electric dark correction enabled: true
Nonlinearity correction enabled: false
Boxcar width: 0
XAxis mode: Wavelengths
Number of Pixels in Spectrum: 2048
>>>>>Begin Spectral Data<<<<<
341.393	-26.67
341.776	-26.67
342.16	-26.67
342.543	-68.02
342.927	-43.61
343.31	-69.83
343.693	-69.83
344.077	-67.57
344.46	-70.73
344.843	-57.4
345.226	-51.98
345.61	-52.43
345.993	-7.23
346.376	-9.04
346.759	4.52
347.142	26.44
347.525	50.62
347.908	74.12
348.291	66.44
348.674	120.9
349.057	112.99
349.44	132.43
349.823	146.89
350.206	182.37
350.588	194.35
350.971	197.06
351.354	214.91
351.737	232.76
352.119	242.93
352.502	258.3
352.884	262.82
353.267	300.11
353.65	283.38
354.032	301.01
354.414	333.32
354.797	307.11
355.179	321.57
355.562	326.77
355.944	307.56
356.326	341.46
356.709	336.26
357.091	332.65
357.473	351.86
357.855	341.91
358.238	330.39
358.62	332.19
359.002	344.17
359.384	339.2
359.766	335.13
360.148	317.96
360.53	335.36
360.912	346.88
361.294	354.34
361.676	334.45
362.057	332.19
362.439	338.52
362.821	318.64
363.203	327.68
363.584	339.43
363.966	333.1
364.348	335.13
364.729	320.67
365.111	294.91
365.493	319.09
365.874	331.52
366.256	307.34
366.637	312.99
367.019	308.24
367.4	323.83
367.781	308.69
368.163	311.86
368.544	310.27
368.925	313.66
369.306	322.48
369.688	329.93
370.069	309.82
370.45	310.05
370.831	333.78
371.212	319.31
371.593	289.48
371.974	317.96
372.355	298.52
372.736	328.13
373.117	347.11
373.498	290.61
373.879	304.17
374.26	320.67
374.641	310.05
375.021	326.77
375.402	330.39
375.783	311.86
376.163	321.8
376.544	321.57
376.925	322.93
377.305	307.56
377.686	327.22
378.066	346.66
378.447	342.14
378.827	330.39
379.208	331.29
379.588	323.38
379.968	333.1
380.349	334.68
380.729	335.13
381.109	334.45
381.489	324.51
381.87	324.96
382.25	354.57
382.63	340.78
383.01	338.75
383.39	340.1
383.77	330.39
384.15	340.1
384.53	351.4
384.91	333.1
385.29	341.23
385.67	343.04
386.049	342.59
386.429	351.63
386.809	357.96
387.189	349.14
387.568	366.32
387.948	349.82
388.328	347.79
388.707	364.28
389.087	359.99
389.466	341.46
389.846	366.54
390.225	375.58
390.605	390.05
390.984	363.61
391.363	370.16
391.743	362.25
392.122	355.02
392.501	369.48
392.881	345.98
393.26	371.29
393.639	364.28
394.018	354.34
394.397	356.83
394.776	372.65
395.155	379.43
395.534	404.51
395.913	380.55
396.292	380.78
396.671	407.9
397.05	386.43
397.429	394.11
397.808	387.56
398.186	398.86
398.565	391.85
398.944	363.83
399.323	384.62
399.701	409.71
400.08	381.46
400.458	396.15
400.837	390.95
401.215	382.59
401.594	417.84
401.972	387.79
402.351	410.38
402.729	403.38
403.107	402.25
403.486	409.48
403.864	413.55
404.242	416.71
404.62	416.03
404.999	412.19
405.377	383.49
405.755	413.1
406.133	426.88
406.511	407.67
406.889	417.84
407.267	442.93
407.645	440.21
408.023	443.83
408.401	421.01
408.779	439.76
409.156	438.86
409.534	456.49
409.912	454.45
410.29	449.93
410.667	460.55
411.045	445.86
411.422	435.92
411.8	468.91
412.178	467.78
412.555	458.07
412.933	470.5
413.31	466.2
413.687	471.4
414.065	474.11
414.442	484.96
414.819	467.78
415.197	464.17
415.574	492.19
415.951	486.09
416.328	501.23
416.705	502.13
417.082	496.48
417.46	500.55
417.837	493.09
418.214	474.56
418.591	488.12
418.967	517.73
419.344	516.37
419.721	520.89
420.098	484.96
420.475	515.24
420.852	534
421.228	523.38
421.605	523.38
421.982	533.77
422.358	517.73
422.735	553.21
423.111	517.73
423.488	526.77
423.864	545.75
424.241	551.85
424.617	545.3
424.994	545.75
425.37	564.73
425.746	551.4
426.123	562.47
426.499	575.35
426.875	581.68
427.251	593.43
427.627	576.26
428.003	579.87
428.379	603.37
428.756	609.25
429.132	616.25
429.507	618.06
429.883	613.09
430.259	619.64
430.635	637.72
431.011	619.42
431.387	646.76
431.763	618.51
432.138	636.37
432.514	675.69
432.89	661.9
433.265	655.58
433.641	656.71
434.016	653.99
434.392	676.82
434.767	701.45
435.143	696.25
435.518	718.63
435.894	700.32
436.269	719.76
436.644	721.56
437.02	711.62
437.395	729.47
437.77	743.94
438.145	748
438.52	739.87
438.895	747.1
439.271	783.93
439.646	765.4
440.021	754.78
440.395	767.44
440.77	740.09
441.145	779.87
441.52	765.63
441.895	769.92
442.27	806.31
442.645	808.34
443.019	808.79
443.394	803.14
443.769	816.25
444.143	809.47
444.518	820.54
444.892	828.45
445.267	818.74
445.641	831.16
446.016	819.41
446.39	842.01
446.764	860.32
447.139	844.5
447.513	839.75
447.887	847.89
448.262	849.02
448.636	881.78
449.01	868.9
449.384	881.78
449.758	903.71
450.132	923.59
450.506	914.33
450.88	918.39
451.254	933.08
451.628	924.04
452.002	945.06
452.376	949.13
452.75	945.51
453.123	974.21
453.497	991.61
453.871	979.41
454.244	1005.85
454.618	1003.82
454.992	1002.01
455.365	1014.66
455.739	1039.29
456.112	1028.67
456.486	1076.81
456.859	1081.78
457.232	1059.41
457.606	1065.28
457.979	1074.32
458.352	1123.81
458.725	1122
459.099	1114.55
459.472	1158.16
459.845	1179.63
460.218	1197.03
460.591	1208.1
460.964	1204.49
461.337	1223.02
461.71	1238.61
462.083	1281.55
462.456	1256.69
462.829	1266.63
463.201	1293.75
463.574	1298.04
463.947	1310.25
464.32	1321.77
464.692	1365.84
465.065	1344.82
465.438	1385.5
465.81	1429.57
466.183	1443.13
466.555	1454.88
466.928	1484.71
467.3	1482.22
467.672	1508.89
468.045	1542.56
468.417	1528.1
468.789	1545.27
469.161	1601.99
469.534	1640.63
469.906	1675.44
470.278	1711.59
470.65	1727.86
471.022	1728.54
471.394	1794.98
471.766	1811.48
472.138	1840.86
472.51	1896.67
472.882	1906.16
473.253	1939.84
473.625	1951.81
473.997	2050.79
474.369	2091.24
474.74	2081.3
475.112	2164.69
475.484	2187.06
475.855	2252.14
476.227	2301.63
476.598	2368.75
476.97	2414.85
477.341	2490.78
477.713	2546.15
478.084	2609.42
478.455	2681.51
478.827	2729.65
479.198	2784.11
479.569	2879.02
479.94	2975.97
480.311	2992.92
480.682	3110.65
481.053	3203.53
481.424	3336.18
481.795	3363.3
482.166	3451.89
482.537	3536.86
482.908	3674.48
483.279	3726.68
483.65	3859.11
484.021	3906.11
484.391	4032.66
484.762	4154.69
485.133	4186.33
485.503	4318.08
485.874	4464.06
486.244	4572.99
486.615	4649.6
486.985	4821.79
487.356	4929.14
487.726	5006.65
488.097	5155.34
488.467	5215.46
488.837	5428.11
489.207	5499.06
489.578	5621.1
489.948	5787.19
490.318	5890.92
490.688	5980.18
491.058	6115.55
491.428	6287.07
491.798	6396.44
492.168	6567.06
492.538	6638.7
492.908	6819.93
493.278	6929.31
493.648	6997.33
494.017	7151.45
494.387	7298.79
494.757	7388.73
495.126	7589.4
495.496	7580.14
495.866	7733.81
496.235	7865.33
496.605	8014.25
496.974	8116.4
497.344	8271.42
497.713	8295.38
498.082	8414.24
498.452	8580.34
498.821	8687.68
499.19	8741.47
499.559	8937.17
499.928	8969.48
500.298	9013.32
500.667	9235.69
501.036	9154.34
501.405	9342.58
501.774	9461.9
502.143	9514.78
502.512	9513.42
502.88	9658.73
503.249	9711.16
503.618	9815.79
503.987	9891.72
504.356	9926.52
504.724	10060.3
505.093	10051.71
505.462	10115.89
505.83	10249
506.199	10327.19
506.567	10498.26
506.936	10487.63
507.304	10589.33
507.672	10627.52
508.041	10665.48
508.409	10881.97
508.777	10830
509.145	10982.54
509.514	10952.48
509.882	11084
510.25	11098.47
510.618	11158.8
510.986	11132.81
511.354	11259.36
511.722	11308.86
512.09	11398.12
512.458	11409.87
512.826	11491.45
513.193	11481.05
513.561	11537.1
513.929	11652.57
514.297	11750.65
514.664	11698.9
515.032	11690.31
515.4	11770.76
515.767	11782.06
516.135	11927.82
516.502	11763.76
516.869	11975.05
517.237	11940.48
517.604	11943.87
517.972	12036.07
518.339	12057.54
518.706	12134.37
519.073	12091.66
519.44	12151.32
519.808	12243.52
520.175	12201.94
520.542	12331.2
520.909	12402.16
521.276	12231.99
521.643	12388.83
522.009	12469.73
522.376	12447.13
522.743	12427.92
523.11	12569.16
523.477	12582.72
523.843	12595.6
524.21	12713.34
524.577	12717.86
524.943	12709.5
525.31	12814.35
525.676	12856.61
526.043	12817.06
526.409	12910.17
526.776	12939.32
527.142	12820.23
527.508	12867.46
527.874	12956.95
528.241	12925.99
528.607	12914.24
528.973	13012.77
529.339	12951.52
529.705	13041.92
530.071	12979.09
530.437	12985.2
530.803	13019.32
531.169	13056.15
531.535	13058.41
531.901	13015.93
532.267	12975.25
532.632	12942.26
532.998	12970.73
533.364	12984.07
533.73	12995.59
534.095	13001.01
534.461	12961.24
534.826	12961.24
535.192	12891.64
535.557	12993.56
535.923	12935.93
536.288	12941.35
536.653	13005.31
537.019	12784.3
537.384	12852.54
537.749	12852.09
538.114	12815.93
538.479	12741.36
538.845	12748.82
539.21	12713.79
539.575	12703.17
539.94	12736.39
540.305	12704.98
540.67	12610.06
541.034	12600.57
541.399	12601.25
541.764	12566.68
542.129	12587.47
542.494	12500.91
542.858	12549.95
543.223	12466.34
543.587	12532.55
543.952	12387.7
544.316	12413.01
544.681	12272.9
545.045	12340.92
545.41	12332.78
545.774	12248.04
546.138	12314.48
546.503	12236.74
546.867	12101.38
547.231	12193.8
547.595	12074.71
547.959	12105.44
548.324	12058.44
548.688	12086.24
549.052	12072.45
549.416	11974.37
549.779	11918.1
550.143	12011.66
550.507	11990.42
550.871	11944.32
551.235	11858.9
551.599	11880.14
551.962	11789.75
552.326	11825.45
552.689	11761.05
553.053	11696.87
553.417	11659.35
553.78	11710.65
554.143	11756.53
554.507	11687.38
554.87	11638.11
555.234	11660.94
555.597	11585.23
555.96	11583.2
556.323	11676.98
556.686	11595.18
557.05	11603.54
557.413	11528.06
557.776	11561.96
558.139	11615.97
558.502	11578.45
558.865	11521.28
559.228	11563.31
559.59	11555.63
559.953	11583.65
560.316	11577.77
560.679	11565.8
561.041	11570.77
561.404	11652.12
561.767	11582.07
562.129	11552.46
562.492	11608.06
562.854	11577.1
563.217	11577.1
563.579	11543.43
563.941	11535.06
564.304	11585.23
564.666	11627.49
565.028	11659.13
565.39	11675.17
565.753	11620.49
566.115	11641.28
566.477	11707.71
566.839	11708.39
567.201	11739.8
567.563	11725.79
567.925	11718.34
568.287	11784.32
568.648	11766.47
569.01	11770.54
569.372	11824.32
569.734	11716.53
570.095	11813.93
570.457	11770.99
570.819	11792.01
571.18	11836.52
571.542	11869.29
571.903	11888.27
572.265	11855.28
572.626	11865.68
572.987	11855.96
573.349	11932.57
573.71	11889.4
574.071	11958.56
574.432	11928.95
574.794	12024.54
575.155	12004.43
575.516	11928.5
575.877	11970.08
576.238	12012.79
576.599	11979.57
576.96	12015.96
577.32	12006.01
577.681	12035.84
578.042	11959.23
578.403	11983.64
578.763	11943.87
579.124	12012.11
579.485	11940.93
579.845	12026.58
580.206	11977.99
580.566	11998.55
580.927	11931.89
581.287	12002.62
581.648	11978.44
582.008	11965.56
582.368	12033.81
582.728	12031.1
583.089	11963.53
583.449	12024.32
583.809	11961.72
584.169	12003.75
584.529	11946.13
584.889	11979.8
585.249	11900.93
585.609	11834.72
585.969	11914.71
586.329	11868.16
586.688	11895.28
587.048	11885.11
587.408	11914.26
587.768	11784.32
588.127	11824.77
588.487	11793.59
588.846	11839.69
589.206	11823.42
589.565	11836.98
589.925	11873.59
590.284	11884.21
590.643	11775.06
591.003	11829.75
591.362	11908.16
591.721	11825.23
592.08	11832.23
592.44	11796.98
592.799	11841.27
593.158	11819.35
593.517	11766.02
593.876	11809.63
594.235	11732.57
594.593	11747.26
594.952	11745.68
595.311	11799.69
595.67	11810.31
596.029	11766.92
596.387	11778.9
596.746	11766.47
597.104	11777.54
597.463	11762.18
597.822	11808.28
598.18	11701.39
598.538	11706.13
598.897	11866.13
599.255	11677.66
599.613	11756.75
599.972	11705.45
600.33	11717.43
600.688	11690.99
601.046	11756.08
601.404	11766.02
601.762	11679.92
602.12	11808.28
602.478	11822.97
602.836	11772.35
603.194	11728.96
603.552	11612.8
603.91	11665.91
604.268	11716.08
604.625	11641.05
604.983	11756.08
605.341	11708.84
605.698	11692.35
606.056	11784.55
606.413	11690.31
606.771	11786.13
607.128	11793.14
607.485	11680.82
607.843	11743.42
608.2	11810.99
608.557	11828.84
608.914	11799.24
609.272	11883.53
609.629	11822.97
609.986	11885.34
610.343	11830.42
610.7	11988.39
611.057	11856.41
611.414	11843.98
611.771	11816.19
612.127	11974.83
612.484	11959.91
612.841	11945.9
613.198	11932.12
613.554	11883.53
613.911	11961.49
614.267	11911.33
614.624	11870.42
614.98	11947.03
615.337	12016.63
615.693	11986.13
616.05	11938.22
616.406	11994.71
616.762	11962.17
617.118	11891.21
617.475	11989.06
617.831	12009.18
618.187	12097.31
618.543	12013.92
618.899	12056.86
619.255	12033.81
619.611	12045.56
619.967	12108.38
620.323	12135.73
620.678	12022.51
621.034	12031.77
621.39	12010.76
621.746	11960.82
622.101	12180.7
622.457	12059.57
622.812	12081.72
623.168	12101.6
623.523	12079.91
623.879	12099.57
624.234	12054.82
624.589	12115.61
624.945	12060.47
625.3	12168.72
625.655	12046.91
626.01	12152.22
626.365	12160.36
626.72	12052.11
627.075	12092.34
627.43	12044.2
627.785	12077.65
628.14	12119
628.495	12021.15
628.85	12063.41
629.205	11994.71
629.559	12116.74
629.914	12035.84
630.269	11954.71
630.623	11925.56
630.978	11939.8
631.332	11968.72
631.687	12039.91
632.041	11839.69
632.396	11917.2
632.75	11817.09
633.104	11980.02
633.459	11893.7
633.813	11853.02
634.167	11828.39
634.521	11816.64
634.875	11841.5
635.229	11888.73
635.583	11866.81
635.937	11784.32
636.291	11769.86
636.645	11727.15
636.999	11773.48
637.352	11791.33
637.706	11691.22
638.06	11772.35
638.413	11719.69
638.767	11646.7
639.121	11680.82
639.474	11643.31
639.828	11622.29
640.181	11627.49
640.534	11644.21
640.888	11587.94
641.241	11615.29
641.594	11551.33
641.947	11561.28
642.301	11554.5
642.654	11621.84
643.007	11608.73
643.36	11489.64
643.713	11506.59
644.066	11608.51
644.419	11495.52
644.771	11424.56
645.124	11334.84
645.477	11320.38
645.83	11253.04
646.182	11225.47
646.535	11201.51
646.888	11185.69
647.24	11053.49
647.593	11156.54
647.945	11146.6
648.298	11107.28
648.65	11080.16
649.002	11118.58
649.355	11176.66
649.707	11221.63
650.059	11170.78
650.411	11331.45
650.763	11327.84
651.115	11402.64
651.467	11369.42
651.819	11375.97
652.171	11423.65
652.523	11400.38
652.875	11390.89
653.227	11349.76
653.578	11440.6
653.93	11394.28
654.282	11337.33
654.633	11285.35
654.985	11423.88
655.337	11371.9
655.688	11420.72
656.039	11411.9
656.391	11317.44
656.742	11419.13
657.094	11366.48
657.445	11397.44
657.796	11362.41
658.147	11350.21
658.498	11358.12
658.849	11374.84
659.2	11348.18
659.551	11359.7
659.902	11352.92
660.253	11368.29
660.604	11382.98
660.955	11455.52
661.306	11467.5
661.656	11407.61
662.007	11384.11
662.358	11430.66
662.708	11425.24
663.059	11432.02
663.409	11332.58
663.76	11450.55
664.11	11478.12
664.461	11460.04
664.811	11425.69
665.161	11388.4
665.511	11458.68
665.862	11401.96
666.212	11419.13
666.562	11441.06
666.912	11503.43
667.262	11356.09
667.612	11402.19
667.962	11385.92
668.312	11447.83
668.662	11518.12
669.011	11357.89
669.361	11412.13
669.711	11336.43
670.06	11339.81
670.41	11416.87
670.76	11402.86
671.109	11442.19
671.459	11378.01
671.808	11385.69
672.157	11350.89
672.507	11304.34
672.856	11300.49
673.205	11331
673.554	11323.54
673.904	11311.57
674.253	11331.45
674.602	11372.81
674.951	11118.35
675.3	11086.04
675.649	11289.42
675.998	11214.39
676.346	11266.14
676.695	11274.05
677.044	11193.6
677.393	11202.19
677.741	11199.48
678.09	11135.98
678.438	11207.16
678.787	11234.51
679.135	11173.27
679.484	11156.54
679.832	11104.57
680.181	11105.92
680.529	11072.25
680.877	10976.21
681.225	11011.69
681.573	11106.6
681.922	11042.2
682.27	11014.17
682.618	10966.04
682.966	10938.24
683.314	10944.8
683.661	10965.14
684.009	10916.78
684.357	10830.68
684.705	10826.61
685.053	10858.02
685.4	10861.86
685.748	10729.66
686.095	10729.44
686.443	10689.89
686.79	10713.39
687.138	10705.48
687.485	10665.03
687.832	10657.12
688.18	10649.66
688.527	10549.1
688.874	10560.63
689.221	10508.42
689.568	10472.27
689.915	10502.77
690.262	10450.12
690.609	10458.26
690.956	10403.34
691.303	10357.92
691.65	10318.37
691.997	10368.09
692.344	10290.35
692.69	10248.54
693.037	10256.68
693.383	10190.01
693.73	10190.01
694.077	10124.48
694.423	10112.05
694.769	10055.55
695.116	10090.36
695.462	10020.08
695.808	9983.92
696.155	10000.19
696.501	9948.66
696.847	9918.38
697.193	9843.58
697.539	9826.41
697.885	9813.3
698.231	9665.96
698.577	9784.83
698.923	9712.51
699.269	9664.83
699.614	9625.28
699.96	9569.01
700.306	9552.74
700.651	9493.99
700.997	9515.91
701.342	9429.81
701.688	9464.61
702.033	9413.09
702.379	9377.38
702.724	9342.13
703.069	9331.73
703.415	9267.1
703.76	9256.25
704.105	9272.75
704.45	9251.06
704.795	9131.96
705.14	9070.95
705.485	9120.21
705.83	9047.22
706.175	9022.36
706.52	9016.94
706.865	8967
707.209	9012.42
707.554	8934
707.899	8984.4
708.243	8851.29
708.588	8905.08
708.932	8870.5
709.277	8815.36
709.621	8714.35
709.966	8703.27
710.31	8746.66
710.654	8711.86
710.998	8742.14
711.342	8678.87
711.687	8679.55
712.031	8616.72
712.375	8584.86
712.719	8568.36
713.063	8526.78
713.407	8538.08
713.75	8541.24
714.094	8528.59
714.438	8490.62
714.782	8548.25
715.125	8452.66
715.469	8520.45
715.812	8410.63
716.156	8426.22
716.499	8401.36
716.843	8403.85
717.186	8371.98
717.53	8324.98
717.873	8357.52
718.216	8329.72
718.559	8317.75
718.902	8220.12
719.246	8327.92
719.589	8269.16
719.932	8207.02
720.275	8273.45
720.617	8226
720.96	8178.77
721.303	8216.51
721.646	8235.49
721.989	8266.22
722.331	8252.89
722.674	8164.08
723.016	8202.95
723.359	8218.09
723.701	8228.48
724.044	8162.95
724.386	8168.6
724.729	8164.98
725.071	8165.44
725.413	8159.79
725.755	8091.54
726.097	8094.48
726.439	8061.48
726.782	8081.82
727.124	8119.11
727.465	8084.53
727.807	8094.7
728.149	8068.94
728.491	8073.46
728.833	8060.13
729.175	8079.56
729.516	8014.7
729.858	8020.13
730.199	7986
730.541	7997.3
730.882	7997.76
731.224	8026.46
731.565	8039.56
731.906	8068.49
732.248	8008.83
732.589	7970.86
732.93	7962.73
733.271	7950.98
733.612	8021.71
733.953	8055.38
734.294	7950.53
734.635	7979.9
734.976	7955.72
735.317	7951.88
735.658	7945.78
735.999	7896.29
736.339	8001.15
736.68	7994.37
737.021	7972.45
737.361	7988.04
737.702	8046.57
738.042	7997.53
738.383	7973.12
738.723	8028.26
739.063	7969.06
739.404	8063.97
739.744	8017.19
740.084	8027.13
740.424	8052.9
740.764	8006.34
741.104	8103.29
741.444	8068.71
741.784	8106.68
742.124	8131.76
742.464	8190.52
742.804	8127.47
743.143	8192.78
743.483	8165.66
743.823	8190.29
744.162	8240.24
744.502	8236.17
744.841	8293.79
745.181	8315.71
745.52	8300.8
745.86	8336.28
746.199	8388.93
746.538	8407.69
746.877	8522.94
747.216	8568.36
747.556	8522.71
747.895	8632.99
748.234	8634.12
748.573	8665.53
748.911	8661.69
749.25	8769.26
749.589	8814.01
749.928	8858.98
750.267	8963.61
750.605	9016.49
750.944	9115.01
751.283	9085.18
751.621	9245.18
751.96	9223.49
752.298	9333.31
752.636	9429.13
752.975	9491.5
753.313	9558.39
753.651	9670.93
753.989	9771.49
754.327	9879.74
754.666	9980.08
755.004	10083.8
755.342	10212.16
755.679	10308.88
756.017	10364.7
756.355	10615.31
756.693	10710.9
757.031	10765.37
757.368	10905.48
757.706	11040.39
758.044	11174.62
758.381	11307.27
758.719	11476.53
759.056	11604.44
759.394	11799.69
759.731	11828.16
760.068	12022.96
760.405	12167.14
760.743	12295.04
761.08	12581.59
761.417	12639.67
761.754	12828.36
762.091	13067.9
762.428	13198.07
762.765	13224.51
763.102	13472.64
763.438	13523.26
763.775	13683.03
764.112	13870.37
764.449	14033.08
764.785	14176.58
765.122	14318.04
765.458	14358.49
765.795	14530.01
766.131	14700.86
766.467	14829.21
766.804	14898.14
767.14	15075.99
767.476	15216.1
767.812	15238.7
768.148	15419.03
768.485	15481.85
768.821	15661.51
769.157	15848.85
769.492	15852.46
769.828	16036.64
770.164	15903.31
770.5	16060.59
770.836	16251.32
771.171	16314.15
771.507	16445.9
771.842	16471.21
772.178	16618.09
772.513	16660.8
772.849	16722.5
773.184	16741.48
773.519	16920.91
773.855	17018.76
774.19	16995.71
774.525	16979.67
774.86	17159.1
775.195	17255.59
775.53	17250.39
775.865	17267.12
776.2	17298.53
776.535	17268.47
776.87	17370.62
777.205	17426.66
777.539	17406.1
777.874	17530.39
778.209	17379.66
778.543	17507.11
778.878	17522.7
779.212	17515.47
779.547	17483.83
779.881	17631.17
780.215	17500.78
780.55	17643.15
780.884	17605.41
781.218	17549.37
781.552	17646.09
781.886	17616.03
782.22	17586.43
782.554	17655.35
782.888	17613.77
783.222	17497.17
783.556	17475.92
783.889	17442.48
784.223	17368.36
784.557	17482.03
784.89	17515.47
785.224	17443.61
785.557	17382.82
785.891	17438.19
786.224	17465.08
786.558	17401.12
786.891	17390.28
787.224	17324.97
787.557	17323.84
787.891	17289.04
788.224	17306.89
788.557	17317.96
788.89	17315.25
789.223	17302.14
789.556	17168.59
789.888	17157.97
790.221	17169.04
790.554	16972.66
790.887	17046.11
791.219	17067.35
791.552	17094.47
791.884	16957.75
792.217	17055.82
792.549	16986.22
792.882	16847.01
793.214	16714.81
793.546	16823.51
793.879	16740.35
794.211	16679.56
794.543	16838.2
794.875	16716.17
795.207	16799.33
795.539	16658.77
795.871	16608.15
796.203	16465.33
796.535	16538.32
796.867	16392.79
797.198	16434.14
797.53	16446.12
797.862	16311.44
798.193	16430.75
798.525	16288.16
798.856	16263.98
799.188	16122.06
799.519	16120.25
799.85	15986.02
800.182	16074.38
800.513	16118.9
800.844	16002.07
801.175	16085.68
801.506	15988.51
801.837	15935.4
802.168	15854.95
802.499	15831.22
802.83	15849.75
803.161	15720.49
803.491	15753.94
803.822	15693.6
804.153	15732.47
804.483	15624.67
804.814	15533.83
805.145	15496.32
805.475	15572.47
805.805	15448.63
806.136	15462.87
806.466	15435.75
806.796	15457.22
807.126	15222.42
807.457	15209.09
807.787	15241.86
808.117	15228.53
808.447	15183.56
808.777	15203.67
809.107	15076.21
809.436	14960.96
809.766	15057.46
810.096	15051.36
810.426	15019.72
810.755	14890.68
811.085	14938.36
811.414	14907.18
811.744	14809.33
812.073	14840.29
812.403	14769.33
812.732	14648.2
813.061	14778.82
813.39	14705.83
813.719	14669.9
814.049	14701.31
814.378	14668.77
814.707	14599.84
815.036	14599.39
815.365	14504.93
815.693	14347.65
816.022	14471.94
816.351	14498.83
816.68	14302.9
817.008	14379.28
817.337	14220.42
817.665	14222.68
817.994	14231.26
818.322	14232.62
818.651	14180.64
818.979	14187.88
819.307	14237.59
819.636	14177.03
819.964	14120.31
820.292	14161.21
820.62	14126.18
820.948	14043.25
821.276	14136.13
821.604	14096.58
821.932	14157.14
822.259	14100.87
822.587	14072.85
822.915	14026.07
823.243	14148.1
823.57	14010.93
823.898	14045.51
824.225	14031.5
824.553	13967.32
824.88	14064.71
825.207	14028.11
825.535	14007.09
825.862	14075.34
826.189	14013.42
826.516	14073.08
826.843	14123.24
827.17	14047.09
827.497	14074.88
827.824	14043.92
828.151	14101.32
828.478	14110.82
828.805	14109.01
829.131	14052.29
829.458	14059.52
829.785	13968.9
830.111	14101.1
830.438	14204.37
830.764	14052.29
831.09	14137.26
831.417	14017.48
831.743	14105.84
832.069	14083.25
832.395	13952.18
832.722	14032.4
833.048	13977.49
833.374	13995.56
833.7	13877.83
834.026	13938.39
834.351	13982.46
834.677	13946.98
835.003	13995.56
835.329	13946.98
835.654	13887.09
835.98	13862.01
836.306	13855.45
836.631	13816.13
836.956	13881.44
837.282	13912.18
837.607	13815.68
837.932	13791.28
838.258	13734.55
838.583	13707.21
838.908	13631.28
839.233	13721.22
839.558	13639.42
839.883	13649.36
840.208	13565.97
840.533	13623.82
840.858	13513.54
841.182	13585.18
841.507	13520.32
841.832	13567.33
842.156	13526.42
842.481	13398.07
842.805	13426.54
843.13	13397.16
843.454	13337.05
843.778	13301.57
844.103	13308.35
844.427	13299.99
844.751	13212.99
845.075	13275.58
845.399	13106.77
845.723	13130.28
846.047	13151.52
846.371	12991.3
846.695	13064.29
847.019	12943.16
847.343	12922.6
847.666	12819.1
847.99	12754.92
848.313	12806.44
848.637	12692.77
848.96	12603.74
849.284	12572.1
849.607	12438.54
849.931	12582.27
850.254	12476.73
850.577	12436.96
850.9	12332.78
851.223	12280.81
851.546	12261.6
851.869	12106.57
852.192	12195.84
852.515	12061.6
852.838	11978.22
853.161	12012.34
853.483	11968.95
853.806	11981.38
854.129	11881.95
854.451	11792.01
854.774	11781.84
855.096	11846.47
855.419	11778.9
855.741	11659.35
856.063	11663.42
856.385	11620.03
856.708	11566.7
857.03	11551.79
857.352	11561.05
857.674	11468.63
857.996	11439.93
858.318	11391.34
858.64	11402.86
858.961	11324.45
859.283	11328.74
859.605	11277.44
859.926	11332.36
860.248	11239.25
860.57	11219.37
860.891	11245.13
861.212	11142.76
861.534	11062.76
861.855	11037.45
862.176	11071.35
862.498	11013.72
862.819	11040.84
863.14	11015.08
863.461	11014.4
863.782	10988.41
864.103	10978.02
864.424	11018.47
864.745	10918.36
865.065	10874.74
865.386	10857.12
865.707	10818.25
866.027	10801.07
866.348	10838.59
866.668	10850.34
866.989	10773.95
867.309	10745.25
867.63	10828.64
867.95	10721.3
868.27	10636.1
868.59	10751.36
868.91	10712.49
869.23	10654.86
869.55	10646.5
869.87	10687.63
870.19	10646.05
870.51	10598.59
870.83	10602.43
871.15	10477.24
871.469	10559.95
871.789	10571.7
872.109	10543
872.428	10439.27
872.748	10519.05
873.067	10508.88
873.386	10444.25
873.706	10399.95
874.025	10396.79
874.344	10336.9
874.663	10384.59
874.982	10323.8
875.301	10316.56
875.62	10347.52
875.939	10241.99
876.258	10354.08
876.577	10290.12
876.896	10208.32
877.214	10221.65
877.533	10157.25
877.852	10110.47
878.17	10179.62
878.489	10190.47
878.807	10139.17
879.125	10158.83
879.444	10140.98
879.762	10091.94
880.08	10066.18
880.398	10064.59
880.716	10072.5
881.034	10008.1
881.352	10038.61
881.67	9997.25
881.988	9999.74
882.306	9976.46
882.624	9865.73
882.941	9912.28
883.259	9853.98
883.577	9837.26
883.894	9838.39
884.212	9873.86
884.529	9822.79
884.846	9775.56
885.164	9764.94
885.481	9760.65
885.798	9766.97
886.115	9644.27
886.432	9592.52
886.75	9615.11
887.067	9659.18
887.383	9610.82
887.7	9654.66
888.017	9558.62
888.334	9493.54
888.651	9452.41
888.967	9535.57
889.284	9438.85
889.6	9436.36
889.917	9344.39
890.233	9375.35
890.55	9296.7
890.866	9291.96
891.182	9230.27
891.498	9238.85
891.815	9281.34
892.131	9166.09
892.447	9183.04
892.763	9138.52
893.079	9119.08
893.395	9049.48
893.71	9045.86
894.026	8997.05
894.342	8978.3
894.657	8950.73
894.973	8964.28
895.289	8896.94
895.604	8911.86
895.92	8834.34
896.235	8797.28
896.55	8764.97
896.865	8739.88
897.181	8719.32
897.496	8738.08
897.811	8632.77
898.126	8649.49
898.441	8578.08
898.756	8597.74
899.071	8495.82
899.386	8537.63
899.7	8418.54
900.015	8472.77
900.33	8446.33
900.644	8371.53
900.959	8373.79
901.273	8312.55
901.588	8250.18
901.902	8252.44
902.216	8259.9
902.531	8245.88
902.845	8222.61
903.159	8193.23
903.473	8078.21
903.787	8054.7
904.101	8007.02
904.415	8032.78
904.729	8033.46
905.042	7984.42
905.356	7940.36
905.67	7877.76
905.984	7954.82
906.297	7864.2
906.611	7818.55
906.924	7778.55
907.237	7731.55
907.551	7741.49
907.864	7633.92
908.177	7736.07
908.491	7692.91
908.804	7610.65
909.117	7551.44
909.43	7551.89
909.743	7510.99
910.056	7452.46
910.368	7450.43
910.681	7369.75
910.994	7378.11
911.307	7390.09
911.619	7313.03
911.932	7369.07
912.244	7240.49
912.557	7198
912.869	7270.32
913.181	7189.42
913.494	7174.27
913.806	7111
914.118	7094.05
914.43	6981.96
914.742	6985.81
915.054	6946.48
915.366	6952.13
915.678	6939.93
915.99	6943.09
916.302	6848.41
916.613	6798.92
916.925	6880.5
917.236	6792.59
917.548	6759.14
917.859	6813.83
918.171	6720.73
918.482	6709.88
918.794	6672.59
919.105	6630.11
919.416	6608.19
919.727	6596.89
920.038	6532.94
920.349	6532.26
920.66	6522.31
920.971	6521.18
921.282	6492.94
921.593	6475.99
921.903	6404.8
922.214	6375.2
922.525	6392.15
922.835	6327.52
923.146	6313.96
923.456	6245.03
923.767	6225.37
924.077	6211.81
924.387	6226.5
924.697	6148.09
925.008	6168.65
925.318	6098.14
925.628	6061.31
925.938	6106.51
926.248	6009.11
926.558	6016.11
926.867	6023.12
927.177	6008.2
927.487	5945.38
927.796	5889.34
928.106	5876.23
928.416	5862.44
928.725	5861.09
929.034	5802.79
929.344	5803.69
929.653	5819.28
929.962	5785.61
930.271	5743.58
930.581	5732.96
930.89	5686.86
931.199	5662.45
931.508	5598.72
931.817	5652.73
932.125	5588.33
932.434	5587.88
932.743	5484.15
933.051	5498.39
933.36	5517.82
933.669	5488.67
933.977	5449.57
934.286	5461.1
934.594	5448.67
934.902	5411.61
935.21	5344.49
935.519	5371.16
935.827	5294.32
936.135	5323.93
936.443	5290.26
936.751	5286.87
937.059	5247.55
937.367	5181.56
937.674	5164.16
937.982	5210.26
938.29	5138.17
938.597	5170.94
938.905	5084.84
939.213	5060.88
939.52	5008.46
939.827	5055.46
940.135	5058.17
940.442	4980.89
940.749	4964.62
941.056	4957.61
941.363	4923.26
941.67	4910.38
941.977	4861.12
942.284	4836.48
942.591	4826.54
942.898	4794.9
943.205	4770.72
943.511	4766.88
943.818	4792.42
944.125	4737.95
944.431	4720.78
944.738	4714
945.044	4735.92
945.35	4657.73
945.657	4661.12
945.963	4630.61
946.269	4596.94
946.575	4598.98
946.881	4527.11
947.187	4602.14
947.493	4476.04
947.799	4490.73
948.105	4483.05
948.41	4428.58
948.716	4464.52
949.022	4428.13
949.327	4437.85
949.633	4345.2
949.938	4395.82
950.244	4380.68
950.549	4335.71
950.854	4291.41
951.16	4329.15
951.465	4253
951.77	4223.17
952.075	4248.02
952.38	4225.2
952.685	4240.11
952.99	4181.13
953.294	4186.56
953.599	4131.19
953.904	4107.46
954.209	4104.98
954.513	4112.43
954.818	4105.65
955.122	4068.82
955.426	4043.96
955.731	3985.88
956.035	3995.83
956.339	4008.26
956.643	4024.75
956.948	3951.08
957.252	3947.24
957.556	3950.86
957.86	3908.82
958.163	3909.28
958.467	3850.97
958.771	3837.64
959.075	3875.6
959.378	3843.51
959.682	3823.4
959.985	3754.93
960.289	3804.87
960.592	3798.09
960.896	3735.95
961.199	3732.33
961.502	3713.12
961.805	3719
962.108	3685.33
962.411	3706.8
962.714	3644.2
963.017	3693.24
963.32	3634.03
963.623	3609.17
963.926	3636.29
964.228	3557.42
964.531	3567.82
964.833	3534.14
965.136	3495.28
965.438	3524.43
965.741	3514.94
966.043	3487.82
966.345	3458.44
966.648	3439.68
966.95	3454.82
967.252	3389.52
967.554	3432.9
967.856	3412.34
968.158	3331.21
968.46	3345.9
968.761	3343.87
969.063	3362.4
969.365	3303.87
969.666	3315.62
969.968	3292.34
970.269	3290.31
970.571	3305.45
970.872	3264.09
971.174	3170.99
971.475	3214.6
971.776	3199.92
972.077	3203.76
972.378	3159.24
972.679	3147.49
972.98	3174.83
973.281	3175.06
973.582	3101.16
973.883	3106.36
974.183	3079.92
974.484	3088.96
974.785	3058.22
975.085	3048.96
975.386	3075.63
975.686	3081.73
975.986	3050.09
976.287	3014.16
976.587	2997.66
976.887	2967.38
977.187	2973.48
977.487	2952.69
977.787	2959.24
978.087	2905.46
978.387	2940.71
978.687	2888.51
978.987	2879.47
979.286	2898.23
979.586	2864.78
979.885	2856.65
980.185	2880.38
980.484	2837.89
980.784	2825.69
981.083	2810.1
981.382	2792.24
981.682	2755.63
981.981	2729.87
982.28	2749.53
982.579	2724.9
982.878	2743.2
983.177	2716.99
983.475	2706.6
983.774	2696.2
984.073	2680.16
984.372	2654.62
984.67	2668.86
984.969	2645.35
985.267	2629.54
985.566	2621.85
985.864	2620.72
986.162	2609.2
986.461	2604.68
986.759	2599.71
987.057	2587.5
987.355	2522.42
987.653	2535.53
987.951	2494.17
988.249	2512.7
988.547	2491.69
988.844	2499.37
989.142	2475.64
989.44	2482.19
989.737	2449.43
990.035	2445.13
990.332	2421.41
990.63	2425.7
990.927	2438.58
991.224	2413.95
991.521	2421.86
991.819	2357.45
992.116	2395.19
992.413	2357.45
992.71	2367.62
993.006	2308.87
993.303	2322.65
993.6	2319.26
993.897	2308.41
994.193	2284.01
994.49	2312.71
994.787	2305.93
995.083	2204.91
995.379	2229.55
995.676	2241.07
995.972	2270
996.268	2184.8
996.565	2207.85
996.861	2196.1
997.157	2180.73
997.453	2160.85
997.749	2155.42
998.044	2167.17
998.34	2133.73
998.636	2130.11
998.932	2102.09
999.227	2113.39
999.523	2088.31
999.818	2069.78
1000.114	2075.2
1000.409	2073.39
1000.704	2058.25
1001	2018.93
1001.295	2040.62
1001.59	1997.01
1001.885	2024.13
1002.18	2007.18
1002.475	1993.85
1002.77	2009.66
1003.065	1964.24
1003.359	1959.72
1003.654	1936.45
1003.949	1941.87
1004.243	1909.33
1004.538	1896.22
1004.832	1904.36
1005.127	1891.25
1005.421	1895.77
1005.715	1865.49
1006.009	1865.71
1006.304	1847.64
1006.598	1851.7
1006.892	1848.76
1007.186	1806.51
1007.48	1830.01
1007.773	1791.59
1008.067	1797.01
1008.361	1792.95
1008.655	1741.65
1008.948	1772.38
1009.242	1746.17
1009.535	1752.95
1009.829	1755.43
1010.122	1722.21
1010.415	1721.99
1010.708	1695.77
1011.001	1700.97
1011.295	1692.84
1011.588	1683.8
1011.881	1647.64
1012.173	1667.07
1012.466	1672.27
1012.759	1637.92
1013.052	1641.54
1013.344	1612.16
1013.637	1606.51
1013.93	1592.5
1014.222	1592.73
1014.514	1558.15
1014.807	1597.92
1015.099	1565.61
1015.391	1555.21
1015.683	1572.39
1015.976	1541.43
1016.268	1519.06
1016.56	1510.24
1016.851	1495.1
1017.143	1504.37
1017.435	1482.67
1017.727	1435.44
1018.018	1452.17
1018.31	1463.24
1018.602	1427.53
1018.893	1457.59
1019.185	1475.22
1019.476	1415.56
1019.767	1385.95
1020.058	1389.79
1020.35	1384.37
1020.641	1398.16
1020.932	1397.7
1021.223	1376.91
1021.514	1365.61
1021.804	1354.09
1022.095	1344.6
1022.386	1357.25
1022.677	1359.74
1022.967	1327.87
1023.258	1292.17
1023.548	1303.47
1023.839	1269.8
1024.129	1313.64
1024.419	1293.07
1024.709	1278.38
1025	1274.09
1025.29	1258.95
1025.58	1232.96
1025.87	1241.1
1026.16	1232.06
1026.449	1219.18
1026.739	1215.56
1027.029	1191.16
1027.319	1196.35
1027.608	1211.27
1027.898	1191.16
1028.187	1169.23
1028.477	1164.72
1028.766	1138.5
1029.055	1144.83
1029.344	1132.85
1029.634	1123.36
1029.923	1141.21
1030.212	1136.69
1030.501	1122.68
1030.79	1115.22
1031.078	1102.57
1031.367	1110.93
1031.656	1105.51
1031.945	1099.63
1032.233	1079.07
1032.522	1073.87
1032.81	1082.46
1033.099	1045.85
1033.387	1019.18
1033.675	1062.57
1033.963	1039.97
1034.251	1027.09
1034.54	1033.87
1034.828	1013.98
1035.116	1016.47
1035.403	1009.92
1035.691	984.83
1035.979	978.96
1036.267	965.62
1036.554	964.04
1036.842	988.9
1037.129	967.66
1037.417	968.11
1037.704	980.99
1037.992	956.81
1038.279	945.96
1038.566	934.66
1038.853	934.66
1039.14	934.66
