Data from hue_330_FLMS001491_87.txt Node
Date: Mon Feb 06 15:46:03 GMT 2017
User: dcchb
Spectrometer: FLMS00149
Trigger mode: 0
Integration Time (sec): 2.000000E-2
Scans to average: 10
Electric dark correction enabled: true
Nonlinearity correction enabled: false
Boxcar width: 0
XAxis mode: Wavelengths
Number of Pixels in Spectrum: 2048
>>>>>Begin Spectral Data<<<<<
341.393	-17.47
341.776	-17.47
342.16	-17.47
342.543	-81.88
342.927	-70.8
343.31	-85.27
343.693	-68.32
344.077	-77.81
344.46	-54.31
344.843	-48.2
345.226	-41.43
345.61	-26.28
345.993	-15.89
346.376	4.22
346.759	4.68
347.142	25.01
347.525	37.89
347.908	55.3
348.291	73.83
348.674	87.38
349.057	129.19
349.44	131.9
349.823	154.73
350.206	168.29
350.588	201.96
350.971	210.09
351.354	231.11
351.737	246.02
352.119	257.78
352.502	252.13
352.884	268.4
353.267	285.12
353.65	287.83
354.032	303.42
354.414	297.32
354.797	301.62
355.179	336.19
355.562	320.37
355.944	315.4
356.326	319.69
356.709	353.59
357.091	324.44
357.473	341.16
357.855	332.12
358.238	336.42
358.62	348.85
359.002	335.51
359.384	341.16
359.766	344.1
360.148	334.38
360.53	359.69
360.912	314.95
361.294	329.41
361.676	324.89
362.057	330.99
362.439	338.45
362.821	332.35
363.203	329.41
363.584	320.82
363.966	313.37
364.348	317.21
364.729	324.44
365.111	326.7
365.493	336.42
365.874	334.38
366.256	314.5
366.637	312.24
367.019	327.83
367.4	306.81
367.781	319.47
368.163	322.18
368.544	316.31
368.925	297.1
369.306	314.95
369.688	334.16
370.069	322.86
370.45	303.65
370.831	320.6
371.212	333.93
371.593	325.8
371.974	310.2
372.355	317.44
372.736	321.5
373.117	306.59
373.498	301.39
373.879	327.6
374.26	328.28
374.641	332.35
375.021	299.13
375.402	309.53
375.783	305.23
376.163	343.65
376.544	338.45
376.925	352.69
377.305	314.05
377.686	330.54
378.066	349.75
378.447	330.09
378.827	331.9
379.208	342.29
379.588	331.22
379.968	351.33
380.349	354.04
380.729	339.81
381.109	335.29
381.489	335.51
381.87	348.85
382.25	358.79
382.63	352.69
383.01	331.67
383.39	353.59
383.77	353.82
384.15	360.37
384.53	344.78
384.91	358.11
385.29	333.25
385.67	360.15
386.049	359.69
386.429	338.45
386.809	352.91
387.189	360.82
387.568	361.5
387.948	352.91
388.328	350.43
388.707	354.5
389.087	368.96
389.466	362.86
389.846	356.3
390.225	379.35
390.605	378
390.984	390.65
391.363	375.29
391.743	381.84
392.122	362.86
392.501	365.12
392.881	375.96
393.26	403.53
393.639	368.96
394.018	352.24
394.397	378.68
394.776	382.29
395.155	388.39
395.534	390.43
395.913	392.46
396.292	400.6
396.671	384.78
397.05	387.72
397.429	410.31
397.808	380.94
398.186	399.69
398.565	428.62
398.944	384.1
399.323	410.54
399.701	399.69
400.08	408.96
400.458	399.01
400.837	409.41
401.215	387.49
401.594	412.8
401.972	413.48
402.351	421.61
402.729	429.97
403.107	427.04
403.486	398.34
403.864	427.26
404.242	424.33
404.62	436.75
404.999	435.62
405.377	443.31
405.755	431.1
406.133	448.73
406.511	445.12
406.889	443.31
407.267	443.99
407.645	453.48
408.023	471.56
408.401	452.12
408.779	455.51
409.156	472.69
409.534	450.99
409.912	487.6
410.29	486.92
410.667	502.97
411.045	498.67
411.422	490.54
411.8	508.84
412.178	506.36
412.555	524.89
412.933	529.41
413.31	509.29
413.687	519.92
414.065	543.64
414.442	541.16
414.819	537.54
415.197	569.18
415.574	554.49
415.951	580.71
416.328	570.31
416.705	584.55
417.082	568.05
417.46	605.11
417.837	609.63
418.214	613.47
418.591	611.44
418.967	624.32
419.344	626.35
419.721	621.61
420.098	644.66
420.475	649.18
420.852	640.14
421.228	662.06
421.605	649.4
421.982	673.13
422.358	665.22
422.735	688.72
423.111	654.15
423.488	669.29
423.864	690.08
424.241	685.56
424.617	703.19
424.994	707.26
425.37	712.45
425.746	727.82
426.123	716.75
426.499	737.09
426.875	745.45
427.251	743.86
427.627	771.43
428.003	780.47
428.379	778.89
428.756	767.37
429.132	792.45
429.507	795.84
429.883	804.43
430.259	839.91
430.635	825.9
431.011	823.18
431.387	839
431.763	823.18
432.138	860.7
432.514	860.02
432.89	862.05
433.265	880.13
433.641	888.49
434.016	908.38
434.392	909.96
434.767	921.49
435.143	908.61
435.518	922.17
435.894	956.06
436.269	949.96
436.644	966.68
437.02	947.48
437.395	978.43
437.77	974.37
438.145	1014.37
438.52	1018.89
438.895	1011.43
439.271	1028.6
439.646	1030.64
440.021	1046
440.395	1059.11
440.77	1071.09
441.145	1054.59
441.52	1084.42
441.895	1079.9
442.27	1066.12
442.645	1069.96
443.019	1066.34
443.394	1086
443.769	1097.53
444.143	1085.55
444.518	1109.5
444.892	1116.28
445.267	1119.22
445.641	1101.6
446.016	1143.18
446.39	1129.62
446.764	1153.35
447.139	1152.67
447.513	1125.32
447.887	1153.12
448.262	1155.61
448.636	1141.59
449.01	1166.45
449.384	1179.79
449.758	1182.05
450.132	1194.47
450.506	1202.61
450.88	1196.06
451.254	1210.07
451.628	1195.6
452.002	1215.04
452.376	1236.06
452.75	1245.32
453.123	1268.14
453.497	1250.52
453.871	1248.26
454.244	1272.66
454.618	1283.74
454.992	1298.43
455.365	1292.32
455.739	1312.89
456.112	1332.78
456.486	1310.18
456.859	1320.35
457.232	1357.63
457.606	1324.19
457.979	1374.36
458.352	1397.63
458.725	1406.9
459.099	1423.85
459.472	1443.96
459.845	1444.86
460.218	1446.45
460.591	1444.86
460.964	1464.07
461.337	1492.32
461.71	1520.12
462.083	1520.79
462.456	1512.88
462.829	1505.43
463.201	1515.6
463.574	1556.95
463.947	1563.28
464.32	1573.9
464.692	1575.93
465.065	1619.32
465.438	1628.59
465.81	1661.13
466.183	1653.67
466.555	1698.87
466.928	1690.51
467.3	1697.96
467.672	1715.59
468.045	1730.73
468.417	1738.87
468.789	1738.41
469.161	1778.87
469.534	1769.37
469.906	1848.02
470.278	1830.84
470.65	1852.08
471.022	1886.89
471.394	1896.38
471.766	1897.73
472.138	1938.18
472.51	1950.39
472.882	1953.1
473.253	1954.91
473.625	2043.04
473.997	2040.55
474.369	2068.8
474.74	2076.26
475.112	2107.22
475.484	2152.42
475.855	2156.48
476.227	2199.87
476.598	2237.16
476.97	2247.1
477.341	2283.26
477.713	2300.89
478.084	2344.27
478.455	2378.85
478.827	2396.02
479.198	2454.78
479.569	2462.92
479.94	2478.73
480.311	2532.29
480.682	2556.7
481.053	2630.37
481.424	2676.24
481.795	2666.75
482.166	2678.28
482.537	2731.83
482.908	2772.29
483.279	2826.52
483.65	2829.91
484.021	2882.11
484.391	2889.12
484.762	2930.02
485.133	2977.48
485.503	2958.95
485.874	3033.75
486.244	3092.5
486.615	3139.73
486.985	3171.37
487.356	3211.14
487.726	3273.74
488.097	3284.59
488.467	3277.13
488.837	3320.07
489.207	3371.59
489.578	3427.64
489.948	3421.76
490.318	3481.19
490.688	3462.21
491.058	3546.95
491.428	3541.31
491.798	3610
492.168	3681.87
492.538	3675.76
492.908	3692.49
493.278	3737.46
493.648	3774.29
494.017	3795.99
494.387	3805.03
494.757	3854.52
495.126	3894.52
495.496	3874.18
495.866	3947.85
496.235	3984.46
496.605	3996.89
496.974	4001.18
497.344	4059.94
497.713	4042.08
498.082	4069.65
498.452	4087.51
498.821	4140.84
499.19	4121.63
499.559	4173.6
499.928	4172.25
500.298	4177.45
500.667	4216.77
501.036	4225.36
501.405	4270.78
501.774	4294.28
502.143	4349.87
502.512	4294.05
502.88	4359.14
503.249	4353.94
503.618	4376.09
503.987	4400.72
504.356	4418.12
504.724	4461.28
505.093	4442.98
505.462	4452.47
505.83	4462.41
506.199	4545.8
506.567	4577.66
506.936	4568.4
507.304	4560.04
507.672	4545.8
508.041	4673.25
508.409	4646.59
508.777	4725.23
509.145	4662.41
509.514	4718
509.882	4699.92
510.25	4727.49
510.618	4764.1
510.986	4791.67
511.354	4790.09
511.722	4822.4
512.09	4888.16
512.458	4811.78
512.826	4843.64
513.193	4817.88
513.561	4911.21
513.929	4912.34
514.297	4991.44
514.664	4988.5
515.032	4941.27
515.4	5069.63
515.767	5015.84
516.135	5061.72
516.502	4986.01
516.869	5081.15
517.237	5051.32
517.604	5055.84
517.972	5120.02
518.339	5109.63
518.706	5089.74
519.073	5155.73
519.44	5177.65
519.808	5141.26
520.175	5161.38
520.542	5224.88
520.909	5280.92
521.276	5245.44
521.643	5322.5
522.009	5334.25
522.376	5333.8
522.743	5346.91
523.11	5398.88
523.477	5449.5
523.843	5400.92
524.21	5568.6
524.577	5502.84
524.943	5528.37
525.31	5588.26
525.676	5582.61
526.043	5637.52
526.409	5637.07
526.776	5700.8
527.142	5727.91
527.508	5735.37
527.874	5744.19
528.241	5831.64
528.607	5813.11
528.973	5877.51
529.339	5834.58
529.705	5883.39
530.071	5897.85
530.437	5929.27
530.803	5976.95
531.169	6050.62
531.535	6049.71
531.901	6056.72
532.267	6052.2
532.632	6141.91
532.998	6120.67
533.364	6171.07
533.73	6121.8
534.095	6275.47
534.461	6236.38
534.826	6302.59
535.192	6282.02
535.557	6322.48
535.923	6399.54
536.288	6326.54
536.653	6463.71
537.019	6412.64
537.384	6438.63
537.749	6456.71
538.114	6428.46
538.479	6521.79
538.845	6535.12
539.21	6528.8
539.575	6552.07
539.94	6598.63
540.305	6656.03
540.67	6602.92
541.034	6676.36
541.399	6718.17
541.764	6731.5
542.129	6784.84
542.494	6778.96
542.858	6789.13
543.223	6831.39
543.587	6928.11
543.952	6922.69
544.316	6877.04
544.681	6960.65
545.045	6952.29
545.41	6989.35
545.774	6999.97
546.138	7015.56
546.503	7073.42
546.867	7072.29
547.231	7117.71
547.595	7164.26
547.959	7173.07
548.324	7219.17
548.688	7211.04
549.052	7269.57
549.416	7308.21
549.779	7297.36
550.143	7298.04
550.507	7366.06
550.871	7375.55
551.235	7368.1
551.599	7374.88
551.962	7518.38
552.326	7463.91
552.689	7551.6
553.053	7475.89
553.417	7496.68
553.78	7638.82
554.143	7617.13
554.507	7630.69
554.87	7594.53
555.234	7678.6
555.597	7609.45
555.96	7684.47
556.323	7714.53
556.686	7770.57
557.05	7772.38
557.413	7798.82
557.776	7865.71
558.139	7818.25
558.502	7895.54
558.865	7862.1
559.228	7944.35
559.59	7968.08
559.953	7999.04
560.316	8047.85
560.679	8079.04
561.041	8047.85
561.404	8114.07
561.767	8095.31
562.129	8087.85
562.492	8267.28
562.854	8250.79
563.217	8175.76
563.579	8264.8
563.941	8258.47
564.304	8329.65
564.666	8369.43
565.028	8350.9
565.39	8402.42
565.753	8443.1
566.115	8415.53
566.477	8546.82
566.839	8516.99
567.201	8578.46
567.563	8597.22
567.925	8587.95
568.287	8644.45
568.648	8653.71
569.01	8692.36
569.372	8741.85
569.734	8732.58
570.095	8840.83
570.457	8835.18
570.819	8857.78
571.18	8892.35
571.542	8894.16
571.903	8993.82
572.265	9024.32
572.626	9094.38
572.987	9093.48
573.349	9198.56
573.71	9269.97
574.071	9203.98
574.432	9317.65
574.794	9398.1
575.155	9392.22
575.516	9435.61
575.877	9521.71
576.238	9591.32
576.599	9688.94
576.96	9782.95
577.32	9775.49
577.681	9886.22
578.042	9992.89
578.403	10097.29
578.763	10142.26
579.124	10245.76
579.485	10335.02
579.845	10503.38
580.206	10579.76
580.566	10619.54
580.927	10775.24
581.287	10902.24
581.648	11010.26
582.008	11171.16
582.368	11303.14
582.728	11416.58
583.089	11544.48
583.449	11786.51
583.809	11877.13
584.169	12044.36
584.529	12234.18
584.889	12473.95
585.249	12504.91
585.609	12735.41
585.969	13021.51
586.329	13250.88
586.688	13427.37
587.048	13574.71
587.408	13896.74
587.768	14120.91
588.127	14289.05
588.487	14456.05
588.846	14836.6
589.206	14938.75
589.565	15211.28
589.925	15531.95
590.284	15626.41
590.643	16011.49
591.003	16322.89
591.362	16663.45
591.721	16758.58
592.08	17132.81
592.44	17452.58
592.799	17644.66
593.158	18011.43
593.517	18172.33
593.876	18495.71
594.235	18750.17
594.593	18988.58
594.952	19427.89
595.311	19538.62
595.67	19959.18
596.029	20304.03
596.387	20624.47
596.746	21002.77
597.104	21098.58
597.463	21342.42
597.822	21749.87
598.18	21932.46
598.538	22260.14
598.897	22579
599.255	22816.05
599.613	23251.07
599.972	23364.51
600.33	23637.5
600.688	23920.66
601.046	24263.92
601.404	24748.66
601.762	24774.65
602.12	25180.74
602.478	25425.48
602.836	25756.09
603.194	25794.05
603.552	26195.4
603.91	26396.98
604.268	26778.43
604.625	27041.25
604.983	27124.41
605.341	27334.8
605.698	27608.47
606.056	28035.12
606.413	28240.09
606.771	28457.94
607.128	28736.12
607.485	28924.37
607.843	29175.43
608.2	29441.42
608.557	29713.95
608.914	29902.19
609.272	29986.94
609.629	30310.54
609.986	30696.98
610.343	30626.92
610.7	31087.93
611.057	31152.78
611.414	31470.29
611.771	31671.64
612.127	31896.72
612.484	31963.83
612.841	32281.57
613.198	32323.37
613.554	32550.71
613.911	32941.66
614.267	32960.19
614.624	33089.68
614.98	33267.53
615.337	33642.66
615.693	33684.02
616.05	33819.61
616.406	34166.04
616.762	34101.86
617.118	34252.81
617.475	34417.33
617.831	34736.64
618.187	34734.16
618.543	34937.99
618.899	35196.29
619.255	35170.76
619.611	35260.02
619.967	35578.43
620.323	35666.11
620.678	35639.67
621.034	35798.99
621.39	35898.19
621.746	35861.13
622.101	36329.14
622.457	36204.63
622.812	36346.32
623.168	36509.48
623.523	36482.36
623.879	36822.46
624.234	36574.11
624.589	36713.99
624.945	36878.51
625.3	37010.26
625.655	37003.7
626.01	37170.25
626.365	37162.57
626.72	37231.27
627.075	37301.77
627.43	37372.96
627.785	37346.29
628.14	37416.57
628.495	37592.39
628.85	37613.18
629.205	37480.53
629.559	37837.8
629.914	37650.69
630.269	37719.39
630.623	37730.01
630.978	37684.59
631.332	37868.31
631.687	37921.19
632.041	37764.13
632.396	37967.74
632.75	37848.2
633.104	37958.03
633.459	37979.72
633.813	37985.82
634.167	38144.24
634.521	37992.6
634.875	38115.31
635.229	38153.05
635.583	37906.28
635.937	37941.3
636.291	38019.72
636.645	38111.47
636.999	37977.69
637.352	38207.96
637.706	37965.26
638.06	38067.63
638.413	38103.33
638.767	37968.87
639.121	38115.54
639.474	37828.31
639.828	37916.45
640.181	38038.93
640.534	38078.48
640.888	37894.3
641.241	37735.43
641.594	37818.6
641.947	37946.28
642.301	38019.72
642.654	37970
643.007	37878.71
643.36	37868.09
643.713	37922.32
644.066	37887.97
644.419	37792.16
644.771	37637.36
645.124	37265.84
645.477	37203.02
645.83	37075.34
646.182	36878.06
646.535	36756.25
646.888	36853.42
647.24	36610.94
647.593	36854.33
647.945	36836.93
648.298	36752.41
648.65	36636.48
649.002	36511.51
649.355	36555.13
649.707	36702.92
650.059	36803.26
650.411	37125.05
650.763	37197.6
651.115	37557.36
651.467	37549.68
651.819	37512.62
652.171	37476.68
652.523	37360.75
652.875	37485.95
653.227	37277.59
653.578	37551.94
653.93	37379.96
654.282	37166.41
654.633	37172.06
654.985	37242.57
655.337	37235.79
655.688	37268.1
656.039	37399.85
656.391	37054.55
656.742	37204.15
657.094	37236.46
657.445	37329.8
657.796	37225.62
658.147	37205.5
658.498	37140.2
658.849	37212.96
659.2	37230.59
659.551	37118.73
659.902	37212.51
660.253	37160.76
660.604	37120.99
660.955	37003.7
661.306	37149.01
661.656	37093.64
662.007	37105.17
662.358	37127.99
662.708	37059.07
663.059	37169.57
663.409	36987.88
663.76	37191.04
664.11	37044.15
664.461	37139.29
664.811	37173.64
665.161	37132.74
665.511	37024.94
665.862	37073.3
666.212	37004.15
666.562	37104.72
666.912	37064.27
667.262	36959.41
667.612	36997.15
667.962	37066.98
668.312	36895.91
668.662	37126.41
669.011	37035.11
669.361	36751.51
669.711	36901.56
670.06	36969.8
670.41	36837.83
670.76	36816.59
671.109	37007.54
671.459	36873.76
671.808	36850.03
672.157	36901.33
672.507	36625.41
672.856	36806.87
673.205	36782.92
673.554	36871.95
673.904	36697.72
674.253	36915.12
674.602	36789.7
674.951	36269.94
675.3	36140.22
675.649	36648.68
675.998	36812.52
676.346	36757.61
676.695	36862.69
677.044	36407.56
677.393	36642.58
677.741	36703.6
678.09	36617.5
678.438	36603.94
678.787	36446.88
679.135	36548.12
679.484	36165.53
679.832	36457.95
680.181	36256.6
680.529	36360.1
680.877	36189.03
681.225	36225.42
681.573	36349.26
681.922	36223.61
682.27	36048.02
682.618	36143.61
682.966	35933.45
683.314	35991.53
683.661	35866.1
684.009	35711.31
684.357	35651.42
684.705	35578.43
685.053	35638.31
685.4	35630.86
685.748	35399.22
686.095	35422.73
686.443	35356.97
686.79	35353.58
687.138	35463.18
687.485	35293.92
687.832	35162.17
688.18	35261.83
688.527	35058.67
688.874	35051.44
689.221	35116.52
689.568	34935.06
689.915	34867.26
690.262	34773.03
690.609	34711.11
690.956	34640.6
691.303	34588.17
691.65	34482.19
691.997	34480.38
692.344	34205.58
692.69	34334.85
693.037	34121.07
693.383	34034.29
693.73	34110.44
694.077	33979.83
694.423	33975.31
694.769	33737.35
695.116	33736.44
695.462	33632.49
695.808	33558.82
696.155	33598.14
696.501	33343.46
696.847	33461.65
697.193	33130.36
697.539	33331.48
697.885	33109.34
698.231	32892.17
698.577	32955
698.923	32904.6
699.269	32667.55
699.614	32663.93
699.96	32553.2
700.306	32555.68
700.651	32442.69
700.997	32315.69
701.342	32444.27
701.688	32233.21
702.033	32228.69
702.379	32017.62
702.724	32002.7
703.069	32098.52
703.415	31750.28
703.76	31726.78
704.105	31848.58
704.45	31665.31
704.795	31568.14
705.14	31401.14
705.485	31447.69
705.83	31271.2
706.175	31394.13
706.52	31202.05
706.865	31164.99
707.209	31170.86
707.554	31012.9
707.899	31085.67
708.243	30955.05
708.588	30852.45
708.932	30627.82
709.277	30793.7
709.621	30724.09
709.966	30430.09
710.31	30435.06
710.654	30253.82
710.998	30236.42
711.342	30308.74
711.687	30235.29
712.031	30140.38
712.375	29965.47
712.719	30073.04
713.063	29934.51
713.407	30076.2
713.75	29925.92
714.094	29748.75
714.438	29731.8
714.782	29629.21
715.125	29587.85
715.469	29604.12
715.812	29421.08
716.156	29257.24
716.499	29401.42
716.843	29340.85
717.186	29186.28
717.53	29277.8
717.873	29308.54
718.216	29131.82
718.559	29091.59
718.902	28855.22
719.246	28898.38
719.589	28847.53
719.932	28810.02
720.275	28904.71
720.617	28831.26
720.96	28652.51
721.303	28659.06
721.646	28806.18
721.989	28505.17
722.331	28597.6
722.674	28431.95
723.016	28514.89
723.359	28411.39
723.701	28377.04
724.044	28184.95
724.386	28235.57
724.729	28369.13
725.071	28260.43
725.413	28301.11
725.755	28242.8
726.097	28018.4
726.439	27865.19
726.782	27875.35
727.124	28015.24
727.465	27741.8
727.807	27775.24
728.149	27666.77
728.491	27705.42
728.833	27684.17
729.175	27510.62
729.516	27668.13
729.858	27530.73
730.199	27586.32
730.541	27345.2
730.882	27405.54
731.224	27433.33
731.565	27361.7
731.906	27347.23
732.248	27321.24
732.589	27056.17
732.93	27001.93
733.271	27079.44
733.612	27130.52
733.953	27173.45
734.294	26992.89
734.635	26957.19
734.976	26959.9
735.317	26908.15
735.658	26848.71
735.999	26829.05
736.339	26791.09
736.68	26840.81
737.021	26732.33
737.361	26669.96
737.702	26682.17
738.042	26568.27
738.383	26538.21
738.723	26642.39
739.063	26481.94
739.404	26631.77
739.744	26475.39
740.084	26287.83
740.424	26505.22
740.764	26336.64
741.104	26525.79
741.444	26202.18
741.784	26145.68
742.124	26283.08
742.464	26270.43
742.804	26164.21
743.143	26026.14
743.483	25967.61
743.823	25830.89
744.162	25965.35
744.502	25996.76
744.841	25873.37
745.181	25959.7
745.52	25875.18
745.86	25873.15
746.199	25808.29
746.538	25768.52
746.877	25744.56
747.216	25723.09
747.556	25575.3
747.895	25686.71
748.234	25536.66
748.573	25447.85
748.911	25483.55
749.25	25387.74
749.589	25237.46
749.928	25337.34
750.267	25360.39
750.605	25244.01
750.944	25194.07
751.283	25116.11
751.621	25183
751.96	25040.63
752.298	25062.55
752.636	24970.57
752.975	24920.63
753.313	24827.75
753.651	24920.63
753.989	24771.48
754.327	24696.68
754.666	24628.43
755.004	24636.12
755.342	24683.35
755.679	24595.44
756.017	24457.82
756.355	24414.65
756.693	24388.89
757.031	24442.68
757.368	24219.86
757.706	24219.86
758.044	24105.06
758.381	24263.02
758.719	24101.89
759.056	24008.11
759.394	23978.96
759.731	23809.47
760.068	23792.07
760.405	23657.61
760.743	23647.22
761.08	23719.98
761.417	23581.46
761.754	23472.98
762.091	23514.79
762.428	23368.81
762.765	23236.38
763.102	23272.76
763.438	23155.03
763.775	22995.03
764.112	23169.72
764.449	23135.59
764.785	22919.33
765.122	22763.4
765.458	22664.87
765.795	22719.33
766.131	22597.08
766.467	22604.08
766.804	22474.37
767.14	22331.77
767.476	22338.55
767.812	22245.9
768.148	22103.53
768.485	22135.84
768.821	21887.26
769.157	21838.9
769.492	21906.92
769.828	21899.92
770.164	21592.58
770.5	21731.34
770.836	21527.27
771.171	21507.39
771.507	21466.26
771.842	21280.5
772.178	21214.29
772.513	21181.07
772.849	21138.36
773.184	21021.75
773.519	21020.62
773.855	20988.76
774.19	20847.06
774.525	20841.19
774.86	20638.48
775.195	20722.1
775.53	20642.78
775.865	20481.65
776.2	20375.89
776.535	20205.95
776.87	20294.99
777.205	20193.07
777.539	20032.17
777.874	20081.66
778.209	19953.3
778.543	19900.88
778.878	19857.49
779.212	19804.38
779.547	19779.75
779.881	19677.38
780.215	19525.74
780.55	19596.93
780.884	19483.03
781.218	19335.69
781.552	19344.05
781.886	19269.71
782.22	19090.73
782.554	19157.39
782.888	18945.19
783.222	18829.94
783.556	18884.63
783.889	18649.38
784.223	18609.84
784.557	18629.95
784.89	18619.55
785.224	18577.29
785.557	18417.98
785.891	18366
786.224	18327.36
786.558	18268.83
786.891	18071.09
787.224	18114.26
787.557	18085.33
787.891	18088.49
788.224	17987.93
788.557	17909.06
788.89	17907.26
789.223	17896.63
789.556	17678.79
789.888	17646.25
790.221	17583.87
790.554	17513.37
790.887	17445.8
791.219	17407.83
791.552	17355.63
791.884	17272.7
792.217	17242.19
792.549	17121.51
792.882	16994.51
793.214	16989.54
793.546	16993.61
793.879	16938.47
794.211	16823.44
794.543	16840.62
794.875	16766.27
795.207	16790.9
795.539	16616.44
795.871	16736.89
796.203	16414.19
796.535	16437.69
796.867	16349.78
797.198	16425.26
797.53	16383.91
797.862	16192.27
798.193	16234.98
798.525	16046.51
798.856	16149.34
799.188	16001.54
799.519	15966.52
799.85	15839.29
800.182	15892.84
800.513	15988.44
800.844	15715
801.175	15894.88
801.506	15797.93
801.837	15655.11
802.168	15603.81
802.499	15633.64
802.83	15511.16
803.161	15427.55
803.491	15485.17
803.822	15319.3
804.153	15393.42
804.483	15213.99
804.814	15151.4
805.145	15155.24
805.475	15159.08
805.805	15089.25
806.136	15190.26
806.466	15015.13
806.796	15055.13
807.126	14934.9
807.457	14812.2
807.787	14889.03
808.117	14817.84
808.447	14755.7
808.777	14739.88
809.107	14725.87
809.436	14578.76
809.766	14624.18
810.096	14592.99
810.426	14581.47
810.755	14538.3
811.085	14528.36
811.414	14466.89
811.744	14374.47
812.073	14284.75
812.403	14286.79
812.732	14220.12
813.061	14145.09
813.39	14160.91
813.719	14137.41
814.049	14156.85
814.378	14005.21
814.707	14121.82
815.036	13976.96
815.365	13927.92
815.693	13846.57
816.022	13844.76
816.351	13774.93
816.68	13728.38
817.008	13735.84
817.337	13672.56
817.665	13615.62
817.994	13643.19
818.322	13659.46
818.651	13524.09
818.979	13472.57
819.307	13565.9
819.636	13495.62
819.964	13437.32
820.292	13452.46
820.62	13465.79
820.948	13348.05
821.276	13446.58
821.604	13465.79
821.932	13525.45
822.259	13382.4
822.587	13403.19
822.915	13299.24
823.243	13412.01
823.57	13302.18
823.898	13287.72
824.225	13338.56
824.553	13416.53
824.88	13291.33
825.207	13467.37
825.535	13320.03
825.862	13299.47
826.189	13258.34
826.516	13376.98
826.843	13379.24
827.17	13389.63
827.497	13394.15
827.824	13363.42
828.151	13403.42
828.478	13356.64
828.805	13380.14
829.131	13259.24
829.458	13267.6
829.785	13325.68
830.111	13338.34
830.438	13382.63
830.764	13316.19
831.09	13356.87
831.417	13222.63
831.743	13352.57
832.069	13239.58
832.395	13242.29
832.722	13304.89
833.048	13188.06
833.374	13214.95
833.7	13165.01
834.026	13227.6
834.351	13172.01
834.677	13069.64
835.003	13182.18
835.329	13111.9
835.654	13137.89
835.98	13050.66
836.306	12994.62
836.631	12972.02
836.956	12998.46
837.282	13006.37
837.607	12961.4
837.932	12931.79
838.258	12967.5
838.583	12923.66
838.908	12925.24
839.233	12909.42
839.558	12810.89
839.883	12748.97
840.208	12765.47
840.533	12820.38
840.858	12780.16
841.182	12753.49
841.507	12738.8
841.832	12718.01
842.156	12660.84
842.481	12565.7
842.805	12574.29
843.13	12641.63
843.454	12619.26
843.778	12484.35
844.103	12522.09
844.427	12412.03
844.751	12433.05
845.075	12422.2
845.399	12353.73
845.723	12311.47
846.047	12316.44
846.371	12213.85
846.695	12321.41
847.019	12141.31
847.343	12103.11
847.666	12015.66
847.99	12012.49
848.313	11948.99
848.637	11900.63
848.96	11853.18
849.284	11902.67
849.607	11764.82
849.931	11708.32
850.254	11595.1
850.577	11616.8
850.9	11489.12
851.223	11452.28
851.546	11411.61
851.869	11351.95
852.192	11396.92
852.515	11338.61
852.838	11215.23
853.161	11246.87
853.483	11153.53
853.806	11157.38
854.129	11064.05
854.451	11085.51
854.774	10982.24
855.096	11065.63
855.419	10968.45
855.741	10859.76
856.063	10867.44
856.385	10856.14
856.708	10865.63
857.03	10790.15
857.352	10796.48
857.674	10796.93
857.996	10776.37
858.318	10724.85
858.64	10668.35
858.961	10648.69
859.283	10587.22
859.605	10574.11
859.926	10633.77
860.248	10512.42
860.57	10468.81
860.891	10459.09
861.212	10407.34
861.534	10458.86
861.855	10348.13
862.176	10415.02
862.498	10307.68
862.819	10329.38
863.14	10341.35
863.461	10257.74
863.782	10195.14
864.103	10285.53
864.424	10228.59
864.745	10221.36
865.065	10172.77
865.386	10143.39
865.707	10166.44
866.027	10083.28
866.348	10044.41
866.668	10119.44
866.989	10152.2
867.309	10033.56
867.63	9985.43
867.95	10005.99
868.27	9962.15
868.59	9934.36
868.91	9906.11
869.23	9906.34
869.55	9920.57
869.87	9950.85
870.19	9909.95
870.51	9902.04
870.83	9894.13
871.15	9874.47
871.469	9822.5
871.789	9871.99
872.109	9839.22
872.428	9784.98
872.748	9822.95
873.067	9803.29
873.386	9799.67
873.706	9779.33
874.025	9706.79
874.344	9686.68
874.663	9712.22
874.982	9628.6
875.301	9702.05
875.62	9551.99
875.939	9624.76
876.258	9626.34
876.577	9593.35
876.896	9537.53
877.214	9488.27
877.533	9529.85
877.852	9555.84
878.17	9538.66
878.489	9505.44
878.807	9497.31
879.125	9471.09
879.444	9468.83
879.762	9435.16
880.08	9393.13
880.398	9409.4
880.716	9426.57
881.034	9325.33
881.352	9319.68
881.67	9353.36
881.988	9326.46
882.306	9293.47
882.624	9263.87
882.941	9256.64
883.259	9180.25
883.577	9196.52
883.894	9120.37
884.212	9124.66
884.529	9088.96
884.846	9091.22
885.164	9084.44
885.481	9000.6
885.798	9020.26
886.115	8977.77
886.432	9020.03
886.75	8952.01
887.067	9012.12
887.383	8934.84
887.7	8930.99
888.017	8817.1
888.334	8825.91
888.651	8862.3
888.967	8816.87
889.284	8714.95
889.6	8782.3
889.917	8679.48
890.233	8754.95
890.55	8662.98
890.866	8717.44
891.182	8608.29
891.498	8559.48
891.815	8601.29
892.131	8507.05
892.447	8491.46
892.763	8460.5
893.079	8485.36
893.395	8449.65
893.71	8400.84
894.026	8440.16
894.342	8379.37
894.657	8344.57
894.973	8324.23
895.289	8305.93
895.604	8314.96
895.92	8298.47
896.235	8230.22
896.55	8242.2
896.865	8272.48
897.181	8232.03
897.496	8131.02
897.811	8126.95
898.126	8064.35
898.441	8061.86
898.756	8010.34
899.071	7998.59
899.386	7999.72
899.7	7935.99
900.015	7945.71
900.33	7817.12
900.644	7845.37
900.959	7792.49
901.273	7829.78
901.588	7789.1
901.902	7713.17
902.216	7727.64
902.531	7649.45
902.845	7638.37
903.159	7634.53
903.473	7646.51
903.787	7579.39
904.101	7601.76
904.415	7540.75
904.729	7472.05
905.042	7401.54
905.356	7441.77
905.67	7434.54
905.984	7388.66
906.297	7326.74
906.611	7288.78
906.924	7340.98
907.237	7303.92
907.551	7239.97
907.864	7262.79
908.177	7237.93
908.491	7204.71
908.804	7130.59
909.117	7080.2
909.43	7056.24
909.743	7041.1
910.056	7022.34
910.368	6962.01
910.681	6957.49
910.994	6925.4
911.307	6870.94
911.619	6865.29
911.932	6919.75
912.244	6803.59
912.557	6774.21
912.869	6773.54
913.181	6741
913.494	6730.15
913.806	6645.18
914.118	6675.46
914.43	6598.4
914.742	6582.13
915.054	6573.99
915.366	6557.72
915.678	6571.51
915.99	6523.37
916.302	6457.16
916.613	6446.99
916.925	6375.13
917.236	6393.43
917.548	6315.02
917.859	6344.17
918.171	6276.83
918.482	6310.05
918.794	6252.42
919.105	6264.85
919.416	6220.78
919.727	6189.15
920.038	6148.92
920.349	6085.19
920.66	6064.18
920.971	6056.49
921.282	6098.75
921.593	6026.89
921.903	6011.07
922.214	5960.68
922.525	5935.59
922.835	5912.77
923.146	5891.3
923.456	5875.03
923.767	5826.44
924.077	5845.43
924.387	5800.68
924.697	5773.34
925.008	5729.72
925.318	5771.76
925.628	5679.55
925.938	5705.09
926.248	5648.14
926.558	5632.55
926.867	5611.08
927.177	5575.15
927.487	5570.86
927.796	5512.55
928.106	5538.09
928.416	5532.44
928.725	5467.81
929.034	5464.19
929.344	5409.28
929.653	5407.7
929.962	5370.18
930.271	5336.51
930.581	5378.09
930.89	5302.39
931.199	5235.95
931.508	5266.23
931.817	5249.73
932.125	5265.1
932.434	5201.15
932.743	5176.29
933.051	5122.05
933.36	5126.8
933.669	5091.55
933.977	5099.91
934.286	5049.74
934.594	5078.44
934.902	5007.48
935.21	4997.99
935.519	5010.65
935.827	5003.19
936.135	4945.79
936.443	4899.91
936.751	4851.1
937.059	4855.17
937.367	4834.15
937.674	4814.04
937.982	4827.83
938.29	4800.26
938.597	4825.11
938.905	4755.06
939.213	4694.27
939.52	4683.2
939.827	4736.98
940.135	4680.48
940.442	4675.06
940.749	4645
941.056	4656.08
941.363	4598.9
941.67	4586.93
941.977	4525.01
942.284	4586.7
942.591	4539.47
942.898	4475.74
943.205	4472.81
943.511	4442.75
943.818	4401.62
944.125	4385.35
944.431	4406.37
944.738	4349.19
945.044	4372.47
945.35	4348.74
945.657	4313.26
945.963	4308.06
946.269	4288.4
946.575	4271.23
946.881	4218.58
947.187	4225.58
947.493	4210.44
947.799	4198.46
948.105	4175.19
948.41	4143.55
948.716	4186.26
949.022	4184.45
949.327	4109.88
949.633	4065.59
949.938	4090.9
950.244	4046.15
950.549	4014.51
950.854	4002.54
951.16	4017.45
951.465	3972.48
951.77	3981.29
952.075	3917.11
952.38	3951.01
952.685	3976.32
952.99	3898.58
953.294	3891.13
953.599	3855.87
953.904	3887.51
954.209	3827.17
954.513	3848.87
954.818	3800.51
955.122	3782.2
955.426	3758.7
955.731	3797.8
956.035	3783.78
956.339	3720.74
956.643	3727.51
956.948	3718.48
957.252	3680.96
957.556	3649.1
957.86	3669.44
958.163	3657.46
958.467	3644.81
958.771	3599.16
959.075	3578.59
959.378	3588.76
959.682	3578.37
959.985	3569.55
960.289	3534.75
960.592	3522.55
960.896	3507.63
961.199	3473.28
961.502	3501.31
961.805	3437.13
962.108	3424.92
962.411	3448.2
962.714	3393.74
963.017	3423.34
963.32	3407.3
963.623	3381.54
963.926	3405.26
964.228	3312.38
964.531	3324.59
964.833	3314.87
965.136	3273.52
965.438	3281.2
965.741	3264.02
966.043	3265.61
966.345	3213.63
966.648	3233.97
966.95	3248.66
967.252	3186.29
967.554	3195.55
967.856	3140.86
968.158	3171.6
968.46	3125.5
968.761	3149.45
969.063	3148.32
969.365	3069.91
969.666	3074.2
969.968	3027.65
970.269	3044.14
970.571	3028.78
970.872	3000.75
971.174	3035.56
971.475	3003.01
971.776	2989
972.077	2979.51
972.378	2957.14
972.679	2957.59
972.98	2940.42
973.281	2946.29
973.582	2903.81
973.883	2887.54
974.183	2894.54
974.484	2899.74
974.785	2900.19
975.085	2822.68
975.386	2851.15
975.686	2836.92
975.986	2824.04
976.287	2839.63
976.587	2796.47
976.887	2788.33
977.187	2784.94
977.487	2801.21
977.787	2737.71
978.087	2751.72
978.387	2732.74
978.687	2697.03
978.987	2701.33
979.286	2688.22
979.586	2682.34
979.885	2672.63
980.185	2649.13
980.484	2644.15
980.784	2643.48
981.083	2622.91
981.382	2611.61
981.682	2593.08
981.981	2580.65
982.28	2622.91
982.579	2535.23
982.878	2569.81
983.177	2520.09
983.475	2546.08
983.774	2539.75
984.073	2504.27
984.372	2511.73
984.67	2483.03
984.969	2459.07
985.267	2480.99
985.566	2461.79
985.864	2460.88
986.162	2421.11
986.461	2406.19
986.759	2391.73
987.057	2422.92
987.355	2413.88
987.653	2397.38
987.951	2368.45
988.249	2360.09
988.547	2355.12
988.844	2298.4
989.142	2318.74
989.44	2302.92
989.737	2281.45
990.035	2297.5
990.332	2276.48
990.63	2263.15
990.927	2281.68
991.224	2247.1
991.521	2213.88
991.819	2213.43
992.116	2234.22
992.413	2189.02
992.71	2211.4
993.006	2179.53
993.303	2180.89
993.6	2176.37
993.897	2177.73
994.193	2152.19
994.49	2141.79
994.787	2144.73
995.083	2091.63
995.379	2117.61
995.676	2108.8
995.972	2125.07
996.268	2106.99
996.565	2083.72
996.861	2081.68
997.157	2033.32
997.453	2019.54
997.749	2025.86
998.044	2031.74
998.34	2030.84
998.636	2007.11
998.932	1980.67
999.227	1980.44
999.523	1941.8
999.818	1982.02
1000.114	1935.25
1000.409	1949.93
1000.704	1914.46
1001	1936.6
1001.295	1910.61
1001.59	1902.93
1001.885	1887.34
1002.18	1882.37
1002.475	1896.15
1002.77	1875.59
1003.065	1870.16
1003.359	1841.46
1003.654	1835.14
1003.949	1828.81
1004.243	1803.27
1004.538	1779.32
1004.832	1790.84
1005.127	1767.11
1005.421	1785.42
1005.715	1772.09
1006.009	1775.25
1006.304	1732.99
1006.598	1752.43
1006.892	1747
1007.186	1707.46
1007.48	1717.17
1007.773	1719.43
1008.067	1694.35
1008.361	1694.57
1008.655	1657.29
1008.948	1644.86
1009.242	1654.8
1009.535	1650.28
1009.829	1638.98
1010.122	1610.73
1010.415	1595.82
1010.708	1598.98
1011.001	1615.71
1011.295	1590.17
1011.588	1567.12
1011.881	1575.48
1012.173	1580
1012.466	1559.89
1012.759	1549.49
1013.052	1551.53
1013.344	1570.06
1013.637	1535.26
1013.93	1526.44
1014.222	1521.47
1014.514	1532.77
1014.807	1523.28
1015.099	1498.65
1015.391	1459.33
1015.683	1464.52
1015.976	1467.91
1016.268	1435.6
1016.56	1434.92
1016.851	1444.41
1017.143	1428.59
1017.435	1427.01
1017.727	1405.99
1018.018	1387.92
1018.31	1377.75
1018.602	1378.88
1018.893	1358.76
1019.185	1377.07
1019.476	1357.86
1019.767	1356.73
1020.058	1331.87
1020.35	1318.76
1020.641	1307.01
1020.932	1294.81
1021.223	1309.5
1021.514	1275.38
1021.804	1289.39
1022.095	1275.15
1022.386	1252.55
1022.677	1261.82
1022.967	1237.41
1023.258	1267.01
1023.548	1244.64
1023.839	1264.98
1024.129	1240.8
1024.419	1212.78
1024.709	1190.63
1025	1212.33
1025.29	1186.34
1025.58	1214.81
1025.87	1186.34
1026.16	1163.74
1026.449	1153.57
1026.739	1153.8
1027.029	1111.99
1027.319	1146.34
1027.608	1136.62
1027.898	1128.71
1028.187	1124.65
1028.477	1090.3
1028.766	1139.33
1029.055	1108.37
1029.344	1053.91
1029.634	1078.55
1029.923	1079.9
1030.212	1102.05
1030.501	1067.25
1030.79	1066.57
1031.078	1065.66
1031.367	1047.36
1031.656	1057.98
1031.945	1045.78
1032.233	991.54
1032.522	1011.2
1032.81	1004.2
1033.099	1013.46
1033.387	1039.45
1033.675	1002.61
1033.963	991.32
1034.251	979.56
1034.54	968.27
1034.828	959.9
1035.116	946.8
1035.403	949.73
1035.691	964.42
1035.979	931.43
1036.267	942.96
1036.554	929.17
1036.842	908.61
1037.129	935.5
1037.417	922.84
1037.704	914.03
1037.992	890.98
1038.279	901.37
1038.566	878.55
1038.853	878.55
1039.14	878.55
