Data from hue_280_FLMS001491_00044.txt Node
Date: Tue Feb 07 15:55:19 GMT 2017
User: dcchb
Spectrometer: FLMS00149
Trigger mode: 0
Integration Time (sec): 2.000000E-2
Scans to average: 10
Electric dark correction enabled: true
Nonlinearity correction enabled: false
Boxcar width: 0
XAxis mode: Wavelengths
Number of Pixels in Spectrum: 2048
>>>>>Begin Spectral Data<<<<<
341.393	-21.17
341.776	-21.17
342.16	-21.17
342.543	-60.94
342.927	-50.55
343.31	-68.63
343.693	-60.94
344.077	-71.11
344.46	-36.09
344.843	-40.83
345.226	-45.8
345.61	-36.99
345.993	-42.64
346.376	10.24
346.759	4.36
347.142	32.61
347.525	50.92
347.908	47.53
348.291	83.23
348.674	72.61
349.057	101.54
349.44	125.27
349.823	126.85
350.206	155.32
350.588	185.83
350.971	185.83
351.354	224.7
351.737	217.01
352.119	220.63
352.502	250.23
352.884	246.84
353.267	283.23
353.65	270.35
354.032	264.92
354.414	294.3
354.797	301.98
355.179	318.48
355.562	316.22
355.944	311.47
356.326	314.41
356.709	322.77
357.091	300.63
357.473	339.72
357.855	333.62
358.238	331.36
358.62	337.24
359.002	340.4
359.384	308.09
359.766	353.28
360.148	341.3
360.53	326.84
360.912	340.17
361.294	347.18
361.676	333.4
362.057	323.45
362.439	330.91
362.821	335.66
363.203	304.24
363.584	312.6
363.966	294.98
364.348	330.01
364.729	336.33
365.111	302.66
365.493	313.28
365.874	325.03
366.256	322.77
366.637	312.83
367.019	304.02
367.4	328.2
367.781	291.81
368.163	298.59
368.544	314.64
368.925	284.13
369.306	296.11
369.688	306.5
370.069	320.74
370.45	306.5
370.831	304.7
371.212	309.67
371.593	303.57
371.974	318.48
372.355	306.05
372.736	313.28
373.117	322.1
373.498	322.77
373.879	298.82
374.26	306.96
374.641	301.31
375.021	285.71
375.402	328.42
375.783	301.08
376.163	299.5
376.544	316.45
376.925	318.25
377.305	313.28
377.686	308.99
378.066	318.25
378.447	310.12
378.827	337.69
379.208	321.87
379.588	310.34
379.968	305.37
380.349	340.17
380.729	325.03
381.109	323.45
381.489	327.29
381.87	322.77
382.25	330.46
382.63	346.5
383.01	318.48
383.39	323.68
383.77	345.15
384.15	333.85
384.53	328.88
384.91	352.83
385.29	328.65
385.67	330.23
386.049	336.11
386.429	329.55
386.809	344.92
387.189	355.09
387.568	331.81
387.948	356.9
388.328	339.27
388.707	346.05
389.087	323.9
389.466	362.55
389.846	341.53
390.225	348.99
390.605	367.29
390.984	379.04
391.363	351.47
391.743	348.54
392.122	365.26
392.501	369.33
392.881	381.76
393.26	359.84
393.639	368.2
394.018	374.75
394.397	369.33
394.776	380.63
395.155	379.04
395.534	380.17
395.913	383.79
396.292	384.47
396.671	394.18
397.05	407.52
397.429	394.64
397.808	388.99
398.186	397.8
398.565	388.99
398.944	387.63
399.323	376.56
399.701	405.26
400.08	404.81
400.458	390.79
400.837	396.22
401.215	413.85
401.594	424.01
401.972	393.96
402.351	421.53
402.729	412.26
403.107	419.72
403.486	412.49
403.864	424.47
404.242	433.05
404.62	427.63
404.999	426.73
405.377	439.61
405.755	421.53
406.133	442.77
406.511	452.26
406.889	438.25
407.267	449.32
407.645	463.34
408.023	461.98
408.401	479.61
408.779	462.66
409.156	494.07
409.534	485.48
409.912	489.32
410.29	488.65
410.667	486.39
411.045	509.89
411.422	454.75
411.8	496.78
412.178	502.66
412.555	516.89
412.933	525.93
413.31	532.03
413.687	546.27
414.065	541.75
414.442	573.39
414.819	561.86
415.197	565.03
415.574	566.16
415.951	559.38
416.328	594.18
416.705	592.6
417.082	602.77
417.46	614.29
417.837	628.75
418.214	629.66
418.591	615.65
418.967	617.46
419.344	638.02
419.721	640.05
420.098	647.74
420.475	675.31
420.852	687.74
421.228	686.38
421.605	686.61
421.982	689.32
422.358	697
422.735	707.62
423.111	715.31
423.488	754.18
423.864	740.39
424.241	727.96
424.617	760.5
424.994	793.95
425.37	787.85
425.746	786.72
426.123	790.11
426.499	803.44
426.875	804.12
427.251	804.12
427.627	814.74
428.003	846.15
428.379	816.32
428.756	850.44
429.132	842.31
429.507	879.82
429.883	875.08
430.259	898.8
430.635	903.32
431.011	908.3
431.387	920.95
431.763	927.73
432.138	965.24
432.514	952.81
432.89	960.5
433.265	959.82
433.641	1003.66
434.016	982.64
434.392	1024
434.767	1052.92
435.143	1028.97
435.518	1032.36
435.894	1075.3
436.269	1100.61
436.644	1088.86
437.02	1082.53
437.395	1132.47
437.77	1132.92
438.145	1146.03
438.52	1165.69
438.895	1171.11
439.271	1176.31
439.646	1213.15
440.021	1205.91
440.395	1215.41
440.77	1205.69
441.145	1257.21
441.52	1257.89
441.895	1253.15
442.27	1261.51
442.645	1258.79
443.019	1286.82
443.394	1289.3
443.769	1299.7
444.143	1315.52
444.518	1340.83
444.892	1294.05
445.267	1294.95
445.641	1314.16
446.016	1324.56
446.39	1357.55
446.764	1383.76
447.139	1335.4
447.513	1380.83
447.887	1392.58
448.262	1358.68
448.636	1386.47
449.01	1394.61
449.384	1391.45
449.758	1425.57
450.132	1439.13
450.506	1460.6
450.88	1461.28
451.254	1441.61
451.628	1440.71
452.002	1464.21
452.376	1484.55
452.75	1498.34
453.123	1482.29
453.497	1513.03
453.871	1539.01
454.244	1545.11
454.618	1539.69
454.992	1570.2
455.365	1586.92
455.739	1604.77
456.112	1604.77
456.486	1627.37
456.859	1618.33
457.232	1674.83
457.606	1661.72
457.979	1673.92
458.352	1706.01
458.725	1714.38
459.099	1710.76
459.472	1752.57
459.845	1768.61
460.218	1754.37
460.591	1767.26
460.964	1772.45
461.337	1774.94
461.71	1825.11
462.083	1850.87
462.456	1840.93
462.829	1840.93
463.201	1859.91
463.574	1870.98
463.947	1923.18
464.32	1918.44
464.692	1971.32
465.065	1939.45
465.438	1956.63
465.81	1997.31
466.183	2006.8
466.555	2053.35
466.928	2035.05
467.3	2055.84
467.672	2085.44
468.045	2108.94
468.417	2135.38
468.789	2143.52
469.161	2144.87
469.534	2171.54
469.906	2206.11
470.278	2176.96
470.65	2233.68
471.022	2261.25
471.394	2291.99
471.766	2299.9
472.138	2297.41
472.51	2390.29
472.882	2413.57
473.253	2414.47
473.625	2423.28
473.997	2498.76
474.369	2473.68
474.74	2511.19
475.112	2559.78
475.484	2588.7
475.855	2618.31
476.227	2644.75
476.598	2668.93
476.97	2650.62
477.341	2717.97
477.713	2744.41
478.084	2776.72
478.455	2808.13
478.827	2858.07
479.198	2909.82
479.569	2883.84
479.94	2933.55
480.311	2963.61
480.682	3046.09
481.053	3100.33
481.424	3135.81
481.795	3119.08
482.166	3164.51
482.537	3170.61
482.908	3257.16
483.279	3261.91
483.65	3291.96
484.021	3353.2
484.391	3370.83
484.762	3396.82
485.133	3422.58
485.503	3450.38
485.874	3496.48
486.244	3541.67
486.615	3596.59
486.985	3601.56
487.356	3693.31
487.726	3700.09
488.097	3735.57
488.467	3748.22
488.837	3785.28
489.207	3845.85
489.578	3846.3
489.948	3876.8
490.318	3943.02
490.688	3956.58
491.058	3973.53
491.428	4059.85
491.798	4033.64
492.168	4110.02
492.538	4143.69
492.908	4184.37
493.278	4243.35
493.648	4226.4
494.017	4250.13
494.387	4307.98
494.757	4295.32
495.126	4341.88
495.496	4359.96
495.866	4382.33
496.235	4422.78
496.605	4430.01
496.974	4461.65
497.344	4460.07
497.713	4491.7
498.082	4541.65
498.452	4562.21
498.821	4560.85
499.19	4545.49
499.559	4587.29
499.928	4664.13
500.298	4620.51
500.667	4677.24
501.036	4648.31
501.405	4699.16
501.774	4654.41
502.143	4723.79
502.512	4730.34
502.88	4726.05
503.249	4781.87
503.618	4790
503.987	4771.7
504.356	4794.97
504.724	4857.34
505.093	4896.89
505.462	4842.2
505.83	4845.37
506.199	4941.86
506.567	4935.99
506.936	4940.51
507.304	5002.65
507.672	4997.68
508.041	4989.54
508.409	5026.83
508.777	5042.2
509.145	5048.07
509.514	5091.91
509.882	5087.62
510.25	5080.16
510.618	5107.28
510.986	5103.44
511.354	5126.49
511.722	5189.54
512.09	5183.21
512.458	5158.81
512.826	5263.66
513.193	5260.5
513.561	5243.1
513.929	5236.32
514.297	5288.75
514.664	5311.34
515.032	5295.98
515.4	5363.32
515.767	5359.25
516.135	5344.79
516.502	5345.69
516.869	5367.39
517.237	5374.62
517.604	5417.78
517.972	5418.01
518.339	5432.24
518.706	5405.58
519.073	5422.75
519.44	5479.47
519.808	5483.32
520.175	5491.23
520.542	5514.28
520.909	5563.31
521.276	5501.85
521.643	5581.17
522.009	5543.2
522.376	5611.9
522.743	5632.46
523.11	5665.91
523.477	5657.77
523.843	5712.01
524.21	5750.43
524.577	5745.91
524.943	5734.61
525.31	5743.2
525.676	5812.12
526.043	5834.95
526.409	5817.54
526.776	5888.28
527.142	5879.46
527.508	5902.51
527.874	5928.05
528.241	5949.52
528.607	5956.52
528.973	5989.52
529.339	6004.66
529.705	6066.35
530.071	6054.83
530.437	6098.67
530.803	6036.3
531.169	6201.26
531.535	6079.68
531.901	6112
532.267	6156.29
532.632	6192.9
532.998	6191.55
533.364	6232.68
533.73	6222.51
534.095	6270.19
534.461	6241.04
534.826	6304.76
535.192	6260.47
535.557	6341.6
535.923	6280.58
536.288	6300.92
536.653	6338.21
537.019	6332.56
537.384	6359.23
537.749	6340.69
538.114	6377.98
538.479	6398.55
538.845	6449.84
539.21	6400.35
539.575	6501.59
539.94	6455.27
540.305	6464.31
540.67	6482.39
541.034	6493.91
541.399	6497.98
541.764	6517.19
542.129	6560.35
542.494	6547.02
542.858	6552.21
543.223	6566.9
543.587	6589.05
543.952	6551.99
544.316	6564.19
544.681	6595.38
545.045	6634.92
545.41	6729.39
545.774	6652.78
546.138	6597.19
546.503	6647.58
546.867	6700.69
547.231	6662.27
547.595	6746.11
547.959	6764.64
548.324	6688.48
548.688	6759.44
549.052	6759.89
549.416	6809.61
549.779	6764.64
550.143	6784.98
550.507	6811.42
550.871	6794.69
551.235	6771.64
551.599	6858.2
551.962	6862.04
552.326	6871.3
552.689	6860.46
553.053	6853.45
553.417	6839.89
553.78	6945.42
554.143	6875.6
554.507	6917.4
554.87	6947.23
555.234	7011.41
555.597	6987.01
555.96	6984.07
556.323	7025.42
556.686	7012.09
557.05	7069.49
557.413	6996.04
557.776	7064.52
558.139	7109.26
558.502	7095.03
558.865	7083.05
559.228	7129.6
559.59	7138.64
559.953	7097.74
560.316	7275.13
560.679	7220.22
561.041	7229.71
561.404	7235.81
561.767	7365.3
562.129	7294.79
562.492	7331.63
562.854	7315.13
563.217	7302.7
563.579	7286.66
563.941	7398.52
564.304	7443.04
564.666	7466.31
565.028	7476.03
565.39	7445.75
565.753	7529.36
566.115	7521.68
566.477	7545.63
566.839	7571.4
567.201	7648.23
567.563	7606.42
567.925	7688.23
568.287	7659.53
568.648	7636.71
569.01	7718.29
569.372	7765.29
569.734	7737.27
570.095	7853.88
570.457	7824.95
570.819	7845.74
571.18	7864.04
571.542	7929.58
571.903	7915.57
572.265	7984.72
572.626	7982.46
572.987	7949.47
573.349	8090.71
573.71	8137.48
574.071	8125.96
574.432	8161.66
574.794	8197.82
575.155	8218.16
575.516	8152.4
575.877	8238.27
576.238	8267.88
576.599	8289.12
576.96	8327.31
577.32	8449.57
577.681	8429
578.042	8491.6
578.403	8436.91
578.763	8503.35
579.124	8536.12
579.485	8579.96
579.845	8650.01
580.206	8663.8
580.566	8740.63
580.927	8749.22
581.287	8776.11
581.648	8831.93
582.008	8901.31
582.368	8943.56
582.728	8979.95
583.089	9014.52
583.449	9044.13
583.809	9139.49
584.169	9225.59
584.529	9124.58
584.889	9233.73
585.249	9207.06
585.609	9261.52
585.969	9401.63
586.329	9417.68
586.688	9497
587.048	9501.06
587.408	9552.59
587.768	9678.23
588.127	9597.78
588.487	9722.53
588.846	9889.3
589.206	9846.37
589.565	9903.99
589.925	10046.59
590.284	10077.77
590.643	10140.59
591.003	10249.52
591.362	10233.25
591.721	10289.97
592.08	10375.84
592.44	10408.38
592.799	10491.32
593.158	10575.61
593.517	10619.9
593.876	10676.63
594.235	10704.42
594.593	10736.51
594.952	10869.84
595.311	10941.03
595.67	10890.63
596.029	11020.35
596.387	11093.56
596.746	11155.94
597.104	11168.14
597.463	11225.31
597.822	11276.16
598.18	11333.11
598.538	11363.61
598.897	11426.21
599.255	11372.43
599.613	11638.41
599.972	11581.46
600.33	11571.07
600.688	11586.88
601.046	11677.05
601.404	11799.99
601.762	11790.95
602.12	11922.02
602.478	11831.62
602.836	11974.22
603.194	11948.91
603.552	11995.24
603.91	11920.21
604.268	12164.04
604.625	12068.45
604.983	12183.71
605.341	12126.08
605.698	12148.45
606.056	12276.81
606.413	12286.75
606.771	12343.7
607.128	12307.09
607.485	12353.64
607.843	12328.11
608.2	12479.06
608.557	12499.63
608.914	12475
609.272	12550.93
609.629	12650.36
609.986	12661.43
610.343	12599.51
610.7	12693.75
611.057	12747.53
611.414	12788.89
611.771	12759.28
612.127	12881.54
612.484	12850.81
612.841	12960.63
613.198	12854.42
613.554	12928.54
613.911	13000.86
614.267	12951.82
614.624	12947.98
614.98	13076.79
615.337	13116.11
615.693	13186.39
616.05	13052.61
616.406	13153.62
616.762	13030.24
617.118	13248.99
617.475	13193.17
617.831	13233.39
618.187	13207.18
618.543	13205.15
618.899	13316.1
619.255	13258.03
619.611	13328.99
619.967	13468.42
620.323	13411.7
620.678	13359.95
621.034	13418.47
621.39	13306.84
621.746	13306.84
622.101	13496.89
622.457	13342.54
622.812	13471.81
623.168	13462.54
623.523	13437.68
623.879	13510
624.234	13490.34
624.589	13492.82
624.945	13557.91
625.3	13505.48
625.655	13441.3
626.01	13466.61
626.365	13512.26
626.72	13481.3
627.075	13553.84
627.43	13523.33
627.785	13466.38
628.14	13489.89
628.495	13508.64
628.85	13496.44
629.205	13446.95
629.559	13589.54
629.914	13480.17
630.269	13471.35
630.623	13526.04
630.978	13478.13
631.332	13449.43
631.687	13477.91
632.041	13409.21
632.396	13412.15
632.75	13525.14
633.104	13406.05
633.459	13352.04
633.813	13451.92
634.167	13362.88
634.521	13364.92
634.875	13442.43
635.229	13409.66
635.583	13261.64
635.937	13325.14
636.291	13332.83
636.645	13336.9
636.999	13293.73
637.352	13365.59
637.706	13218.25
638.06	13294.18
638.413	13258.25
638.767	13195.88
639.121	13230.68
639.474	13145.71
639.828	13247.41
640.181	13255.99
640.534	13199.05
640.888	13263.45
641.241	13181.19
641.594	13149.1
641.947	13147.52
642.301	13228.88
642.654	13206.95
643.007	13128.99
643.36	13170.57
643.713	13123.12
644.066	13141.42
644.419	13073.85
644.771	12967.64
645.124	12892.16
645.477	12891.26
645.83	12822.78
646.182	12812.16
646.535	12761.09
646.888	12745.72
647.24	12696.23
647.593	12759.51
647.945	12796.57
648.298	12750.92
648.65	12625.5
649.002	12651.26
649.355	12733.07
649.707	12745.27
650.059	12841.54
650.411	12952.05
650.763	13011.25
651.115	13039.28
651.467	13031.82
651.819	12986.17
652.171	13119.73
652.523	13021.2
652.875	13027.3
653.227	12989.11
653.578	13081.53
653.93	13096.22
654.282	12956.11
654.633	12939.17
654.985	12962.22
655.337	13099.61
655.688	12936
656.039	13086.28
656.391	12964.48
656.742	12920.63
657.094	13048.99
657.445	13098.94
657.796	13040.63
658.147	12951.82
658.498	13085.15
658.849	13068.88
659.2	13062.1
659.551	12953.18
659.902	13106.17
660.253	13089.67
660.604	13121.08
660.955	13051.93
661.306	13058.03
661.656	13098.26
662.007	13117.47
662.358	13071.82
662.708	13002.89
663.059	13107.3
663.409	12994.98
663.76	13118.14
664.11	13060.97
664.461	13167.18
664.811	13147.97
665.161	13164.7
665.511	13096
665.862	13092.16
666.212	13161.08
666.562	13189.1
666.912	13152.72
667.262	13143.23
667.612	13115.88
667.962	13127.86
668.312	13147.07
668.662	13142.32
669.011	13196.11
669.361	13116.79
669.711	13091.7
670.06	13216.67
670.41	13126.51
670.76	13108.2
671.109	13178.03
671.459	13042.89
671.808	13109.1
672.157	13164.47
672.507	13008.54
672.856	13068.43
673.205	13026.39
673.554	13121.31
673.904	13055.09
674.253	13091.7
674.602	12923.12
674.951	12791.37
675.3	12744.14
675.649	12895.1
675.998	12919.28
676.346	12944.14
676.695	12955.21
677.044	12920.41
677.393	12920.41
677.741	12921.09
678.09	12869.11
678.438	12807.64
678.787	12879.96
679.135	12872.05
679.484	12732.84
679.832	12827.3
680.181	12653.3
680.529	12743.69
680.877	12810.81
681.225	12728.55
681.573	12815.78
681.922	12734.88
682.27	12674.77
682.618	12697.36
682.966	12598.61
683.314	12644.71
683.661	12638.83
684.009	12491.72
684.357	12500.08
684.705	12502.11
685.053	12558.61
685.4	12467.77
685.748	12403.59
686.095	12460.08
686.443	12398.39
686.79	12288.79
687.138	12326.3
687.485	12298.73
687.832	12298.5
688.18	12218.96
688.527	12216.47
688.874	12218.73
689.221	12117.94
689.568	12040.88
689.915	12082.01
690.262	12085.18
690.609	11982.81
690.956	11977.38
691.303	11957.5
691.65	11924.95
691.997	11935.58
692.344	11772.64
692.69	11796.82
693.037	11709.37
693.383	11704.62
693.73	11708.24
694.077	11610.84
694.423	11591.63
694.769	11634.57
695.116	11566.09
695.462	11453.55
695.808	11511.41
696.155	11469.6
696.501	11395.7
696.847	11332.88
697.193	11247.46
697.539	11304.41
697.885	11252.43
698.231	11152.09
698.577	11115.94
698.923	11139.89
699.269	11070.97
699.614	11013.79
699.96	11027.13
700.306	10960.01
700.651	10889.05
700.997	10880.46
701.342	10810.63
701.688	10820.13
702.033	10824.64
702.379	10837.75
702.724	10789.84
703.069	10703.29
703.415	10588.49
703.76	10581.71
704.105	10669.62
704.45	10581.04
704.795	10576.74
705.14	10455.84
705.485	10413.36
705.83	10386.69
706.175	10383.53
706.52	10355.96
706.865	10370.65
707.209	10226.69
707.554	10215.17
707.899	10270.31
708.243	10139.47
708.588	10182.63
708.932	10082.29
709.277	10124.78
709.621	10077.32
709.966	10055.4
710.31	10106.92
710.654	9927.72
710.998	9917.32
711.342	9930.43
711.687	9959.81
712.031	9921.39
712.375	9839.81
712.719	9903.09
713.063	9864.22
713.407	9815.63
713.75	9806.37
714.094	9776.08
714.438	9683.21
714.782	9751.68
715.125	9663.32
715.469	9695.18
715.812	9592.13
716.156	9627.39
716.499	9612.47
716.843	9585.13
717.186	9600.27
717.53	9572.02
717.873	9599.59
718.216	9593.49
718.559	9516.88
718.902	9455.87
719.246	9496.32
719.589	9527.96
719.932	9437.79
720.275	9463.1
720.617	9431.01
720.96	9405.7
721.303	9416.77
721.646	9378.81
721.989	9336.32
722.331	9488.18
722.674	9319.37
723.016	9380.84
723.359	9349.43
723.701	9382.2
724.044	9348.98
724.386	9264.23
724.729	9311.46
725.071	9322.54
725.413	9330.45
725.755	9301.52
726.097	9282.99
726.439	9190.34
726.782	9285.25
727.124	9313.05
727.465	9256.32
727.807	9223.1
728.149	9220.39
728.491	9210.68
728.833	9194.63
729.175	9195.08
729.516	9145.37
729.858	9174.97
730.199	9160.73
730.541	9185.59
730.882	9113.96
731.224	9257.68
731.565	9195.54
731.906	9202.77
732.248	9122.77
732.589	9079.83
732.93	9164.35
733.271	9151.47
733.612	9132.26
733.953	9244.57
734.294	9154.18
734.635	9208.19
734.976	9199.38
735.317	9158.47
735.658	9156.89
735.999	9184.91
736.339	9166.84
736.68	9264.01
737.021	9123.22
737.361	9127.74
737.702	9232.82
738.042	9186.72
738.383	9154.18
738.723	9263.78
739.063	9223.78
739.404	9200.96
739.744	9301.29
740.084	9226.95
740.424	9259.04
740.764	9322.09
741.104	9304.23
741.444	9263.33
741.784	9274.85
742.124	9342.65
742.464	9321.86
742.804	9374.51
743.143	9410.67
743.483	9461.06
743.823	9416.55
744.162	9525.7
744.502	9506.94
744.841	9516.43
745.181	9565.92
745.52	9562.53
745.86	9613.6
746.199	9619.93
746.538	9675.75
746.877	9745.13
747.216	9791.45
747.556	9831.22
747.895	9871.68
748.234	9899.47
748.573	9936.53
748.911	9938.57
749.25	9996.87
749.589	10093.36
749.928	10180.37
750.267	10253.13
750.605	10284.32
750.944	10338.78
751.283	10460.81
751.621	10494.48
751.96	10564.09
752.298	10639.34
752.636	10809.28
752.975	10822.38
753.313	10904.19
753.651	11169.27
753.989	11061.7
754.327	11260.79
754.666	11312.99
755.004	11480.45
755.342	11636.37
755.679	11747.56
756.017	11767.9
756.355	11943.26
756.693	12057.83
757.031	12155.68
757.368	12359.07
757.706	12467.99
758.044	12564.03
758.381	12686.52
758.719	12832.95
759.056	13079.5
759.394	13106.84
759.731	13214.19
760.068	13321.08
760.405	13506.83
760.743	13587.96
761.08	13760.39
761.417	13900.5
761.754	14129.87
762.091	14247.38
762.428	14369.18
762.765	14373.03
763.102	14704.99
763.438	14741.38
763.775	14918.1
764.112	15071.99
764.449	15237.64
764.785	15282.83
765.122	15303.4
765.458	15425.88
765.795	15618.87
766.131	15796.49
766.467	15779.77
766.804	15857.28
767.14	15997.62
767.476	16100.21
767.812	16244.16
768.148	16424.5
768.485	16401.9
768.821	16430.37
769.157	16631.05
769.492	16699.97
769.828	16758.5
770.164	16749.46
770.5	16848.67
770.836	17011.37
771.171	17047.31
771.507	17040.07
771.842	17128.21
772.178	17193.29
772.513	17227.19
772.849	17256.34
773.184	17363
773.519	17412.95
773.855	17387.64
774.19	17466.96
774.525	17386.73
774.86	17551.25
775.195	17539.5
775.53	17626.5
775.865	17560.51
776.2	17570.23
776.535	17479.84
776.87	17607.07
777.205	17563.45
777.539	17636.67
777.874	17598.7
778.209	17654.07
778.543	17585.14
778.878	17644.58
779.212	17587.63
779.547	17507.86
779.881	17694.07
780.215	17618.82
780.55	17795.08
780.884	17668.76
781.218	17585.82
781.552	17640.74
781.886	17626.27
782.22	17590.12
782.554	17473.28
782.888	17404.13
783.222	17477.8
783.556	17416.11
783.889	17517.12
784.223	17391.7
784.557	17441.87
784.89	17408.88
785.224	17397.35
785.557	17225.61
785.891	17281.42
786.224	17364.81
786.558	17230.35
786.891	17141.77
787.224	17132.05
787.557	17116.46
787.891	17193.97
788.224	17188.32
788.557	17181.54
788.89	17061.99
789.223	17080.3
789.556	16894.77
789.888	16883.47
790.221	16883.02
790.554	16808.89
790.887	16780.42
791.219	16771.61
791.552	16782.68
791.884	16725.05
792.217	16676.92
792.549	16582.91
792.882	16588.34
793.214	16557.38
793.546	16551.95
793.879	16491.16
794.211	16385.63
794.543	16454.33
794.875	16463.37
795.207	16477.6
795.539	16322.58
795.871	16483.25
796.203	16225.18
796.535	16066.09
796.867	16107.44
797.198	16053.43
797.53	16023.83
797.862	16002.81
798.193	16004.17
798.525	16013.43
798.856	16009.59
799.188	15772.99
799.519	15728.24
799.85	15755.14
800.182	15703.84
800.513	15756.72
800.844	15587.68
801.175	15734.35
801.506	15611.86
801.837	15618.64
802.168	15513.11
802.499	15513.11
802.83	15409.61
803.161	15342.49
803.491	15330.51
803.822	15307.01
804.153	15299.78
804.483	15158.09
804.814	15197.64
805.145	15147.47
805.475	15163.97
805.805	15130.97
806.136	15136.4
806.466	15025.44
806.796	15006.23
807.126	14904.09
807.457	14861.15
807.787	14973.69
808.117	14842.39
808.447	14768.72
808.777	14919.23
809.107	14796.29
809.436	14751.1
809.766	14762.39
810.096	14658.44
810.426	14704.09
810.755	14535.28
811.085	14525.79
811.414	14601.95
811.744	14490.31
812.073	14387.49
812.403	14467.03
812.732	14431.33
813.061	14436.08
813.39	14299.58
813.719	14250.32
814.049	14340.48
814.378	14306.59
814.707	14218.68
815.036	14193.6
815.365	14170.77
815.693	14107.95
816.022	14054.16
816.351	14006.03
816.68	13913.38
817.008	14020.04
817.337	13908.41
817.665	13889.87
817.994	13869.76
818.322	13813.72
818.651	13761.52
818.979	13706.15
819.307	13856.88
819.636	13782.53
819.964	13724.23
820.292	13780.27
820.62	13710.22
820.948	13632.03
821.276	13604.91
821.604	13694.85
821.932	13597.91
822.259	13715.42
822.587	13588.64
822.915	13597.91
823.243	13596.32
823.57	13599.04
823.898	13594.06
824.225	13596.78
824.553	13684.68
824.88	13617.34
825.207	13637.9
825.535	13667.73
825.862	13590.67
826.189	13589.32
826.516	13624.8
826.843	13643.33
827.17	13671.12
827.497	13761.29
827.824	13681.52
828.151	13758.8
828.478	13705.47
828.805	13751.12
829.131	13693.04
829.458	13628.86
829.785	13630.45
830.111	13591.13
830.438	13690.33
830.764	13632.71
831.09	13657.34
831.417	13531.92
831.743	13676.32
832.069	13589.54
832.395	13505.7
832.722	13629.32
833.048	13507.06
833.374	13517.23
833.7	13561.75
834.026	13538.47
834.351	13510.22
834.677	13477.68
835.003	13484.69
835.329	13537.34
835.654	13454.86
835.98	13410.79
836.306	13454.86
836.631	13420.51
836.956	13436.1
837.282	13460.73
837.607	13395.88
837.932	13315.43
838.258	13346.39
838.583	13326.05
838.908	13280.85
839.233	13293.73
839.558	13263.45
839.883	13199.27
840.208	13217.58
840.533	13173.74
840.858	13158.37
841.182	13166.5
841.507	13255.54
841.832	13113.85
842.156	13148.65
842.481	13023.91
842.805	13056.22
843.13	13001.54
843.454	12919.28
843.778	12982.78
844.103	12867.98
844.427	12858.94
844.751	12854.65
845.075	12882.9
845.399	12866.62
845.723	12724.03
846.047	12738.94
846.371	12601.55
846.695	12629.57
847.019	12484.04
847.343	12489.46
847.666	12402.68
847.99	12446.07
848.313	12397.48
848.637	12226.64
848.96	12303.25
849.284	12067.32
849.607	12162.69
849.931	12097.15
850.254	11927.21
850.577	11959.3
850.9	11922.24
851.223	11929.47
851.546	11844.96
851.869	11761.8
852.192	11773.77
852.515	11724.51
852.838	11611.52
853.161	11551.18
853.483	11548.92
853.806	11524.74
854.129	11502.59
854.451	11427.11
854.774	11439.32
855.096	11386.44
855.419	11350.51
855.741	11313.9
856.063	11276.61
856.385	11262.83
856.708	11252.43
857.03	11178.08
857.352	11193.45
857.674	11175.37
857.996	11056.05
858.318	11000.91
858.64	11041.59
858.961	11011.76
859.283	10965.88
859.605	10884.98
859.926	10923.85
860.248	10850.63
860.57	10801.82
860.891	10874.36
861.212	10779.22
861.534	10738.09
861.855	10724.31
862.176	10754.59
862.498	10731.31
862.819	10679.79
863.14	10695.83
863.461	10624.42
863.782	10612.67
864.103	10669.62
864.424	10514.82
864.745	10580.36
865.065	10482.96
865.386	10541.26
865.707	10453.13
866.027	10498.78
866.348	10452
866.668	10448.38
866.989	10332.23
867.309	10368.16
867.63	10342.4
867.95	10347.14
868.27	10319.8
868.59	10362.74
868.91	10367.71
869.23	10300.59
869.55	10205
869.87	10276.18
870.19	10180.14
870.51	10236.86
870.83	10208.39
871.15	10110.09
871.469	10156.87
871.789	10124.32
872.109	10163.87
872.428	10056.98
872.748	10133.36
873.067	10143.53
873.386	9995.97
873.706	10088.62
874.025	9973.82
874.344	9983.31
874.663	10017.66
874.982	9949.64
875.301	9988.51
875.62	9951
875.939	9925.46
876.258	9973.82
876.577	9874.61
876.896	9911
877.214	9947.15
877.533	9866.7
877.852	9919.81
878.17	9847.95
878.489	9880.04
878.807	9847.04
879.125	9802.75
879.444	9836.2
879.762	9770.21
880.08	9762.53
880.398	9673.49
880.716	9722.75
881.034	9689.08
881.352	9663.55
881.67	9701.96
881.988	9671.45
882.306	9667.39
882.624	9573.83
882.941	9588.29
883.259	9478.47
883.577	9595.3
883.894	9501.74
884.212	9474.62
884.529	9427.85
884.846	9484.79
885.164	9445.47
885.481	9392.59
885.798	9391.91
886.115	9268.98
886.432	9303.33
886.75	9354.4
887.067	9292.48
887.383	9303.78
887.7	9243.67
888.017	9170.22
888.334	9243.22
888.651	9144.24
888.967	9156.89
889.284	9095.65
889.6	9132.26
889.917	9038.48
890.233	9034.41
890.55	9027.4
890.866	9030.12
891.182	8901.31
891.498	8937.01
891.815	8899.05
892.131	8828.54
892.447	8843.23
892.763	8744.93
893.079	8817.24
893.395	8709.67
893.71	8710.8
894.026	8734.3
894.342	8760.52
894.657	8660.18
894.973	8628.77
895.289	8655.21
895.604	8542.22
895.92	8585.38
896.235	8514.87
896.55	8497.7
896.865	8553.97
897.181	8435.33
897.496	8429.68
897.811	8334.09
898.126	8350.81
898.441	8332.05
898.756	8313.52
899.071	8258.84
899.386	8252.28
899.7	8171.61
900.015	8164.38
900.33	8048.45
900.644	8109.01
900.959	8137.94
901.273	8032.63
901.588	8031.95
901.902	7960.31
902.216	7913.08
902.531	7989.01
902.845	7894.1
903.159	7827.44
903.473	7848.68
903.787	7774.56
904.101	7795.57
904.415	7781.33
904.729	7762.8
905.042	7639.19
905.356	7688.91
905.67	7609.14
905.984	7635.35
906.297	7614.11
906.611	7571.85
906.924	7564.17
907.237	7450.27
907.551	7544.51
907.864	7416.15
908.177	7470.16
908.491	7409.82
908.804	7336.37
909.117	7314
909.43	7353.1
909.743	7282.37
910.056	7248.92
910.368	7201.01
910.681	7163.5
910.994	7111.52
911.307	7147.91
911.619	7026.33
911.932	7084.63
912.244	6947.01
912.557	6997.4
912.869	6984.07
913.181	6926.22
913.494	6928.93
913.806	6831.3
914.118	6843.05
914.43	6761.7
914.742	6810.96
915.054	6713.11
915.366	6739.78
915.678	6712.44
915.99	6641.48
916.302	6660.46
916.613	6595.38
916.925	6603.74
917.236	6618.88
917.548	6521.93
917.859	6504.31
918.171	6481.03
918.482	6465.21
918.794	6424.53
919.105	6399.68
919.416	6381.37
919.727	6325.55
920.038	6392.22
920.349	6323.75
920.66	6268.83
920.971	6226.8
921.282	6184.31
921.593	6189.74
921.903	6179.57
922.214	6123.07
922.525	6136.86
922.835	6101.83
923.146	6056.63
923.456	6057.76
923.767	6010.53
924.077	6084.43
924.387	6049.4
924.697	5966.92
925.008	5933.47
925.318	5895.28
925.628	5846.47
925.938	5922.63
926.248	5813.93
926.558	5805.57
926.867	5775.51
927.177	5744.33
927.487	5695.51
927.796	5630.21
928.106	5715.4
928.416	5653.71
928.725	5659.81
929.034	5544.56
929.344	5648.28
929.653	5517.21
929.962	5588.17
930.271	5563.77
930.581	5525.8
930.89	5457.78
931.199	5437.89
931.508	5446.48
931.817	5455.75
932.125	5389.31
932.434	5430.21
932.743	5307.95
933.051	5307.95
933.36	5292.36
933.669	5196.54
933.977	5231.12
934.286	5237.22
934.594	5207.84
934.902	5223.44
935.21	5203.32
935.519	5174.85
935.827	5181.86
936.135	5099.6
936.443	5038.81
936.751	5079.03
937.059	5051.24
937.367	5001.52
937.674	5047.85
937.982	5012.14
938.29	4969.66
938.597	4956.1
938.905	4882.88
939.213	4919.26
939.52	4876.33
939.827	4905.7
940.135	4860.96
940.442	4780.74
940.749	4831.58
941.056	4783.67
941.363	4739.83
941.67	4756.56
941.977	4709.55
942.284	4690.57
942.591	4697.35
942.898	4692.6
943.205	4649.44
943.511	4616.67
943.818	4608.31
944.125	4523.12
944.431	4593.4
944.738	4557.46
945.044	4510.46
945.35	4435.21
945.657	4449.67
945.963	4412.84
946.269	4399.28
946.575	4428.65
946.881	4372.84
947.187	4350.46
947.493	4367.87
947.799	4324.48
948.105	4299.84
948.41	4316.34
948.716	4253.07
949.022	4277.47
949.327	4270.24
949.633	4217.59
949.938	4217.36
950.244	4198.6
950.549	4206.29
950.854	4132.62
951.16	4147.53
951.465	4123.58
951.77	4131.49
952.075	4081.32
952.38	4045.39
952.685	4051.94
952.99	4054.88
953.294	4011.94
953.599	3954.54
953.904	3981.43
954.209	3945.05
954.513	3924.04
954.818	3933.53
955.122	3905.5
955.426	3921.32
955.731	3852.4
956.035	3855.34
956.339	3871.38
956.643	3890.14
956.948	3805.85
957.252	3781.21
957.556	3801.33
957.86	3774.89
958.163	3738.73
958.467	3750.71
958.771	3728.56
959.075	3670.93
959.378	3692.18
959.682	3664.38
959.985	3663.7
960.289	3686.98
960.592	3616.02
960.896	3596.81
961.199	3602.91
961.502	3586.87
961.805	3574.89
962.108	3581.45
962.411	3564.95
962.714	3525.4
963.017	3525.63
963.32	3518.85
963.623	3507.55
963.926	3489.47
964.228	3446.99
964.531	3422.13
964.833	3407.44
965.136	3350.49
965.438	3386.42
965.741	3383.48
966.043	3357.5
966.345	3314.33
966.648	3345.97
966.95	3329.02
967.252	3296.26
967.554	3278.63
967.856	3274.11
968.158	3267.56
968.46	3268.01
968.761	3215.58
969.063	3197.95
969.365	3188.91
969.666	3182.13
969.968	3165.19
970.269	3143.26
970.571	3135.81
970.872	3161.12
971.174	3123.6
971.475	3127.45
971.776	3083.15
972.077	3046.32
972.378	3055.36
972.679	3069.59
972.98	3054.23
973.281	3022.82
973.582	3011.52
973.883	3030.5
974.183	3012.42
974.484	2985.08
974.785	2947.56
975.085	2919.09
975.386	2956.15
975.686	2923.84
975.986	2935.13
976.287	2910.28
976.587	2850.39
976.887	2852.88
977.187	2838.19
977.487	2827.11
977.787	2841.35
978.087	2818.75
978.387	2797.51
978.687	2809.49
978.987	2794.35
979.286	2758.87
979.586	2764.52
979.885	2696.5
980.185	2712.09
980.484	2741.02
980.784	2680.68
981.083	2659.66
981.382	2660.57
981.682	2691.75
981.981	2683.84
982.28	2670.96
982.579	2644.29
982.878	2620.34
983.177	2584.64
983.475	2596.16
983.774	2598.19
984.073	2576.05
984.372	2573.34
984.67	2580.34
984.969	2550.74
985.267	2526.33
985.566	2510.74
985.864	2496.95
986.162	2482.94
986.461	2465.77
986.759	2488.82
987.057	2411.31
987.355	2429.39
987.653	2440.68
987.951	2414.47
988.249	2410.63
988.547	2381.7
988.844	2383.28
989.142	2374.25
989.44	2332.89
989.737	2386.45
990.035	2358.2
990.332	2311.87
990.63	2322.72
990.927	2322.04
991.224	2327.02
991.521	2332.21
991.819	2312.33
992.116	2319.11
992.413	2249.5
992.71	2258.09
993.006	2270.97
993.303	2264.87
993.6	2214.93
993.897	2202.27
994.193	2226.68
994.49	2207.47
994.787	2206.34
995.083	2151.65
995.379	2157.75
995.676	2152.1
995.972	2159.11
996.268	2134.7
996.565	2146.23
996.861	2106.46
997.157	2104.87
997.453	2072.78
997.749	2083.41
998.044	2062.39
998.34	2075.27
998.636	2061.26
998.932	2015.38
999.227	2032.11
999.523	2035.95
999.818	2001.37
1000.114	1998.44
1000.409	1985.56
1000.704	1970.87
1001	1970.41
1001.295	1995.5
1001.59	1946.69
1001.885	1935.84
1002.18	1910.98
1002.475	1902.62
1002.77	1892.45
1003.065	1883.86
1003.359	1869.63
1003.654	1885.67
1003.949	1852.45
1004.243	1845.45
1004.538	1822.85
1004.832	1814.49
1005.127	1821.04
1005.421	1800.25
1005.715	1772.45
1006.009	1782.62
1006.304	1770.42
1006.598	1779.68
1006.892	1757.09
1007.186	1744.88
1007.48	1755.96
1007.773	1737.43
1008.067	1729.52
1008.361	1700.59
1008.655	1710.76
1008.948	1690.65
1009.242	1709.86
1009.535	1707.6
1009.829	1642.51
1010.122	1657.43
1010.415	1644.55
1010.708	1647.71
1011.001	1614.04
1011.295	1633.02
1011.588	1594.6
1011.881	1608.16
1012.173	1597.32
1012.466	1597.77
1012.759	1572.46
1013.052	1572.46
1013.344	1555.06
1013.637	1544.66
1013.93	1566.36
1014.222	1511.67
1014.514	1526.81
1014.807	1497.21
1015.099	1505.12
1015.391	1496.08
1015.683	1482.74
1015.976	1487.04
1016.268	1471.9
1016.56	1450.88
1016.851	1439.81
1017.143	1441.61
1017.435	1422.86
1017.727	1407.72
1018.018	1403.2
1018.31	1408.4
1018.602	1400.71
1018.893	1355.52
1019.185	1388.96
1019.476	1385.34
1019.767	1360.71
1020.058	1330.43
1020.35	1342.63
1020.641	1346.02
1020.932	1348.51
1021.223	1335.63
1021.514	1315.06
1021.804	1302.64
1022.095	1294.95
1022.386	1283.65
1022.677	1281.17
1022.967	1241.85
1023.258	1252.69
1023.548	1261.51
1023.839	1274.61
1024.129	1233.94
1024.419	1206.37
1024.709	1202.75
1025	1202.52
1025.29	1202.07
1025.58	1210.43
1025.87	1200.94
1026.16	1179.02
1026.449	1198.01
1026.739	1177.67
1027.029	1126.14
1027.319	1131.34
1027.608	1131.57
1027.898	1152.36
1028.187	1099.48
1028.477	1150.77
1028.766	1127.95
1029.055	1109.87
1029.344	1104.9
1029.634	1088.18
1029.923	1087.27
1030.212	1068.29
1030.501	1078.69
1030.79	1069.87
1031.078	1074.39
1031.367	1057.44
1031.656	1043.43
1031.945	1043.21
1032.233	1021.74
1032.522	1031
1032.81	1025.35
1033.099	1015.41
1033.387	1008.86
1033.675	1004.56
1033.963	994.85
1034.251	999.37
1034.54	977.45
1034.828	981.97
1035.116	975.41
1035.403	949.65
1035.691	966.6
1035.979	952.81
1036.267	943.77
1036.554	946.49
1036.842	931.57
1037.129	922.31
1037.417	917.33
1037.704	922.98
1037.992	903.32
1038.279	906.71
1038.566	897.67
1038.853	897.67
1039.14	897.67
