Data from hue_00_FLMS001491_53.txt Node
Date: Mon Feb 06 15:29:54 GMT 2017
User: dcchb
Spectrometer: FLMS00149
Trigger mode: 0
Integration Time (sec): 2.000000E-2
Scans to average: 10
Electric dark correction enabled: true
Nonlinearity correction enabled: false
Boxcar width: 0
XAxis mode: Wavelengths
Number of Pixels in Spectrum: 2048
>>>>>Begin Spectral Data<<<<<
341.393	-12.26
341.776	-12.26
342.16	-12.26
342.543	-47.74
342.927	-82.77
343.31	-75.99
343.693	-59.94
344.077	-57.91
344.46	-66.72
344.843	-48.87
345.226	-52.26
345.61	-34.18
345.993	-19.49
346.376	2.88
346.759	17.8
347.142	12.37
347.525	52.37
347.908	53.5
348.291	68.42
348.674	101.86
349.057	106.16
349.44	127.62
349.823	137.12
350.206	153.16
350.588	196.32
350.971	212.59
351.354	246.72
351.737	242.65
352.119	258.47
352.502	268.41
352.884	265.47
353.267	263.67
353.65	289.88
354.032	306.38
354.414	289.65
354.797	314.06
355.179	326.26
355.562	326.94
355.944	333.72
356.326	337.56
356.709	345.25
357.091	354.51
357.473	351.8
357.855	309.99
358.238	333.95
358.62	361.06
359.002	337.56
359.384	340.73
359.766	334.85
360.148	346.38
360.53	329.2
360.912	322.65
361.294	355.41
361.676	328.75
362.057	345.92
362.439	329.2
362.821	321.07
363.203	324.68
363.584	322.65
363.966	343.66
364.348	331.46
364.729	324.91
365.111	316.55
365.493	307.28
365.874	335.53
366.256	319.03
366.637	317.45
367.019	326.04
367.4	325.81
367.781	298.24
368.163	302.76
368.544	294.4
368.925	305.25
369.306	321.29
369.688	312.25
370.069	287.85
370.45	317
370.831	313.16
371.212	333.95
371.593	319.94
371.974	310.67
372.355	310.44
372.736	310.9
373.117	309.54
373.498	308.18
373.879	302.99
374.26	284
374.641	305.7
375.021	324.68
375.402	313.16
375.783	333.95
376.163	321.07
376.544	305.7
376.925	328.3
377.305	331.46
377.686	322.65
378.066	319.71
378.447	344.12
378.827	332.36
379.208	329.43
379.588	322.65
379.968	328.75
380.349	312.48
380.729	314.51
381.109	328.52
381.489	331.91
381.87	326.71
382.25	329.2
382.63	323.78
383.01	354.96
383.39	337.11
383.77	342.76
384.15	321.52
384.53	352.48
384.91	340.5
385.29	347.73
385.67	347.5
386.049	327.39
386.429	366.49
386.809	331.69
387.189	333.27
387.568	349.54
387.948	340.5
388.328	341.63
388.707	351.35
389.087	324.91
389.466	366.26
389.846	358.8
390.225	364.23
390.605	328.3
390.984	324
391.363	358.13
391.743	357.22
392.122	358.35
392.501	351.12
392.881	354.28
393.26	363.78
393.639	366.49
394.018	369.65
394.397	344.79
394.776	357.67
395.155	369.2
395.534	360.61
395.913	362.65
396.292	371.69
396.671	377.11
397.05	339.82
397.429	374.85
397.808	364
398.186	387.96
398.565	378.69
398.944	386.83
399.323	371.01
399.701	396.54
400.08	379.14
400.458	371.01
400.837	387.05
401.215	390.67
401.594	363.32
401.972	371.91
402.351	401.74
402.729	380.95
403.107	410.1
403.486	377.79
403.864	388.18
404.242	390.89
404.62	396.09
404.999	387.5
405.377	407.39
405.755	385.02
406.133	396.32
406.511	401.06
406.889	414.17
407.267	402.42
407.645	411.46
408.023	406.03
408.401	421.63
408.779	424.34
409.156	400.38
409.534	443.1
409.912	415.75
410.29	419.59
410.667	427.73
411.045	440.61
411.422	417.79
411.8	425.24
412.178	430.67
412.555	441.74
412.933	434.96
413.31	444.45
413.687	452.14
414.065	457.56
414.442	462.98
414.819	460.04
415.197	462.53
415.574	452.14
415.951	455.98
416.328	456.43
416.705	466.6
417.082	465.24
417.46	461.17
417.837	469.76
418.214	471.34
418.591	461.63
418.967	465.47
419.344	496.2
419.721	491.23
420.098	513.6
420.475	513.83
420.852	502.53
421.228	473.38
421.605	486.94
421.982	504.79
422.358	509.31
422.735	513.38
423.111	504.56
423.488	522.42
423.864	536.88
424.241	527.84
424.617	512.7
424.994	549.99
425.37	521.74
425.746	540.72
426.123	549.08
426.499	549.76
426.875	526.03
427.251	541.17
427.627	569.42
428.003	554.73
428.379	572.81
428.756	568.97
429.132	564.45
429.507	559.02
429.883	573.26
430.259	588.4
430.635	578.69
431.011	585.01
431.387	593.6
431.763	588.4
432.138	604.22
432.514	624.79
432.89	612.58
433.265	628.63
433.641	626.14
434.016	613.26
434.392	617.33
434.767	652.58
435.143	668.17
435.518	645.12
435.894	646.48
436.269	656.42
436.644	653.94
437.02	654.39
437.395	652.36
437.77	666.37
438.145	663.2
438.52	663.88
438.895	658.68
439.271	671.56
439.646	686.71
440.021	713.37
440.395	693.94
440.77	688.29
441.145	685.35
441.52	685.12
441.895	705.01
442.27	716.53
442.645	708.63
443.019	720.6
443.394	728.29
443.769	703.88
444.143	734.61
444.518	717.66
444.892	729.64
445.267	722.41
445.641	746.59
446.016	740.49
446.39	746.82
446.764	764.44
447.139	757.44
447.513	778
447.887	743.65
448.262	767.38
448.636	735.52
449.01	759.02
449.384	766.48
449.758	775.29
450.132	798.11
450.506	792.24
450.88	808.06
451.254	808.28
451.628	807.61
452.002	823.2
452.376	834.27
452.75	791.11
453.123	813.48
453.497	821.16
453.871	829.75
454.244	837.44
454.618	830.2
454.992	854.84
455.365	840.37
455.739	859.58
456.112	864.1
456.486	871.33
456.859	862.75
457.232	902.52
457.606	902.97
457.979	896.19
458.352	917.66
458.725	913.82
459.099	918.11
459.472	933.03
459.845	944.55
460.218	965.57
460.591	957.88
460.964	970.54
461.337	991.33
461.71	983.87
462.083	994.04
462.456	993.82
462.829	1021.84
463.201	1010.31
463.574	1026.13
463.947	1045.34
464.32	1074.49
464.692	1072.68
465.065	1051.67
465.438	1062.06
465.81	1115.85
466.183	1124.43
466.555	1103.42
466.928	1105.45
467.3	1130.08
467.672	1129.41
468.045	1160.59
468.417	1213.47
468.789	1187.26
469.161	1197.88
469.534	1221.61
469.906	1215.96
470.278	1258.67
470.65	1262.51
471.022	1272.68
471.394	1275.84
471.766	1267.93
472.138	1302.06
472.51	1340.93
472.882	1341.38
473.253	1333.69
473.625	1423.86
473.997	1424.31
474.369	1418.66
474.74	1442.84
475.112	1456.18
475.484	1501.15
475.855	1515.16
476.227	1540.24
476.598	1563.07
476.97	1564.2
477.341	1588.38
477.713	1629.28
478.084	1637.19
478.455	1695.94
478.827	1679.22
479.198	1705.44
479.569	1735.49
479.94	1783.4
480.311	1826.34
480.682	1834.02
481.053	1884.41
481.424	1912.21
481.795	1979.78
482.166	1954.02
482.537	2028.82
482.908	2044.64
483.279	2075.14
483.65	2112.66
484.021	2165.76
484.391	2198.76
484.762	2193.78
485.133	2213.44
485.503	2245.53
485.874	2327.34
486.244	2337.28
486.615	2374.57
486.985	2390.62
487.356	2427
487.726	2449.82
488.097	2527.11
488.467	2542.93
488.837	2593.77
489.207	2614.79
489.578	2659.31
489.948	2673.55
490.318	2715.35
490.688	2742.02
491.058	2761.23
491.428	2814.78
491.798	2839.87
492.168	2902.01
492.538	2907.21
492.908	2936.14
493.278	2969.13
493.648	2994.44
494.017	3061.33
494.387	3058.39
494.757	3106.53
495.126	3133.87
495.496	3183.36
495.866	3171.16
496.235	3203.02
496.605	3240.76
496.974	3239.86
497.344	3287.99
497.713	3307.2
498.082	3334.77
498.452	3347.43
498.821	3376.13
499.19	3386.07
499.559	3414.54
499.928	3448.67
500.298	3492.51
500.667	3491.6
501.036	3526.63
501.405	3586.97
501.774	3530.25
502.143	3532.05
502.512	3615.44
502.88	3639.17
503.249	3612.28
503.618	3660.64
503.987	3701.99
504.356	3672.16
504.724	3701.09
505.093	3687.98
505.462	3749
505.83	3756.23
506.199	3800.52
506.567	3851.37
506.936	3836.45
507.304	3874.42
507.672	3883.01
508.041	3890.69
508.409	3904.7
508.777	3936.34
509.145	3929.11
509.514	3976.34
509.882	3974.75
510.25	3972.72
510.618	4036.45
510.986	4017.46
511.354	4068.31
511.722	4066.73
512.09	4102.43
512.458	4090.46
512.826	4090.46
513.193	4111.47
513.561	4095.66
513.929	4125.48
514.297	4199.61
514.664	4189.89
515.032	4207.97
515.4	4212.49
515.767	4316.67
516.135	4265.59
516.502	4242.54
516.869	4312.15
517.237	4276.89
517.604	4351.69
517.972	4355.08
518.339	4387.4
518.706	4373.16
519.073	4361.64
519.44	4417.23
519.808	4417.91
520.175	4419.26
520.542	4466.72
520.909	4448.87
521.276	4450.9
521.643	4552.82
522.009	4543.33
522.376	4523.21
522.743	4548.75
523.11	4581.74
523.477	4616.09
523.843	4616.55
524.21	4718.24
524.577	4664.91
524.943	4746.03
525.31	4732.02
525.676	4815.41
526.043	4805.24
526.409	4833.94
526.776	4847.95
527.142	4849.76
527.508	4915.52
527.874	4896.99
528.241	4965.01
528.607	4976.31
528.973	4965.01
529.339	4971.56
529.705	5022.41
530.071	5087.72
530.437	5089.53
530.803	5115.74
531.169	5148.28
531.535	5081.17
531.901	5164.55
532.267	5182.63
532.632	5181.73
532.998	5203.2
533.364	5223.08
533.73	5247.26
534.095	5335.85
534.461	5318
534.826	5372.46
535.192	5356.41
535.557	5357.32
535.923	5407.48
536.288	5415.39
536.653	5462.62
537.019	5440.93
537.384	5525
537.749	5503.08
538.114	5496.07
538.479	5538.33
538.845	5538.55
539.21	5547.37
539.575	5551.66
539.94	5604.77
540.305	5624.65
540.67	5636.63
541.034	5694.03
541.399	5697.65
541.764	5701.49
542.129	5727.93
542.494	5777.42
542.858	5806.34
543.223	5817.42
543.587	5878.21
543.952	5848.15
544.316	5908.71
544.681	5920.69
545.045	5917.53
545.41	5976.96
545.774	5986.45
546.138	5934.25
546.503	6023.97
546.867	6004.53
547.231	6054.25
547.595	6107.13
547.959	6115.26
548.324	6128.14
548.688	6118.2
549.052	6143.74
549.416	6226.9
549.779	6164.98
550.143	6220.34
550.507	6231.42
550.871	6330.17
551.235	6265.54
551.599	6296.73
551.962	6335.82
552.326	6385.76
552.689	6413.33
553.053	6359.78
553.417	6381.24
553.78	6418.98
554.143	6459.89
554.507	6475.71
554.87	6507.34
555.234	6560.45
555.597	6505.54
555.96	6527.68
556.323	6560.9
556.686	6600.67
557.05	6619.88
557.413	6609.26
557.776	6672.54
558.139	6719.99
558.502	6693.1
558.865	6723.16
559.228	6783.04
559.59	6772.42
559.953	6797.28
560.316	6817.39
560.679	6837.28
561.041	6852.19
561.404	6886.09
561.767	6924.73
562.129	6961.79
562.492	6992.3
562.854	6997.05
563.217	7009.25
563.579	6986.43
563.941	7006.76
564.304	7062.36
564.666	7116.82
565.028	7105.29
565.39	7155.46
565.753	7179.42
566.115	7167.89
566.477	7194.56
566.839	7222.35
567.201	7322.46
567.563	7255.12
567.925	7370.6
568.287	7343.03
568.648	7371.28
569.01	7402.91
569.372	7421.22
569.734	7452.18
570.095	7521.78
570.457	7512.97
570.819	7537.82
571.18	7581.21
571.542	7634.09
571.903	7671.83
572.265	7666.86
572.626	7715.22
572.987	7805.39
573.349	7790.47
573.71	7884.71
574.071	7920.87
574.432	7924.93
574.794	8001.54
575.155	8061.2
575.516	8092.39
575.877	8168.77
576.238	8180.75
576.599	8303.91
576.96	8371.93
577.32	8441.3
577.681	8487.86
578.042	8552.04
578.403	8561.07
578.763	8713.61
579.124	8755.65
579.485	8798.36
579.845	8982.53
580.206	9025.92
580.566	9101.4
580.927	9234.73
581.287	9361.28
581.648	9363.77
582.008	9563.76
582.368	9616.19
582.728	9816.41
583.089	9942.96
583.449	9975.5
583.809	10214.82
584.169	10377.3
584.529	10453
584.889	10705.42
585.249	10886.21
585.609	10966.89
585.969	11242.36
586.329	11379.98
586.688	11505.4
587.048	11720.09
587.408	11896.13
587.768	12085.95
588.127	12265.84
588.487	12528.65
588.846	12814.07
589.206	12971.35
589.565	13173.16
589.925	13369.08
590.284	13651.56
590.643	13889.97
591.003	14199.8
591.362	14447.93
591.721	14600.46
592.08	14826.22
592.44	15149.15
592.799	15471.4
593.158	15522.25
593.517	15947.55
593.876	16096.7
594.235	16397.48
594.593	16771.25
594.952	17003.79
595.311	17315.65
595.67	17538.69
596.029	17913.37
596.387	18249.63
596.746	18469.51
597.104	18726.23
597.463	18863.63
597.822	19322.83
598.18	19590.39
598.538	19752.19
598.897	20173.88
599.255	20276.47
599.613	20837.81
599.972	20904.25
600.33	21250.68
600.688	21419.95
601.046	21823.1
601.404	22066.48
601.762	22300.6
602.12	22775.62
602.478	22858.33
602.836	23119.34
603.194	23342.38
603.552	23668.93
603.91	23884.74
604.268	24218.29
604.625	24375.57
604.983	24656.7
605.341	24809.46
605.698	25143.69
606.056	25405.38
606.413	25530.57
606.771	25879.49
607.128	26068.86
607.485	26335.07
607.843	26589.53
608.2	26982.96
608.557	27099.34
608.914	27203.3
609.272	27604.64
609.629	27768.93
609.986	27999.43
610.343	28168.24
610.7	28430.16
611.057	28657.27
611.414	28824.27
611.771	29002.34
612.127	29323.01
612.484	29370.24
612.841	29625.83
613.198	29747.41
613.554	29960.06
613.911	30331.12
614.267	30250.22
614.624	30469.2
614.98	30670.78
615.337	30950.99
615.693	31063.53
616.05	31122.52
616.406	31567.48
616.762	31201.38
617.118	31477.31
617.475	31692.44
617.831	31877.3
618.187	32176.72
618.543	32138.76
618.899	32477.51
619.255	32550.27
619.611	32590.72
619.967	32857.84
620.323	33016.93
620.678	32888.34
621.034	32867.78
621.39	33205.4
621.746	33217.83
622.101	33548.21
622.457	33446.97
622.812	33658.04
623.168	33728.1
623.523	33863.91
623.879	33942.78
624.234	33896.45
624.589	34015.32
624.945	34168.08
625.3	34219.38
625.655	34328.31
626.01	34458.02
626.365	34405.59
626.72	34515.19
627.075	34534.85
627.43	34586.6
627.785	34607.62
628.14	34682.65
628.495	34876.54
628.85	34928.29
629.205	34917.44
629.559	35056.65
629.914	34876.09
630.269	34943.88
630.623	34918.8
630.978	34862.3
631.332	35175.74
631.687	35215.29
632.041	35008.06
632.396	35274.04
632.75	34959.7
633.104	35173.93
633.459	35059.13
633.813	35148.17
634.167	35183.65
634.521	35204.22
634.875	35312.01
635.229	35222.29
635.583	35163.99
635.937	35180.49
636.291	35116.99
636.645	35171.67
636.999	35132.81
637.352	35382.74
637.706	35124.67
638.06	35318.56
638.413	35285.8
638.767	35142.75
639.121	35208.96
639.474	35040.83
639.828	35143.2
640.181	35173.03
640.534	35206.48
640.888	35145.69
641.241	34963.32
641.594	35187.72
641.947	35198.79
642.301	35057.55
642.654	35160.83
643.007	35073.15
643.36	35179.13
643.713	35057.1
644.066	35179.13
644.419	34957.22
644.771	34753.15
645.124	34548.64
645.477	34462.77
645.83	34310.91
646.182	34056.68
646.535	34067.3
646.888	34123.11
647.24	34111.14
647.593	34066.39
647.945	34190.91
648.298	33964.47
648.65	33898.49
649.002	33757.25
649.355	33870.92
649.707	33884.02
650.059	34146.62
650.411	34456.66
650.763	34516.1
651.115	34921.96
651.467	34582.76
651.819	34844
652.171	34561.75
652.523	34580.96
652.875	34544.57
653.227	34453.73
653.578	34842.64
653.93	34741.85
654.282	34429.77
654.633	34431.81
654.985	34578.24
655.337	34553.16
655.688	34593.84
656.039	34632.48
656.391	34330.57
656.742	34561.52
657.094	34486.72
657.445	34625.47
657.796	34526.27
658.147	34349.32
658.498	34418.25
658.849	34444.01
659.2	34465.93
659.551	34318.36
659.902	34448.76
660.253	34389.1
660.604	34476.1
660.955	34367.85
661.306	34470
661.656	34466.61
662.007	34425.25
662.358	34329.89
662.708	34406.27
663.059	34224.13
663.409	34096
663.76	34465.03
664.11	34336.44
664.461	34288.53
664.811	34346.84
665.161	34314.75
665.511	34259.38
665.862	34252.6
666.212	34335.09
666.562	34443.78
666.912	34118.82
667.262	34246.27
667.612	34213.06
667.962	34238.14
668.312	34133.74
668.662	34282.43
669.011	34228.65
669.361	34252.15
669.711	34238.14
670.06	34131.02
670.41	34181.42
670.76	34082.21
671.109	34243.79
671.459	34192.49
671.808	34154.75
672.157	34191.59
672.507	33925.61
672.856	33979.16
673.205	34048.99
673.554	34179.16
673.904	33980.52
674.253	34275.2
674.602	34056
674.951	33630.92
675.3	33371.04
675.649	33931.25
675.998	33934.42
676.346	33925.61
676.695	34077.24
677.044	33784.82
677.393	33870.24
677.741	33882.89
678.09	33677.02
678.438	33657.36
678.787	33662.11
679.135	33764.25
679.484	33484.49
679.832	33601.55
680.181	33597.48
680.529	33629.12
680.877	33444.26
681.225	33468.44
681.573	33700.75
681.922	33305.96
682.27	33246.3
682.618	33192.07
682.966	33184.38
683.314	33257.37
683.661	33266.64
684.009	33065.74
684.357	33036.81
684.705	33045.4
685.053	32974.67
685.4	32971.73
685.748	32802.47
686.095	32816.71
686.443	32641.57
686.79	32610.16
687.138	32698.07
687.485	32792.3
687.832	32641.8
688.18	32515.25
688.527	32369.71
688.874	32351.86
689.221	32294.91
689.568	32179.44
689.915	32228.93
690.262	32250.62
690.609	32044.3
690.956	31961.36
691.303	31920.91
691.65	31885.88
691.997	31817.86
692.344	31547.81
692.69	31621.48
693.037	31713.46
693.383	31315.5
693.73	31589.4
694.077	31363.86
694.423	31299.69
694.769	31255.84
695.116	31110.76
695.462	31080.26
695.808	30981.95
696.155	31110.54
696.501	30748.74
696.847	30808.85
697.193	30583.55
697.539	30622.87
697.885	30606.14
698.231	30405.92
698.577	30391.46
698.923	30271.46
699.269	30273.72
699.614	29984.92
699.96	30031.47
700.306	29930.91
700.651	29818.82
700.997	29816.11
701.342	29784.47
701.688	29663.57
702.033	29527.3
702.379	29458.6
702.724	29421.09
703.069	29519.39
703.415	29199.18
703.76	29199.85
704.105	29095
704.45	29194.66
704.795	28999.86
705.14	28831.05
705.485	28907.88
705.83	28797.38
706.175	28895.45
706.52	28729.81
706.865	28722.13
707.209	28558.97
707.554	28426.31
707.899	28484.84
708.243	28450.04
708.588	28375.47
708.932	28160.56
709.277	28102.93
709.621	28274.91
709.966	28005.53
710.31	28104.29
710.654	27908.14
710.998	27964.86
711.342	27836.73
711.687	27928.25
712.031	27711.76
712.375	27591.76
712.719	27657.97
713.063	27659.56
713.407	27525.1
713.75	27517.64
714.094	27424.76
714.438	27299.34
714.782	27305.21
715.125	27168.27
715.469	27248.04
715.812	27133.69
716.156	27077.88
716.499	26970.31
716.843	27026.58
717.186	26840.59
717.53	26928.5
717.873	26962.85
718.216	26796.75
718.559	26718.34
718.902	26586.36
719.246	26753.82
719.589	26477.89
719.932	26492.35
720.275	26499.13
720.617	26371.91
720.96	26415.75
721.303	26392.24
721.646	26432.02
721.989	26154.06
722.331	26249.2
722.674	26161.29
723.016	26137.79
723.359	26074.51
723.701	26204.45
724.044	25958.81
724.386	25896.21
724.729	25888.98
725.071	25971.46
725.413	25860.96
725.755	25735.76
726.097	25667.07
726.439	25615.54
726.782	25620.51
727.124	25757.46
727.465	25626.39
727.807	25526.73
728.149	25455.32
728.491	25462.1
728.833	25401.08
729.175	25380.97
729.516	25266.62
729.858	25303.01
730.199	25367.86
730.541	25321.31
730.882	25169.23
731.224	25284.02
731.565	25170.81
731.906	25096.91
732.248	25056.01
732.589	24989.12
732.93	24895.11
733.271	24986.86
733.612	24928.33
733.953	24854.43
734.294	24884.71
734.635	24846.3
734.976	24813.3
735.317	24677.03
735.658	24678.84
735.999	24702.8
736.339	24624.38
736.68	24641.78
737.021	24640.43
737.361	24317.5
737.702	24606.3
738.042	24548.45
738.383	24576.92
738.723	24393.2
739.063	24404.27
739.404	24431.84
739.744	24407.66
740.084	24304.39
740.424	24280.21
740.764	24301.68
741.104	24332.19
741.444	24077.05
741.784	24085.64
742.124	24122.47
742.464	24134.45
742.804	24045.64
743.143	24055.13
743.483	24031.63
743.823	23859.88
744.162	23797.28
744.502	23879.99
744.841	23681.13
745.181	23872.08
745.52	23787.11
745.86	23746.21
746.199	23758.19
746.538	23655.82
746.877	23706.89
747.216	23629.15
747.556	23634.12
747.895	23656.04
748.234	23576.05
748.573	23556.61
748.911	23413.34
749.25	23405.43
749.589	23306.9
749.928	23340.8
750.267	23414.24
750.605	23355.71
750.944	23241.14
751.283	23187.13
751.621	23177.41
751.96	23074.37
752.298	23124.53
752.636	23020.58
752.975	22971.32
753.313	22871.21
753.651	22988.27
753.989	22880.47
754.327	22791.66
754.666	22862.39
755.004	22838.21
755.342	22785.11
755.679	22685.22
756.017	22562.29
756.355	22609.52
756.693	22623.3
757.031	22455.17
757.368	22325.46
757.706	22482.29
758.044	22362.75
758.381	22293.37
758.719	22268.06
759.056	22311
759.394	22164.33
759.731	22042.08
760.068	22080.27
760.405	21950.1
760.743	21839.14
761.08	21838.24
761.417	21692.03
761.754	21784.68
762.091	21684.57
762.428	21584.69
762.765	21478.02
763.102	21540.62
763.438	21365.03
763.775	21299.95
764.112	21317.35
764.449	21376.56
764.785	21263.34
765.122	21153.74
765.458	20966.4
765.795	21034.42
766.131	21023.12
766.467	20821.77
766.804	20806.85
767.14	20747.42
767.476	20777.93
767.812	20599.63
768.148	20610.48
768.485	20508.1
768.821	20360.54
769.157	20364.83
769.492	20304.95
769.828	20294.33
770.164	20055.24
770.5	20030.38
770.836	20115.12
771.171	19885.97
771.507	19861.57
771.842	19699.09
772.178	19635.59
772.513	19754.9
772.849	19593.78
773.184	19528.24
773.519	19445.76
773.855	19331.41
774.19	19305.88
774.525	19280.79
774.86	19309.27
775.195	19201.02
775.53	19050.74
775.865	19029.95
776.2	18937.75
776.535	18720.13
776.87	18788.38
777.205	18719.68
777.539	18634.48
777.874	18743.63
778.209	18476.07
778.543	18464.32
778.878	18407.82
779.212	18362.17
779.547	18281.95
779.881	18339.35
780.215	18107.94
780.55	18125.34
780.884	18126.47
781.218	18048.06
781.552	17965.57
781.886	17886.93
782.22	17767.16
782.554	17729.19
782.888	17489.65
783.222	17517.22
783.556	17429.32
783.889	17411.24
784.223	17267.06
784.557	17307.74
784.89	17348.87
785.224	17191.36
785.557	17106.84
785.891	17104.35
786.224	17004.24
786.558	17056.22
786.891	16911.82
787.224	16865.71
787.557	16767.19
787.891	16768.54
788.224	16690.58
788.557	16604.03
788.89	16623.91
789.223	16531.03
789.556	16412.39
789.888	16407.2
790.221	16326.75
790.554	16283.36
790.887	16193.19
791.219	16148.45
791.552	16156.58
791.884	16066.41
792.217	15944.83
792.549	15898.51
792.882	15799.98
793.214	15740.55
793.546	15730.6
793.879	15625.75
794.211	15552.53
794.543	15608.35
794.875	15491.74
795.207	15594.11
795.539	15481.8
795.871	15430.95
796.203	15288.13
796.535	15248.36
796.867	15221.69
797.198	15195.7
797.53	15130.85
797.862	15112.54
798.193	15076.84
798.525	14934.01
798.856	15018.53
799.188	14849.04
799.519	14848.59
799.85	14704.19
800.182	14815.6
800.513	14801.81
800.844	14529.5
801.175	14741.93
801.506	14672.55
801.837	14588.71
802.168	14529.96
802.499	14452.9
802.83	14400.47
803.161	14411.09
803.491	14307.82
803.822	14330.64
804.153	14305.1
804.483	14171.55
804.814	14132.45
805.145	14078.44
805.475	14083.19
805.805	13997.54
806.136	14036.64
806.466	14023.98
806.796	13974.72
807.126	13843.87
807.457	13888.84
807.787	13808.17
808.117	13666.25
808.447	13680.94
808.777	13666.02
809.107	13584.67
809.436	13596.42
809.766	13559.36
810.096	13608.85
810.426	13510.55
810.755	13485.69
811.085	13535.18
811.414	13503.09
811.744	13281.18
812.073	13332.7
812.403	13353.94
812.732	13210.67
813.061	13200.73
813.39	13118.02
813.719	13077.57
814.049	13183.1
814.378	13142.42
814.707	13050.9
815.036	12958.92
815.365	12993.5
815.693	12900.4
816.022	12940.39
816.351	12789.89
816.68	12788.76
817.008	12810.91
817.337	12665.6
817.665	12733.62
817.994	12641.42
818.322	12720.96
818.651	12566.62
818.979	12545.83
819.307	12654.53
819.636	12520.74
819.964	12424.02
820.292	12539.27
820.62	12454.31
820.948	12390.35
821.276	12510.8
821.604	12384.7
821.932	12500.86
822.259	12396.45
822.587	12382.22
822.915	12378.38
823.243	12352.61
823.57	12372.27
823.898	12316.46
824.225	12380.41
824.553	12393.29
824.88	12404.14
825.207	12410.92
825.535	12381.31
825.862	12418.83
826.189	12355.1
826.516	12448.88
826.843	12483.01
827.17	12428.32
827.497	12422.22
827.824	12448.88
828.151	12458.15
828.478	12453.4
828.805	12458.37
829.131	12405.72
829.458	12408.66
829.785	12240.75
830.111	12345.83
830.438	12333.63
830.764	12273.97
831.09	12412.27
831.417	12341.09
831.743	12399.39
832.069	12322.78
832.395	12259.28
832.722	12302.67
833.048	12251.15
833.374	12302.67
833.7	12277.81
834.026	12235.55
834.351	12262.22
834.677	12190.81
835.003	12211.83
835.329	12253.18
835.654	12125.73
835.98	12127.08
836.306	12089.57
836.631	12142.9
836.956	12172.96
837.282	12149.45
837.607	12010.02
837.932	11973.64
838.258	11994.66
838.583	12023.36
838.908	11922.12
839.233	12009.12
839.558	11955.34
839.883	11926.86
840.208	11837.15
840.533	11781.78
840.858	11849.12
841.182	11854.77
841.507	11748.56
841.832	11744.49
842.156	11708.34
842.481	11762.8
842.805	11660.2
843.13	11656.81
843.454	11707.21
843.778	11530.49
844.103	11527.1
844.427	11504.95
844.751	11614.55
845.075	11462.24
845.399	11533.88
845.723	11452.07
846.047	11514.67
846.371	11404.84
846.695	11401.45
847.019	11269.48
847.343	11231.51
847.666	11177.05
847.99	11149.03
848.313	11060.9
848.637	11074.68
848.96	11054.79
849.284	11003.04
849.607	10939.09
849.931	10878.98
850.254	10941.58
850.577	10770.28
850.9	10709.27
851.223	10764.41
851.546	10612.32
851.869	10570.51
852.192	10615.48
852.515	10501.36
852.838	10435.15
853.161	10459.33
853.483	10394.02
853.806	10371.65
854.129	10297.3
854.451	10243.97
854.774	10282.84
855.096	10239.45
855.419	10182.95
855.741	10182.5
856.063	10110.64
856.385	10050.75
856.708	10057.53
857.03	10008.72
857.352	10034.48
857.674	9989.51
857.996	9910.87
858.318	9936.86
858.64	9854.37
858.961	9883.07
859.283	9877.88
859.605	9808.27
859.926	9844.43
860.248	9741.38
860.57	9741.83
860.891	9697.54
861.212	9668.16
861.534	9652.12
861.855	9648.73
862.176	9671.1
862.498	9617.77
862.819	9643.53
863.14	9491.22
863.461	9591.78
863.782	9504.1
864.103	9541.16
864.424	9500.26
864.745	9449.86
865.065	9460.71
865.386	9414.84
865.707	9427.04
866.027	9448.96
866.348	9359.92
866.668	9351.11
866.989	9369.41
867.309	9323.54
867.63	9431.11
867.95	9307.72
868.27	9296.42
868.59	9253.71
868.91	9271.56
869.23	9283.99
869.55	9229.98
869.87	9211.23
870.19	9211.45
870.51	9191.79
870.83	9197.67
871.15	9163.77
871.469	9162.41
871.789	9129.19
872.109	9138.69
872.428	9085.35
872.748	9130.32
873.067	9098.01
873.386	9094.62
873.706	9048.29
874.025	9026.15
874.344	8987.5
874.663	9013.04
874.982	8973.49
875.301	8966.49
875.62	8948.63
875.939	8898.24
876.258	8944.57
876.577	8860.5
876.896	8868.64
877.214	8841.97
877.533	8879.03
877.852	8866.6
878.17	8925.13
878.489	8847.62
878.807	8785.02
879.125	8741.63
879.444	8795.42
879.762	8749.32
880.08	8788.41
880.398	8698.25
880.716	8679.26
881.034	8705.25
881.352	8694.4
881.67	8659.15
881.988	8693.73
882.306	8596.1
882.624	8637.23
882.941	8619.15
883.259	8539.61
883.577	8534.41
883.894	8502.09
884.212	8511.36
884.529	8476.1
884.846	8437.46
885.164	8455.77
885.481	8463.22
885.798	8428.87
886.115	8347.75
886.432	8347.07
886.75	8318.82
887.067	8325.37
887.383	8309.33
887.7	8306.17
888.017	8244.7
888.334	8311.82
888.651	8228.65
888.967	8173.51
889.284	8136.45
889.6	8154.08
889.917	8033.63
890.233	8071.14
890.55	8091.26
890.866	8078.83
891.182	8074.08
891.498	7996.12
891.815	8014.2
892.131	7927.42
892.447	8045.61
892.763	7950.92
893.079	7901.2
893.395	7935.55
893.71	7901.43
894.026	7864.37
894.342	7803.81
894.657	7799.96
894.973	7773.98
895.289	7814.65
895.604	7732.85
895.92	7647.88
896.235	7617.37
896.55	7667.99
896.865	7606.75
897.181	7604.94
897.496	7630.03
897.811	7538.28
898.126	7534.43
898.441	7528.56
898.756	7490.37
899.071	7392.07
899.386	7446.75
899.7	7303.25
900.015	7296.47
900.33	7280.43
900.644	7252.86
900.959	7279.07
901.273	7248.79
901.588	7259.19
901.902	7145.97
902.216	7131.06
902.531	7127.21
902.845	7165.4
903.159	7095.12
903.473	7061.68
903.787	7014.45
904.101	6943.26
904.415	7009.02
904.729	6937.39
905.042	6948.01
905.356	6903.94
905.67	6865.3
905.984	6922.25
906.297	6844.06
906.611	6792.53
906.924	6801.35
907.237	6826.88
907.551	6783.27
907.864	6720.9
908.177	6675.47
908.491	6688.58
908.804	6672.08
909.117	6584.86
909.43	6548.47
909.743	6519.55
910.056	6522.48
910.368	6514.12
910.681	6428.7
910.994	6463.05
911.307	6461.02
911.619	6400
911.932	6397.74
912.244	6322.26
912.557	6336.27
912.869	6300.79
913.181	6267.12
913.494	6280
913.806	6169.95
914.118	6210.4
914.43	6207.92
914.742	6131.31
915.054	6079.33
915.366	6094.92
915.678	6050.86
915.99	6036.62
916.302	5988.49
916.613	5963.4
916.925	5974.02
917.236	5941.48
917.548	5878.21
917.859	5926.79
918.171	5849.51
918.482	5854.03
918.794	5840.92
919.105	5807.7
919.416	5758.89
919.727	5727.48
920.038	5742.62
920.349	5719.79
920.66	5705.78
920.971	5653.81
921.282	5652.45
921.593	5615.84
921.903	5546.92
922.214	5581.27
922.525	5512.11
922.835	5548.05
923.146	5467.14
923.456	5438.67
923.767	5431.89
924.077	5425.34
924.387	5388.05
924.697	5355.51
925.008	5405.23
925.318	5359.12
925.628	5332.23
925.938	5290.88
926.248	5209.52
926.558	5236.42
926.867	5255.85
927.177	5259.69
927.487	5209.3
927.796	5160.26
928.106	5165.01
928.416	5164.1
928.725	5147.15
929.034	5112.8
929.344	5095.63
929.653	5123.2
929.962	4990.77
930.271	4992.58
930.581	4946.71
930.89	4958.68
931.199	4867.16
931.508	4902.87
931.817	4903.09
932.125	4864
932.434	4870.55
932.743	4821.51
933.051	4807.05
933.36	4805.24
933.669	4742.64
933.977	4781.29
934.286	4761.85
934.594	4715.53
934.902	4682.53
935.21	4694.06
935.519	4617.22
935.827	4644.57
936.135	4614.29
936.443	4591.91
936.751	4620.84
937.059	4561.18
937.367	4504.46
937.674	4518.24
937.982	4510.79
938.29	4451.8
938.597	4446.38
938.905	4370
939.213	4386.49
939.52	4389.21
939.827	4397.12
940.135	4383.33
940.442	4361.64
940.749	4331.13
941.056	4302.66
941.363	4238.93
941.67	4302.88
941.977	4253.39
942.284	4244.13
942.591	4239.38
942.898	4174.52
943.205	4250.23
943.511	4151.02
943.818	4133.85
944.125	4131.59
944.431	4094.75
944.738	4070.12
945.044	4058.82
945.35	4050.01
945.657	4020.4
945.963	4054.3
946.269	4055.66
946.575	4002.55
946.881	3957.35
947.187	3969.1
947.493	3931.59
947.799	3873.51
948.105	3915.09
948.41	3864.93
948.716	3847.53
949.022	3883.46
949.327	3894.3
949.633	3787.19
949.938	3810.69
950.244	3866.28
950.549	3822.22
950.854	3817.47
951.16	3751.48
951.465	3731.82
951.77	3712.39
952.075	3692.05
952.38	3678.49
952.685	3706.51
952.99	3638.94
953.294	3617.7
953.599	3576.12
953.904	3585.16
954.209	3604.37
954.513	3548.55
954.818	3600.53
955.122	3567.99
955.426	3530.47
955.731	3499.51
956.035	3507.65
956.339	3464.03
956.643	3489.57
956.948	3457.03
957.252	3422
957.556	3448.89
957.86	3405.5
958.163	3406.41
958.467	3362.34
958.771	3379.97
959.075	3372.96
959.378	3367.54
959.682	3333.42
959.985	3327.09
960.289	3292.74
960.592	3270.37
960.896	3264.72
961.199	3262.68
961.502	3230.59
961.805	3253.42
962.108	3236.47
962.411	3210.48
962.714	3206.86
963.017	3154.66
963.32	3201.67
963.623	3168.22
963.926	3170.03
964.228	3113.99
964.531	3061.11
964.833	3113.76
965.136	3049.58
965.438	3039.19
965.741	3032.18
966.043	3051.39
966.345	2978.85
966.648	3054.1
966.95	2979.07
967.252	2969.58
967.554	2997.83
967.856	3016.59
968.158	2957.61
968.46	2927.32
968.761	2913.31
969.063	2928.45
969.365	2910.6
969.666	2874.9
969.968	2912.64
970.269	2866.53
970.571	2872.64
970.872	2860.43
971.174	2809.81
971.475	2838.96
971.776	2801.9
972.077	2810.94
972.378	2786.99
972.679	2754.22
972.98	2740.89
973.281	2744.5
973.582	2730.27
973.883	2748.12
974.183	2699.76
974.484	2698.18
974.785	2685.75
975.085	2679.2
975.386	2695.69
975.686	2633.32
975.986	2650.72
976.287	2623.6
976.587	2610.04
976.887	2583.15
977.187	2591.51
977.487	2549.71
977.787	2538.86
978.087	2541.57
978.387	2549.26
978.687	2559.65
978.987	2558.97
979.286	2520.78
979.586	2483.95
979.885	2513.32
980.185	2475.81
980.484	2463.61
980.784	2485.75
981.083	2454.57
981.382	2405.76
981.682	2419.54
981.981	2434.46
982.28	2399.88
982.579	2406.21
982.878	2407.79
983.177	2378.41
983.475	2387
983.774	2356.94
984.073	2359.43
984.372	2316.27
984.67	2320.56
984.969	2356.04
985.267	2314.46
985.566	2298.87
985.864	2275.59
986.162	2259.09
986.461	2265.65
986.759	2250.05
987.057	2223.16
987.355	2255.25
987.653	2215.93
987.951	2205.08
988.249	2218.87
988.547	2190.85
988.844	2187.91
989.142	2165.99
989.44	2164.86
989.737	2176.38
990.035	2165.08
990.332	2129.83
990.63	2116.05
990.927	2136.16
991.224	2119.89
991.521	2068.36
991.819	2064.52
992.116	2071.3
992.413	2085.76
992.71	2088.7
993.006	2053.9
993.303	2029.49
993.6	2036.27
993.897	2055.93
994.193	2017.29
994.49	2038.76
994.787	2001.47
995.083	1997.41
995.379	2002.15
995.676	1954.24
995.972	1977.97
996.268	1954.47
996.565	1968.25
996.861	1923.28
997.157	1940.01
997.453	1943.85
997.749	1928.93
998.044	1898.42
998.34	1862.27
998.636	1902.49
998.932	1840.57
999.227	1851.42
999.523	1869.95
999.818	1849.16
1000.114	1832.66
1000.409	1841.03
1000.704	1799.22
1001	1790.86
1001.295	1794.92
1001.59	1769.84
1001.885	1779.33
1002.18	1774.59
1002.475	1773.46
1002.77	1750.63
1003.065	1744.08
1003.359	1736.85
1003.654	1740.46
1003.949	1724.64
1004.243	1721.25
1004.538	1709.28
1004.832	1680.58
1005.127	1714.47
1005.421	1659.56
1005.715	1661.82
1006.009	1663.18
1006.304	1613.91
1006.598	1661.59
1006.892	1621.14
1007.186	1623.63
1007.48	1606
1007.773	1607.13
1008.067	1589.96
1008.361	1589.73
1008.655	1585.44
1008.948	1572.33
1009.242	1581.6
1009.535	1561.71
1009.829	1536.63
1010.122	1519.23
1010.415	1542.5
1010.708	1529.17
1011.001	1509.51
1011.295	1505.67
1011.588	1496.85
1011.881	1484.65
1012.173	1448.27
1012.466	1460.92
1012.759	1456.18
1013.052	1459.57
1013.344	1453.46
1013.637	1450.53
1013.93	1442.62
1014.222	1407.82
1014.514	1401.26
1014.807	1414.14
1015.099	1423.18
1015.391	1414.14
1015.683	1389.74
1015.976	1370.08
1016.268	1372.56
1016.56	1353.58
1016.851	1347.48
1017.143	1342.06
1017.435	1324.88
1017.727	1320.36
1018.018	1324.43
1018.31	1321.04
1018.602	1321.04
1018.893	1303.64
1019.185	1316.07
1019.476	1282.17
1019.767	1264.77
1020.058	1240.81
1020.35	1259.35
1020.641	1261.83
1020.932	1229.74
1021.223	1236.07
1021.514	1197.2
1021.804	1202.4
1022.095	1222.51
1022.386	1211.44
1022.677	1200.82
1022.967	1181.83
1023.258	1150.65
1023.548	1187.48
1023.839	1152.68
1024.129	1156.98
1024.419	1166.47
1024.709	1166.24
1025	1157.65
1025.29	1136.18
1025.58	1140.7
1025.87	1126.69
1026.16	1110.87
1026.449	1092.57
1026.739	1080.37
1027.029	1117.43
1027.319	1064.1
1027.608	1080.82
1027.898	1083.76
1028.187	1068.62
1028.477	1062.06
1028.766	1046.02
1029.055	1039.69
1029.344	1043.53
1029.634	1041.05
1029.923	1027.04
1030.212	1006.24
1030.501	1006.92
1030.79	999.47
1031.078	1003.76
1031.367	1004.44
1031.656	961.27
1031.945	974.16
1032.233	979.58
1032.522	957.21
1032.81	942.07
1033.099	956.08
1033.387	953.82
1033.675	963.99
1033.963	965.79
1034.251	927.15
1034.54	954.95
1034.828	933.93
1035.116	935.74
1035.403	907.04
1035.691	893.93
1035.979	885.34
1036.267	906.59
1036.554	895.97
1036.842	896.42
1037.129	894.38
1037.417	871.11
1037.704	880.15
1037.992	873.82
1038.279	874.27
1038.566	837.44
1038.853	837.44
1039.14	837.44
