Data from hue_38_FLMS001491_00051.txt Node
Date: Tue Feb 07 17:31:40 GMT 2017
User: dcchb
Spectrometer: FLMS00149
Trigger mode: 0
Integration Time (sec): 2.000000E-2
Scans to average: 10
Electric dark correction enabled: true
Nonlinearity correction enabled: false
Boxcar width: 0
XAxis mode: Wavelengths
Number of Pixels in Spectrum: 2048
>>>>>Begin Spectral Data<<<<<
341.393	-12.22
341.776	-12.22
342.16	-12.22
342.543	-61.71
342.927	-70.29
343.31	-79.11
343.693	-64.87
344.077	-60.13
344.46	-47.92
344.843	-52.89
345.226	-57.64
345.61	-22.84
345.993	-25.55
346.376	-2.05
346.759	28.91
347.142	24.17
347.525	56.03
347.908	44.5
348.291	75.01
348.674	87.89
349.057	96.48
349.44	129.47
349.823	140.32
350.206	181.9
350.588	196.14
350.971	209.7
351.354	214.44
351.737	244.05
352.119	268.23
352.502	274.33
352.884	270.49
353.267	293.31
353.65	287.44
354.032	306.87
354.414	311.84
354.797	331.05
355.179	311.39
355.562	317.49
355.944	314.55
356.326	324.5
356.709	332.63
357.091	324.95
357.473	338.73
357.855	324.5
358.238	338.28
358.62	346.42
359.002	336.7
359.384	339.86
359.766	336.93
360.148	355.46
360.53	335.8
360.912	335.34
361.294	321.33
361.676	313.65
362.057	350.94
362.439	336.7
362.821	343.71
363.203	339.86
363.584	344.16
363.966	319.07
364.348	319.07
364.729	331.95
365.111	312.29
365.493	313.88
365.874	296.48
366.256	318.85
366.637	315.01
367.019	295.35
367.4	296.7
367.781	317.72
368.163	323.37
368.544	322.24
368.925	298.06
369.306	333.08
369.688	310.49
370.069	293.09
370.45	313.2
370.831	329.69
371.212	314.1
371.593	288.79
371.974	313.65
372.355	305.51
372.736	312.07
373.117	317.04
373.498	312.97
373.879	338.51
374.26	305.97
374.641	297.83
375.021	327.21
375.402	322.24
375.783	346.42
376.163	317.04
376.544	344.61
376.925	335.8
377.305	324.95
377.686	321.33
378.066	313.42
378.447	325.63
378.827	332.41
379.208	329.02
379.588	329.92
379.968	313.88
380.349	321.79
380.729	312.52
381.109	324.95
381.489	333.99
381.87	343.03
382.25	314.1
382.63	322.24
383.01	324.5
383.39	337.38
383.77	337.38
384.15	336.7
384.53	370.15
384.91	342.58
385.29	356.13
385.67	340.32
386.049	359.75
386.429	345.29
386.809	368.79
387.189	352.07
387.568	366.53
387.948	382.35
388.328	355
388.707	369.92
389.087	356.59
389.466	387.77
389.846	370.37
390.225	374.21
390.605	381.22
390.984	352.74
391.363	353.65
391.743	365.63
392.122	391.39
392.501	366.76
392.881	395.46
393.26	380.99
393.639	378.06
394.018	366.3
394.397	375.34
394.776	393.87
395.155	374.89
395.534	368.11
395.913	387.55
396.292	379.86
396.671	386.42
397.05	393.2
397.429	388.45
397.808	394.55
398.186	383.03
398.565	394.78
398.944	385.96
399.323	392.07
399.701	394.55
400.08	402.69
400.458	382.35
400.837	397.04
401.215	405.62
401.594	420.54
401.972	421.44
402.351	395
402.729	397.72
403.107	411.05
403.486	426.42
403.864	414.66
404.242	425.51
404.62	394.33
404.999	427.55
405.377	439.3
405.755	450.37
406.133	449.92
406.511	430.71
406.889	446.75
407.267	441.78
407.645	437.71
408.023	441.56
408.401	441.33
408.779	459.63
409.156	433.42
409.534	450.14
409.912	456.92
410.29	445.85
410.667	468.22
411.045	479.07
411.422	455.34
411.8	465.96
412.178	476.81
412.555	476.13
412.933	485.62
413.31	461.89
413.687	491.72
414.065	496.02
414.442	496.24
414.819	486.07
415.197	506.87
415.574	494.21
415.951	526.98
416.328	483.14
416.705	518.62
417.082	518.84
417.46	514.1
417.837	529.24
418.214	520.42
418.591	540.08
418.967	525.85
419.344	538.95
419.721	548.45
420.098	511.84
420.475	546.64
420.852	554.77
421.228	555.45
421.605	537.15
421.982	558.62
422.358	552.51
422.735	579.18
423.111	568.11
423.488	604.04
423.864	555
424.241	586.19
424.617	562.68
424.994	575.56
425.37	573.76
425.746	569.01
426.123	570.37
426.499	587.99
426.875	587.54
427.251	586.64
427.627	605.39
428.003	605.17
428.379	597.71
428.756	617.14
429.132	598.61
429.507	627.77
429.883	641.1
430.259	623.7
430.635	667.99
431.011	649.69
431.387	686.75
431.763	668.22
432.138	657.14
432.514	679.97
432.89	673.87
433.265	714.09
433.641	695.11
434.016	683.13
434.392	688.78
434.767	690.14
435.143	724.26
435.518	727.42
435.894	740.76
436.269	747.76
436.644	743.02
437.02	763.58
437.395	762.9
437.77	786.41
438.145	778.95
438.52	756.58
438.895	775.33
439.271	782.56
439.646	785.05
440.021	790.93
440.395	798.61
440.77	793.41
441.145	805.39
441.52	829.57
441.895	793.64
442.27	843.81
442.645	814.65
443.019	846.74
443.394	819.63
443.769	849.23
444.143	826.86
444.518	849.91
444.892	855.56
445.267	861.43
445.641	893.97
446.016	867.53
446.39	871.6
446.764	865.27
447.139	883.13
447.513	875.67
447.887	886.97
448.262	900.75
448.636	907.08
449.01	906.63
449.384	905.5
449.758	906.18
450.132	940.07
450.506	945.27
450.88	947.53
451.254	952.73
451.628	950.02
452.002	948.66
452.376	986.4
452.75	946.18
453.123	980.53
453.497	993.41
453.871	978.94
454.244	1018.72
454.618	1014.65
454.992	1007.87
455.365	1015.55
455.739	1048.32
456.112	1089
456.486	1071.37
456.859	1080.18
457.232	1087.87
457.606	1086.96
457.979	1131.48
458.352	1147.75
458.725	1125.61
459.099	1142.1
459.472	1153.63
459.845	1176.45
460.218	1204.93
460.591	1181.42
460.964	1194.98
461.337	1229.33
461.71	1238.82
462.083	1241.08
462.456	1269.11
462.829	1299.16
463.201	1295.55
463.574	1275.66
463.947	1298.03
464.32	1351.36
464.692	1358.14
465.065	1349.1
465.438	1383
465.81	1383.45
466.183	1403.34
466.555	1448.54
466.928	1458.93
467.3	1465.26
467.672	1515.2
468.045	1528.53
468.417	1564.92
468.789	1549.32
469.161	1589.32
469.534	1579.38
469.906	1651.24
470.278	1666.16
470.65	1704.12
471.022	1723.78
471.394	1738.25
471.766	1788.87
472.138	1766.72
472.51	1864.8
472.882	1870.67
473.253	1894.4
473.625	1940.95
473.997	2001.97
474.369	2017.33
474.74	2029.54
475.112	2106.82
475.484	2137.56
475.855	2174.39
476.227	2225.69
476.598	2308.17
476.97	2321.28
477.341	2356.08
477.713	2407.83
478.084	2474.05
478.455	2546.59
478.827	2610.31
479.198	2709.52
479.569	2686.92
479.94	2801.72
480.311	2862.06
480.682	2935.28
481.053	3063.18
481.424	3079.68
481.795	3123.52
482.166	3254.59
482.537	3315.83
482.908	3400.8
483.279	3484.87
483.65	3577.52
484.021	3686.67
484.391	3745.2
484.762	3820
485.133	3888.02
485.503	3987.23
485.874	4108.8
486.244	4210.72
486.615	4292.3
486.985	4377.5
487.356	4485.52
487.726	4608.68
488.097	4742.91
488.467	4820.2
488.837	4944.94
489.207	5042.57
489.578	5139.74
489.948	5249.11
490.318	5354.42
490.688	5390.58
491.058	5567.75
491.428	5687.52
491.798	5717.12
492.168	5886.84
492.538	6034.86
492.908	6111.01
493.278	6291.35
493.648	6341.51
494.017	6431.23
494.387	6544.67
494.757	6690.21
495.126	6745.57
495.496	6814.5
495.866	6963.64
496.235	7031.21
496.605	7168.16
496.974	7262.85
497.344	7380.36
497.713	7417.42
498.082	7528.15
498.452	7694.47
498.821	7826.45
499.19	7772.66
499.559	7895.6
499.928	8071.64
500.298	8068.25
500.667	8227.11
501.036	8327.9
501.405	8415.81
501.774	8477.05
502.143	8560.21
502.512	8594.56
502.88	8715.24
503.249	8753.65
503.618	8840.21
503.987	8973.99
504.356	9020.09
504.724	9107.99
505.093	9201.33
505.462	9223.25
505.83	9311.38
506.199	9425.95
506.567	9625.27
506.936	9554.31
507.304	9690.35
507.672	9748.2
508.041	9782.33
508.409	9971.48
508.777	10069.33
509.145	10139.15
509.514	10084.47
509.882	10252.15
510.25	10284.24
510.618	10314.74
510.986	10426.6
511.354	10526.94
511.722	10646.03
512.09	10691.23
512.458	10696.2
512.826	10808.29
513.193	10894.84
513.561	10883.32
513.929	11105.46
514.297	11061.16
514.664	11191.1
515.032	11275.62
515.4	11349.52
515.767	11441.72
516.135	11489.85
516.502	11400.14
516.869	11673.35
517.237	11653.46
517.604	11662.73
517.972	11809.84
518.339	11855.72
518.706	11899.33
519.073	11941.59
519.44	12030.18
519.808	12177.07
520.175	12103.62
520.542	12328.25
520.909	12381.81
521.276	12415.48
521.643	12542.25
522.009	12623.38
522.376	12632.65
522.743	12697.28
523.11	12840.33
523.477	12911.06
523.843	13052.3
524.21	13080.55
524.577	13294.78
524.943	13296.81
525.31	13402.35
525.676	13512.17
526.043	13558.27
526.409	13555.79
526.776	13751.94
527.142	13839.17
527.508	13878.72
527.874	13933.63
528.241	14013.18
528.607	14069.22
528.973	14233.06
529.339	14199.61
529.705	14327.29
530.071	14435.31
530.437	14557.8
530.803	14610
531.169	14720.73
531.535	14638.92
531.901	14706.04
532.267	14864.23
532.632	14944.45
532.998	14934.96
533.364	15149.19
533.73	15152.36
534.095	15228.06
534.461	15313.48
534.826	15299.92
535.192	15393.93
535.557	15614.49
535.923	15529.3
536.288	15533.36
536.653	15727.03
537.019	15576.07
537.384	15769.06
537.749	15852
538.114	15923.18
538.479	15858.1
538.845	15963.86
539.21	16013.58
539.575	16135.61
539.94	16051.99
540.305	16287.92
540.67	16204.53
541.034	16357.07
541.399	16463.73
541.764	16432.77
542.129	16597.97
542.494	16583.05
542.858	16615.14
543.223	16721.13
543.587	16744.63
543.952	16727.23
544.316	16816.72
544.681	16890.62
545.045	16964.96
545.41	17085.19
545.774	17216.26
546.138	17188.46
546.503	17252.64
546.867	17190.95
547.231	17493.99
547.595	17426.65
547.959	17487.66
548.324	17557.26
548.688	17510.94
549.052	17681.1
549.416	17615.57
549.779	17664.38
550.143	17809.01
550.507	17894.43
550.871	17869.8
551.235	17920.87
551.599	18032.05
551.962	18160.64
552.326	18160.86
552.689	18288.54
553.053	18147.53
553.417	18339.16
553.78	18445.6
554.143	18509.78
554.507	18566.28
554.87	18642.89
555.234	18787.06
555.597	18697.12
555.96	18684.24
556.323	18861.18
556.686	18925.59
557.05	18983.22
557.413	19038.36
557.776	19065.25
558.139	19208.75
558.502	19219.59
558.865	19307.5
559.228	19429.98
559.59	19495.07
559.953	19573.26
560.316	19673.37
560.679	19776.19
561.041	19855.06
561.404	19801.5
561.767	19998.1
562.129	19867.03
562.492	20067.25
562.854	20092.11
563.217	20226.35
563.579	20250.3
563.941	20329.85
564.304	20377.53
564.666	20511.54
565.028	20569.84
565.39	20615.26
565.753	20639.67
566.115	20898.65
566.477	20862.49
566.839	20861.13
567.201	20991.98
567.563	21097.74
567.925	21222.25
568.287	21293.89
568.648	21195.13
569.01	21408.24
569.372	21551.96
569.734	21519.65
570.095	21620.21
570.457	21822.01
570.819	21958.05
571.18	21843.25
571.542	22042.12
571.903	21959.86
572.265	22211.83
572.626	22292.06
572.987	22357.59
573.349	22433.07
573.71	22532.73
574.071	22579.28
574.432	22794.19
574.794	22982.66
575.155	22948.54
575.516	22944.92
575.877	23145.82
576.238	23239.37
576.599	23339.49
576.96	23481.85
577.32	23519.59
577.681	23659.7
578.042	23877.55
578.403	23963.2
578.763	24039.35
579.124	24195.51
579.485	24467.82
579.845	24574.48
580.206	24672.78
580.566	24842.95
580.927	24913.91
581.287	25221.02
581.648	25258.98
582.008	25544.62
582.368	25537.17
582.728	25891.28
583.089	25944.39
583.449	26110.94
583.809	26385.05
584.169	26531.72
584.529	26739.85
584.889	27071.82
585.249	27086.96
585.609	27158.59
585.969	27487.17
586.329	27681.97
586.688	27994.5
587.048	28129.87
587.408	28241.5
587.768	28481.72
588.127	28696.41
588.487	28992.44
588.846	29340.91
589.206	29354.92
589.565	29563.5
589.925	29911.52
590.284	29932.31
590.643	30161.23
591.003	30422.24
591.362	30758.95
591.721	30936.12
592.08	31180.63
592.44	31518.25
592.799	31573.39
593.158	31779.04
593.517	31934.51
593.876	32083.89
594.235	32369.76
594.593	32537.44
594.952	32864.88
595.311	32985.11
595.67	33381.48
596.029	33675.03
596.387	33949.38
596.746	34045.87
597.104	33985.31
597.463	34207.45
597.822	34625.06
598.18	34684.27
598.538	34907.09
598.897	35284.26
599.255	35159.06
599.613	35863
599.972	35774.64
600.33	36091.92
600.688	36108.19
601.046	36340.5
601.404	36461.63
601.762	36709.08
602.12	36956.08
602.478	37092.57
602.836	37312.23
603.194	37294.37
603.552	37495.95
603.91	37521.71
604.268	37822.72
604.625	37864.53
604.983	38163.95
605.341	38125.76
605.698	38440.56
606.056	38636.71
606.413	38708.8
606.771	39090.94
607.128	39194.44
607.485	39032.41
607.843	39338.84
608.2	39531.38
608.557	39866.51
608.914	39800.75
609.272	39985.6
609.629	40104.69
609.986	40355.31
610.343	40279.83
610.7	40702.64
611.057	40671.91
611.414	40742.87
611.771	41017.21
612.127	41063.99
612.484	41209.75
612.841	41594.6
613.198	41397.77
613.554	41503.08
613.911	41826.46
614.267	41764.09
614.624	41810.64
614.98	42172.21
615.337	42359.32
615.693	42273.22
616.05	42275.94
616.406	42724.29
616.762	42447.01
617.118	42475.48
617.475	42757.51
617.831	42841.12
618.187	42922.93
618.543	42930.61
618.899	43158.17
619.255	43267.1
619.611	43193.2
619.967	43428.45
620.323	43587.77
620.678	43545.96
621.034	43416.7
621.39	43416.02
621.746	43552.51
622.101	44053.52
622.457	43757.03
622.812	43881.09
623.168	43910.02
623.523	44055.78
623.879	44384.36
624.234	43940.07
624.589	44113.18
624.945	44238.37
625.3	44272.27
625.655	44303.23
626.01	44382.32
626.365	44460.51
626.72	44313.4
627.075	44500.06
627.43	44446.5
627.785	44297.8
628.14	44514.07
628.495	44718.81
628.85	44564.01
629.205	44474.07
629.559	44719.71
629.914	44487.18
630.269	44529.89
630.623	44686.04
630.978	44434.98
631.332	44665.7
631.687	44695.76
632.041	44536.67
632.396	44735.31
632.75	44636.78
633.104	44541.87
633.459	44481.53
633.813	44533.5
634.167	44518.14
634.521	44598.14
634.875	44589.55
635.229	44684.69
635.583	44477.46
635.937	44473.62
636.291	44642.88
636.645	44545.93
636.999	44563.79
637.352	44633.61
637.706	44307.3
638.06	44533.5
638.413	44525.82
638.767	44420.51
639.121	44561.07
639.474	44327.86
639.828	44190.24
640.181	44282.44
640.534	44292.61
640.888	44367.63
641.241	44023.24
641.594	44090.58
641.947	44262.78
642.301	44164.47
642.654	44150.92
643.007	44130.35
643.36	44212.38
643.713	43982.11
644.066	44292.61
644.419	44025.49
644.771	43675.67
645.124	43324.95
645.477	43333.76
645.83	43067.55
646.182	42861.68
646.535	42816.94
646.888	42998.86
647.24	42638.19
647.593	42972.87
647.945	42911.85
648.298	42534.69
648.65	42661.91
649.002	42609.94
649.355	42768.8
649.707	42740.33
650.059	42918.63
650.411	43279.3
650.763	43343.7
651.115	43810.59
651.467	43729.91
651.819	43587.77
652.171	43522.01
652.523	43488.33
652.875	43450.82
653.227	43286.98
653.578	43665.28
653.93	43568.78
654.282	43351.61
654.633	43286.31
654.985	43387.32
655.337	43395.68
655.688	43420.77
656.039	43526.3
656.391	43104.16
656.742	43195.01
657.094	43194.1
657.445	43414.89
657.796	43224.39
658.147	43260.32
658.498	43208.12
658.849	43358.85
659.2	43239.3
659.551	43071.62
659.902	43194.33
660.253	43010.83
660.604	43249.7
660.955	43086.08
661.306	43216.93
661.656	43174.22
662.007	43004.28
662.358	43086.76
662.708	42968.8
663.059	43032.98
663.409	42933.09
663.76	43227.78
664.11	43150.72
664.461	43125.18
664.811	43119.53
665.161	43070.04
665.511	43011.06
665.862	42882.02
666.212	43075.01
666.562	43131.51
666.912	42982.36
667.262	42856.03
667.612	42944.62
667.962	42922.7
668.312	42981.68
668.662	43220.54
669.011	43138.06
669.361	43048.12
669.711	43033.2
670.06	42884.51
670.41	42846.77
670.76	42794.34
671.109	42832.98
671.459	42777.39
671.808	42762.25
672.157	42869.14
672.507	42545.31
672.856	42635.25
673.205	42622.59
673.554	42769.93
673.904	42693.78
674.253	42960.66
674.602	42719.54
674.951	42169.27
675.3	41963.18
675.649	42697.39
675.998	42650.84
676.346	42494.24
676.695	42707.11
677.044	42387.35
677.393	42590.05
677.741	42541.47
678.09	42416.95
678.438	42281.81
678.787	42459.66
679.135	42521.35
679.484	42017.64
679.832	42302.83
680.181	42189.16
680.529	42254.92
680.877	42172.89
681.225	42017.64
681.573	42380.79
681.922	41933.57
682.27	41862.84
682.618	41910.3
682.966	41746.91
683.314	41816.51
683.661	41703.75
684.009	41455.84
684.357	41454.26
684.705	41306.24
685.053	41506.92
685.4	41389.18
685.748	41257.66
686.095	41339.24
686.443	41100.15
686.79	41026.93
687.138	41148.73
687.485	41090.66
687.832	40996.65
688.18	40987.61
688.527	40858.12
688.874	40826.03
689.221	40765.92
689.568	40632.14
689.915	40550.78
690.262	40653.61
690.609	40410.9
690.956	40194.18
691.303	40196.22
691.65	40038.03
691.997	39981.31
692.344	39854.31
692.69	39826.96
693.037	39908.77
693.383	39568.21
693.73	39666.06
694.077	39401.89
694.423	39376.13
694.769	39391.49
695.116	39247.54
695.462	39247.09
695.808	39000.99
696.155	39156.47
696.501	38831.51
696.847	38853.65
697.193	38567.79
697.539	38857.04
697.885	38583.83
698.231	38502.93
698.577	38500.89
698.923	38335.48
699.269	38259.09
699.614	38101.36
699.96	37980
700.306	38002.38
700.651	37765.32
700.997	37776.39
701.342	37709.95
701.688	37592.22
702.033	37490.75
702.379	37380.7
702.724	37211.21
703.069	37374.82
703.415	37128.28
703.76	37125.79
704.105	37077.88
704.45	36864.78
704.795	36678.34
705.14	36643.54
705.485	36608.97
705.83	36483.55
706.175	36443.55
706.52	36333.04
706.865	36261.18
707.209	36299.82
707.554	36115.65
707.899	36201.29
708.243	35948.42
708.588	35910.45
708.932	35578.49
709.277	35703.23
709.621	35721.76
709.966	35450.35
710.31	35491.71
710.654	35294.88
710.998	35347.76
711.342	35314.54
711.687	35234.54
712.031	35146.86
712.375	34939.41
712.719	34977.82
713.063	34993.19
713.407	34967.88
713.75	34878.16
714.094	34757.04
714.438	34627.1
714.782	34551.17
715.125	34400.21
715.469	34578.96
715.812	34384.62
716.156	34182.82
716.499	34241.12
716.843	34256.71
717.186	34043.84
717.53	34281.12
717.873	34233.89
718.216	33900.11
718.559	33846.55
718.902	33650.4
719.246	33835.48
719.589	33614.92
719.932	33579.44
720.275	33436.17
720.617	33525.21
720.96	33459.67
721.303	33417.86
721.646	33438.65
721.989	33172.67
722.331	33364.53
722.674	33313.46
723.016	33173.35
723.359	33189.62
723.701	33218.32
724.044	32850.2
724.386	32796.19
724.729	33116.4
725.071	32917.09
725.413	32858.33
725.755	32825.56
726.097	32740.82
726.439	32570.65
726.782	32565.68
727.124	32665.79
727.465	32473.93
727.807	32451.11
728.149	32423.99
728.491	32174.28
728.833	32513.03
729.175	32196.65
729.516	32128.63
729.858	32144.9
730.199	32233.94
730.541	32084.11
730.882	32150.78
731.224	32190.33
731.565	31801.86
731.906	31918.69
732.248	31795.31
732.589	31778.36
732.93	31628.98
733.271	31622.21
733.612	31711.92
733.953	31590.12
734.294	31481.87
734.635	31499.04
734.976	31595.31
735.317	31393.06
735.658	31465.15
735.999	31423.11
736.339	31237.36
736.68	31390.57
737.021	31292.5
737.361	31123.24
737.702	31262.89
738.042	31120.98
738.383	31025.38
738.723	31135.89
739.063	30965.95
739.404	30982.67
739.744	30814.32
740.084	30708.56
740.424	30823.81
740.764	30743.81
741.104	30766.86
741.444	30591.95
741.784	30570.93
742.124	30623.59
742.464	30480.09
742.804	30537.04
743.143	30463.59
743.483	30441.9
743.823	30278.96
744.162	30183.82
744.502	30260.21
744.841	30191.73
745.181	30295.23
745.52	30141.11
745.86	30134.79
746.199	30108.35
746.538	29952.42
746.877	30134.79
747.216	30096.37
747.556	29980.21
747.895	29983.83
748.234	29922.59
748.573	29840.33
748.911	29763.5
749.25	29710.84
749.589	29708.36
749.928	29551.3
750.267	29708.81
750.605	29499.1
750.944	29481.7
751.283	29264.53
751.621	29531.64
751.96	29199.9
752.298	29312.89
752.636	29334.36
752.975	29121.03
753.313	29139.33
753.651	29198.77
753.989	28965.1
754.327	28994.7
754.666	28752.68
755.004	28826.35
755.342	28877.64
755.679	28750.42
756.017	28630.65
756.355	28637.42
756.693	28555.62
757.031	28582.96
757.368	28402.4
757.706	28377.54
758.044	28191.11
758.381	28352.01
758.719	28140.04
759.056	28256.64
759.394	28085.12
759.731	27893.26
760.068	27881.74
760.405	27753.38
760.743	27653.27
761.08	27777.11
761.417	27639.71
761.754	27585.48
762.091	27576.44
762.428	27390.68
762.765	27347.29
763.102	27408.3
763.438	27108.65
763.775	27192.49
764.112	27142.55
764.449	27022.1
764.785	26951.37
765.122	26734.42
765.458	26716.35
765.795	26484.26
766.131	26613.52
766.467	26463.24
766.804	26418.73
767.14	26198.85
767.476	26328.79
767.812	26083.14
768.148	26094.44
768.485	25901.23
768.821	25818.52
769.157	25873.43
769.492	25732.87
769.828	25708.46
770.164	25456.27
770.5	25452.65
770.836	25337.85
771.171	25312.31
771.507	25147.12
771.842	24945.32
772.178	25004.53
772.513	24924.3
772.849	24843.17
773.184	24749.17
773.519	24722.5
773.855	24671.65
774.19	24566.8
774.525	24455.39
774.86	24406.12
775.195	24313.47
775.53	24274.38
775.865	24167.26
776.2	23928.4
776.535	23826.48
776.87	23853.82
777.205	23716.42
777.539	23565.24
777.874	23732.02
778.209	23471.69
778.543	23409.54
778.878	23221.75
779.212	23280.73
779.547	23121.86
779.881	23233.5
780.215	23120.06
780.55	23041.87
780.884	22804.81
781.218	22824.24
781.552	22812.49
781.886	22690.69
782.22	22618.15
782.554	22466.74
782.888	22315.33
783.222	22240.76
783.556	22139.74
783.889	22110.36
784.223	21967.32
784.557	21843.71
784.89	21958.5
785.224	21856.13
785.557	21713.77
785.891	21561
786.224	21587.44
786.558	21523.49
786.891	21322.36
787.224	21232.65
787.557	21312.42
787.891	21180.67
788.224	21081.47
788.557	21184.97
788.89	21035.82
789.223	20984.29
789.556	20821.36
789.888	20712.44
790.221	20793.11
790.554	20540.24
790.887	20609.61
791.219	20462.72
791.552	20367.13
791.884	20387.02
792.217	20208.95
792.549	20227.93
792.882	20048.27
793.214	19950.2
793.546	20069.06
793.879	19937.77
794.211	19929.63
794.543	19893.47
794.875	19782.74
795.207	19771.67
795.539	19624.78
795.871	19534.61
796.203	19434.5
796.535	19359.7
796.867	19368.06
797.198	19232.93
797.53	19272.02
797.862	19128.75
798.193	19182.31
798.525	19062.76
798.856	19094.85
799.188	18827.97
799.519	18728.08
799.85	18668.65
800.182	18756.55
800.513	18619.16
800.844	18522.44
801.175	18640.4
801.506	18568.54
801.837	18354.76
802.168	18360.86
802.499	18376
802.83	18258.49
803.161	18238.38
803.491	18245.61
803.822	18141.88
804.153	18054.65
804.483	17905.73
804.814	17864.6
805.145	17865.73
805.475	17862.79
805.805	17819.86
806.136	17733.53
806.466	17811.72
806.796	17684.94
807.126	17623.7
807.457	17544.61
807.787	17460.09
808.117	17496.47
808.447	17389.59
808.777	17371.05
809.107	17303.71
809.436	17293.54
809.766	17203.83
810.096	17187.1
810.426	17009.93
810.755	17174.22
811.085	17042.02
811.414	16963.16
811.744	16903.72
812.073	16842.48
812.403	16880.67
812.732	16683.61
813.061	16702.6
813.39	16553.67
813.719	16557.06
814.049	16635.93
814.378	16537.63
814.707	16593.22
815.036	16428.03
815.365	16463.73
815.693	16276.39
816.022	16296.73
816.351	16245.89
816.68	16121.6
817.008	16233.01
817.337	15930.19
817.665	16056.96
817.994	16058.77
818.322	16038.21
818.651	15916.4
818.979	15875.27
819.307	15984.2
819.636	15805.22
819.964	15795.05
820.292	15844.54
820.62	15884.31
820.948	15747.59
821.276	15844.99
821.604	15791.21
821.932	15774.71
822.259	15731.32
822.587	15733.81
822.915	15759.8
823.243	15783.07
823.57	15689.29
823.898	15687.26
824.225	15627.82
824.553	15685.9
824.88	15702.85
825.207	15665.56
825.535	15692.91
825.862	15681.61
826.189	15588.95
826.516	15721.15
826.843	15765.22
827.17	15659.24
827.497	15736.3
827.824	15630.54
828.151	15722.28
828.478	15673.92
828.805	15779.68
829.131	15545.11
829.458	15615.39
829.785	15532.91
830.111	15672.12
830.438	15672.79
830.764	15640.7
831.09	15666.01
831.417	15548.96
831.743	15568.39
832.069	15578.79
832.395	15486.58
832.722	15618.56
833.048	15553.25
833.374	15567.49
833.7	15471.22
834.026	15443.42
834.351	15496.98
834.677	15540.37
835.003	15522.52
835.329	15500.14
835.654	15484.55
835.98	15335.85
836.306	15420.37
836.631	15337.89
836.956	15382.86
837.282	15250.88
837.607	15275.74
837.932	15202.75
838.258	15248.4
838.583	15199.36
838.908	15143.77
839.233	15086.82
839.558	15143.32
839.883	15114.84
840.208	15002.98
840.533	15044.79
840.858	15055.18
841.182	14946.71
841.507	14937.22
841.832	14857.22
842.156	14861.74
842.481	14878.92
842.805	14813.61
843.13	14892.02
843.454	14763.44
843.778	14705.59
844.103	14589.66
844.427	14564.35
844.751	14622.43
845.075	14545.59
845.399	14535.2
845.723	14495.2
846.047	14461.53
846.371	14384.24
846.695	14390.79
847.019	14237.13
847.343	14209.33
847.666	14146.28
847.99	14030.13
848.313	14065.15
848.637	13988.54
848.96	13905.83
849.284	13937.92
849.607	13793.3
849.931	13751.49
850.254	13643.24
850.577	13619.51
850.9	13504.94
851.223	13571.38
851.546	13453.19
851.869	13373.42
852.192	13356.47
852.515	13294.55
852.838	13252.52
853.161	13270.37
853.483	13134.78
853.806	13213.88
854.129	13176.14
854.451	13001.9
854.774	12975.69
855.096	12892.53
855.419	12923.71
855.741	12846.88
856.063	12764.17
856.385	12782.93
856.708	12685.08
857.03	12689.37
857.352	12687.79
857.674	12643.72
857.996	12531.18
858.318	12516.04
858.64	12496.15
858.961	12428.36
859.283	12442.14
859.605	12342.49
859.926	12317.85
860.248	12463.84
860.57	12324.63
860.891	12295.26
861.212	12205.77
861.534	12206.44
861.855	12085.77
862.176	12206.22
862.498	12134.58
862.819	12141.81
863.14	12142.72
863.461	12131.64
863.782	12023.85
864.103	12032.21
864.424	11987.92
864.745	12053
865.065	12013.46
865.386	11873.35
865.707	11944.53
866.027	12002.83
866.348	11908.83
866.668	11913.57
866.989	11858.66
867.309	11809.62
867.63	11733.46
867.95	11757.64
868.27	11641.94
868.59	11732.56
868.91	11671.54
869.23	11644.65
869.55	11632.9
869.87	11706.57
870.19	11590.19
870.51	11686.91
870.83	11617.53
871.15	11510.19
871.469	11573.24
871.789	11609.17
872.109	11515.62
872.428	11399.46
872.748	11470.64
873.067	11460.02
873.386	11433.36
873.706	11481.72
874.025	11425.45
874.344	11313.13
874.663	11342.96
874.982	11286.47
875.301	11307.03
875.62	11270.42
875.939	11232.23
876.258	11267.26
876.577	11241.27
876.896	11254.38
877.214	11159.92
877.533	11186.58
877.852	11149.3
878.17	11121.73
878.489	11154.95
878.807	11142.29
879.125	11076.98
879.444	11138.22
879.762	10993.6
880.08	11062.07
880.398	10987.95
880.716	10940.72
881.034	10929.42
881.352	10966.7
881.67	10902.98
881.988	10874.73
882.306	10889.19
882.624	10846.71
882.941	10798.57
883.259	10738.01
883.577	10764.9
883.894	10750.21
884.212	10643.32
884.529	10742.08
884.846	10671.34
885.164	10704.79
885.481	10597.45
885.798	10607.62
886.115	10483.1
886.432	10538.69
886.75	10476.32
887.067	10479.03
887.383	10424.57
887.7	10499.37
888.017	10457.11
888.334	10408.53
888.651	10364.91
888.967	10329.88
889.284	10284.91
889.6	10274.07
889.917	10273.16
890.233	10237.46
890.55	10166.72
890.866	10200.17
891.182	10070.68
891.498	10141.19
891.815	10042.21
892.131	10004.02
892.447	10038.37
892.763	9980.06
893.079	9954.98
893.395	9909.56
893.71	9866.85
894.026	9848.99
894.342	9866.85
894.657	9840.86
894.973	9828.88
895.289	9771.03
895.604	9820.29
895.92	9665.27
896.235	9660.75
896.55	9659.17
896.865	9593.41
897.181	9627.53
897.496	9564.03
897.811	9522.9
898.126	9516.35
898.441	9427.53
898.756	9346.18
899.071	9349.8
899.386	9446.52
899.7	9284.26
900.015	9264.38
900.33	9141.21
900.644	9216.92
900.959	9193.87
901.273	9164.49
901.588	9128.79
901.902	9032.97
902.216	9025.96
902.531	9005.4
902.845	9029.13
903.159	8922.01
903.473	8863.48
903.787	8863.71
904.101	8818.74
904.415	8787.1
904.729	8735.8
905.042	8701
905.356	8671.62
905.67	8634.11
905.984	8693.09
906.297	8658.52
906.611	8612.87
906.924	8600.21
907.237	8494.23
907.551	8539.2
907.864	8504.85
908.177	8492.42
908.491	8423.04
908.804	8326.32
909.117	8339.65
909.43	8267.11
909.743	8228.92
910.056	8228.24
910.368	8157.74
910.681	8167.68
910.994	8114.57
911.307	8096.72
911.619	8032.09
911.932	7992.54
912.244	7960
912.557	7962.94
912.869	7863.73
913.181	7929.04
913.494	7895.6
913.806	7828.48
914.118	7773.34
914.43	7704.87
914.742	7734.25
915.054	7694.02
915.366	7667.81
915.678	7623.51
915.99	7576.96
916.302	7534.03
916.613	7507.59
916.925	7449.28
917.236	7427.81
917.548	7387.81
917.859	7414.48
918.171	7367.25
918.482	7348.27
918.794	7284.99
919.105	7310.08
919.416	7232.56
919.727	7249.74
920.038	7212.9
920.349	7138.56
920.66	7091.55
920.971	7088.61
921.282	7062.17
921.593	7103.53
921.903	6964.32
922.214	6958.22
922.525	6963.19
922.835	6936.53
923.146	6857.88
923.456	6887.04
923.767	6850.88
924.077	6803.65
924.387	6743.99
924.697	6730.43
925.008	6767.04
925.318	6669.64
925.628	6731.56
925.938	6649.75
926.248	6560.49
926.558	6546.48
926.867	6550.1
927.177	6518.91
927.487	6437.1
927.796	6461.51
928.106	6405.47
928.416	6378.58
928.725	6405.92
929.034	6378.35
929.344	6316.2
929.653	6317.11
929.962	6282.98
930.271	6211.8
930.581	6195.98
930.89	6226.94
931.199	6134.51
931.508	6145.81
931.817	6122.54
932.125	6094.29
932.434	6049.54
932.743	6032.82
933.051	5953.73
933.36	5990.79
933.669	5971.81
933.977	5944.46
934.286	5898.36
934.594	5863.11
934.902	5825.6
935.21	5867.4
935.519	5821.08
935.827	5817.91
936.135	5743.34
936.443	5718.71
936.751	5719.84
937.059	5699.05
937.367	5646.62
937.674	5669.67
937.982	5638.93
938.29	5588.31
938.597	5563.91
938.905	5530.46
939.213	5522.33
939.52	5470.12
939.827	5439.16
940.135	5418.37
940.442	5409.34
940.749	5375.21
941.056	5441.2
941.363	5348.09
941.67	5276.01
941.977	5301.09
942.284	5251.6
942.591	5216.35
942.898	5231.94
943.205	5234.65
943.511	5128.21
943.818	5172.05
944.125	5118.95
944.431	5172.51
944.738	5150.81
945.044	5073.52
945.35	5003.02
945.657	5013.87
945.963	5012.06
946.269	4960.76
946.575	4970.02
946.881	4912.17
947.187	4930.48
947.493	4954.88
947.799	4890.25
948.105	4906.98
948.41	4919.63
948.716	4878.28
949.022	4831.5
949.327	4794.66
949.633	4740.88
949.938	4779.97
950.244	4749.92
950.549	4724.83
950.854	4645.97
951.16	4681.67
951.465	4661.78
951.77	4624.5
952.075	4612.52
952.38	4560.54
952.685	4603.93
952.99	4546.76
953.294	4528
953.599	4488.23
953.904	4468.34
954.209	4412.53
954.513	4427.89
954.818	4413.66
955.122	4397.38
955.426	4330.72
955.731	4337.27
956.035	4352.87
956.339	4308.8
956.643	4307.44
956.948	4259.08
957.252	4233.09
957.556	4239.42
957.86	4203.94
958.163	4204.17
958.467	4184.28
958.771	4177.73
959.075	4165.98
959.378	4125.53
959.682	4123.72
959.985	4116.26
960.289	4061.57
960.592	4038.75
960.896	4050.05
961.199	4018.86
961.502	4015.93
961.805	4010.28
962.108	3961.24
962.411	3920.11
962.714	3878.3
963.017	3920.79
963.32	3945.42
963.623	3913.56
963.926	3871.07
964.228	3852.99
964.531	3813.9
964.833	3865.42
965.136	3775.03
965.438	3766.44
965.741	3740.45
966.043	3737.51
966.345	3744.52
966.648	3695.93
966.95	3693
967.252	3693.22
967.554	3671.75
967.856	3680.34
968.158	3620.68
968.46	3639.44
968.761	3613
969.063	3595.6
969.365	3536.39
969.666	3565.54
969.968	3516.96
970.269	3528.25
970.571	3509.72
970.872	3479.67
971.174	3476.96
971.475	3499.1
971.776	3470.18
972.077	3442.38
972.378	3418.2
972.679	3434.7
972.98	3412.33
973.281	3380.24
973.582	3372.55
973.883	3360.35
974.183	3341.82
974.484	3329.84
974.785	3298.43
975.085	3264.53
975.386	3323.51
975.686	3287.13
975.986	3244.42
976.287	3217.3
976.587	3216.4
976.887	3221.37
977.187	3222.5
977.487	3206.23
977.787	3158.77
978.087	3136.63
978.387	3135.5
978.687	3100.47
978.987	3089.85
979.286	3104.09
979.586	3112.22
979.885	3066.8
980.185	3041.71
980.484	3041.94
980.784	3049.62
981.083	3052.11
981.382	2977.31
981.682	3018.89
981.981	2959.23
982.28	2919.01
982.579	2932.34
982.878	2979.57
983.177	2920.14
983.475	2904.99
983.774	2899.34
984.073	2882.17
984.372	2889.85
984.67	2870.64
984.969	2860.48
985.267	2814.15
985.566	2850.53
985.864	2784.55
986.162	2789.29
986.461	2750.42
986.759	2765.34
987.057	2741.16
987.355	2737.32
987.653	2684.89
987.951	2726.02
988.249	2682.63
988.547	2720.82
988.844	2711.55
989.142	2696.86
989.44	2653.25
989.737	2662.51
990.035	2645.79
990.332	2589.75
990.63	2589.07
990.927	2601.05
991.224	2587.94
991.521	2579.58
991.819	2593.82
992.116	2567.6
992.413	2580.48
992.71	2507.72
993.006	2500.71
993.303	2501.16
993.6	2507.94
993.897	2494.61
994.193	2453.48
994.49	2453.71
994.787	2436.76
995.083	2404.44
995.379	2448.51
995.676	2403.09
995.972	2375.52
996.268	2394.95
996.565	2325.57
996.861	2352.92
997.157	2318.12
997.453	2325.12
997.749	2345.91
998.044	2305.69
998.34	2315.63
998.636	2271.34
998.932	2282.64
999.227	2268.4
999.523	2265.46
999.818	2242.64
1000.114	2222.3
1000.409	2215.07
1000.704	2216.88
1001	2239.25
1001.295	2176.88
1001.59	2130.55
1001.885	2143.66
1002.18	2159.03
1002.475	2150.66
1002.77	2122.87
1003.065	2060.95
1003.359	2095.52
1003.654	2092.36
1003.949	2078.8
1004.243	2088.52
1004.538	2045.58
1004.832	2046.26
1005.127	2052.14
1005.421	2023.21
1005.715	2037.9
1006.009	1970.33
1006.304	2004.45
1006.598	1980.27
1006.892	1973.72
1007.186	1985.24
1007.48	1953.83
1007.773	1963.32
1008.067	1963.55
1008.361	1902.31
1008.655	1911.35
1008.948	1875.64
1009.242	1903.89
1009.535	1861.41
1009.829	1860.95
1010.122	1892.37
1010.415	1834.51
1010.708	1822.76
1011.001	1810.11
1011.295	1784.57
1011.588	1791.13
1011.881	1775.76
1012.173	1777.57
1012.466	1766.04
1012.759	1743.22
1013.052	1723.78
1013.344	1760.39
1013.637	1748.19
1013.93	1740.51
1014.222	1714.07
1014.514	1701.41
1014.807	1664.35
1015.099	1658.47
1015.391	1681.75
1015.683	1652.37
1015.976	1645.59
1016.268	1654.18
1016.56	1605.82
1016.851	1622.99
1017.143	1632.94
1017.435	1601.07
1017.727	1560.62
1018.018	1582.54
1018.31	1546.39
1018.602	1544.35
1018.893	1543.45
1019.185	1522.88
1019.476	1503.45
1019.767	1508.19
1020.058	1506.61
1020.35	1493.96
1020.641	1493.28
1020.932	1463.9
1021.223	1475.2
1021.514	1448.76
1021.804	1449.44
1022.095	1424.13
1022.386	1417.8
1022.677	1388.2
1022.967	1396.33
1023.258	1376.45
1023.548	1375.54
1023.839	1371.7
1024.129	1383.68
1024.419	1398.37
1024.709	1336.22
1025	1337.58
1025.29	1357.69
1025.58	1312.72
1025.87	1319.73
1026.16	1288.77
1026.449	1283.79
1026.739	1284.7
1027.029	1314.08
1027.319	1270.46
1027.608	1266.85
1027.898	1297.13
1028.187	1230.46
1028.477	1251.7
1028.766	1234.76
1029.055	1232.04
1029.344	1220.74
1029.634	1224.36
1029.923	1228.2
1030.212	1194.08
1030.501	1188.88
1030.79	1184.59
1031.078	1143.01
1031.367	1183.91
1031.656	1154.08
1031.945	1167.64
1032.233	1151.14
1032.522	1128.54
1032.81	1150.46
1033.099	1136.23
1033.387	1067.3
1033.675	1090.13
1033.963	1096.91
1034.251	1109.11
1034.54	1099.17
1034.828	1094.19
1035.116	1070.92
1035.403	1053.52
1035.691	1039.96
1035.979	1071.82
1036.267	1040.86
1036.554	1044.25
1036.842	1034.53
1037.129	1013.29
1037.417	1027.08
1037.704	1017.59
1037.992	1010.58
1038.279	1001.99
1038.566	967.64
1038.853	967.64
1039.14	967.64
