Data from hue_180_FLMS001491_00038.txt Node
Date: Tue Feb 07 16:46:55 GMT 2017
User: dcchb
Spectrometer: FLMS00149
Trigger mode: 0
Integration Time (sec): 2.000000E-2
Scans to average: 10
Electric dark correction enabled: true
Nonlinearity correction enabled: false
Boxcar width: 0
XAxis mode: Wavelengths
Number of Pixels in Spectrum: 2048
>>>>>Begin Spectral Data<<<<<
341.393	-18.76
341.776	-18.76
342.16	-18.76
342.543	-57.85
342.927	-66.21
343.31	-46.1
343.693	-77.06
344.077	-64.18
344.46	-53.11
344.843	-51.3
345.226	-23.05
345.61	-24.86
345.993	-2.49
346.376	-1.36
346.759	-5.42
347.142	16.04
347.525	34.12
347.908	52.2
348.291	63.73
348.674	84.97
349.057	97.85
349.44	125.19
349.823	165.65
350.206	166.55
350.588	176.49
350.971	223.5
351.354	234.12
351.737	250.61
352.119	256.04
352.502	249.26
352.884	270.95
353.267	263.95
353.65	276.6
354.032	306.66
354.414	306.43
354.797	321.8
355.179	338.07
355.562	326.77
355.944	327.45
356.326	322.93
356.709	351.86
357.091	350.5
357.473	343.04
357.855	332.19
358.238	335.13
358.62	349.82
359.002	349.14
359.384	341.23
359.766	343.27
360.148	343.49
360.53	353.89
360.912	331.52
361.294	344.4
361.676	337.84
362.057	346.88
362.439	316.83
362.821	333.1
363.203	338.52
363.584	328.8
363.966	328.13
364.348	307.56
364.729	346.88
365.111	317.96
365.493	329.48
365.874	311.63
366.256	306.21
366.637	303.27
367.019	336.26
367.4	320.22
367.781	323.83
368.163	310.73
368.544	308.01
368.925	327.22
369.306	287
369.688	296.04
370.069	322.48
370.45	322.7
370.831	297.85
371.212	307.11
371.593	317.51
371.974	321.57
372.355	310.95
372.736	304.85
373.117	346.21
373.498	312.99
373.879	303.49
374.26	315.02
374.641	324.06
375.021	318.18
375.402	320.22
375.783	340.78
376.163	316.15
376.544	319.77
376.925	326.32
377.305	311.18
377.686	326.55
378.066	303.95
378.447	311.63
378.827	328.13
379.208	336.26
379.588	315.02
379.968	325.19
380.349	329.26
380.729	326.55
381.109	355.7
381.489	356.37
381.87	341.91
382.25	343.49
382.63	334.45
383.01	360.44
383.39	352.31
383.77	338.75
384.15	350.27
384.53	364.51
384.91	333.1
385.29	344.85
385.67	336.26
386.049	348.47
386.429	364.96
386.809	350.73
387.189	336.04
387.568	364.96
387.948	364.51
388.328	353.21
388.707	363.15
389.087	355.47
389.466	351.4
389.846	353.44
390.225	368.35
390.605	382.36
390.984	350.5
391.363	379.2
391.743	366.32
392.122	369.48
392.501	376.26
392.881	383.72
393.26	386.2
393.639	371.52
394.018	390.72
394.397	389.59
394.776	388.92
395.155	398.63
395.534	375.81
395.913	402.7
396.292	394.79
396.671	410.38
397.05	395.02
397.429	403.61
397.808	415.36
398.186	395.7
398.565	403.38
398.944	414.68
399.323	398.86
399.701	417.16
400.08	412.87
400.458	406.32
400.837	406.99
401.215	415.13
401.594	414.45
401.972	437.28
402.351	436.37
402.729	420.55
403.107	438.63
403.486	434.11
403.864	434.56
404.242	447.22
404.62	457.16
404.999	432.31
405.377	448.8
405.755	432.76
406.133	458.74
406.511	444.06
406.889	464.85
407.267	474.79
407.645	471.4
408.023	479.31
408.401	480.89
408.779	510.95
409.156	501
409.534	491.29
409.912	503.49
410.29	524.28
410.667	516.6
411.045	519.53
411.422	529.25
411.8	536.48
412.178	525.18
412.555	549.59
412.933	551.85
413.31	572.64
413.687	602.24
414.065	594.79
414.442	573.77
414.819	592.75
415.197	624.62
415.574	606.31
415.951	598.63
416.328	622.36
416.705	625.75
417.082	655.58
417.46	644.95
417.837	622.81
418.214	642.92
418.591	656.93
418.967	655.35
419.344	670.49
419.721	691.51
420.098	710.94
420.475	689.47
420.852	710.49
421.228	718.17
421.605	717.27
421.982	738.29
422.358	757.49
422.735	771.28
423.111	765.18
423.488	784.16
423.864	802.69
424.241	789.58
424.617	810.83
424.994	789.13
425.37	794.56
425.746	805.4
426.123	873.42
426.499	837.49
426.875	857.15
427.251	863.71
427.627	913.42
428.003	915.91
428.379	912.52
428.756	922.01
429.132	931.5
429.507	951.84
429.883	948
430.259	966.98
430.635	978.05
431.011	985.06
431.387	1007.21
431.763	1009.24
432.138	995.45
432.514	1052.63
432.89	1050.82
433.265	1078.84
433.641	1063.47
434.016	1109.58
434.392	1102.12
434.767	1132.17
435.143	1144.6
435.518	1157.71
435.894	1194.54
436.269	1190.93
436.644	1204.94
437.02	1228.44
437.395	1205.17
437.77	1258.27
438.145	1276.12
438.52	1301.43
438.895	1330.59
439.271	1350.92
439.646	1352.28
440.021	1368.55
440.395	1405.61
440.77	1371.49
441.145	1394.77
441.52	1426.63
441.895	1419.62
442.27	1444.93
442.645	1461.88
443.019	1488.77
443.394	1491.26
443.769	1518.15
444.143	1508.66
444.518	1543.24
444.892	1546.85
445.267	1543.91
445.641	1587.98
446.016	1573.29
446.39	1591.6
446.764	1612.61
447.139	1586.85
447.513	1616.45
447.887	1617.36
448.262	1674.98
448.636	1650.58
449.01	1728.09
449.384	1697.13
449.758	1731.25
450.132	1765.15
450.506	1747.3
450.88	1780.74
451.254	1753.63
451.628	1811.7
452.002	1801.31
452.376	1845.38
452.75	1872.04
453.123	1859.61
453.497	1940.74
453.871	1914.53
454.244	1957.69
454.618	1948.65
454.992	1980.74
455.365	2024.81
455.739	2048.31
456.112	2039.95
456.486	2082.21
456.859	2081.98
457.232	2164.01
457.606	2152.26
457.979	2145.25
458.352	2220.05
458.725	2266.16
459.099	2286.27
459.472	2303.44
459.845	2298.02
460.218	2331.92
460.591	2344.8
460.964	2351.35
461.337	2421.63
461.71	2470.44
462.083	2508.86
462.456	2484
462.829	2525.36
463.201	2548.41
463.574	2635.18
463.947	2621.63
464.32	2677.44
464.692	2745.24
465.065	2736.43
465.438	2796.54
465.81	2813.94
466.183	2850.55
466.555	2916.08
466.928	2948.17
467.3	2984.33
467.672	3004.44
468.045	3099.35
468.417	3108.17
468.789	3116.08
469.161	3179.58
469.534	3255.28
469.906	3306.58
470.278	3344.32
470.65	3381.15
471.022	3454.6
471.394	3522.39
471.766	3575.27
472.138	3625.67
472.51	3656.63
472.882	3737.08
473.253	3773.01
473.625	3864.08
473.997	3933.46
474.369	3967.58
474.74	4031.31
475.112	4099.78
475.484	4195.6
475.855	4245.09
476.227	4278.08
476.598	4445.53
476.97	4503.84
477.341	4662.7
477.713	4685.3
478.084	4723.27
478.455	4889.59
478.827	4885.97
479.198	5059.53
479.569	5118.96
479.94	5229.92
480.311	5307.21
480.682	5418.16
481.053	5551.49
481.424	5725.05
481.795	5753.97
482.166	5830.58
482.537	5940.41
482.908	6068.09
483.279	6163
483.65	6303.79
484.021	6413.84
484.391	6495.87
484.762	6597.79
485.133	6633.72
485.503	6801.18
485.874	6932.47
486.244	6983.55
486.615	7144.67
486.985	7170.88
487.356	7411.33
487.726	7432.8
488.097	7623.75
488.467	7648.61
488.837	7829.4
489.207	7883.86
489.578	8048.83
489.948	8129.5
490.318	8264.87
490.688	8322.72
491.058	8433.68
491.428	8535.59
491.798	8716.16
492.168	8870.73
492.538	8881.8
492.908	8990.72
493.278	9030.05
493.648	9113.21
494.017	9272.3
494.387	9296.93
494.757	9468.23
495.126	9601.33
495.496	9495.12
495.866	9640.65
496.235	9778.27
496.605	9792.28
496.974	9943.47
497.344	9988.66
497.713	10058.72
498.082	10088.77
498.452	10225.72
498.821	10137.13
499.19	10303.01
499.559	10373.06
499.928	10439.27
500.298	10541.19
500.667	10497.8
501.036	10506.62
501.405	10568.08
501.774	10679.04
502.143	10798.81
502.512	10742.54
502.88	10864.57
503.249	10847.17
503.618	10905.7
503.987	10938.24
504.356	11038.58
504.724	11027.73
505.093	11132.81
505.462	11051.69
505.83	11232.02
506.199	11288.97
506.567	11299.36
506.936	11252.81
507.304	11417.1
507.672	11429.76
508.041	11493.71
508.409	11503.88
508.777	11645.8
509.145	11624.55
509.514	11625.23
509.882	11590.66
510.25	11694.38
510.618	11700.94
510.986	11664.55
511.354	11797.66
511.722	11832.01
512.09	11946.8
512.458	11897.31
512.826	11954.49
513.193	11993.58
513.561	11972.57
513.929	12017.76
514.297	12103.41
514.664	12190.87
515.032	12170.53
515.4	12106.12
515.767	12203.75
516.135	12225.67
516.502	12056.63
516.869	12385.66
517.237	12271.09
517.604	12185.67
517.972	12359
518.339	12361.93
518.706	12304.99
519.073	12353.35
519.44	12341.6
519.808	12440.8
520.175	12365.55
520.542	12476.73
520.909	12458.43
521.276	12427.92
521.643	12490.75
522.009	12556.96
522.376	12565.55
522.743	12556.96
523.11	12756.73
523.477	12676.28
523.843	12706.33
524.21	12808.25
524.577	12730.29
524.943	12730.29
525.31	12822.04
525.676	12851.87
526.043	12788.36
526.409	12915.37
526.776	12905.42
527.142	12886.67
527.508	12859.77
527.874	12916.5
528.241	12928.02
528.607	12952.43
528.973	12879.21
529.339	12890.96
529.705	12939.77
530.071	13024.29
530.437	12954.46
530.803	12916.95
531.169	12966.89
531.535	12881.02
531.901	12830.62
532.267	12889.6
532.632	12857.29
532.998	12925.76
533.364	12880.79
533.73	12806.44
534.095	12783.62
534.461	12733.45
534.826	12910.17
535.192	12755.14
535.557	12783.84
535.923	12711.76
536.288	12688.25
536.653	12716.5
537.019	12565.32
537.384	12635.6
537.749	12590.86
538.114	12554.25
538.479	12442.84
538.845	12515.6
539.21	12427.7
539.575	12361.48
539.94	12363.52
540.305	12375.27
540.67	12279.68
541.034	12262.95
541.399	12204.65
541.764	12194.26
542.129	12217.31
542.494	12091.43
542.858	12124.65
543.223	12033.13
543.587	11999.01
543.952	11978.44
544.316	11863.64
544.681	11809.41
545.045	11804.44
545.41	11808.73
545.774	11796.3
546.138	11737.32
546.503	11698
546.867	11724.21
547.231	11699.13
547.595	11697.77
547.959	11528.51
548.324	11521.05
548.688	11493.03
549.052	11539.36
549.416	11459.81
549.779	11405.8
550.143	11375.97
550.507	11354.96
550.871	11294.62
551.235	11249.65
551.599	11303.88
551.962	11207.16
552.326	11197.9
552.689	11203.1
553.053	11093.95
553.417	11085.13
553.78	11104.34
554.143	11041.29
554.507	11051.91
554.87	10925.59
555.234	11097.34
555.597	10907.51
555.96	10966.94
556.323	10918.13
556.686	10881.52
557.05	10946.15
557.413	10866.38
557.776	10904.12
558.139	10915.65
558.502	10861.18
558.865	10767.63
559.228	10775.54
559.59	10802.88
559.953	10762.43
560.316	10865.48
560.679	10769.43
561.041	10822.09
561.404	10804.91
561.767	10718.14
562.129	10752.94
562.492	10827.06
562.854	10798.59
563.217	10737.34
563.579	10752.49
563.941	10779.15
564.304	10775.08
564.666	10808.08
565.028	10812.37
565.39	10794.97
565.753	10784.35
566.115	10846.49
566.477	10798.13
566.839	10834.97
567.201	10798.36
567.563	10825.48
567.925	10829.32
568.287	10823.67
568.648	10835.42
569.01	10879.71
569.372	10884.23
569.734	10841.07
570.095	10822.31
570.457	10878.81
570.819	10928.98
571.18	10850.11
571.542	10887.4
571.903	10886.04
572.265	10919.26
572.626	10887.4
572.987	10917.91
573.349	10975.08
573.71	10951.8
574.071	11008.3
574.432	10957
574.794	10926.72
575.155	10924.68
575.516	11006.49
575.877	10978.47
576.238	10950.67
576.599	11011.69
576.96	10930.56
577.32	10999.48
577.681	10927.4
578.042	10974.17
578.403	10936.21
578.763	10965.36
579.124	10998.35
579.485	10932.14
579.845	10960.16
580.206	10937.57
580.566	11013.95
580.927	10938.24
581.287	11007.85
581.648	10884.91
582.008	11022.54
582.368	10944.8
582.728	10944.12
583.089	10991.35
583.449	10879.94
583.809	10908.87
584.169	10950.45
584.529	10964.46
584.889	10949.32
585.249	10919.03
585.609	10913.39
585.969	10893.95
586.329	10789.32
586.688	10911.35
587.048	10795.87
587.408	10841.75
587.768	10771.47
588.127	10824.8
588.487	10806.04
588.846	10905.7
589.206	10851.47
589.565	10789.55
589.925	10795.87
590.284	10725.37
590.643	10736.89
591.003	10776.67
591.362	10836.55
591.721	10725.59
592.08	10698.7
592.44	10792.94
592.799	10722.66
593.158	10653.51
593.517	10718.81
593.876	10785.93
594.235	10740.96
594.593	10704.58
594.952	10738.7
595.311	10661.41
595.67	10694.18
596.029	10783.45
596.387	10745.03
596.746	10667.74
597.104	10677.23
597.463	10677.01
597.822	10667.29
598.18	10603.56
598.538	10600.63
598.897	10662.54
599.255	10593.62
599.613	10701.19
599.972	10614.18
600.33	10664.8
600.688	10586.16
601.046	10659.61
601.404	10691.24
601.762	10642.43
602.12	10712.26
602.478	10674.75
602.836	10689.66
603.194	10607.18
603.552	10644.24
603.91	10581.87
604.268	10645.14
604.625	10625.48
604.983	10626.61
605.341	10640.85
605.698	10608.08
606.056	10617.12
606.413	10651.02
606.771	10603.79
607.128	10653.73
607.485	10594.3
607.843	10650.12
608.2	10656.22
608.557	10706.39
608.914	10659.38
609.272	10722.2
609.629	10708.64
609.986	10741.19
610.343	10554.98
610.7	10725.37
611.057	10804.91
611.414	10691.02
611.771	10706.39
612.127	10740.96
612.484	10757.91
612.841	10736.89
613.198	10790.45
613.554	10739.38
613.911	10740.51
614.267	10771.02
614.624	10695.99
614.98	10821.86
615.337	10772.37
615.693	10862.77
616.05	10816.66
616.406	10878.81
616.762	10757.46
617.118	10773.5
617.475	10785.25
617.831	10855.76
618.187	10783.45
618.543	10933.5
618.899	10942.54
619.255	10957.45
619.611	10909.09
619.967	10904.8
620.323	10928.07
620.678	10838.81
621.034	10870.9
621.39	10884.69
621.746	10822.77
622.101	10914.97
622.457	10778.93
622.812	10916.78
623.168	10883.78
623.523	10891.47
623.879	10930.56
624.234	10853.73
624.589	10888.3
624.945	10899.37
625.3	10888.75
625.655	10870
626.01	10875.19
626.365	10808.3
626.72	10905.93
627.075	10794.29
627.43	10778.02
627.785	10774.63
628.14	10812.82
628.495	10852.37
628.85	10891.47
629.205	10787.96
629.559	10813.05
629.914	10800.85
630.269	10787.51
630.623	10801.07
630.978	10732.37
631.332	10746.38
631.687	10755.65
632.041	10719.94
632.396	10762.2
632.75	10671.81
633.104	10750.23
633.459	10605.14
633.813	10628.65
634.167	10667.29
634.521	10670.68
634.875	10655.09
635.229	10637.46
635.583	10589.33
635.937	10557.46
636.291	10537.8
636.645	10538.25
636.999	10563.79
637.352	10492.38
637.706	10519.72
638.06	10555.2
638.413	10529.21
638.767	10506.16
639.121	10461.19
639.474	10446.96
639.828	10453.28
640.181	10459.39
640.534	10386.39
640.888	10388.43
641.241	10366.51
641.594	10371.93
641.947	10355.21
642.301	10397.01
642.654	10423.91
643.007	10396.11
643.36	10347.75
643.713	10361.76
644.066	10359.28
644.419	10328.32
644.771	10264.14
645.124	10156.34
645.477	10084.71
645.83	10109.11
646.182	10080.41
646.535	9977.14
646.888	9992.51
647.24	10016.01
647.593	9991.6
647.945	10007.87
648.298	9919.74
648.65	9936.69
649.002	9965.16
649.355	10006.97
649.707	10013.07
650.059	10020.3
650.411	10131.26
650.763	10183.01
651.115	10221.65
651.467	10142.78
651.819	10219.62
652.171	10177.81
652.523	10168.77
652.875	10184.59
653.227	10082.9
653.578	10180.07
653.93	10147.98
654.282	10151.15
654.633	10114.99
654.985	10131.49
655.337	10215.32
655.688	10142.11
656.039	10241.99
656.391	10151.37
656.742	10141.43
657.094	10069.79
657.445	10229.79
657.796	10201.31
658.147	10208.09
658.498	10234.31
658.849	10130.58
659.2	10194.76
659.551	10170.13
659.902	10192.73
660.253	10243.57
660.604	10194.31
660.955	10176
661.306	10194.99
661.656	10218.04
662.007	10248.32
662.358	10207.19
662.708	10217.81
663.059	10191.82
663.409	10170.13
663.76	10154.08
664.11	10187.08
664.461	10255.78
664.811	10226.62
665.161	10258.49
665.511	10138.26
665.862	10226.62
666.212	10264.14
666.562	10245.38
666.912	10195.66
667.262	10198.6
667.612	10294.64
667.962	10247.41
668.312	10223.69
668.662	10317.92
669.011	10222.33
669.361	10184.82
669.711	10174.2
670.06	10181.43
670.41	10185.27
670.76	10172.39
671.109	10189.56
671.459	10153.86
671.808	10191.14
672.157	10239.5
672.507	10073.63
672.856	10136.68
673.205	10161.99
673.554	10191.82
673.904	10094.42
674.253	10185.95
674.602	10121.54
674.951	10016.46
675.3	9895.78
675.649	10055.1
675.998	10045.61
676.346	10106.17
676.695	10112.05
677.044	9973.52
677.393	10066.63
677.741	10084.48
678.09	9958.61
678.438	9995.22
678.787	9949.12
679.135	9964.26
679.484	9962.9
679.832	9937.59
680.181	9858.95
680.529	9916.35
680.877	9925.39
681.225	9875.22
681.573	9922.22
681.922	9833.87
682.27	9847.65
682.618	9833.64
682.966	9828.89
683.314	9788.22
683.661	9784.83
684.009	9698.5
684.357	9653.98
684.705	9650.14
685.053	9739.18
685.4	9690.14
685.748	9650.82
686.095	9596.13
686.443	9543.03
686.79	9542.12
687.138	9577.38
687.485	9580.09
687.832	9470.49
688.18	9500.32
688.527	9466.42
688.874	9419.41
689.221	9417.15
689.568	9354.1
689.915	9410.37
690.262	9399.98
690.609	9340.32
690.956	9313.43
691.303	9275.69
691.65	9209.02
691.997	9206.99
692.344	9131.51
692.69	9132.42
693.037	9125.64
693.383	9066.2
693.73	9019.2
694.077	8958.63
694.423	8969.03
694.769	8945.53
695.116	8892.42
695.462	8907.11
695.808	8858.3
696.155	8911.63
696.501	8802.03
696.847	8777.62
697.193	8752.54
697.539	8773.1
697.885	8702.14
698.231	8621.02
698.577	8630.51
698.923	8628.47
699.269	8559.1
699.614	8456.5
699.96	8533.11
700.306	8471.42
700.651	8410.17
700.997	8362.94
701.342	8393.23
701.688	8357.52
702.033	8357.75
702.379	8333.79
702.724	8275.26
703.069	8327.01
703.415	8207.24
703.76	8257.64
704.105	8182.61
704.45	8176.28
704.795	8174.7
705.14	8060.35
705.485	8086.12
705.83	8042.27
706.175	7995.04
706.52	8010.64
706.865	8034.14
707.209	7909.85
707.554	7870.98
707.899	7961.37
708.243	7832.79
708.588	7817.42
708.932	7832.11
709.277	7813.35
709.621	7805.22
709.966	7756.41
710.31	7728.61
710.654	7712.34
710.998	7725.9
711.342	7736.29
711.687	7681.83
712.031	7676.41
712.375	7638.9
712.719	7604.09
713.063	7640.25
713.407	7558.67
713.75	7612.68
714.094	7505.34
714.438	7496.75
714.782	7569.29
715.125	7466.02
715.469	7545.11
715.812	7469.41
716.156	7365
716.499	7391.44
716.843	7404.1
717.186	7393.7
717.53	7463.53
717.873	7402.97
718.216	7344.67
718.559	7364.1
718.902	7286.14
719.246	7319.36
719.589	7304.89
719.932	7332.46
720.275	7317.32
720.617	7249.53
720.96	7254.72
721.303	7299.7
721.646	7272.35
721.989	7260.83
722.331	7328.62
722.674	7258.57
723.016	7239.58
723.359	7221.96
723.701	7224.44
724.044	7235.52
724.386	7160.72
724.729	7240.26
725.071	7180.15
725.413	7184.67
725.755	7117.33
726.097	7123.43
726.439	7137.21
726.782	7136.99
727.124	7194.84
727.465	7126.82
727.807	7103.32
728.149	7142.64
728.491	7081.85
728.833	7116.2
729.175	7108.74
729.516	7075.29
729.858	7103.99
730.199	7105.12
730.541	7101.73
730.882	7101.28
731.224	7100.15
731.565	7096.76
731.906	7120.49
732.248	7085.46
732.589	7070.32
732.93	7067.84
733.271	7052.47
733.612	7076.65
733.953	7122.52
734.294	7084.79
734.635	7098.57
734.976	7103.09
735.317	7084.79
735.658	7027.39
735.999	7084.79
736.339	7042.3
736.68	7121.62
737.021	7071.23
737.361	7052.92
737.702	7025.35
738.042	7092.47
738.383	7135.63
738.723	7162.75
739.063	7127.95
739.404	7138.12
739.744	7096.08
740.084	7114.16
740.424	7217.21
740.764	7165.01
741.104	7151.45
741.444	7227.38
741.784	7211.79
742.124	7179.7
742.464	7270.32
742.804	7233.71
743.143	7230.32
743.483	7270.09
743.823	7192.13
744.162	7308.96
744.502	7329.07
744.841	7316.19
745.181	7376.08
745.52	7406.81
745.86	7445.23
746.199	7433.48
746.538	7510.09
746.877	7536.3
747.216	7577.43
747.556	7637.54
747.895	7703.75
748.234	7755.05
748.573	7667.82
748.911	7819.68
749.25	7846.35
749.589	7868.49
749.928	7948.72
750.267	8005.89
750.605	8022.84
750.944	8074.14
751.283	8251.53
751.621	8315.71
751.96	8378.76
752.298	8423.96
752.636	8465.09
752.975	8554.35
753.313	8646.78
753.651	8800.22
753.989	8878.64
754.327	8944.17
754.666	9077.05
755.004	9199.76
755.342	9304.39
755.679	9389.58
756.017	9512.52
756.355	9681.33
756.693	9738.05
757.031	9934.2
757.368	9973.75
757.706	10152.5
758.044	10262.56
758.381	10468.65
758.719	10572.15
759.056	10765.37
759.394	10894.63
759.731	10940.05
760.068	11120.39
760.405	11299.36
760.743	11387.72
761.08	11654.16
761.417	11749.52
761.754	11919.23
762.091	12128.72
762.428	12217.76
762.765	12391.54
763.102	12557.64
763.438	12736.84
763.775	12837.18
764.112	13020.67
764.449	13229.48
764.785	13308.58
765.122	13508.35
765.458	13574.11
765.795	13773.65
766.131	13889.13
766.467	14069.91
766.804	14135.45
767.14	14375.22
767.476	14493.86
767.812	14571.59
768.148	14713.06
768.485	14917.12
768.821	14951.47
769.157	15121.86
769.492	15267.4
769.828	15469.42
770.164	15402.53
770.5	15562.98
770.836	15669.87
771.171	15743.31
771.507	15777.44
771.842	15918.23
772.178	15976.98
772.513	16069.63
772.849	16245.67
773.184	16258.56
773.519	16401.6
773.855	16470.98
774.19	16457.19
774.525	16602.73
774.86	16700.58
775.195	16809.95
775.53	16751.88
775.865	16889.73
776.2	16783.51
776.535	16824.19
776.87	16919.33
777.205	16895.37
777.539	17095.6
777.874	17109.61
778.209	17039.78
778.543	17078.87
778.878	17150.51
779.212	17221.92
779.547	17135.82
779.881	17343.5
780.215	17218.3
780.55	17407.9
780.884	17268.47
781.218	17329.49
781.552	17337.62
781.886	17302.6
782.22	17363.61
782.554	17368.81
782.888	17335.59
783.222	17343.5
783.556	17224.18
783.889	17300.34
784.223	17159.55
784.557	17177.63
784.89	17367.45
785.224	17309.83
785.557	17209.27
785.891	17276.83
786.224	17225.54
786.558	17282.71
786.891	17148.93
787.224	17138.53
787.557	17120.91
787.891	17179.21
788.224	17096.95
788.557	17274.12
788.89	17289.26
789.223	17191.64
789.556	17131.07
789.888	17098.76
790.221	17065.31
790.554	16964.3
790.887	16902.15
791.219	17016.05
791.552	16898.54
791.884	16911.65
792.217	16890.18
792.549	16803.4
792.882	16729.5
793.214	16764.53
793.546	16699.9
793.879	16651.09
794.211	16516.18
794.543	16650.64
794.875	16638.21
795.207	16737.64
795.539	16611.99
795.871	16569.96
796.203	16463.07
796.535	16472.11
796.867	16397.08
797.198	16401.15
797.53	16355.95
797.862	16340.81
798.193	16381.49
798.525	16235.05
798.856	16282.74
799.188	16101.72
799.519	16135.85
799.85	15942.86
800.182	16046.13
800.513	16022.18
800.844	15852.69
801.175	16015.17
801.506	15924.78
801.837	15891.11
802.168	15843.43
802.499	15835.52
802.83	15741.73
803.161	15697.67
803.491	15743.09
803.822	15696.54
804.153	15651.34
804.483	15520.04
804.814	15576.99
805.145	15535.18
805.475	15478.24
805.805	15482.3
806.136	15490.44
806.466	15548.07
806.796	15449.31
807.126	15244.34
807.457	15307.62
807.787	15344.46
808.117	15283.44
808.447	15187.62
808.777	15226.94
809.107	15182.88
809.436	15104.24
809.766	15067.4
810.096	15066.04
810.426	14975.65
810.755	15018.59
811.085	14955.09
811.414	15005.48
811.744	14899.27
812.073	14895.2
812.403	14916.22
812.732	14816.11
813.061	14766.84
813.39	14709.22
813.719	14640.74
814.049	14735.88
814.378	14714.42
814.707	14683
815.036	14575.89
815.365	14563.91
815.693	14383.12
816.022	14515.32
816.351	14449.56
816.68	14359.62
817.008	14417.25
817.337	14353.75
817.665	14346.06
817.994	14318.27
818.322	14307.65
818.651	14155.11
818.979	14209.8
819.307	14242.11
819.636	14184.71
819.964	14179.06
820.292	14196.24
820.62	14159.63
820.948	14112.62
821.276	14189.68
821.604	14155.79
821.932	14167.54
822.259	14152.4
822.587	14152.4
822.915	14181.1
823.243	14193.98
823.57	14104.94
823.898	14192.62
824.225	14073.3
824.553	14148.33
824.88	14134.32
825.207	14121.66
825.535	14127.99
825.862	14148.55
826.189	14103.13
826.516	14179.97
826.843	14140.87
827.17	14203.92
827.497	14182.45
827.824	14156.69
828.151	14313.75
828.478	14130.48
828.805	14252.05
829.131	14214.09
829.458	14250.7
829.785	14072.17
830.111	14193.53
830.438	14231.94
830.764	14211.15
831.09	14234.88
831.417	14129.35
831.743	14159.63
832.069	14246.86
832.395	14093.19
832.722	14250.47
833.048	14083.02
833.374	14184.94
833.7	14040.31
834.026	14016.81
834.351	14139.29
834.677	14095.67
835.003	14095
835.329	14095.45
835.654	14083.7
835.98	14053.42
836.306	13923.93
836.631	13985.17
836.956	14088.22
837.282	14001.21
837.607	13955.11
837.932	13810.03
838.258	13897.71
838.583	13923.7
838.908	13806.19
839.233	13848.45
839.558	13820.65
839.883	13732.52
840.208	13708.79
840.533	13732.97
840.858	13834.21
841.182	13717.83
841.507	13730.71
841.832	13595.8
842.156	13613.65
842.481	13547.67
842.805	13547.44
843.13	13533.66
843.454	13447.1
843.778	13404.85
844.103	13433.32
844.427	13484.39
844.751	13363.94
845.075	13288.46
845.399	13231.29
845.723	13194.91
846.047	13259.99
846.371	13148.13
846.695	13114.68
847.019	13071.29
847.343	12973.22
847.666	12925.31
847.99	12905.88
848.313	12834.92
848.637	12829.04
848.96	12760.57
849.284	12678.31
849.607	12617.52
849.931	12573.23
850.254	12539.33
850.577	12469.95
850.9	12463.63
851.223	12362.16
851.546	12339.34
851.869	12233.12
852.192	12314.93
852.515	12200.81
852.838	12138.89
853.161	12072
853.483	12080.59
853.806	12017.99
854.129	11927.6
854.451	11985.22
854.774	11889.86
855.096	11903.42
855.419	11881.72
855.741	11858.22
856.063	11761.72
856.385	11680.82
856.708	11692.35
857.03	11668.17
857.352	11631.56
857.674	11622.97
857.996	11524.89
858.318	11541.84
858.64	11497.1
858.961	11420.72
859.283	11425.01
859.605	11400.15
859.926	11418.23
860.248	11329.19
860.57	11285.58
860.891	11378.01
861.212	11263.66
861.534	11195.19
861.855	11077
862.176	11159.25
862.498	11218.24
862.819	11114.74
863.14	11117.67
863.461	11066.6
863.782	11099.82
864.103	11090.33
864.424	11010.78
864.745	11125.81
865.065	10963.78
865.386	10933.27
865.707	10959.94
866.027	10938.24
866.348	10859.15
866.668	10916.1
866.989	10859.15
867.309	10838.59
867.63	10860.96
867.95	10844.01
868.27	10725.14
868.59	10771.69
868.91	10766.72
869.23	10782.09
869.55	10704.8
869.87	10703.67
870.19	10712.03
870.51	10625.94
870.83	10661.41
871.15	10598.82
871.469	10588.87
871.789	10653.51
872.109	10660.51
872.428	10588.42
872.748	10590.46
873.067	10526.95
873.386	10563.34
873.706	10481.53
874.025	10437.24
874.344	10470.46
874.663	10471.14
874.982	10493.51
875.301	10412.83
875.62	10442.44
875.939	10340.07
876.258	10304.36
876.577	10402.89
876.896	10329.9
877.214	10305.72
877.533	10342.1
877.852	10253.52
878.17	10259.39
878.489	10291.25
878.807	10275.21
879.125	10233.18
879.444	10244.25
879.762	10249
880.08	10200.64
880.398	10159.05
880.716	10095.1
881.034	10121.54
881.352	10080.86
881.67	9986.63
881.988	10089
882.306	9980.08
882.624	9946.63
882.941	9954.77
883.259	9926.52
883.577	9955.67
883.894	9948.44
884.212	9921.55
884.529	9885.16
884.846	9876.8
885.164	9835.9
885.481	9743.25
885.798	9820.31
886.115	9763.36
886.432	9724.94
886.75	9682.01
887.067	9675.23
887.383	9606.75
887.7	9658.28
888.017	9595.68
888.334	9644.49
888.651	9571.27
888.967	9546.42
889.284	9481.78
889.6	9424.16
889.917	9434.78
890.233	9476.14
890.55	9417.15
890.866	9373.31
891.182	9336.7
891.498	9345.74
891.815	9286.31
892.131	9319.3
892.447	9291.06
892.763	9142.81
893.079	9162.02
893.395	9175.13
893.71	9126.99
894.026	9100.78
894.342	9113.21
894.657	9030.95
894.973	8999.54
895.289	8984.4
895.604	8934.68
895.92	8882.48
896.235	8883.83
896.55	8875.47
896.865	8815.59
897.181	8765.65
897.496	8765.19
897.811	8729.71
898.126	8773.33
898.441	8731.52
898.756	8662.6
899.071	8675.25
899.386	8692.2
899.7	8584.41
900.015	8515.93
900.33	8504.41
900.644	8431.87
900.959	8400.46
901.273	8440
901.588	8400.91
901.902	8298.99
902.216	8248.37
902.531	8276.84
902.845	8297.18
903.159	8213.8
903.473	8134.48
903.787	8113.68
904.101	8096.74
904.415	8069.39
904.729	8045.89
905.042	8003.86
905.356	7978.32
905.67	8007.25
905.984	7992.56
906.297	7922.96
906.611	7872.79
906.924	7875.73
907.237	7873.92
907.551	7812.45
907.864	7785.33
908.177	7745.56
908.491	7738.78
908.804	7681.38
909.117	7603.87
909.43	7611.78
909.743	7549.63
910.056	7512.8
910.368	7555.51
910.681	7431.22
910.994	7367.49
911.307	7427.6
911.619	7388.28
911.932	7395.74
912.244	7365
912.557	7273.71
912.869	7225.12
913.181	7270.54
913.494	7200.49
913.806	7200.04
914.118	7123.65
914.43	7093.37
914.742	7086.37
915.054	7032.13
915.366	7029.87
915.678	7003.66
915.99	7023.77
916.302	6891.57
916.613	6907.61
916.925	6858.35
917.236	6854.28
917.548	6847.73
917.859	6810.89
918.171	6807.5
918.482	6743.33
918.794	6741.29
919.105	6684.34
919.416	6665.36
919.727	6647.73
920.038	6611.8
920.349	6598.24
920.66	6579.49
920.971	6543.1
921.282	6537.23
921.593	6489.55
921.903	6456.1
922.214	6414.52
922.525	6394.86
922.835	6352.6
923.146	6343.79
923.456	6348.99
923.767	6302.66
924.077	6262.21
924.387	6235.99
924.697	6222.66
925.008	6247.75
925.318	6178.37
925.628	6166.17
925.938	6129.33
926.248	6061.54
926.558	6104.7
926.867	6048.88
927.177	6030.35
927.487	6001.65
927.796	5952.84
928.106	5927.98
928.416	5894.08
928.725	5920.07
929.034	5875.78
929.344	5891.6
929.653	5842.11
929.962	5818.83
930.271	5776.8
930.581	5789
930.89	5750.13
931.199	5664.03
931.508	5632.39
931.817	5702.9
932.125	5629
932.434	5591.72
932.743	5587.65
933.051	5548.1
933.36	5540.65
933.669	5541.55
933.977	5479.63
934.286	5472.4
934.594	5484.38
934.902	5473.98
935.21	5394.66
935.519	5401.21
935.827	5338.39
936.135	5357.37
936.443	5298.62
936.751	5270.82
937.059	5290.26
937.367	5225.4
937.674	5256.36
937.982	5246.64
938.29	5132.75
938.597	5182.01
938.905	5127.77
939.213	5070.15
939.52	5084.61
939.827	5109.92
940.135	5057.49
940.442	5046.65
940.749	5008.46
941.056	5007.33
941.363	4936.59
941.67	4918.06
941.977	4924.62
942.284	4875.8
942.591	4878.97
942.898	4858.86
943.205	4836.93
943.511	4800.55
943.818	4800.1
944.125	4761
944.431	4780.89
944.738	4755.36
945.044	4704.51
945.35	4723.27
945.657	4700.44
945.963	4647.79
946.269	4623.83
946.575	4630.16
946.881	4634.45
947.187	4597.85
947.493	4575.47
947.799	4523.27
948.105	4531.63
948.41	4474.46
948.716	4517.85
949.022	4509.03
949.327	4436.72
949.633	4406.89
949.938	4364.18
950.244	4397.85
950.549	4349.72
950.854	4381.35
951.16	4344.97
951.465	4301.81
951.77	4290.06
952.075	4276.72
952.38	4216.16
952.685	4228.36
952.99	4168.93
953.294	4213
953.599	4182.26
953.904	4214.8
954.209	4145.88
954.513	4177.52
954.818	4134.81
955.122	4138.42
955.426	4080.34
955.731	4084.86
956.035	4059.78
956.339	4036.73
956.643	4009.61
956.948	3984.53
957.252	4016.39
957.556	4013
957.86	3942.04
958.163	3937.98
958.467	3909.05
958.771	3891.88
959.075	3943.17
959.378	3892.1
959.682	3859.56
959.985	3833.57
960.289	3816.4
960.592	3815.27
960.896	3805.32
961.199	3787.7
961.502	3806.45
961.805	3777.3
962.108	3735.04
962.411	3695.95
962.714	3696.17
963.017	3675.16
963.32	3671.09
963.623	3633.12
963.926	3642.39
964.228	3621.37
964.531	3574.6
964.833	3598.78
965.136	3532.56
965.438	3565.1
965.741	3520.59
966.043	3535.95
966.345	3526.46
966.648	3480.36
966.95	3449.17
967.252	3466.58
967.554	3470.42
967.856	3427.48
968.158	3418.44
968.46	3398.33
968.761	3363.75
969.063	3334.38
969.365	3389.06
969.666	3356.52
969.968	3354.94
970.269	3315.39
970.571	3309.52
970.872	3310.65
971.174	3257.09
971.475	3273.81
971.776	3233.14
972.077	3244.21
972.378	3265.9
972.679	3229.97
972.98	3207.37
973.281	3182.29
973.582	3153.36
973.883	3145
974.183	3099.58
974.484	3120.37
974.785	3129.64
975.085	3112.46
975.386	3128.51
975.686	3049.86
975.986	3065
976.287	3022.29
976.587	3033.82
976.887	3043.08
977.187	3003.31
977.487	2989.75
977.787	2954.5
978.087	2978.9
978.387	2995.4
978.687	2957.44
978.987	2949.75
979.286	2917.44
979.586	2891.45
979.885	2908.4
980.185	2820.04
980.484	2851
980.784	2855.07
981.083	2832.47
981.382	2839.25
981.682	2805.12
981.981	2787.72
982.28	2768.06
982.579	2758.8
982.878	2774.16
983.177	2760.38
983.475	2759.93
983.774	2735.75
984.073	2723.32
984.372	2691.45
984.67	2694.17
984.969	2686.26
985.267	2692.13
985.566	2672.7
985.864	2667.73
986.162	2629.08
986.461	2620.27
986.759	2600.38
987.057	2591.34
987.355	2582.98
987.653	2552.93
987.951	2544.11
988.249	2552.93
988.547	2541.4
988.844	2494.17
989.142	2540.27
989.44	2526.04
989.737	2494.85
990.035	2481.06
990.332	2463.21
990.63	2438.35
990.927	2449.43
991.224	2433.83
991.521	2437.9
991.819	2369.43
992.116	2391.58
992.413	2382.76
992.71	2347.28
993.006	2338.47
993.303	2362.88
993.6	2336.44
993.897	2331.01
994.193	2319.04
994.49	2284.46
994.787	2302.54
995.083	2327.4
995.379	2280.84
995.676	2237.23
995.972	2284.69
996.268	2281.3
996.565	2219.15
996.861	2260.73
997.157	2214.18
997.453	2182.09
997.749	2190.22
998.044	2182.09
998.34	2190.22
998.636	2150.68
998.932	2139.6
999.227	2146.84
999.523	2120.4
999.818	2090.79
1000.114	2076.33
1000.409	2081.98
1000.704	2091.7
1001	2092.15
1001.295	2062.32
1001.59	2029.55
1001.885	2008.53
1002.18	2009.21
1002.475	1998.37
1002.77	2013.05
1003.065	1988.2
1003.359	1980.96
1003.654	1952.27
1003.949	1935.32
1004.243	1944.81
1004.538	1935.77
1004.832	1933.06
1005.127	1933.28
1005.421	1924.92
1005.715	1857.13
1006.009	1890.57
1006.304	1897.8
1006.598	1887.41
1006.892	1867.07
1007.186	1845.83
1007.48	1832.72
1007.773	1859.61
1008.067	1786.39
1008.361	1800.63
1008.655	1819.84
1008.948	1792.5
1009.242	1778.03
1009.535	1754.3
1009.829	1773.74
1010.122	1737.58
1010.415	1723.34
1010.708	1733.29
1011.001	1727.19
1011.295	1703.91
1011.588	1687.87
1011.881	1678.6
1012.173	1652.39
1012.466	1653.97
1012.759	1663.69
1013.052	1646.96
1013.344	1627.53
1013.637	1603.12
1013.93	1623.91
1014.222	1601.09
1014.514	1611.03
1014.807	1615.32
1015.099	1564.7
1015.391	1578.49
1015.683	1569.22
1015.976	1554.76
1016.268	1512.05
1016.56	1526.06
1016.851	1526.06
1017.143	1471.37
1017.435	1500.07
1017.727	1484.25
1018.018	1474.09
1018.31	1496.23
1018.602	1468.44
1018.893	1472.05
1019.185	1416.46
1019.476	1434.99
1019.767	1441.09
1020.058	1434.99
1020.35	1396.57
1020.641	1391.83
1020.932	1371.94
1021.223	1355.44
1021.514	1367.87
1021.804	1353.18
1022.095	1336.91
1022.386	1357.7
1022.677	1317.48
1022.967	1332.62
1023.258	1328.55
1023.548	1314.77
1023.839	1306.41
1024.129	1314.99
1024.419	1322.9
1024.709	1259.85
1025	1259.18
1025.29	1259.4
1025.58	1254.43
1025.87	1237.03
1026.16	1235
1026.449	1210.36
1026.739	1224.37
1027.029	1202.23
1027.319	1209.69
1027.608	1206.75
1027.898	1181.44
1028.187	1150.03
1028.477	1175.56
1028.766	1168.1
1029.055	1148.9
1029.344	1150.48
1029.634	1145.51
1029.923	1154.77
1030.212	1147.54
1030.501	1136.24
1030.79	1128.56
1031.078	1111.84
1031.367	1115.22
1031.656	1091.27
1031.945	1117.71
1032.233	1095.56
1032.522	1063.02
1032.81	1050.59
1033.099	1047.66
1033.387	1051.5
1033.675	1066.41
1033.963	1064.83
1034.251	1033.65
1034.54	1052.63
1034.828	1014.21
1035.116	1015.34
1035.403	1014.89
1035.691	1007.66
1035.979	1003.82
1036.267	992.97
1036.554	1010.82
1036.842	967.43
1037.129	988
1037.417	985.74
1037.704	979.18
1037.992	973.76
1038.279	959.07
1038.566	931.27
1038.853	931.27
1039.14	931.27
