Data from hue_60_FLMS001491_94.txt Node
Date: Mon Feb 06 15:18:13 GMT 2017
User: dcchb
Spectrometer: FLMS00149
Trigger mode: 0
Integration Time (sec): 2.000000E-2
Scans to average: 10
Electric dark correction enabled: true
Nonlinearity correction enabled: false
Boxcar width: 0
XAxis mode: Wavelengths
Number of Pixels in Spectrum: 2048
>>>>>Begin Spectral Data<<<<<
341.393	9.63
341.776	9.63
342.16	9.63
342.543	-71.27
342.927	-69.91
343.31	-79.86
343.693	-77.14
344.077	-73.76
344.46	-40.76
344.843	-57.71
345.226	-28.56
345.61	-23.36
345.993	-29.01
346.376	9.63
346.759	34.72
347.142	31.78
347.525	54.6
347.908	48.73
348.291	50.31
348.674	89.63
349.057	90.76
349.44	130.99
349.823	126.24
350.206	170.08
350.588	218.89
350.971	224.32
351.354	228.61
351.737	235.16
352.119	253.69
352.502	270.19
352.884	295.05
353.267	277.65
353.65	327.82
354.032	317.65
354.414	299.57
354.797	320.81
355.179	330.75
355.562	323.97
355.944	357.42
356.326	345.44
356.709	314.26
357.091	343.86
357.473	347.25
357.855	356.06
358.238	352.22
358.62	355.16
359.002	364.65
359.384	352.22
359.766	357.87
360.148	336.86
360.53	350.41
360.912	339.12
361.294	357.87
361.676	330.98
362.057	336.63
362.439	339.12
362.821	353.35
363.203	338.44
363.584	315.16
363.966	317.42
364.348	322.84
364.729	354.26
365.111	350.19
365.493	344.09
365.874	335.95
366.256	341.15
366.637	321.26
367.019	322.62
367.4	342.28
367.781	328.72
368.163	313.35
368.544	329.85
368.925	318.32
369.306	332.11
369.688	317.65
370.069	314.71
370.45	322.17
370.831	320.81
371.212	330.3
371.593	332.34
371.974	327.36
372.355	317.65
372.736	324.43
373.117	319.91
373.498	334.82
373.879	334.14
374.26	333.47
374.641	332.34
375.021	320.36
375.402	322.17
375.783	344.76
376.163	347.93
376.544	345.67
376.925	350.64
377.305	339.57
377.686	364.65
378.066	356.29
378.447	358.1
378.827	367.14
379.208	343.18
379.588	353.35
379.968	342.51
380.349	343.86
380.729	340.92
381.109	334.82
381.489	334.37
381.87	341.38
382.25	351.09
382.63	375.72
383.01	343.41
383.39	339.34
383.77	341.83
384.15	374.14
384.53	355.84
384.91	351.77
385.29	370.3
385.67	356.97
386.049	352.67
386.429	375.05
386.809	360.81
387.189	357.87
387.568	356.29
387.948	373.69
388.328	385.89
388.707	366.91
389.087	371.88
389.466	371.66
389.846	367.14
390.225	380.24
390.605	373.92
390.984	379.57
391.363	379.57
391.743	378.44
392.122	401.94
392.501	389.28
392.881	412.11
393.26	360.81
393.639	380.92
394.018	379.11
394.397	379.34
394.776	380.47
395.155	402.16
395.534	389.06
395.913	382.73
396.292	388.15
396.671	371.2
397.05	392.22
397.429	399.68
397.808	398.55
398.186	375.5
398.565	393.13
398.944	420.02
399.323	401.26
399.701	414.37
400.08	415.5
400.458	417.98
400.837	414.82
401.215	413.01
401.594	402.39
401.972	412.11
402.351	413.69
402.729	394.26
403.107	412.79
403.486	423.63
403.864	418.44
404.242	425.89
404.62	433.12
404.999	413.01
405.377	428.15
405.755	431.09
406.133	435.61
406.511	433.58
406.889	438.77
407.267	448.72
407.645	414.59
408.023	432.67
408.401	448.94
408.779	484.65
409.156	464.76
409.534	433.8
409.912	466.34
410.29	468.38
410.667	469.06
411.045	457.08
411.422	469.06
411.8	476.51
412.178	473.58
412.555	467.47
412.933	495.95
413.31	490.98
413.687	499.56
414.065	508.83
414.442	522.16
414.819	497.76
415.197	500.47
415.574	500.92
415.951	498.21
416.328	529.17
416.705	510.18
417.082	533.46
417.46	502.27
417.837	524.65
418.214	534.14
418.591	509.96
418.967	536.17
419.344	527.36
419.721	543.18
420.098	516.96
420.475	551.77
420.852	529.62
421.228	556.51
421.605	535.95
421.982	548.38
422.358	558.54
422.735	571.88
423.111	569.17
423.488	586.57
423.864	576.85
424.241	579.11
424.617	599.67
424.994	562.61
425.37	579.56
425.746	584.31
426.123	593.57
426.499	592.44
426.875	627.92
427.251	600.58
427.627	608.49
428.003	627.24
428.379	618.66
428.756	617.07
429.132	607.13
429.507	644.42
429.883	643.74
430.259	659.78
430.635	634.93
431.011	616.4
431.387	640.12
431.763	689.84
432.138	670.41
432.514	661.37
432.89	680.35
433.265	669.28
433.641	709.28
434.016	678.54
434.392	705.89
434.767	725.77
435.143	729.39
435.518	728.94
435.894	719.44
436.269	715.38
436.644	724.64
437.02	730.97
437.395	751.99
437.77	757.18
438.145	759.9
438.52	760.57
438.895	770.74
439.271	765.09
439.646	789.05
440.021	797.18
440.395	758.31
440.77	792.89
441.145	793.79
441.52	814.81
441.895	799.67
442.27	809.61
442.645	795.15
443.019	845.09
443.394	810.29
443.769	857.97
444.143	819.1
444.518	843.96
444.892	853.23
445.267	837.41
445.641	853
446.016	861.59
446.39	846.22
446.764	878.31
447.139	864.75
447.513	865.88
447.887	851.64
448.262	867.24
448.636	875.15
449.01	888.48
449.384	921.47
449.758	887.35
450.132	923.51
450.506	911.3
450.88	931.42
451.254	909.27
451.628	931.87
452.002	951.98
452.376	969.38
452.75	964.41
453.123	962.15
453.497	994.24
453.871	1006.67
454.244	1001.02
454.618	1022.26
454.992	976.84
455.365	1030.62
455.739	1038.53
456.112	1051.86
456.486	1062.94
456.859	1078.76
457.232	1071.98
457.606	1079.89
457.979	1092.99
458.352	1134.8
458.725	1118.98
459.099	1161.92
459.472	1173.22
459.845	1165.99
460.218	1184.97
460.591	1197.4
460.964	1181.58
461.337	1228.81
461.71	1245.31
462.083	1232.88
462.456	1276.94
462.829	1269.26
463.201	1291.86
463.574	1291.63
463.947	1343.83
464.32	1347.9
464.692	1347.68
465.065	1344.29
465.438	1381.12
465.81	1429.93
466.183	1437.17
466.555	1496.6
466.928	1465.19
467.3	1469.26
467.672	1515.13
468.045	1542.25
468.417	1599.2
468.789	1543.38
469.161	1604.84
469.534	1621.34
469.906	1683.26
470.278	1694.33
470.65	1696.14
471.022	1751.06
471.394	1766.65
471.766	1829.92
472.138	1848.23
472.51	1895.23
472.882	1920.54
473.253	1973.87
473.625	1976.81
473.997	2037.6
474.369	2097.49
474.74	2128.22
475.112	2167.77
475.484	2191.27
475.855	2257.26
476.227	2297.71
476.598	2400.76
476.97	2426.52
477.341	2525.5
477.713	2589.45
478.084	2654.31
478.455	2703.35
478.827	2759.62
479.198	2880.07
479.569	2899.05
479.94	3048.2
480.311	3101.08
480.682	3222.88
481.053	3291.58
481.424	3370
481.795	3457.9
482.166	3569.31
482.537	3663.55
482.908	3788.52
483.279	3857.67
483.65	3955.52
484.021	4047.27
484.391	4195.96
484.762	4295.85
485.133	4427.37
485.503	4498.1
485.874	4712.11
486.244	4769.73
486.615	4936.28
486.985	5057.86
487.356	5239.1
487.726	5327.46
488.097	5513.44
488.467	5610.84
488.837	5806.32
489.207	5975.35
489.578	6102.58
489.948	6210.15
490.318	6460.31
490.688	6498.73
491.058	6714.77
491.428	6904.82
491.798	7074.76
492.168	7249.44
492.538	7438.82
492.908	7591.81
493.278	7778.02
493.648	7902.53
494.017	8075.86
494.387	8233.37
494.757	8415.97
495.126	8562.63
495.496	8750.87
495.866	8915.39
496.235	9107.25
496.605	9256.62
496.974	9337.07
497.344	9603.5
497.713	9779.32
498.082	9892.08
498.452	10145.86
498.821	10231.06
499.19	10372.52
499.559	10601.22
499.928	10763.02
500.298	10958.05
500.667	11157.59
501.036	11205.27
501.405	11341.54
501.774	11435.77
502.143	11695.2
502.512	11880.73
502.88	12089.77
503.249	12131.8
503.618	12295.41
503.987	12492.02
504.356	12576.08
504.724	12727.94
505.093	12880.71
505.462	13047.93
505.83	13217.65
506.199	13384.2
506.567	13661.25
506.936	13658.77
507.304	13915.71
507.672	14037.06
508.041	14138.98
508.409	14409.48
508.777	14526.31
509.145	14700.55
509.514	14771.05
509.882	15019.18
510.25	15098.5
510.618	15143.25
510.986	15359.74
511.354	15577.13
511.722	15716.56
512.09	15921.53
512.458	15965.82
512.826	16086.05
513.193	16262.76
513.561	16428.64
513.929	16600.16
514.297	16730.1
514.664	16960.6
515.032	17022.07
515.4	17301.83
515.767	17348.16
516.135	17444.88
516.502	17504.99
516.869	17866.11
517.237	17984.98
517.604	17977.07
517.972	18215.03
518.339	18406.21
518.706	18403.05
519.073	18493.89
519.44	18695.24
519.808	18902.92
520.175	19011.62
520.542	19311.72
520.909	19406.86
521.276	19435.11
521.643	19731.6
522.009	19788.77
522.376	19981.99
522.743	20151.93
523.11	20297.23
523.477	20518.47
523.843	20685.02
524.21	20847.73
524.577	21094.95
524.943	21204.56
525.31	21272.8
525.676	21594.83
526.043	21744.2
526.409	21848.15
526.776	22088.37
527.142	22089.96
527.508	22316.16
527.874	22509.83
528.241	22610.85
528.607	22605.65
528.973	22962.25
529.339	22922.48
529.705	23211.73
530.071	23400.66
530.437	23438.62
530.803	23571.95
531.169	23844.49
531.535	23808.33
531.901	23827.09
532.267	24020.75
532.632	24188.66
532.998	24221.2
533.364	24395.66
533.73	24552.26
534.095	24703.67
534.461	24790.45
534.826	24875.87
535.192	25038.58
535.557	25195.18
535.923	25133.27
536.288	25311.34
536.653	25461.84
537.019	25439.47
537.384	25540.94
537.749	25654.61
538.114	25782.97
538.479	25827.71
538.845	25952.91
539.21	25953.36
539.575	26083.98
539.94	26133.01
540.305	26282.39
540.67	26442.16
541.034	26468.15
541.399	26640.12
541.764	26666.78
542.129	26685.77
542.494	26898.64
542.858	27021.35
543.223	26997.4
543.587	27233.55
543.952	27224.96
544.316	27318.52
544.681	27199.88
545.045	27411.17
545.41	27550.6
545.774	27711.28
546.138	27636.93
546.503	27910.59
546.867	27852.06
547.231	27998.95
547.595	28046.41
547.959	28095
548.324	28253.41
548.688	28293.86
549.052	28352.62
549.416	28416.34
549.779	28432.84
550.143	28716
550.507	28902.88
550.871	28829.44
551.235	28871.47
551.599	28968.87
551.962	29167.96
552.326	29255.64
552.689	29424.68
553.053	29226.04
553.417	29455.86
553.78	29732.47
554.143	29652.92
554.507	29721.17
554.87	30025.79
555.234	30138.11
555.597	30056.07
555.96	30152.34
556.323	30414.71
556.686	30456.52
557.05	30594.14
557.413	30730.86
557.776	30766.56
558.139	30990.96
558.502	31090.62
558.865	31204.52
559.228	31402.25
559.59	31460.1
559.953	31479.54
560.316	31894.44
560.679	31924.05
561.041	32143.7
561.404	32208.56
561.767	32412.4
562.129	32255.34
562.492	32654.2
562.854	32638.38
563.217	32638.15
563.579	32787.98
563.941	33038.37
564.304	33231.81
564.666	33278.81
565.028	33430
565.39	33550.67
565.753	33745.24
566.115	33809.42
566.477	34026.37
566.839	34034.5
567.201	34367.15
567.563	34283.76
567.925	34671.55
568.287	34496.41
568.648	34615.5
569.01	34940.01
569.372	35207.35
569.734	34914.25
570.095	35237.63
570.457	35438.76
570.819	35384.52
571.18	35473.11
571.542	35598.75
571.903	35607.34
572.265	35991.29
572.626	36123.03
572.987	36014.79
573.349	36117.38
573.71	36402.8
574.071	36308.11
574.432	36599.63
574.794	36743.13
575.155	36690.7
575.516	36594.66
575.877	36699.06
576.238	36989
576.599	36992.61
576.96	37005.72
577.32	37150.8
577.681	37250.24
578.042	37278.48
578.403	37292.72
578.763	37240.07
579.124	37465.82
579.485	37591.47
579.845	37731.13
580.206	37644.12
580.566	37711.69
580.927	37714.18
581.287	37812.48
581.648	37838.24
582.008	37881.18
582.368	37767.74
582.728	37907.39
583.089	37944.68
583.449	37876.66
583.809	38033.72
584.169	38038.92
584.529	37957.34
584.889	38303.99
585.249	38175.86
585.609	38018.58
585.969	38238.46
586.329	38289.76
586.688	38282.75
587.048	38205.01
587.408	38208.85
587.768	38139.93
588.127	38253.82
588.487	38277.55
588.846	38479.36
589.206	38168.86
589.565	38262.64
589.925	38464.89
590.284	38351.22
590.643	38375.63
591.003	38479.36
591.362	38600.26
591.721	38527.72
592.08	38478
592.44	38539.92
592.799	38674.38
593.158	38543.31
593.517	38618.56
593.876	38562.29
594.235	38467.38
594.593	38574.27
594.952	38681.16
595.311	38635.96
595.67	38579.47
596.029	38884.99
596.387	38954.15
596.746	39025.1
597.104	38771.1
597.463	38708.28
597.822	39024.2
598.18	38909.63
598.538	38788.73
598.897	39068.04
599.255	38713.25
599.613	39251.76
599.972	39077.98
600.33	39317.3
600.688	39101.26
601.046	39154.14
601.404	39236.17
601.762	39317.53
602.12	39478.88
602.478	39536.73
602.836	39566.11
603.194	39388.48
603.552	39547.35
603.91	39427.35
604.268	39592.77
604.625	39608.59
604.983	39754.12
605.341	39557.97
605.698	39779.89
606.056	39858.3
606.413	39854.91
606.771	39968.81
607.128	40013.78
607.485	39959.09
607.843	39905.98
608.2	40195.47
608.557	40340.78
608.914	40176.03
609.272	40411.96
609.629	40382.58
609.986	40499.19
610.343	40464.61
610.7	40785.96
611.057	40651.73
611.414	40694.44
611.771	40847.43
612.127	40998.84
612.484	40955.22
612.841	41130.81
613.198	40997.93
613.554	41008.78
613.911	41354.31
614.267	41296.23
614.624	41185.05
614.98	41258.72
615.337	41520.63
615.693	41508.65
616.05	41541.2
616.406	41733.96
616.762	41563.12
617.118	41541.2
617.475	41621.42
617.831	41920.85
618.187	41945.93
618.543	41831.58
618.899	42023.22
619.255	42087.4
619.611	41948.87
619.967	42168.07
620.323	42298.24
620.678	42181.18
621.034	42207.84
621.39	42156.55
621.746	42119.03
622.101	42488.97
622.457	42343.89
622.812	42445.8
623.168	42462.98
623.523	42459.14
623.879	42559.02
624.234	42256.66
624.589	42538.01
624.945	42480.83
625.3	42601.05
625.655	42652.35
626.01	42674.95
626.365	42737.55
626.72	42647.83
627.075	42722.63
627.43	42521.28
627.785	42638.79
628.14	42715.18
628.495	42784.1
628.85	42606.48
629.205	42654.61
629.559	42721.05
629.914	42654.39
630.269	42686.7
630.623	42638.57
630.978	42462.98
631.332	42628.17
631.687	42803.76
632.041	42592.69
632.396	42850.77
632.75	42565.8
633.104	42734.38
633.459	42435.64
633.813	42457.1
634.167	42503.88
634.521	42567.16
634.875	42463.43
635.229	42540.72
635.583	42336.66
635.937	42471.11
636.291	42250.1
636.645	42369.42
636.999	42268.41
637.352	42360.38
637.706	42174.85
638.06	42321.74
638.413	42309.76
638.767	42180.95
639.121	42224.79
639.474	42096.44
639.828	42092.14
640.181	42027.74
640.534	42103.67
640.888	42015.08
641.241	41804.01
641.594	41959.94
641.947	42030.22
642.301	41835.88
642.654	41821.41
643.007	41901.64
643.36	41860.28
643.713	41809.66
644.066	42013.05
644.419	41618.26
644.771	41395.89
645.124	41090.59
645.477	40943.92
645.83	40729.47
646.182	40758.39
646.535	40460.32
646.888	40655.12
647.24	40272.08
647.593	40681.33
647.945	40517.04
648.298	40362.02
648.65	40255.13
649.002	40286.54
649.355	40494.9
649.707	40185.53
650.059	40562.92
650.411	40865.28
650.763	41026.63
651.115	41296.23
651.467	41261.43
651.819	41220.98
652.171	41113.41
652.523	41069.57
652.875	41098.27
653.227	40803.14
653.578	41135.1
653.93	40963.58
654.282	40974.43
654.633	40906.41
654.985	40870.93
655.337	40903.02
655.688	40937.14
656.039	41037.71
656.391	40640.43
656.742	40830.25
657.094	40854.66
657.445	40897.14
657.796	40662.35
658.147	40677.72
658.498	40642.24
658.849	40858.05
659.2	40578.28
659.551	40644.5
659.902	40753.65
660.253	40695.34
660.604	40670.48
660.955	40454.44
661.306	40628.23
661.656	40582.58
662.007	40599.3
662.358	40588
662.708	40539.64
663.059	40521.11
663.409	40249.03
663.76	40700.54
664.11	40604.72
664.461	40642.01
664.811	40545.97
665.161	40427.1
665.511	40463.48
665.862	40559.75
666.212	40466.42
666.562	40686.53
666.912	40443.82
667.262	40411.73
667.612	40391.85
667.962	40484.05
668.312	40577.38
668.662	40555.46
669.011	40449.47
669.361	40418.74
669.711	40269.14
670.06	40233.21
670.41	40221
670.76	40189.82
671.109	40324.05
671.459	40351.17
671.808	40104.85
672.157	40309.36
672.507	39958.41
672.856	40078.64
673.205	40066.43
673.554	40226.2
673.904	40126.09
674.253	40330.15
674.602	40077.05
674.951	39576.05
675.3	39424.64
675.649	40069.14
675.998	40023.27
676.346	40001.35
676.695	40087.9
677.044	39798.42
677.393	39900.79
677.741	40046.32
678.09	39879.54
678.438	40020.56
678.787	39857.62
679.135	39851.75
679.484	39701.24
679.832	39776.5
680.181	39436.84
680.529	39712.09
680.877	39464.19
681.225	39513.9
681.573	39731.07
681.922	39557.29
682.27	39220.8
682.618	39380.35
682.966	39239.56
683.314	39177.64
683.661	39229.17
684.009	38957.31
684.357	38934.94
684.705	38899.68
685.053	38966.12
685.4	38881.38
685.748	38625.79
686.095	38765.68
686.443	38544.44
686.79	38529.98
687.138	38633.48
687.485	38473.93
687.832	38368.4
688.18	38501.73
688.527	38229.64
688.874	38185.58
689.221	38097.67
689.568	38089.99
689.915	38063.1
690.262	38112.13
690.609	37878.02
690.956	37810.9
691.303	37758.47
691.65	37572.71
691.997	37496.56
692.344	37310.35
692.69	37271.25
693.037	37266.28
693.383	37149.45
693.73	37198.03
694.077	36938.15
694.423	36961.43
694.769	36902
695.116	36722.79
695.462	36692.28
695.808	36613.19
696.155	36696.35
696.501	36459.97
696.847	36419.52
697.193	36109.93
697.539	36333.65
697.885	36086.88
698.231	35981.57
698.577	35997.84
698.923	35826.32
699.269	35655.02
699.614	35565.99
699.96	35523.05
700.306	35567.57
700.651	35338.65
700.997	35360.57
701.342	35314.92
701.688	35227.24
702.033	35040.12
702.379	35041.03
702.724	34928.71
703.069	35023.18
703.415	34609.85
703.76	34630.87
704.105	34644.65
704.45	34493.47
704.795	34341.61
705.14	34133.26
705.485	34249.64
705.83	34163.76
706.175	34149.3
706.52	33940.27
706.865	33858.46
707.209	33935.75
707.554	33724
707.899	33831.79
708.243	33576.21
708.588	33491.46
708.932	33332.15
709.277	33264.13
709.621	33395.42
709.966	33153.17
710.31	33280.85
710.654	32924.7
710.998	33117.01
711.342	33014.87
711.687	33003.79
712.031	32741.65
712.375	32688.1
712.719	32689.68
713.063	32528.78
713.407	32686.97
713.75	32517.03
714.094	32472.73
714.438	32380.98
714.782	32274.32
715.125	32243.14
715.469	32272.29
715.812	32079.98
716.156	31878.85
716.499	31948.45
716.843	31980.09
717.186	31666.43
717.53	31861.45
717.873	31907.1
718.216	31786.2
718.559	31662.59
718.902	31443.61
719.246	31534.23
719.589	31497.84
719.932	31340.33
720.275	31280.22
720.617	31220.11
720.96	31106.44
721.303	31084.97
721.646	31144.63
721.989	31069.15
722.331	31191.19
722.674	30960.23
723.016	30981.7
723.359	30952.1
723.701	30871.65
724.044	30795.94
724.386	30645.21
724.729	30717.07
725.071	30560.47
725.413	30648.15
725.755	30666
726.097	30440.47
726.439	30349.4
726.782	30316.86
727.124	30478.66
727.465	30254.94
727.807	30287.71
728.149	30184.43
728.491	30165.9
728.833	30228.95
729.175	30153.47
729.516	29987.83
729.858	30060.82
730.199	30002.52
730.541	29917.77
730.882	29854.72
731.224	29900.82
731.565	29706.48
731.906	29753.03
732.248	29682.52
732.589	29557.33
732.93	29455.41
733.271	29576.76
733.612	29506.03
733.953	29571.34
734.294	29428.29
734.635	29200.05
734.976	29322.31
735.317	29164.8
735.658	29157.79
735.999	29242.31
736.339	29111.69
736.68	29156.66
737.021	29064.69
737.361	28953.96
737.702	29040.28
738.042	28930.91
738.383	28890.23
738.723	28948.53
739.063	28818.14
739.404	28816.56
739.744	28851.36
740.084	28742.44
740.424	28753.06
740.764	28602.78
741.104	28775.2
741.444	28532.95
741.784	28406.4
742.124	28525.94
742.464	28397.59
742.804	28356.91
743.143	28307.87
743.483	28367.76
743.823	28151.49
744.162	28150.14
744.502	28249.79
744.841	28024.72
745.181	28125.28
745.52	28019.29
745.86	28151.27
746.199	27854.32
746.538	27905.62
746.877	27876.02
747.216	27909.01
747.556	27905.17
747.895	27781.33
748.234	27570.94
748.573	27559.42
748.911	27552.86
749.25	27553.54
749.589	27510.15
749.928	27449.59
750.267	27466.76
750.605	27413.43
750.944	27279.88
751.283	27236.26
751.621	27214.79
751.96	27109.03
752.298	27134.12
752.636	27102.25
752.975	26996.49
753.313	26804.86
753.651	26955.59
753.989	26795.59
754.327	26772.32
754.666	26645.32
755.004	26674.69
755.342	26662.27
755.679	26581.14
756.017	26479.44
756.355	26556.51
756.693	26310.18
757.031	26393.57
757.368	26332.78
757.706	26171.2
758.044	26217.3
758.381	26158.78
758.719	26038.78
759.056	25965.79
759.394	25941.61
759.731	25826.81
760.068	25651.9
760.405	25688.96
760.743	25655.74
761.08	25631.33
761.417	25446.93
761.754	25326.48
762.091	25374.62
762.428	25186.6
762.765	25131.46
763.102	24947.73
763.438	25034.51
763.775	24934.63
764.112	24968.3
764.449	24873.16
764.785	24746.61
765.122	24690.79
765.458	24606.05
765.795	24479.05
766.131	24440.18
766.467	24425.04
766.804	24275.44
767.14	24230.46
767.476	24096.91
767.812	24039.28
768.148	24020.53
768.485	23917.03
768.821	23771.95
769.157	23755.67
769.492	23712.96
769.828	23638.84
770.164	23527.43
770.5	23308.23
770.836	23467.77
771.171	23222.36
771.507	23247.67
771.842	22933.78
772.178	23120.89
772.513	23030.95
772.849	22923.38
773.184	22840.67
773.519	22872.53
773.855	22625.31
774.19	22530.85
774.525	22528.36
774.86	22597.06
775.195	22510.96
775.53	22360.01
775.865	22210.18
776.2	22074.36
776.535	21909.17
776.87	21971.77
777.205	21845.67
777.539	21794.82
777.874	21740.81
778.209	21576.75
778.543	21586.47
778.878	21404.78
779.212	21458.33
779.547	21212.92
779.881	21325
780.215	21150.77
780.55	21180.6
780.884	20939.93
781.218	20923.21
781.552	20823.77
781.886	20754.62
782.22	20693.61
782.554	20705.13
782.888	20414.29
783.222	20353.05
783.556	20316.9
783.889	20156.22
784.223	20187.86
784.557	20071.03
784.89	20094.08
785.224	20045.72
785.557	19994.19
785.891	19817.47
786.224	19802.33
786.558	19835.1
786.891	19637.82
787.224	19579.51
787.557	19449.8
787.891	19468.78
788.224	19360.54
788.557	19332.74
788.89	19205.29
789.223	19268.79
789.556	19111.05
789.888	19123.93
790.221	18911.73
790.554	18850.49
790.887	18824.05
791.219	18794.22
791.552	18671.06
791.884	18682.14
792.217	18577.96
792.549	18587.9
792.882	18429.94
793.214	18335.03
793.546	18398.08
793.879	18275.82
794.211	18152.66
794.543	18256.84
794.875	18078.99
795.207	18205.31
795.539	18040.12
795.871	17948.6
796.203	17794.02
796.535	17762.84
796.867	17770.3
797.198	17654.37
797.53	17645.33
797.862	17543.86
798.193	17558.78
798.525	17476.74
798.856	17551.77
799.188	17306.8
799.519	17167.37
799.85	17191.1
800.182	17101.16
800.513	17003.31
800.844	16977.32
801.175	17042.86
801.506	17008.28
801.837	16935.97
802.168	16839.7
802.499	16782.75
802.83	16705.92
803.161	16745.24
803.491	16712.02
803.822	16663.43
804.153	16532.81
804.483	16471.12
804.814	16431.35
805.145	16432.7
805.475	16365.13
805.805	16340.05
806.136	16286.49
806.466	16323.1
806.796	16208.3
807.126	16087.4
807.457	16067.06
807.787	16116.78
808.117	15931.93
808.447	16006.5
808.777	15981.64
809.107	15911.36
809.436	15792.04
809.766	15832.95
810.096	15794.08
810.426	15651.26
810.755	15731.03
811.085	15692.84
811.414	15590.24
811.744	15498.04
812.073	15579.17
812.403	15461.66
812.732	15358.61
813.061	15385.05
813.39	15281.32
813.719	15294.2
814.049	15216.69
814.378	15229.8
814.707	15183.24
815.036	15250.59
815.365	15109.35
815.693	14950.26
816.022	14939.86
816.351	14876.36
816.68	14815.34
817.008	14869.81
817.337	14804.5
817.665	14769.24
817.994	14793.2
818.322	14689.92
818.651	14683.14
818.979	14653.54
819.307	14662.13
819.636	14636.82
819.964	14535.58
820.292	14548.69
820.62	14512.3
820.948	14466.88
821.276	14551.4
821.604	14426.88
821.932	14502.13
822.259	14400.21
822.587	14441.57
822.915	14420.78
823.243	14470.5
823.57	14436.15
823.898	14379.65
824.225	14323.83
824.553	14405.19
824.88	14452.19
825.207	14487.67
825.535	14387.79
825.862	14405.86
826.189	14412.42
826.516	14436.15
826.843	14444.73
827.17	14455.35
827.497	14394.79
827.824	14355.24
828.151	14452.19
828.478	14453.09
828.805	14501.45
829.131	14385.75
829.458	14274.34
829.785	14277.05
830.111	14303.04
830.438	14388.24
830.764	14369.03
831.09	14292.65
831.417	14245.87
831.743	14381.91
832.069	14380.55
832.395	14248.58
832.722	14260.33
833.048	14250.84
833.374	14277.05
833.7	14189.6
834.026	14207.68
834.351	14199.99
834.677	14294.23
835.003	14236.15
835.329	14148.47
835.654	14105.99
835.98	14054.69
836.306	14123.61
836.631	14074.12
836.956	14096.72
837.282	14106.44
837.607	13999.32
837.932	13943.05
838.258	13943.73
838.583	13877.29
838.908	13916.84
839.233	13877.52
839.558	13808.14
839.883	13831.19
840.208	13768.82
840.533	13764.75
840.858	13803.85
841.182	13772.21
841.507	13719.33
841.832	13786.22
842.156	13664.41
842.481	13628.71
842.805	13557.52
843.13	13570.63
843.454	13565.43
843.778	13509.62
844.103	13490.41
844.427	13453.35
844.751	13352.33
845.075	13377.87
845.399	13350.3
845.723	13280.24
846.047	13305.1
846.371	13215.39
846.695	13209.29
847.019	13123.64
847.343	12998.9
847.666	12884.77
847.99	12906.24
848.313	12895.85
848.637	12814.49
848.96	12795.74
849.284	12775.17
849.607	12690.66
849.931	12652.92
850.254	12592.13
850.577	12543.09
850.9	12402.08
851.223	12437.55
851.546	12360.95
851.869	12254.28
852.192	12308.52
852.515	12225.81
852.838	12191.23
853.161	12101.97
853.483	12131.57
853.806	11962.76
854.129	12011.35
854.451	11892.26
854.774	12021.97
855.096	11864.69
855.419	11900.39
855.741	11879.83
856.063	11754.63
856.385	11666.73
856.708	11649.1
857.03	11579.95
857.352	11566.84
857.674	11666.05
857.996	11511.25
858.318	11550.57
858.64	11461.53
858.961	11432.61
859.283	11413.85
859.605	11278.94
859.926	11341.09
860.248	11387.86
860.57	11271.94
860.891	11311.26
861.212	11196.46
861.534	11263.8
861.855	11162.33
862.176	11160.3
862.498	11130.24
862.819	11132.28
863.14	11148.55
863.461	11077.82
863.782	11010.7
864.103	11083.47
864.424	11084.6
864.745	11017.48
865.065	10962.56
865.386	10939.06
865.707	10873.75
866.027	10916.46
866.348	10832.17
866.668	10869.01
866.989	10782.46
867.309	10775.23
867.63	10768.9
867.95	10769.58
868.27	10653.19
868.59	10780.42
868.91	10707.43
869.23	10676.92
869.55	10678.96
869.87	10738.62
870.19	10659.75
870.51	10669.69
870.83	10690.48
871.15	10595.57
871.469	10634.44
871.789	10592.86
872.109	10586.76
872.428	10538.62
872.748	10537.72
873.067	10530.94
873.386	10563.71
873.706	10515.34
874.025	10512.18
874.344	10387.66
874.663	10423.14
874.982	10399.19
875.301	10437.83
875.62	10325.97
875.939	10254.56
876.258	10332.75
876.577	10353.54
876.896	10224.05
877.214	10242.13
877.533	10313.77
877.852	10273.09
878.17	10245.75
878.489	10295.01
878.807	10220.44
879.125	10216.6
879.444	10143.15
879.762	10109.71
880.08	10102.25
880.398	10062.02
880.716	10109.48
881.034	9998.75
881.352	10016.38
881.67	10022.02
881.988	9941.57
882.306	9994.45
882.624	9946.55
882.941	9943.83
883.259	9853.67
883.577	9909.94
883.894	9821.58
884.212	9732.09
884.529	9785.65
884.846	9836.04
885.164	9832.65
885.481	9743.39
885.798	9811.63
886.115	9617.74
886.432	9721.02
886.75	9655.03
887.067	9664.52
887.383	9615.93
887.7	9589.72
888.017	9550.17
888.334	9544.75
888.651	9525.54
888.967	9513.79
889.284	9447.8
889.6	9433.11
889.917	9373.91
890.233	9370.97
890.55	9322.83
890.866	9324.42
891.182	9299.33
891.498	9332.78
891.815	9269.05
892.131	9229.96
892.447	9208.26
892.763	9149.73
893.079	9123.29
893.395	9106.57
893.71	9074.03
894.026	9111.54
894.342	9071.77
894.657	8972.33
894.973	9000.13
895.289	8975.5
895.604	8930.53
895.92	8905.9
896.235	8840.81
896.55	8880.13
896.865	8864.77
897.181	8764.66
897.496	8778.67
897.811	8715.62
898.126	8712
898.441	8648.95
898.756	8661.83
899.071	8621.61
899.386	8575.51
899.7	8535.51
900.015	8522.4
900.33	8486.25
900.644	8495.06
900.959	8445.57
901.273	8377.77
901.588	8365.57
901.902	8307.04
902.216	8251.68
902.531	8326.48
902.845	8282.18
903.159	8188.4
903.473	8126.26
903.787	8119.7
904.101	8065.24
904.415	8136.65
904.729	8035.18
905.042	8006.94
905.356	7945.7
905.67	8004.9
905.984	7923.55
906.297	7886.71
906.611	7865.92
906.924	7838.81
907.237	7883.1
907.551	7838.81
907.864	7717
908.177	7745.02
908.491	7738.92
908.804	7656.66
909.117	7602.2
909.43	7607.85
909.743	7544.8
910.056	7555.2
910.368	7507.74
910.681	7457.35
910.994	7426.61
911.307	7367.18
911.619	7325.6
911.932	7342.77
912.244	7321.76
912.557	7308.42
912.869	7263.91
913.181	7242.66
913.494	7182.55
913.806	7140.97
914.118	7162.44
914.43	7143
914.742	7093.51
915.054	7018.94
915.366	7108.65
915.678	6947.53
915.99	6927.87
916.302	6894.88
916.613	6924.93
916.925	6917.02
917.236	6858.94
917.548	6823.69
917.859	6850.81
918.171	6822.11
918.482	6742.34
918.794	6721.09
919.105	6698.95
919.416	6668.89
919.727	6639.74
920.038	6646.75
920.349	6540.31
920.66	6531.95
920.971	6540.31
921.282	6482
921.593	6507.09
921.903	6414.66
922.214	6377.83
922.525	6399.97
922.835	6326.53
923.146	6352.97
923.456	6345.29
923.767	6310.48
924.077	6326.53
924.387	6269.35
924.697	6204.5
925.008	6195.91
925.318	6139.64
925.628	6130.15
925.938	6095.57
926.248	6116.36
926.558	6019.42
926.867	6041.34
927.177	6030.04
927.487	5943.71
927.796	5902.13
928.106	5861.68
928.416	5899.2
928.725	5901.45
929.034	5818.52
929.344	5843.15
929.653	5793.44
929.962	5737.84
930.271	5731.52
930.581	5704.17
930.89	5731.74
931.199	5656.94
931.508	5659.43
931.817	5640.67
932.125	5574.68
932.434	5616.49
932.743	5556.15
933.051	5530.17
933.36	5534.91
933.669	5425.08
933.977	5468.92
934.286	5423.5
934.594	5427.8
934.902	5417.63
935.21	5349.83
935.519	5400
935.827	5331.75
936.135	5285.88
936.443	5230.29
936.751	5237.74
937.059	5275.03
937.367	5179.44
937.674	5196.61
937.982	5185.54
938.29	5171.53
938.597	5164.53
938.905	5116.39
939.213	5049.95
939.52	5011.08
939.827	5051.08
940.135	5033
940.442	5004.76
940.749	5010.86
941.056	4980.12
941.363	4954.14
941.67	4877.53
941.977	4843.86
942.284	4864.87
942.591	4845.66
942.898	4806.12
943.205	4830.52
943.511	4793.24
943.818	4770.64
944.125	4715.27
944.431	4744.42
944.738	4694.71
945.044	4701.71
945.35	4627.82
945.657	4652.67
945.963	4663.52
946.269	4598.21
946.575	4577.87
946.881	4506.01
947.187	4574.48
947.493	4575.84
947.799	4533.36
948.105	4480.93
948.41	4428.05
948.716	4435.96
949.022	4399.8
949.327	4407.48
949.633	4328.84
949.938	4405.9
950.244	4357.54
950.549	4292.23
950.854	4314.6
951.16	4266.24
951.465	4257.2
951.77	4257.2
952.075	4245.45
952.38	4235.51
952.685	4195.06
952.99	4220.82
953.294	4164.33
953.599	4167.94
953.904	4145.79
954.209	4091.56
954.513	4105.57
954.818	4079.58
955.122	4046.59
955.426	4039.13
955.731	4040.04
956.035	3987.61
956.339	4004.56
956.643	4012.01
956.948	3944.67
957.252	3937.21
957.556	3950.32
957.86	3845.46
958.163	3904.45
958.467	3847.27
958.771	3878.91
959.075	3843.2
959.378	3793.71
959.682	3813.6
959.985	3780.61
960.289	3770.89
960.592	3756.88
960.896	3733.38
961.199	3734.73
961.502	3680.72
961.805	3664.9
962.108	3690.44
962.411	3661.74
962.714	3658.12
963.017	3627.84
963.32	3612.7
963.623	3607.28
963.926	3617.67
964.228	3539.71
964.531	3530.67
964.833	3566.38
965.136	3484.8
965.438	3506.04
965.741	3493.61
966.043	3480.05
966.345	3441.18
966.648	3427.62
966.95	3440.28
967.252	3414.97
967.554	3419.94
967.856	3397.11
968.158	3364.35
968.46	3309.21
968.761	3322.99
969.063	3338.36
969.365	3324.8
969.666	3356.21
969.968	3269.43
970.269	3275.76
970.571	3266.27
970.872	3243.67
971.174	3166.39
971.475	3190.79
971.776	3214.75
972.077	3200.28
972.378	3170.23
972.679	3157.8
972.98	3173.17
973.281	3091.59
973.582	3137.23
973.883	3131.36
974.183	3105.14
974.484	3055.65
974.785	3074.41
975.085	3038.25
975.386	3061.3
975.686	3029.89
975.986	2999.61
976.287	3008.2
976.587	2949.89
976.887	2972.94
977.187	2977.24
977.487	2931.59
977.787	2923.91
978.087	2913.51
978.387	2900.4
978.687	2890.91
978.987	2866.73
979.286	2862.89
979.586	2827.19
979.885	2825.38
980.185	2789.45
980.484	2795.32
980.784	2806.85
981.083	2802.55
981.382	2741.31
981.682	2772.05
981.981	2783.12
982.28	2768.2
982.579	2727.98
982.878	2711.26
983.177	2696.12
983.475	2709.22
983.774	2657.92
984.073	2691.82
984.372	2657.47
984.67	2680.3
984.969	2641.43
985.267	2652.27
985.566	2642.56
985.864	2634.2
986.162	2588.55
986.461	2541.77
986.759	2573.86
987.057	2570.7
987.355	2538.38
987.653	2500.41
987.951	2545.84
988.249	2522.11
988.547	2493.18
988.844	2478.04
989.142	2495.22
989.44	2471.04
989.737	2437.37
990.035	2443.69
990.332	2415.9
990.63	2433.3
990.927	2438.27
991.224	2373.64
991.521	2388.55
991.819	2395.33
992.116	2344.71
992.413	2370.25
992.71	2328.67
993.006	2311.04
993.303	2336.58
993.6	2320.76
993.897	2329.8
994.193	2284.6
994.49	2304.71
994.787	2291.15
995.083	2244.15
995.379	2205.28
995.676	2254.32
995.972	2260.42
996.268	2217.94
996.565	2225.17
996.861	2162.8
997.157	2211.16
997.453	2197.15
997.749	2181.1
998.044	2150.14
998.34	2124.83
998.636	2129.35
998.932	2134.55
999.227	2116.92
999.523	2102.01
999.818	2070.37
1000.114	2114.66
1000.409	2069.92
1000.704	2073.31
1001	2049.58
1001.295	2039.18
1001.59	2040.54
1001.885	2030.82
1002.18	2009.81
1002.475	1984.27
1002.77	1999.18
1003.065	1959.19
1003.359	1961.67
1003.654	1968
1003.949	1924.61
1004.243	1937.49
1004.538	1939.98
1004.832	1917.83
1005.127	1874.67
1005.421	1883.26
1005.715	1861.56
1006.009	1866.53
1006.304	1870.83
1006.598	1849.58
1006.892	1840.09
1007.186	1815.91
1007.48	1821.56
1007.773	1823.37
1008.067	1804.61
1008.361	1775.69
1008.655	1811.17
1008.948	1777.5
1009.242	1734.33
1009.535	1768.68
1009.829	1727.1
1010.122	1706.76
1010.415	1708.8
1010.708	1722.81
1011.001	1694.56
1011.295	1669.7
1011.588	1675.58
1011.881	1648.23
1012.173	1680.32
1012.466	1642.13
1012.759	1627.44
1013.052	1599.42
1013.344	1628.8
1013.637	1609.82
1013.93	1590.16
1014.222	1623.15
1014.514	1591.06
1014.807	1566.88
1015.099	1563.94
1015.391	1560.33
1015.683	1581.34
1015.976	1539.54
1016.268	1514
1016.56	1501.12
1016.851	1513.1
1017.143	1500.89
1017.435	1483.04
1017.727	1487.33
1018.018	1485.07
1018.31	1465.64
1018.602	1474.68
1018.893	1441.91
1019.185	1450.05
1019.476	1422.48
1019.767	1444.4
1020.058	1427
1020.35	1424.96
1020.641	1382.48
1020.932	1384.29
1021.223	1396.49
1021.514	1384.96
1021.804	1354.68
1022.095	1346.55
1022.386	1363.27
1022.677	1334.57
1022.967	1322.82
1023.258	1307.9
1023.548	1317.17
1023.839	1289.15
1024.129	1306.77
1024.419	1284.63
1024.709	1282.14
1025	1291.41
1025.29	1274.01
1025.58	1271.29
1025.87	1255.93
1026.16	1236.94
1026.449	1240.79
1026.739	1213.44
1027.029	1203.27
1027.319	1204.4
1027.608	1179.77
1027.898	1185.42
1028.187	1169.6
1028.477	1175.48
1028.766	1187.91
1029.055	1142.94
1029.344	1145.2
1029.634	1141.13
1029.923	1119.89
1030.212	1102.71
1030.501	1131.18
1030.79	1131.41
1031.078	1072.88
1031.367	1080.34
1031.656	1070.62
1031.945	1077.18
1032.233	1073.79
1032.522	1066.78
1032.81	1063.39
1033.099	1060.9
1033.387	1044.86
1033.675	1045.76
1033.963	1030.4
1034.251	1027.68
1034.54	1036.05
1034.828	1017.74
1035.116	1028.59
1035.403	994.47
1035.691	999.44
1035.979	994.69
1036.267	979.55
1036.554	950.62
1036.842	965.09
1037.129	971.19
1037.417	963.28
1037.704	969.38
1037.992	944.98
1038.279	942.72
1038.566	942.72
1038.853	942.72
1039.14	942.72
