Data from hue_120_FLMS001491_00030.txt Node
Date: Tue Feb 07 16:59:09 GMT 2017
User: dcchb
Spectrometer: FLMS00149
Trigger mode: 0
Integration Time (sec): 2.000000E-2
Scans to average: 10
Electric dark correction enabled: true
Nonlinearity correction enabled: false
Boxcar width: 0
XAxis mode: Wavelengths
Number of Pixels in Spectrum: 2048
>>>>>Begin Spectral Data<<<<<
341.393	-11.89
341.776	-11.89
342.16	-11.89
342.543	-71.33
342.927	-59.12
343.31	-72.46
343.693	-55.06
344.077	-55.06
344.46	-47.37
344.843	-51.89
345.226	-57.54
345.61	-33.81
345.993	-17.77
346.376	-9.86
346.759	2.57
347.142	22.46
347.525	32.17
347.908	54.55
348.291	80.76
348.674	94.09
349.057	114.21
349.44	152.62
349.823	149.46
350.206	155.56
350.588	213.64
350.971	205.5
351.354	219.97
351.737	231.94
352.119	243.24
352.502	253.19
352.884	279.17
353.267	267.65
353.65	294.99
354.032	312.39
354.414	309
354.797	315.78
355.179	318.49
355.562	320.08
355.944	348.55
356.326	317.82
356.709	339.06
357.091	343.58
357.473	345.39
357.855	330.47
358.238	346.97
358.62	338.38
359.002	361.21
359.384	326.86
359.766	340.64
360.148	345.61
360.53	337.93
360.912	355.1
361.294	331.6
361.676	332.28
362.057	325.27
362.439	323.01
362.821	328.44
363.203	332.73
363.584	335.22
363.966	313.52
364.348	331.15
364.729	325.27
365.111	292.51
365.493	315.1
365.874	320.53
366.256	321.88
366.637	313.07
367.019	323.01
367.4	306.97
367.781	333.41
368.163	309.68
368.544	316.23
368.925	313.07
369.306	326.4
369.688	305.16
370.069	317.59
370.45	327.76
370.831	332.28
371.212	320.75
371.593	305.84
371.974	302
372.355	320.98
372.736	325.27
373.117	314.2
373.498	314.43
373.879	327.53
374.26	331.15
374.641	315.1
375.021	321.66
375.402	321.21
375.783	342.22
376.163	322.34
376.544	342
376.925	322.56
377.305	337.7
377.686	348.55
378.066	340.64
378.447	342.67
378.827	347.19
379.208	329.12
379.588	316.91
379.968	323.92
380.349	330.47
380.729	337.93
381.109	336.35
381.489	353.52
381.87	347.42
382.25	358.49
382.63	336.12
383.01	339.74
383.39	350.36
383.77	346.74
384.15	347.65
384.53	326.18
384.91	325.95
385.29	355.56
385.67	348.55
386.049	360.53
386.429	346.74
386.809	365.27
387.189	361.66
387.568	345.61
387.948	358.04
388.328	359.17
388.707	382.45
389.087	343.35
389.466	375.89
389.846	396.91
390.225	377.48
390.605	370.24
390.984	359.62
391.363	388.32
391.743	379.74
392.122	385.39
392.501	378.15
392.881	368.66
393.26	377.02
393.639	376.8
394.018	388.55
394.397	406.63
394.776	365.5
395.155	368.44
395.534	393.07
395.913	400.75
396.292	399.62
396.671	383.13
397.05	393.97
397.429	376.8
397.808	417.25
398.186	407.76
398.565	387.65
398.944	408.89
399.323	407.08
399.701	430.81
400.08	413.18
400.458	400.53
400.837	412.96
401.215	414.31
401.594	407.98
401.972	399.62
402.351	421.77
402.729	408.89
403.107	424.93
403.486	428.32
403.864	401.88
404.242	413.18
404.62	409.11
404.999	420.86
405.377	439.85
405.755	440.98
406.133	454.99
406.511	442.33
406.889	433.97
407.267	440.98
407.645	464.93
408.023	456.8
408.401	442.33
408.779	449.11
409.156	447.76
409.534	454.08
409.912	453.63
410.29	472.61
410.667	474.87
411.045	469.68
411.422	466.06
411.8	500.18
412.178	466.74
412.555	484.14
412.933	491.15
413.31	480.52
413.687	515.78
414.065	512.84
414.442	492.95
414.819	500.64
415.197	506.06
415.574	505.38
415.951	526.62
416.328	519.62
416.705	525.27
417.082	515.78
417.46	518.49
417.837	536.12
418.214	513.52
418.591	532.05
418.967	525.72
419.344	524.14
419.721	539.51
420.098	543.35
420.475	540.41
420.852	550.58
421.228	550.58
421.605	554.87
421.982	569.11
422.358	557.81
422.735	573.4
423.111	575.66
423.488	570.01
423.864	586.51
424.241	603.23
424.617	607.98
424.994	601.2
425.37	601.2
425.746	582.89
426.123	611.59
426.499	622.44
426.875	583.12
427.251	596.68
427.627	633.06
428.003	619.5
428.379	624.7
428.756	631.93
429.132	654.76
429.507	660.86
429.883	668.54
430.259	663.12
430.635	670.35
431.011	673.06
431.387	679.16
431.763	658.6
432.138	675.77
432.514	688.43
432.89	701.99
433.265	713.06
433.641	713.51
434.016	705.38
434.392	720.07
434.767	729.11
435.143	733.4
435.518	733.17
435.894	756.9
436.269	765.49
436.644	754.87
437.02	769.56
437.395	760.74
437.77	781.08
438.145	781.99
438.52	783.12
438.895	804.58
439.271	836.67
439.646	813.85
440.021	781.53
440.395	817.24
440.77	819.72
441.145	801.87
441.52	842.32
441.895	833.28
442.27	870.8
442.645	843.68
443.019	870.34
443.394	873.28
443.769	867.41
444.143	878.93
444.518	880.97
444.892	880.06
445.267	902.21
445.641	868.08
446.016	897.24
446.39	898.37
446.764	906.5
447.139	918.48
447.513	899.95
447.887	935.2
448.262	912.6
448.636	940.62
449.01	927.52
449.384	935.2
449.758	949.89
450.132	962.77
450.506	964.35
450.88	970.45
451.254	991.25
451.628	1003.67
452.002	998.25
452.376	1005.26
452.75	1017.46
453.123	1017.46
453.497	1042.09
453.871	1018.14
454.244	1041.41
454.618	1044.35
454.992	1072.15
455.365	1074.86
455.739	1115.31
456.112	1105.82
456.486	1101.07
456.859	1146.72
457.232	1150.34
457.606	1136.33
457.979	1168.19
458.352	1206.83
458.725	1210.22
459.099	1179.04
459.472	1224.46
459.845	1237.57
460.218	1258.58
460.591	1290.9
460.964	1277.11
461.337	1292.48
461.71	1308.3
462.083	1320.95
462.456	1357.34
462.829	1344.68
463.201	1379.71
463.574	1402.99
463.947	1415.64
464.32	1440.27
464.692	1472.59
465.065	1487.73
465.438	1500.38
465.81	1521.4
466.183	1513.49
466.555	1559.82
466.928	1576.31
467.3	1598.23
467.672	1595.07
468.045	1663.09
468.417	1651.57
468.789	1685.01
469.161	1687.5
469.534	1748.74
469.906	1786.93
470.278	1811.56
470.65	1848.4
471.022	1888.17
471.394	1919.58
471.766	1935.4
472.138	2017.21
472.51	2028.96
472.882	2094.94
473.253	2134.04
473.625	2161.38
473.997	2213.36
474.369	2239.12
474.74	2287.71
475.112	2323.41
475.484	2343.75
475.855	2467.36
476.227	2498.1
476.598	2567.7
476.97	2614.25
477.341	2725.44
477.713	2754.36
478.084	2769.96
478.455	2891.53
478.827	2958.88
479.198	3041.81
479.569	3100.12
479.94	3216.5
480.311	3264.41
480.682	3412.88
481.053	3510.05
481.424	3603.38
481.795	3633.44
482.166	3783.94
482.537	3871.4
482.908	3995.23
483.279	4035.01
483.65	4217.15
484.021	4340.08
484.391	4419.63
484.762	4525.39
485.133	4606.97
485.503	4689.23
485.874	4817.13
486.244	4980.07
486.615	5182.55
486.985	5239.5
487.356	5406.72
487.726	5496.66
488.097	5636.09
488.467	5777.33
488.837	5939.36
489.207	6062.98
489.578	6224.55
489.948	6309.98
490.318	6499.8
490.688	6661.15
491.058	6820.47
491.428	6904.08
491.798	7052.1
492.168	7190.86
492.538	7398.76
492.908	7480.57
493.278	7623.61
493.648	7756.04
494.017	7921.01
494.387	8063.83
494.757	8212.52
495.126	8344.5
495.496	8439.64
495.866	8610.03
496.235	8777.03
496.605	8821.55
496.974	9007.98
497.344	9103.8
497.713	9294.53
498.082	9367.97
498.452	9536.33
498.821	9568.65
499.19	9665.59
499.559	9859.94
499.928	9954.17
500.298	10141.06
500.667	10176.77
501.036	10237.1
501.405	10391
501.774	10429.87
502.143	10660.37
502.512	10669.63
502.88	10789.41
503.249	10818.33
503.618	10950.53
503.987	11012.45
504.356	11182.16
504.724	11277.08
505.093	11282.27
505.462	11342.61
505.83	11494.7
506.199	11589.61
506.567	11687.01
506.936	11758.65
507.304	11880.68
507.672	12000.22
508.041	12043.16
508.409	12140.33
508.777	12228.46
509.145	12261.91
509.514	12285.86
509.882	12393.88
510.25	12482.24
510.618	12524.73
510.986	12602.92
511.354	12669.81
511.722	12829.35
512.09	12876.36
512.458	12858.5
512.826	12984.38
513.193	13028.44
513.561	13003.58
513.929	13131.72
514.297	13206.97
514.664	13232.28
515.032	13311.37
515.4	13317.25
515.767	13372.39
516.135	13440.41
516.502	13357.7
516.869	13498.94
517.237	13593.85
517.604	13528.32
517.972	13689.22
518.339	13717.46
518.706	13717.01
519.073	13718.37
519.44	13796.33
519.808	13917.46
520.175	13884.92
520.542	13962.88
520.909	13999.26
521.276	14123.33
521.643	14089.21
522.009	14144.8
522.376	14194.06
522.743	14159.26
523.11	14303.66
523.477	14321.52
523.843	14426.37
524.21	14424.79
524.577	14479.93
524.943	14451.68
525.31	14482.64
525.676	14596.54
526.043	14619.36
526.409	14637.67
526.776	14731.67
527.142	14733.03
527.508	14701.39
527.874	14787.72
528.241	14738.91
528.607	14697.78
528.973	14841.28
529.339	14839.69
529.705	14930.99
530.071	14917.21
530.437	14991.55
530.803	14982.74
531.169	14962.18
531.535	14895.51
531.901	14904.55
532.267	14947.94
532.632	14959.47
532.998	14991.33
533.364	15012.12
533.73	14987.71
534.095	15017.09
534.461	14888.28
534.826	15014.38
535.192	14885.34
535.557	15052.8
535.923	14859.36
536.288	14815.51
536.653	14920.82
537.019	14875.4
537.384	14859.36
537.749	14884.67
538.114	14775.74
538.479	14755.4
538.845	14807.61
539.21	14769.64
539.575	14721.28
539.94	14594.96
540.305	14775.97
540.67	14576.2
541.034	14597.67
541.399	14603.09
541.764	14534.62
542.129	14579.14
542.494	14476.09
542.858	14500.04
543.223	14430.21
543.587	14453.04
543.952	14273.16
544.316	14328.97
544.681	14307.05
545.045	14225.02
545.41	14321.52
545.774	14253.27
546.138	14185.7
546.503	14151.58
546.867	14169.43
547.231	14174.4
547.595	14126.94
547.959	14065.03
548.324	14011.47
548.688	14007.85
549.052	13973.95
549.416	13886.05
549.779	13936.44
550.143	13774.19
550.507	13957.68
550.871	13902.77
551.235	13837.24
551.599	13795.43
551.962	13789.55
552.326	13790.91
552.689	13770.12
553.053	13691.7
553.417	13654.19
553.78	13744.81
554.143	13631.36
554.507	13643.12
554.87	13709.78
555.234	13683.34
555.597	13594.98
555.96	13520.63
556.323	13583.68
556.686	13550.24
557.05	13573.29
557.413	13559.73
557.776	13523.8
558.139	13558.15
558.502	13563.34
558.865	13575.55
559.228	13524.47
559.59	13568.99
559.953	13486.96
560.316	13680.85
560.679	13504.81
561.041	13670.01
561.404	13613.51
561.767	13578.03
562.129	13539.39
562.492	13636.11
562.854	13591.82
563.217	13529.67
563.579	13555.66
563.941	13659.16
564.304	13647.86
564.666	13600.63
565.028	13590.46
565.39	13591.14
565.753	13626.62
566.115	13659.61
566.477	13677.47
566.839	13696.67
567.201	13792.94
567.563	13820.06
567.925	13782.32
568.287	13786.39
568.648	13839.72
569.01	13783.23
569.372	13909.32
569.734	13799.04
570.095	13888.99
570.457	13903.45
570.819	13895.09
571.18	13888.76
571.542	13920.17
571.903	13902.09
572.265	13890.57
572.626	14010.79
572.987	13977.12
573.349	13929.89
573.71	13973.73
574.071	14092.82
574.432	14018.7
574.794	14056.21
575.155	14012.37
575.516	14006.72
575.877	14090.79
576.238	14021.64
576.599	14049.21
576.96	14152.03
577.32	14054.4
577.681	14042.65
578.042	14081.97
578.403	14029.55
578.763	14093.05
579.124	14137.79
579.485	14099.6
579.845	14179.37
580.206	14169.66
580.566	14110.67
580.927	14074.74
581.287	14222.08
581.648	14157.9
582.008	14146.61
582.368	14075.87
582.728	14125.59
583.089	14076.55
583.449	14164.46
583.809	14033.39
584.169	14079.49
584.529	14019.15
584.889	14150.9
585.249	13923.11
585.609	13911.81
585.969	14017.34
586.329	13975.31
586.688	13981.41
587.048	13943.9
587.408	13971.24
587.768	14017.34
588.127	13955.65
588.487	13929.44
588.846	14027.96
589.206	13881.3
589.565	13933.96
589.925	13979.83
590.284	13888.76
590.643	13963.33
591.003	13917.01
591.362	13976.21
591.721	13915.65
592.08	13910
592.44	13884.24
592.799	13884.92
593.158	13837.01
593.517	13845.37
593.876	13900.96
594.235	13766.73
594.593	13813.51
594.952	13768.99
595.311	13759.27
595.67	13790.68
596.029	13825.71
596.387	13908.19
596.746	13910.91
597.104	13772.15
597.463	13773.28
597.822	13868.42
598.18	13792.49
598.538	13789.55
598.897	13839.72
599.255	13649.67
599.613	13928.98
599.972	13873.84
600.33	13894.63
600.688	13763.34
601.046	13781.64
601.404	13793.62
601.762	13832.26
602.12	13868.87
602.478	13785.71
602.836	13826.16
603.194	13782.1
603.552	13805.15
603.91	13758.59
604.268	13790.68
604.625	13702.78
604.983	13729.67
605.341	13766.73
605.698	13840.17
606.056	13780.51
606.413	13864.58
606.771	13870.68
607.128	13829.78
607.485	13783.9
607.843	13871.58
608.2	13849.21
608.557	13912.71
608.914	13878.14
609.272	13904.58
609.629	13912.71
609.986	13947.74
610.343	13905.93
610.7	14014.86
611.057	13956.33
611.414	13922.88
611.771	13842.21
612.127	14046.72
612.484	13914.97
612.841	14029.09
613.198	13913.39
613.554	13973.5
613.911	14066.83
614.267	14041.52
614.624	13987.74
614.98	14075.65
615.337	14113.84
615.693	14084.23
616.05	14113.16
616.406	14116.78
616.762	14052.82
617.118	14097.57
617.475	14048.53
617.831	14161.52
618.187	14223.89
618.543	14191.35
618.899	14242.87
619.255	14241.74
619.611	14188.64
619.967	14279.03
620.323	14218.69
620.678	14206.49
621.034	14184.57
621.39	14118.81
621.746	14126.04
622.101	14313.15
622.457	14173.5
622.812	14213.27
623.168	14207.17
623.523	14201.97
623.879	14230.22
624.234	14180.73
624.589	14297.79
624.945	14264.79
625.3	14279.03
625.655	14222.76
626.01	14235.87
626.365	14174.18
626.72	14198.13
627.075	14306.38
627.43	14188.19
627.785	14154.29
628.14	14190.45
628.495	14241.74
628.85	14142.09
629.205	14146.61
629.559	14188.64
629.914	14105.7
630.269	14108.64
630.623	14123.56
630.978	14087.62
631.332	14136.66
631.687	14097.57
632.041	14097.57
632.396	14149.77
632.75	14041.52
633.104	14084.01
633.459	13919.72
633.813	14018.7
634.167	14025.93
634.521	13980.51
634.875	13985.71
635.229	14022.77
635.583	13896.67
635.937	13950.23
636.291	13882.88
636.645	13916.1
636.999	13795.43
637.352	13866.16
637.706	13752.27
638.06	13864.58
638.413	13791.81
638.767	13728.54
639.121	13784.13
639.474	13730.12
639.828	13682.89
640.181	13808.99
640.534	13715.88
640.888	13708.65
641.241	13588.43
641.594	13602.66
641.947	13738.71
642.301	13626.17
642.654	13716.79
643.007	13614.64
643.36	13661.87
643.713	13607.18
644.066	13642.89
644.419	13606.51
644.771	13437.7
645.124	13363.35
645.477	13247.42
645.83	13307.76
646.182	13232.05
646.535	13206.29
646.888	13132.39
647.24	13126.29
647.593	13209.23
647.945	13091.27
648.298	13151.6
648.65	13094.88
649.002	13103.02
649.355	13107.31
649.707	13103.7
650.059	13205.39
650.411	13369.9
650.763	13455.78
651.115	13473.63
651.467	13430.92
651.819	13420.52
652.171	13425.95
652.523	13423.01
652.875	13384.37
653.227	13351.82
653.578	13440.41
653.93	13438.6
654.282	13424.36
654.633	13345.72
654.985	13406.74
655.337	13351.37
655.688	13435.66
656.039	13468.21
656.391	13356.57
656.742	13344.82
657.094	13371.94
657.445	13422.33
657.796	13406.96
658.147	13407.64
658.498	13356.57
658.849	13386.63
659.2	13310.02
659.551	13312.73
659.902	13362.22
660.253	13427.75
660.604	13361.54
660.955	13427.08
661.306	13485.61
661.656	13425.72
662.007	13498.71
662.358	13440.41
662.708	13416.46
663.059	13411.03
663.409	13373.29
663.76	13500.75
664.11	13512.72
664.461	13488.09
664.811	13453.74
665.161	13424.59
665.511	13480.63
665.862	13482.67
666.212	13457.58
666.562	13518.37
666.912	13610.57
667.262	13458.71
667.612	13444.25
667.962	13514.53
668.312	13479.96
668.662	13575.1
669.011	13397.7
669.361	13443.35
669.711	13514.98
670.06	13420.3
670.41	13414.65
670.76	13450.58
671.109	13473.4
671.459	13418.26
671.808	13409
672.157	13403.12
672.507	13375.55
672.856	13390.02
673.205	13440.86
673.554	13347.08
673.904	13337.14
674.253	13434.99
674.602	13320.86
674.951	13134.88
675.3	13076.35
675.649	13319.28
675.998	13293.75
676.346	13251.49
676.695	13293.97
677.044	13190.25
677.393	13308.66
677.741	13307.76
678.09	13295.33
678.438	13177.82
678.787	13207.2
679.135	13127.88
679.484	13080.42
679.832	13214.43
680.181	13044.49
680.529	13140.53
680.877	12967.2
681.225	12990.03
681.573	13112.96
681.922	12989.12
682.27	13019.4
682.618	12902.57
682.966	12854.21
683.314	12905.73
683.661	12836.58
684.009	12872.29
684.357	12802.01
684.705	12833.65
685.053	12866.41
685.4	12812.63
685.748	12692.41
686.095	12724.04
686.443	12627.32
686.79	12603.82
687.138	12696.93
687.485	12587.78
687.832	12599.75
688.18	12540.77
688.527	12572.86
688.874	12475.01
689.221	12495.58
689.568	12361.57
689.915	12379.87
690.262	12328.57
690.609	12374.22
690.956	12329.03
691.303	12230.27
691.65	12159.31
691.997	12115.7
692.344	12069.6
692.69	12087
693.037	11962.03
693.383	11854.91
693.73	11951.41
694.077	11870.96
694.423	11841.58
694.769	11778.76
695.116	11751.87
695.462	11793.22
695.808	11695.37
696.155	11704.64
696.501	11638.2
696.847	11636.39
697.193	11486.11
697.539	11556.62
697.885	11451.31
698.231	11447.92
698.577	11456.73
698.923	11431.87
699.269	11376.28
699.614	11279.79
699.96	11257.42
700.306	11197.53
700.651	11155.95
700.997	11097.19
701.342	11101.26
701.688	11063.07
702.033	10987.59
702.379	11018.1
702.724	10995.28
703.069	10919.57
703.415	10873.7
703.76	10809.07
704.105	10809.74
704.45	10759.35
704.795	10701.95
705.14	10663.53
705.485	10654.95
705.83	10589.86
706.175	10607.72
706.52	10577.89
706.865	10554.61
707.209	10527.49
707.554	10462.18
707.899	10575.85
708.243	10412.01
708.588	10392.81
708.932	10340.6
709.277	10346.71
709.621	10306.48
709.966	10278.68
710.31	10236.2
710.654	10158.24
710.998	10199.82
711.342	10182.42
711.687	10165.69
712.031	10108.29
712.375	10115.98
712.719	10142.87
713.063	10096.54
713.407	10140.84
713.75	10109.88
714.094	9998.24
714.438	10002.08
714.782	9977.45
715.125	9935.19
715.469	9950.11
715.812	9911.01
716.156	9834.18
716.499	9927.73
716.843	9883.89
717.186	9786.95
717.53	9868.75
717.873	9787.62
718.216	9765.25
718.559	9762.31
718.902	9697.46
719.246	9761.86
719.589	9704.91
719.932	9655.88
720.275	9634.86
720.617	9641.41
720.96	9591.7
721.303	9664.92
721.646	9656.55
721.989	9641.41
722.331	9601.19
722.674	9516.44
723.016	9635.09
723.359	9632.37
723.701	9562.09
724.044	9558.03
724.386	9555.99
724.729	9560.74
725.071	9532.72
725.413	9550.12
725.755	9547.4
726.097	9532.26
726.439	9463.11
726.782	9462.66
727.124	9481.42
727.465	9418.14
727.807	9464.24
728.149	9469.44
728.491	9487.74
728.833	9416.56
729.175	9422.89
729.516	9449.78
729.858	9432.61
730.199	9456.56
730.541	9411.36
730.882	9409.1
731.224	9452.94
731.565	9360.97
731.906	9410.91
732.248	9342.21
732.589	9396
732.93	9340.86
733.271	9364.13
733.612	9418.59
733.953	9412.94
734.294	9325.72
734.635	9346.96
734.976	9335.66
735.317	9307.18
735.658	9317.13
735.999	9360.29
736.339	9340.63
736.68	9378.82
737.021	9393.74
737.361	9380.4
737.702	9394.87
738.042	9358.48
738.383	9394.64
738.723	9378.37
739.063	9395.77
739.404	9419.05
739.744	9404.13
740.084	9382.21
740.424	9442.55
740.764	9405.71
741.104	9505.37
741.444	9494.3
741.784	9468.76
742.124	9539.49
742.464	9527.07
742.804	9505.82
743.143	9496.33
743.483	9590.12
743.823	9535.2
744.162	9559.83
744.502	9616.1
744.841	9720.06
745.181	9696.78
745.52	9692.03
745.86	9715.31
746.199	9764.12
746.538	9828.3
746.877	9889.54
747.216	9948.75
747.556	10010.22
747.895	9989.88
748.234	9988.3
748.573	10094.06
748.911	10159.59
749.25	10246.82
749.589	10233.26
749.928	10370.21
750.267	10397.1
750.605	10440.26
750.944	10532.46
751.283	10583.76
751.621	10695.17
751.96	10805.9
752.298	10824.66
752.636	10930.42
752.975	11065.56
753.313	11107.36
753.651	11328.6
753.989	11386.23
754.327	11414.7
754.666	11476.62
755.004	11750.06
755.342	11862.82
755.679	11931.75
756.017	12135.58
756.355	12224.17
756.693	12355.92
757.031	12505.52
757.368	12618.96
757.706	12889.46
758.044	12932.63
758.381	13073.19
758.719	13161.77
759.056	13443.35
759.394	13459.17
759.731	13713.62
760.068	13785.26
760.405	13995.87
760.743	14116.1
761.08	14331.91
761.417	14473.15
761.754	14651.45
762.091	14829.75
762.428	15002.63
762.765	15101.38
763.102	15339.79
763.438	15466.8
763.775	15610.3
764.112	15688.94
764.449	15958.31
764.785	16092.54
765.122	16263.84
765.458	16365.76
765.795	16457.05
766.131	16676.03
766.467	16755.35
766.804	16864.27
767.14	17065.4
767.476	17232.4
767.812	17282.12
768.148	17518.95
768.485	17514.43
768.821	17652.95
769.157	17852.04
769.492	17913.06
769.828	18111.92
770.164	18100.17
770.5	18150.79
770.836	18325.03
771.171	18291.13
771.507	18455.87
771.842	18463.1
772.178	18708.29
772.513	18729.54
772.849	18767.27
773.184	18887.5
773.519	19063.09
773.855	18873.26
774.19	19012.01
774.525	19081.84
774.86	19221.95
775.195	19265.79
775.53	19287.49
775.865	19245.23
776.2	19291.55
776.535	19281.39
776.87	19336.07
777.205	19396.41
777.539	19349.63
777.874	19505.56
778.209	19438.44
778.543	19451.1
778.878	19408.39
779.212	19543.75
779.547	19483.41
779.881	19575.84
780.215	19519.57
780.55	19574.94
780.884	19489.74
781.218	19642.73
781.552	19617.42
781.886	19632.34
782.22	19550.53
782.554	19529.74
782.888	19432.34
783.222	19512.11
783.556	19485.22
783.889	19420.37
784.223	19341.5
784.557	19406.13
784.89	19446.81
785.224	19256.08
785.557	19265.11
785.891	19256.3
786.224	19321.61
786.558	19304.44
786.891	19207.49
787.224	19266.24
787.557	19278.45
787.891	19174.5
788.224	19156.87
788.557	19291.1
788.89	19100.15
789.223	19126.59
789.556	19112.35
789.888	19074.39
790.221	18991.9
790.554	18880.94
790.887	18896.09
791.219	18891.11
791.552	18816.54
791.884	18773.38
792.217	18763.21
792.549	18738.12
792.882	18696.99
793.214	18602.31
793.546	18643.66
793.879	18466.94
794.211	18421.3
794.543	18510.56
794.875	18472.14
795.207	18485.47
795.539	18306.5
795.871	18422.65
796.203	18221.75
796.535	18204.8
796.867	18170.68
797.198	18159.61
797.53	18151.47
797.862	18021.76
798.193	18178.36
798.525	18052.49
798.856	17982.21
799.188	17790.58
799.519	17810.69
799.85	17719.17
800.182	17849.56
800.513	17809.79
800.844	17696.79
801.175	17788.54
801.506	17641.88
801.837	17640.52
802.168	17560.53
802.499	17525.95
802.83	17468.33
803.161	17379.74
803.491	17468.33
803.822	17376.35
804.153	17332.74
804.483	17158.73
804.814	17165.28
805.145	17128.9
805.475	17176.81
805.805	17024.72
806.136	16959.86
806.466	17087.55
806.796	17001.22
807.126	16854.78
807.457	16860.88
807.787	16868.79
808.117	16861.34
808.447	16792.41
808.777	16761.9
809.107	16740.21
809.436	16705.86
809.766	16615.92
810.096	16563.72
810.426	16539.31
810.755	16652.53
811.085	16439.65
811.414	16541.57
811.744	16451.63
812.073	16374.34
812.403	16392.42
812.732	16290.28
813.061	16247.34
813.39	16088.7
813.719	16112.43
814.049	16241.92
814.378	16219.09
814.707	16127.8
815.036	16015.03
815.365	16079.89
815.693	15796.05
816.022	15933
816.351	15860.91
816.68	15736.85
817.008	15859.55
817.337	15724.19
817.665	15707.47
817.994	15700.01
818.322	15709.73
818.651	15625.89
818.979	15584.08
819.307	15592.22
819.636	15582.05
819.964	15431.54
820.292	15515.16
820.62	15502.95
820.948	15561.48
821.276	15568.49
821.604	15563.74
821.932	15460.47
822.259	15536.85
822.587	15521.94
822.915	15451.43
823.243	15581.82
823.57	15442.16
823.898	15500.24
824.225	15445.33
824.553	15476.06
824.88	15452.33
825.207	15486.68
825.535	15539.56
825.862	15523.07
826.189	15398.78
826.516	15483.97
826.843	15491.2
827.17	15568.71
827.497	15596.28
827.824	15530.52
828.151	15560.13
828.478	15580.24
828.805	15618.88
829.131	15461.6
829.458	15493.91
829.785	15397.87
830.111	15392.22
830.438	15604.87
830.764	15527.13
831.09	15554.93
831.417	15445.55
831.743	15530.98
832.069	15470.41
832.395	15362.17
832.722	15392.45
833.048	15400.13
833.374	15384.31
833.7	15372.34
834.026	15394.26
834.351	15472.67
834.677	15362.17
835.003	15358.78
835.329	15339.34
835.654	15288.95
835.98	15280.36
836.306	15325.33
836.631	15304.09
836.956	15225.45
837.282	15265.9
837.607	15311.55
837.932	15194.26
838.258	15192.45
838.583	15184.54
838.908	15147.94
839.233	15081.72
839.558	15035.85
839.883	14975.74
840.208	14943.65
840.533	15028.39
840.858	14873.59
841.182	14972.8
841.507	14935.06
841.832	14841.95
842.156	14889.41
842.481	14843.54
842.805	14806.02
843.13	14749.3
843.454	14750.88
843.778	14644.9
844.103	14592.02
844.427	14698.23
844.751	14610.1
845.075	14481.06
845.399	14540.49
845.723	14457.56
846.047	14457.78
846.371	14275.42
846.695	14349.09
847.019	14234.29
847.343	14173.05
847.666	14149.54
847.99	14084.23
848.313	14036.1
848.637	14038.36
848.96	13925.14
849.284	13913.62
849.607	13806.95
849.931	13747.75
850.254	13701.42
850.577	13634.53
850.9	13538.49
851.223	13550.01
851.546	13420.97
851.869	13327.64
852.192	13358.15
852.515	13323.58
852.838	13239.28
853.161	13178.27
853.483	13175.56
853.806	13051.49
854.129	13062.57
854.451	13013.75
854.774	12912.51
855.096	12923.59
855.419	12952.06
855.741	12952.96
856.063	12782.57
856.385	12798.39
856.708	12816.02
857.03	12728.11
857.352	12762.91
857.674	12645.85
857.996	12593.2
858.318	12503.71
858.64	12570.83
858.961	12497.61
859.283	12465.07
859.605	12403.15
859.926	12403.6
860.248	12425.07
860.57	12355.69
860.891	12319.53
861.212	12284.06
861.534	12213.1
861.855	12235.92
862.176	12212.87
862.498	12148.24
862.819	12113.44
863.14	12134.91
863.461	12105.98
863.782	12045.42
864.103	12071.41
864.424	12042.93
864.745	12009.03
865.065	11971.97
865.386	11865.76
865.707	11937.4
866.027	11898.75
866.348	11954.35
866.668	11839.77
866.989	11843.84
867.309	11797.97
867.63	11806.78
867.95	11790.06
868.27	11694.24
868.59	11670.06
868.91	11799.55
869.23	11633.9
869.55	11684.07
869.87	11733.11
870.19	11647.91
870.51	11624.86
870.83	11668.25
871.15	11523.17
871.469	11549.84
871.789	11625.77
872.109	11550.97
872.428	11448.82
872.748	11558.42
873.067	11424.87
873.386	11505.77
873.706	11495.83
874.025	11334.7
874.344	11373.8
874.663	11371.99
874.982	11324.53
875.301	11329.28
875.62	11293.12
875.939	11301.48
876.258	11228.94
876.577	11183.97
876.896	11263.07
877.214	11206.57
877.533	11166.8
877.852	11196.85
878.17	11160.02
878.489	11106.23
878.807	11105.33
879.125	11129.96
879.444	11051.77
879.762	11069.62
880.08	11069.17
880.398	11000.02
880.716	11057.2
881.034	11061.26
881.352	11040.25
881.67	10951.21
881.988	10922.96
882.306	10825.34
882.624	10941.04
882.941	10828.27
883.259	10853.13
883.577	10751.67
883.894	10787.15
884.212	10827.6
884.529	10730.2
884.846	10740.37
885.164	10737.88
885.481	10658.34
885.798	10689.3
886.115	10589.41
886.432	10647.71
886.75	10520.49
887.067	10601.16
887.383	10574.04
887.7	10523.42
888.017	10501.73
888.334	10468.51
888.651	10402.75
888.967	10388.51
889.284	10390.55
889.6	10331.34
889.917	10277.1
890.233	10216.99
890.55	10267.39
890.866	10194.17
891.182	10123.43
891.498	10121.17
891.815	10209.76
892.131	10082.76
892.447	10093.38
892.763	10101.06
893.079	9982.87
893.395	9992.36
893.71	9934.06
894.026	9901.75
894.342	9836.21
894.657	9821.07
894.973	9794.18
895.289	9788.08
895.604	9763.9
895.92	9761.41
896.235	9624.92
896.55	9654.52
896.865	9610.91
897.181	9548.31
897.496	9558.48
897.811	9532.72
898.126	9535.2
898.441	9448.65
898.756	9456.79
899.071	9417.24
899.386	9344.7
899.7	9317.13
900.015	9273.51
900.33	9184.7
900.644	9189.22
900.959	9263.8
901.273	9205.49
901.588	9141.99
901.902	9076
902.216	9012.96
902.531	9001.2
902.845	8981.32
903.159	8973.41
903.473	8868.55
903.787	8848.67
904.101	8857.03
904.415	8877.37
904.729	8768.22
905.042	8760.08
905.356	8707.2
905.67	8745.62
905.984	8682.79
906.297	8636.69
906.611	8650.25
906.924	8603.7
907.237	8539.97
907.551	8504.72
907.864	8485.06
908.177	8440.54
908.491	8462.91
908.804	8339.07
909.117	8319.87
909.43	8245.52
909.743	8222.02
910.056	8274.9
910.368	8162.36
910.681	8136.14
910.994	8102.24
911.307	8136.59
911.619	8084.84
911.932	7998.29
912.244	7980.21
912.557	7940.67
912.869	7927.11
913.181	7884.62
913.494	7827.68
913.806	7834.46
914.118	7774.34
914.43	7766.66
914.742	7710.39
915.054	7683.05
915.366	7671.07
915.678	7599.88
915.99	7587.23
916.302	7487.8
916.613	7510.85
916.925	7479.89
917.236	7438.08
917.548	7420.91
917.859	7431.3
918.171	7363.51
918.482	7348.82
918.794	7250.52
919.105	7269.5
919.416	7253.23
919.727	7215.04
920.038	7166.22
920.349	7170.52
920.66	7153.34
920.971	7097.3
921.282	7070.63
921.593	7048.71
921.903	7018.66
922.214	7011.2
922.525	6961.94
922.835	6946.79
923.146	6868.38
923.456	6866.8
923.767	6871.99
924.077	6807.59
924.387	6804.88
924.697	6797.42
925.008	6725.33
925.318	6653.24
925.628	6744.77
925.938	6644.43
926.248	6605.33
926.558	6589.06
926.867	6521.27
927.177	6551.78
927.487	6494.15
927.796	6425
928.106	6432.91
928.416	6416.41
928.725	6455.51
929.034	6368.5
929.344	6353.36
929.653	6328.96
929.962	6287.38
930.271	6217.55
930.581	6204.44
930.89	6144.33
931.199	6167.61
931.508	6152.69
931.817	6177.1
932.125	6106.36
932.434	6135.74
932.743	6051.45
933.051	6050.55
933.36	5978.46
933.669	5924.22
933.977	5925.13
934.286	5977.78
934.594	5920.83
934.902	5911.79
935.21	5814.62
935.519	5841.06
935.827	5849.2
936.135	5783.21
936.443	5720.61
936.751	5715.41
937.059	5750.67
937.367	5661.18
937.674	5629.09
937.982	5615.53
938.29	5642.2
938.597	5626.38
938.905	5564.46
939.213	5492.6
939.52	5510
939.827	5541.41
940.135	5462.09
940.442	5478.13
940.749	5467.74
941.056	5402.2
941.363	5389.1
941.67	5342.54
941.977	5315.2
942.284	5271.58
942.591	5282.43
942.898	5264.81
943.205	5281.53
943.511	5220.74
943.818	5266.84
944.125	5244.47
944.431	5135.32
944.738	5137.58
945.044	5064.81
945.35	5087.41
945.657	5091.48
945.963	5036.34
946.269	5023.46
946.575	4981.2
946.881	4979.16
947.187	4978.71
947.493	4991.59
947.799	4927.19
948.105	4931.93
948.41	4826.17
948.716	4841.31
949.022	4815.78
949.327	4822.56
949.633	4781.65
949.938	4773.74
950.244	4804.7
950.549	4723.8
950.854	4715.44
951.16	4673.41
951.465	4680.64
951.77	4627.53
952.075	4612.84
952.38	4584.82
952.685	4586.18
952.99	4582.34
953.294	4551.38
953.599	4547.99
953.904	4501.21
954.209	4465.5
954.513	4499.85
954.818	4481.1
955.122	4415.34
955.426	4428.44
955.731	4373.76
956.035	4372.85
956.339	4358.39
956.643	4330.82
956.948	4298.95
957.252	4277.49
957.556	4313.64
957.86	4237.49
958.163	4223.93
958.467	4275.45
958.771	4223.7
959.075	4190.71
959.378	4170.14
959.682	4129.92
959.985	4133.31
960.289	4113.2
960.592	4076.59
960.896	4072.29
961.199	4049.92
961.502	4053.99
961.805	4044.72
962.108	4035.23
962.411	4020.54
962.714	3985.97
963.017	3979.64
963.32	3994.1
963.623	3918.85
963.926	3893.32
964.228	3933.09
964.531	3886.08
964.833	3867.33
965.136	3856.93
965.438	3794.11
965.741	3784.62
966.043	3760.44
966.345	3821.23
966.648	3791.17
966.95	3726.99
967.252	3756.82
967.554	3707.56
967.856	3692.64
968.158	3656.49
968.46	3638.41
968.761	3661.68
969.063	3621.23
969.365	3659.65
969.666	3579.65
969.968	3566.32
970.269	3573.1
970.571	3567.9
970.872	3549.37
971.174	3494.46
971.475	3509.82
971.776	3478.19
972.077	3491.74
972.378	3482.03
972.679	3456.94
972.98	3436.83
973.281	3400.9
973.582	3421.92
973.883	3378.3
974.183	3387.57
974.484	3380.33
974.785	3351.86
975.085	3423.72
975.386	3324.97
975.686	3317.51
975.986	3285.87
976.287	3302.82
976.587	3275.7
976.887	3267.12
977.187	3241.13
977.487	3197.51
977.787	3176.95
978.087	3172.66
978.387	3169.49
978.687	3165.2
978.987	3153.22
979.286	3126.78
979.586	3119.32
979.885	3118.42
980.185	3104.41
980.484	3061.47
980.784	3038.87
981.083	3056.28
981.382	3077.29
981.682	3016.95
981.981	3025.32
982.28	3005.2
982.579	2995.26
982.878	2956.84
983.177	2949.39
983.475	2955.71
983.774	2901.48
984.073	2910.29
984.372	2900.12
984.67	2839.56
984.969	2901.7
985.267	2883.17
985.566	2889.95
985.864	2854.02
986.162	2814.25
986.461	2792.33
986.759	2797.53
987.057	2739.45
987.355	2763.4
987.653	2747.36
987.951	2737.19
988.249	2725.66
988.547	2721.6
988.844	2697.64
989.142	2692.9
989.44	2717.53
989.737	2682.27
990.035	2644.76
990.332	2661.94
990.63	2611.77
990.927	2625.55
991.224	2588.94
991.521	2605.21
991.819	2596.4
992.116	2590.07
992.413	2570.64
992.71	2517.31
993.006	2533.35
993.303	2516.18
993.6	2539.9
993.897	2484.54
994.193	2463.75
994.49	2467.82
994.787	2472.11
995.083	2403.64
995.379	2452.68
995.676	2435.5
995.972	2431.66
996.268	2375.16
996.565	2386.24
996.861	2390.08
997.157	2355.73
997.453	2374.94
997.749	2354.15
998.044	2314.37
998.34	2342.85
998.636	2328.84
998.932	2297.2
999.227	2288.39
999.523	2281.38
999.818	2276.86
1000.114	2237.77
1000.409	2213.81
1000.704	2205.22
1001	2200.48
1001.295	2207.71
1001.59	2194.38
1001.885	2183.3
1002.18	2149.18
1002.475	2132.01
1002.77	2139.46
1003.065	2136.53
1003.359	2093.14
1003.654	2085
1003.949	2091.78
1004.243	2080.71
1004.538	2053.14
1004.832	2071.89
1005.127	2056.53
1005.421	2038.45
1005.715	2028.73
1006.009	2060.14
1006.304	2006.36
1006.598	1964.33
1006.892	1988.51
1007.186	1967.72
1007.48	1996.19
1007.773	1947.38
1008.067	1962.07
1008.361	1945.34
1008.655	1903.09
1008.948	1929.53
1009.242	1912.35
1009.535	1871.22
1009.829	1881.17
1010.122	1875.06
1010.415	1831
1010.708	1833.48
1011.001	1794.61
1011.295	1811.56
1011.588	1825.8
1011.881	1759.36
1012.173	1779.7
1012.466	1751.45
1012.759	1772.69
1013.052	1720.49
1013.344	1755.74
1013.637	1755.74
1013.93	1743.99
1014.222	1708.97
1014.514	1673.04
1014.807	1668.97
1015.099	1681.85
1015.391	1673.71
1015.683	1656.99
1015.976	1648.63
1016.268	1637.1
1016.56	1635.52
1016.851	1582.42
1017.143	1630.1
1017.435	1618.57
1017.727	1595.52
1018.018	1583.32
1018.31	1563.43
1018.602	1554.17
1018.893	1552.81
1019.185	1554.62
1019.476	1542.64
1019.767	1528.86
1020.058	1510.78
1020.35	1510.1
1020.641	1488.18
1020.932	1483.44
1021.223	1481.18
1021.514	1479.37
1021.804	1444.34
1022.095	1442.53
1022.386	1421.74
1022.677	1450.89
1022.967	1405.47
1023.258	1409.54
1023.548	1406.83
1023.839	1440.72
1024.129	1389.43
1024.419	1358.92
1024.709	1368.18
1025	1361.18
1025.29	1341.74
1025.58	1336.77
1025.87	1317.34
1026.16	1298.13
1026.449	1313.95
1026.739	1298.13
1027.029	1268.3
1027.319	1273.5
1027.608	1286.83
1027.898	1273.05
1028.187	1256.32
1028.477	1253.16
1028.766	1241.86
1029.055	1202.09
1029.344	1226.27
1029.634	1234.4
1029.923	1212.48
1030.212	1207.74
1030.501	1186.72
1030.79	1182.43
1031.078	1172.26
1031.367	1181.3
1031.656	1192.82
1031.945	1146.95
1032.233	1155.31
1032.522	1152.82
1032.81	1138.36
1033.099	1140.17
1033.387	1110.56
1033.675	1128.42
1033.963	1091.13
1034.251	1095.88
1034.54	1075.31
1034.828	1097.23
1035.116	1069.44
1035.403	1072.15
1035.691	1063.33
1035.979	1062.88
1036.267	1032.37
1036.554	1051.81
1036.842	1039.38
1037.129	1047.97
1037.417	1009.55
1037.704	1031.47
1037.992	1005.71
1038.279	1004.8
1038.566	990.12
1038.853	990.12
1039.14	990.12
