Data from hue_34_FLMS001491_00020.txt Node
Date: Tue Feb 07 17:25:16 GMT 2017
User: dcchb
Spectrometer: FLMS00149
Trigger mode: 0
Integration Time (sec): 2.000000E-2
Scans to average: 10
Electric dark correction enabled: true
Nonlinearity correction enabled: false
Boxcar width: 0
XAxis mode: Wavelengths
Number of Pixels in Spectrum: 2048
>>>>>Begin Spectral Data<<<<<
341.393	-0.92
341.776	-0.92
342.16	-0.92
342.543	-62.39
342.927	-76.4
343.31	-72.78
343.693	-48.15
344.077	-73.46
344.46	-66.91
344.843	-63.29
345.226	-58.54
345.61	-33.46
345.993	2.25
346.376	6.09
346.759	1.34
347.142	22.81
347.525	42.92
347.908	84.96
348.291	57.61
348.674	85.86
349.057	112.75
349.44	147.78
349.823	140.77
350.206	158.63
350.588	191.85
350.971	204.5
351.354	227.78
351.737	237.72
352.119	250.83
352.502	279.3
352.884	282.24
353.267	300.99
353.65	282.24
354.032	305.74
354.414	311.16
354.797	328.79
355.179	325.18
355.562	320.43
355.944	316.81
356.326	321.56
356.709	332.86
357.091	338.28
357.473	354.33
357.855	344.84
358.238	370.6
358.62	331.28
359.002	350.26
359.384	329.24
359.766	347.32
360.148	362.01
360.53	342.58
360.912	323.82
361.294	348.9
361.676	337.83
362.057	329.47
362.439	322.46
362.821	342.12
363.203	340.54
363.584	334.67
363.966	321.33
364.348	323.14
364.729	328.34
365.111	321.79
365.493	332.63
365.874	326.3
366.256	362.91
366.637	321.33
367.019	328.79
367.4	336.02
367.781	325.85
368.163	310.03
368.544	311.62
368.925	323.14
369.306	347.77
369.688	317.49
370.069	329.02
370.45	313.65
370.831	300.99
371.212	331.73
371.593	299.64
371.974	318.85
372.355	340.54
372.736	309.13
373.117	325.63
373.498	323.37
373.879	315.68
374.26	315.91
374.641	319.75
375.021	322.01
375.402	333.99
375.783	326.3
376.163	337.38
376.544	316.81
376.925	358.62
377.305	339.64
377.686	324.95
378.066	345.51
378.447	348.68
378.827	313.65
379.208	329.92
379.588	323.82
379.968	350.94
380.349	338.96
380.729	330.82
381.109	359.07
381.489	331.95
381.87	336.47
382.25	352.52
382.63	343.03
383.01	331.05
383.39	337.83
383.77	320.66
384.15	356.59
384.53	342.35
384.91	361.33
385.29	352.52
385.67	350.94
386.049	344.16
386.429	352.74
386.809	362.24
387.189	377.6
387.568	365.63
387.948	343.71
388.328	349.81
388.707	364.5
389.087	358.39
389.466	362.24
389.846	377.38
390.225	378.28
390.605	356.59
390.984	353.42
391.363	376.25
391.743	397.72
392.122	392.74
392.501	369.24
392.881	373.08
393.26	382.12
393.639	388.9
394.018	397.49
394.397	378.06
394.776	364.72
395.155	387.09
395.534	379.41
395.913	391.84
396.292	434.1
396.671	376.47
397.05	421.67
397.429	393.2
397.808	378.73
398.186	388.68
398.565	379.86
398.944	371.95
399.323	402.01
399.701	384.16
400.08	402.46
400.458	399.3
400.837	409.01
401.215	405.4
401.594	382.35
401.972	389.58
402.351	409.24
402.729	407.43
403.107	418.96
403.486	416.47
403.864	407.88
404.242	417.83
404.62	420.99
404.999	411.73
405.377	404.72
405.755	428.9
406.133	439.07
406.511	420.54
406.889	438.84
407.267	444.49
407.645	444.72
408.023	449.69
408.401	443.82
408.779	458.5
409.156	463.48
409.534	431.16
409.912	427.09
410.29	450.82
410.667	441.1
411.045	467.77
411.422	453.53
411.8	481.1
412.178	479.75
412.555	472.29
412.933	464.83
413.31	488.56
413.687	477.49
414.065	465.96
414.442	489.01
414.819	498.28
415.197	505.96
415.574	483.36
415.951	500.76
416.328	505.96
416.705	487.2
417.082	487.66
417.46	497.15
417.837	511.38
418.214	508
418.591	511.84
418.967	533.98
419.344	521.78
419.721	525.85
420.098	549.12
420.475	531.95
420.852	523.81
421.228	526.3
421.605	556.81
421.982	544.15
422.358	538.73
422.735	532.63
423.111	556.58
423.488	540.54
423.864	528.33
424.241	547.77
424.617	572.4
424.994	554.1
425.37	558.39
425.746	579.41
426.123	591.61
426.499	582.34
426.875	583.02
427.251	566.98
427.627	590.25
428.003	571.5
428.379	593.42
428.756	611.5
429.132	614.21
429.507	604.26
429.883	634.32
430.259	613.98
430.635	630.03
431.011	643.58
431.387	629.57
431.763	618.95
432.138	643.58
432.514	642.23
432.89	640.42
433.265	667.76
433.641	672.06
434.016	656.69
434.392	678.16
434.767	665.96
435.143	702.57
435.518	686.52
435.894	704.6
436.269	693.75
436.644	722.23
437.02	723.81
437.395	690.14
437.77	720.19
438.145	745.73
438.52	721.32
438.895	732.85
439.271	759.29
439.646	749.34
440.021	749.8
440.395	754.09
440.77	764.49
441.145	756.12
441.52	772.85
441.895	770.36
442.27	771.72
442.645	770.81
443.019	811.72
443.394	775.11
443.769	802.22
444.143	790.93
444.518	802.68
444.892	784.82
445.267	785.5
445.641	797.93
446.016	839.74
446.39	817.59
446.764	820.53
447.139	831.38
447.513	859.4
447.887	811.94
448.262	842.45
448.636	831.15
449.01	861.43
449.384	829.57
449.758	868.21
450.132	876.57
450.506	864.14
450.88	876.35
451.254	874.99
451.628	878.61
452.002	902.56
452.376	916.35
452.75	896.46
453.123	921.09
453.497	928.1
453.871	933.29
454.244	955.89
454.618	976.91
454.992	970.13
455.365	957.7
455.739	994.76
456.112	993.18
456.486	1006.97
456.859	999.28
457.232	1020.07
457.606	1020.07
457.979	1052.39
458.352	1056.23
458.725	1071.6
459.099	1068.66
459.472	1067.53
459.845	1082.67
460.218	1072.73
460.591	1092.39
460.964	1124.48
461.337	1128.32
461.71	1138.26
462.083	1157.47
462.456	1137.81
462.829	1150.01
463.201	1172.84
463.574	1197.92
463.947	1232.5
464.32	1250.35
464.692	1233.17
465.065	1239.5
465.438	1298.03
465.81	1308.65
466.183	1324.24
466.555	1328.99
466.928	1346.62
467.3	1325.37
467.672	1367.41
468.045	1393.85
468.417	1418.03
468.789	1419.84
469.161	1437.24
469.534	1447.86
469.906	1498.7
470.278	1552.71
470.65	1516.1
471.022	1545.03
471.394	1574.86
471.766	1626.84
472.138	1641.07
472.51	1669.09
472.882	1686.5
473.253	1714.74
473.625	1773.5
473.997	1789.54
474.369	1789.32
474.74	1845.36
475.112	1877.22
475.484	1917.22
475.855	1951.8
476.227	1952.48
476.598	2029.54
476.97	2086.03
477.341	2132.59
477.713	2164.22
478.084	2198.35
478.455	2248.06
478.827	2312.92
479.198	2394.95
479.569	2407.38
479.94	2455.74
480.311	2502.07
480.682	2586.58
481.053	2657.77
481.424	2734.6
481.795	2789.74
482.166	2837.65
482.537	2885.11
482.908	3000.81
483.279	3027.02
483.65	3105.67
484.021	3199.45
484.391	3249.62
484.762	3317.41
485.133	3383.17
485.503	3488.26
485.874	3540.91
486.244	3624.3
486.615	3725.09
486.985	3806.21
487.356	3874.91
487.726	3966.44
488.097	4028.13
488.467	4120.33
488.837	4270.16
489.207	4297.95
489.578	4377.72
489.948	4469.02
490.318	4637.83
490.688	4662.69
491.058	4746.3
491.428	4866.07
491.798	4941.55
492.168	5057.03
492.538	5123.92
492.908	5189
493.278	5314.2
493.648	5341.99
494.017	5454.31
494.387	5518.48
494.757	5581.08
495.126	5687.75
495.496	5754.86
495.866	5846.84
496.235	5960.28
496.605	5987.85
496.974	6118.92
497.344	6184.46
497.713	6223.55
498.082	6279.37
498.452	6397.78
498.821	6473.04
499.19	6465.35
499.559	6578.57
499.928	6625.57
500.298	6705.8
500.667	6816.08
501.036	6887.94
501.405	6919.8
501.774	6978.33
502.143	7073.02
502.512	7109.18
502.88	7207.71
503.249	7192.57
503.618	7286.8
503.987	7382.62
504.356	7469.85
504.724	7473.24
505.093	7570.63
505.462	7585.1
505.83	7643.63
506.199	7758.65
506.567	7817.86
506.936	7902.38
507.304	7957.74
507.672	8009.49
508.041	8067.12
508.409	8132.88
508.777	8175.59
509.145	8248.81
509.514	8289.94
509.882	8340.78
510.25	8349.14
510.618	8475.92
510.986	8451.29
511.354	8566.54
511.722	8575.35
512.09	8762.47
512.458	8666.88
512.826	8807.89
513.193	8824.39
513.561	8859.19
513.929	8932.86
514.297	8998.39
514.664	9118.16
515.032	9064.15
515.4	9162.23
515.767	9226.64
516.135	9316.35
516.502	9185.73
516.869	9442.9
517.237	9377.14
517.604	9408.1
517.972	9451.49
518.339	9567.42
518.706	9602.9
519.073	9625.5
519.44	9673.63
519.808	9724.7
520.175	9663.91
520.542	9796.11
520.909	9895.32
521.276	9918.6
521.643	9996.56
522.009	10069.78
522.376	10204.69
522.743	10135.09
523.11	10307.51
523.477	10376.21
523.843	10403.1
524.21	10466.83
524.577	10524.23
524.943	10604
525.31	10745.47
525.676	10722.19
526.043	10813.03
526.409	10728.97
526.776	10906.59
527.142	10950.88
527.508	11029.98
527.874	11142.29
528.241	11178.22
528.607	11250.09
528.973	11309.52
529.339	11280.14
529.705	11359.24
530.071	11455.28
530.437	11466.13
530.803	11566.24
531.169	11708.38
531.535	11617.76
531.901	11709.73
532.267	11707.7
532.632	11843.74
532.998	11845.55
533.364	11928.26
533.73	11945.66
534.095	12125.32
534.461	12203.51
534.826	12158.08
535.192	12213.68
535.557	12280.11
535.923	12272.21
536.288	12371.41
536.653	12464.06
537.019	12435.14
537.384	12475.59
537.749	12557.85
538.114	12632.42
538.479	12644.17
538.845	12784.06
539.21	12669.26
539.575	12851.63
539.94	12747.22
540.305	12856.6
540.67	12902.47
541.034	12947.89
541.399	13002.81
541.764	13020.66
542.129	13088.68
542.494	13164.16
542.858	13221.11
543.223	13271.5
543.587	13248.45
543.952	13248.9
544.316	13326.87
544.681	13382.46
545.045	13494.32
545.41	13556.24
545.774	13561.21
546.138	13606.86
546.503	13691.15
546.867	13795.33
547.231	13773.18
547.595	13852.5
547.959	13898.83
548.324	13942.67
548.688	13948.09
549.052	14022.89
549.416	14066.06
549.779	14053.85
550.143	14080.07
550.507	14213.62
550.871	14199.84
551.235	14270.8
551.599	14342.66
551.962	14358.48
552.326	14478.25
552.689	14518.47
553.053	14513.73
553.417	14593.05
553.78	14787.39
554.143	14713.5
554.507	14826.71
554.87	14704.01
555.234	14866.26
555.597	14933.15
555.96	14875.75
556.323	15058.8
556.686	14997.56
557.05	15082.08
557.413	15147.38
557.776	15188.97
558.139	15205.91
558.502	15253.37
558.865	15331.79
559.228	15470.09
559.59	15449.52
559.953	15449.75
560.316	15635.05
560.679	15631.44
561.041	15779.01
561.404	15762.96
561.767	15861.94
562.129	15852
562.492	15983.07
562.854	15993.69
563.217	16068.49
563.579	16036.17
563.941	16195.04
564.304	16155.27
564.666	16322.72
565.028	16406.33
565.39	16359.56
565.753	16439.33
566.115	16436.39
566.477	16654.92
566.839	16627.12
567.201	16707.34
567.563	16665.08
567.925	16872.08
568.287	16894.23
568.648	16939.2
569.01	16952.31
569.372	17177.16
569.734	17206.54
570.095	17229.82
570.457	17309.14
570.819	17366.76
571.18	17333.09
571.542	17533.54
571.903	17525.4
572.265	17626.42
572.626	17677.94
572.987	17838.61
573.349	17835.22
573.71	17941.44
574.071	18018.04
574.432	18159.51
574.794	18335.77
575.155	18336.23
575.516	18399.95
575.877	18556.11
576.238	18568.09
576.599	18703.67
576.96	18842.43
577.32	18804.69
577.681	19014.18
578.042	19193.38
578.403	19232.7
578.763	19313.83
579.124	19491
579.485	19667.27
579.845	19791.78
580.206	19916.07
580.566	20055.5
580.927	20164.65
581.287	20417.3
581.648	20570.97
582.008	20825.88
582.368	20845.99
582.728	21214.8
583.089	21082.6
583.449	21426.54
583.809	21673.54
584.169	21851.39
584.529	21982.46
584.889	22310.81
585.249	22372.73
585.609	22488.66
585.969	22896.56
586.329	22971.36
586.688	23184.24
587.048	23465.58
587.408	23610.66
587.768	23780.6
588.127	24110.09
588.487	24336.75
588.846	24696.51
589.206	24865.55
589.565	24953.91
589.925	25325.65
590.284	25562.25
590.643	25804.05
591.003	26134.67
591.362	26437.26
591.721	26559.51
592.08	26768.32
592.44	27079.73
592.799	27271.36
593.158	27513.84
593.517	27880.16
593.876	28120.6
594.235	28251.45
594.593	28511.55
594.952	28786.35
595.311	28846.69
595.67	29284.19
596.029	29627.91
596.387	29770.05
596.746	30131.17
597.104	30202.58
597.463	30592.18
597.822	30762.34
598.18	30946.97
598.538	31128.88
598.897	31596.22
599.255	31524.35
599.613	32235.97
599.972	32141.29
600.33	32581.73
600.688	32602.74
601.046	32905.34
601.404	33331.31
601.762	33262.16
602.12	33804.97
602.478	33860.11
602.836	34105.53
603.194	33980.34
603.552	34381.45
603.91	34443.6
604.268	34725.63
604.625	34756.36
604.983	35019.63
605.341	35184.82
605.698	35473.4
606.056	35715.88
606.413	35601.31
606.771	35997.01
607.128	36172.59
607.485	36225.02
607.843	36459.37
608.2	36734.39
608.557	36868.17
608.914	36883.99
609.272	37142.96
609.629	37410.3
609.986	37750.86
610.343	37614.59
610.7	37925.99
611.057	37962.15
611.414	38145.88
611.771	38264.97
612.127	38501.8
612.484	38606.88
612.841	38949.02
613.198	38766.65
613.554	38940.88
613.911	39216.13
614.267	39219.75
614.624	39269.46
614.98	39603.92
615.337	39849.11
615.693	39904.7
616.05	39745.61
616.406	40188.08
616.762	40233.96
617.118	40215.65
617.475	40259.27
617.831	40401.41
618.187	40638.01
618.543	40593.49
618.899	40916.88
619.255	40941.28
619.611	40922.98
619.967	41101.5
620.323	41312.12
620.678	41278
621.034	41329.29
621.39	41311.22
621.746	41390.76
622.101	41839.79
622.457	41532.68
622.812	41858.55
623.168	41790.07
623.523	41903.97
623.879	41947.36
624.234	41715.73
624.589	42000.69
624.945	41993.68
625.3	42169.27
625.655	42088.82
626.01	42281.81
626.365	42349.61
626.72	42339.66
627.075	42357.06
627.43	42330.85
627.785	42493.33
628.14	42558.41
628.495	42634.8
628.85	42564.97
629.205	42280.68
629.559	42538.08
629.914	42534.46
630.269	42600.22
630.623	42446.1
630.978	42474.58
631.332	42593.67
631.687	42767.22
632.041	42692.65
632.396	42642.71
632.75	42460.34
633.104	42637.51
633.459	42636.38
633.813	42600
634.167	42563.16
634.521	42589.83
634.875	42691.29
635.229	42675.47
635.583	42482.71
635.937	42531.75
636.291	42449.49
636.645	42379.89
636.999	42443.16
637.352	42561.35
637.706	42503.73
638.06	42560
638.413	42444.52
638.767	42405.65
639.121	42482.48
639.474	42345.54
639.828	42298.53
640.181	42451.3
640.534	42348.02
640.888	42237.29
641.241	42145.09
641.594	42310.51
641.947	42255.15
642.301	42170.85
642.654	42252.66
643.007	42311.19
643.36	42283.85
643.713	42113.45
644.066	42270.74
644.419	42055.38
644.771	41794.82
645.124	41475.96
645.477	41452.23
645.83	41233.25
646.182	40910.55
646.535	40913.03
646.888	41144.67
647.24	40791.46
647.593	41111.9
647.945	40898.57
648.298	40791.23
648.65	40835.97
649.002	40643.89
649.355	40741.74
649.707	40738.35
650.059	41018.79
650.411	41473.47
650.763	41525.45
651.115	41774.03
651.467	41749.17
651.819	41730.87
652.171	41570.42
652.523	41662.39
652.875	41616.52
653.227	41336.3
653.578	41688.38
653.93	41566.58
654.282	41442.74
654.633	41335.17
654.985	41328.16
655.337	41427.82
655.688	41309.63
656.039	41574.94
656.391	41156.42
656.742	41369.29
657.094	41450.65
657.445	41648.83
657.796	41440.7
658.147	41334.72
658.498	41296.98
658.849	41387.15
659.2	41266.47
659.551	41248.17
659.902	41311.44
660.253	41342.4
660.604	41295.85
660.955	41060.38
661.306	41334.04
661.656	41174.04
662.007	41269.41
662.358	41182.63
662.708	41194.83
663.059	41212.69
663.409	40931.34
663.76	41329.75
664.11	41329.52
664.461	41309.86
664.811	41303.53
665.161	41146.02
665.511	41115.06
665.862	41099.02
666.212	41099.02
666.562	41287.04
666.912	41158.45
667.262	41071.22
667.612	41081.39
667.962	41115.51
668.312	40948.06
668.662	41203.87
669.011	41077.78
669.361	41093.14
669.711	41040.71
670.06	41113.71
670.41	40998
670.76	40854.96
671.109	41148.51
671.459	41022.64
671.808	40895.18
672.157	41098.57
672.507	40806.37
672.856	40801.85
673.205	40850.21
673.554	40893.83
673.904	40816.77
674.253	40921.4
674.602	40912.36
674.951	40260.17
675.3	40199.38
675.649	40831.68
675.998	40853.15
676.346	40682.08
676.695	40766.37
677.044	40662.19
677.393	40733.15
677.741	40609.09
678.09	40541.74
678.438	40540.61
678.787	40557.79
679.135	40588.75
679.484	40269.89
679.832	40406.61
680.181	40297.68
680.529	40429.21
680.877	40189.66
681.225	40208.65
681.573	40445.25
681.922	40007.52
682.27	40015.43
682.618	39937.01
682.966	39930.69
683.314	39979.05
683.661	39821.99
684.009	39821.54
684.357	39687.08
684.705	39541.55
685.053	39724.82
685.4	39532.28
685.748	39372.96
686.095	39354.21
686.443	39294.77
686.79	39224.94
687.138	39275.11
687.485	39327.77
687.832	39082.12
688.18	39215.23
688.527	39067.66
688.874	38996.7
689.221	38903.37
689.568	38782.92
689.915	38618.18
690.262	38712.19
690.609	38640.1
690.956	38470.39
691.303	38497.5
691.65	38359.2
691.997	38347.68
692.344	38168.02
692.69	38050.28
693.037	37993.56
693.383	37772.78
693.73	37840.12
694.077	37689.39
694.423	37602.16
694.769	37624.08
695.116	37513.35
695.462	37398.1
695.808	37316.97
696.155	37448.49
696.501	37057.32
696.847	37036.98
697.193	36734.16
697.539	37047.6
697.885	36767.15
698.231	36608.97
698.577	36585.01
698.923	36496.88
699.269	36536.43
699.614	36218.24
699.96	36236.55
700.306	36350.22
700.651	36123.78
700.997	35893.28
701.342	35921.08
701.688	35675.21
702.033	35783.45
702.379	35719.5
702.724	35639.27
703.069	35755.43
703.415	35257.82
703.76	35261.43
704.105	35302.33
704.45	35138.05
704.795	34939.63
705.14	34816.25
705.485	34925.85
705.83	34715.68
706.175	34645.85
706.52	34660.54
706.865	34475.92
707.209	34549.13
707.554	34370.38
707.899	34458.97
708.243	34222.59
708.588	34146.88
708.932	34003.16
709.277	33890.62
709.621	33944.18
709.966	33812.66
710.31	33889.72
710.654	33572.66
710.998	33722.49
711.342	33674.81
711.687	33482.04
712.031	33296.96
712.375	33258.09
712.719	33322.05
713.063	33374.48
713.407	33324.76
713.75	33087.25
714.094	33111.66
714.438	33061.26
714.782	33005.45
715.125	32849.52
715.469	32961.83
715.812	32875.05
716.156	32565.46
716.499	32606.13
716.843	32596.19
717.186	32356.65
717.53	32569.07
717.873	32523.2
718.216	32440.49
718.559	32390.55
718.902	32065.58
719.246	32127.05
719.589	32130.67
719.932	31965.02
720.275	31960.05
720.617	31957.11
720.96	31899.26
721.303	31894.29
721.646	31825.59
721.989	31692.49
722.331	31854.74
722.674	31788.75
723.016	31795.53
723.359	31681.86
723.701	31711.24
724.044	31371.59
724.386	31273.97
724.729	31424.92
725.071	31394.19
725.413	31404.36
725.755	31195.55
726.097	31222.44
726.439	31001.2
726.782	30925.73
727.124	31250.46
727.465	30928.44
727.807	30921.66
728.149	30922.34
728.491	30950.58
728.833	30962.79
729.175	30687.77
729.516	30721.89
729.858	30607.54
730.199	30721.44
730.541	30502.01
730.882	30574.1
731.224	30570.93
731.565	30309.02
731.906	30377.94
732.248	30419.53
732.589	30332.07
732.93	30172.75
733.271	30071.51
733.612	30209.14
733.953	30186.99
734.294	30112.41
734.635	29893.21
734.976	30055.92
735.317	29897.73
735.658	29836.72
735.999	29815.47
736.339	29761.69
736.68	29755.36
737.021	29732.31
737.361	29622.94
737.702	29846.88
738.042	29558.53
738.383	29615.7
738.723	29601.24
739.063	29603.05
739.404	29603.05
739.744	29496.84
740.084	29327.35
740.424	29514.92
740.764	29342.27
741.104	29326.9
741.444	29177.52
741.784	29095.72
742.124	29208.94
742.464	29121.71
742.804	29192.21
743.143	29087.81
743.483	29059.79
743.823	28960.81
744.162	28894.82
744.502	28902.95
744.841	28857.31
745.181	28756.29
745.52	28782.96
745.86	28714.03
746.199	28668.61
746.538	28634.71
746.877	28807.59
747.216	28692.79
747.556	28505.68
747.895	28618.67
748.234	28502.51
748.573	28448.28
748.911	28344.1
749.25	28262.75
749.589	28187.49
749.928	28243.31
750.267	28394.27
750.605	28267.49
750.944	28041.51
751.283	28019.36
751.621	28119.7
751.96	27898.24
752.298	27833.6
752.636	27926.03
752.975	27752.02
753.313	27722.87
753.651	27707.51
753.989	27589.99
754.327	27587.28
754.666	27446.5
755.004	27573.5
755.342	27437.68
755.679	27439.04
756.017	27274.07
756.355	27378.25
756.693	27149.55
757.031	27166.5
757.368	27144.36
757.706	26991.59
758.044	26966.28
758.381	27057.81
758.719	26962.89
759.056	26884.02
759.394	26742.56
759.731	26641.77
760.068	26646.97
760.405	26511.38
760.743	26472.74
761.08	26537.14
761.417	26276.36
761.754	26308.22
762.091	26248.79
762.428	26119.98
762.765	26014.44
763.102	26110.03
763.438	25898.06
763.775	25762.02
764.112	25732.19
764.449	25681.8
764.785	25774.68
765.122	25508.92
765.458	25279.55
765.795	25389.15
766.131	25348.92
766.467	25289.04
766.804	25081.81
767.14	25042.94
767.476	25092.21
767.812	24871.65
768.148	24906.68
768.485	24641.37
768.821	24640.47
769.157	24605.67
769.492	24474.6
769.828	24514.37
770.164	24198.9
770.5	24260.36
770.836	24213.36
771.171	23988.51
771.507	23935.85
771.842	23859.25
772.178	23885.69
772.513	23759.59
772.849	23632.13
773.184	23610.44
773.519	23584.22
773.855	23507.39
774.19	23407.05
774.525	23351.01
774.86	23263.1
775.195	23185.14
775.53	23075.09
775.865	22911.47
776.2	22908.31
776.535	22825.83
776.87	22735.43
777.205	22566.4
777.539	22513.07
777.874	22482.33
778.209	22372.05
778.543	22401.66
778.878	22308.78
779.212	22180.65
779.547	22073.98
779.881	22103.59
780.215	21923.03
780.55	21919.64
780.884	21831.95
781.218	21775.01
781.552	21739.75
781.886	21595.58
782.22	21398.29
782.554	21497.05
782.888	21210.28
783.222	21130.96
783.556	21087.79
783.889	20987
784.223	20942.71
784.557	20825.65
784.89	20867.46
785.224	20768.93
785.557	20634.7
785.891	20575.26
786.224	20622.04
786.558	20484.42
786.891	20328.26
787.224	20264.54
787.557	20279.45
787.891	20202.39
788.224	20182.73
788.557	20034.26
788.89	20014.15
789.223	19961.27
789.556	19836.3
789.888	19682.86
790.221	19718.34
790.554	19552.92
790.887	19507.72
791.219	19538.68
791.552	19447.16
791.884	19363.77
792.217	19451.23
792.549	19200.38
792.882	19027.28
793.214	19020.5
793.546	19064.57
793.879	18901.18
794.211	18828.42
794.543	18788.87
794.875	18738.48
795.207	18776.89
795.539	18681.3
795.871	18648.08
796.203	18527.86
796.535	18379.39
796.867	18405.6
797.198	18354.98
797.53	18372.38
797.862	18259.17
798.193	18349.33
798.525	18152.28
798.856	18096.01
799.188	17998.16
799.519	17906.41
799.85	17795.9
800.182	17888.33
800.513	17756.58
800.844	17685.85
801.175	17794.09
801.506	17686.53
801.837	17613.31
802.168	17548.68
802.499	17454.22
802.83	17428
803.161	17405.86
803.491	17340.32
803.822	17281.57
804.153	17201.79
804.483	17151.17
804.814	17130.38
805.145	17015.36
805.475	17025.53
805.805	16973.32
806.136	16995.02
806.466	16949.82
806.796	16887.9
807.126	16781.69
807.457	16665.99
807.787	16686.1
808.117	16597.52
808.447	16538.31
808.777	16636.16
809.107	16440.23
809.436	16482.04
809.766	16432.32
810.096	16364.53
810.426	16309.39
810.755	16353.68
811.085	16250.63
811.414	16169.96
811.744	16062.84
812.073	16131.99
812.403	16087.7
812.732	15949.62
813.061	16032.11
813.39	15942.84
813.719	15886.12
814.049	15902.62
814.378	15862.39
814.707	15790.08
815.036	15703.08
815.365	15613.59
815.693	15536.3
816.022	15592.8
816.351	15483.19
816.68	15455.85
817.008	15475.06
817.337	15312.13
817.665	15295.63
817.994	15419.02
818.322	15301.96
818.651	15316.19
818.979	15256.08
819.307	15177.44
819.636	15217.89
819.964	15099.7
820.292	15203.88
820.62	15124.56
820.948	15153.94
821.276	15121.85
821.604	15027.16
821.932	15083.43
822.259	15087.05
822.587	15078.01
822.915	15018.35
823.243	15006.37
823.57	14942.87
823.898	14972.47
824.225	14969.54
824.553	14984.9
824.88	14959.14
825.207	14929.99
825.535	14947.39
825.862	15014.73
826.189	14842.53
826.516	14993.04
826.843	14955.07
827.17	15023.55
827.497	14848.86
827.824	14986.26
828.151	15031.68
828.478	14966.37
828.805	15006.6
829.131	14969.76
829.458	14939.48
829.785	14881.85
830.111	14890.67
830.438	14917.11
830.764	14966.15
831.09	14876.43
831.417	14869.2
831.743	14922.76
832.069	14860.16
832.395	14785.13
832.722	14803.89
833.048	14767.73
833.374	14809.99
833.7	14715.31
834.026	14696.32
834.351	14802.76
834.677	14777.68
835.003	14790.33
835.329	14780.39
835.654	14801.18
835.98	14629.43
836.306	14727.96
836.631	14666.72
836.956	14651.58
837.282	14638.02
837.607	14543.78
837.932	14565.03
838.258	14510.79
838.583	14471.7
838.908	14419.27
839.233	14459.94
839.558	14426.95
839.883	14280.06
840.208	14349.89
840.533	14361.42
840.858	14299.04
841.182	14345.15
841.507	14318.48
841.832	14180.18
842.156	14186.05
842.481	14187.18
842.805	14152.61
843.13	14138.15
843.454	14061.76
843.778	14022.22
844.103	13950.13
844.427	13885.95
844.751	14054.98
845.075	13924.59
845.399	13876.23
845.723	13710.36
846.047	13830.58
846.371	13663.36
846.695	13676.24
847.019	13542
847.343	13573.87
847.666	13433.53
847.99	13457.49
848.313	13375.91
848.637	13298.85
848.96	13350.82
849.284	13237.38
849.607	13238.06
849.931	13113.54
850.254	13013.2
850.577	12926.65
850.9	12933.88
851.223	12889.36
851.546	12835.58
851.869	12759.42
852.192	12831.29
852.515	12729.59
852.838	12593.55
853.161	12644.4
853.483	12539.54
853.806	12447.57
854.129	12453.44
854.451	12461.81
854.774	12387.68
855.096	12374.58
855.419	12308.14
855.741	12253.45
856.063	12306.33
856.385	12244.64
856.708	12197.18
857.03	12157.63
857.352	12118.31
857.674	12084.41
857.996	12073.79
858.318	11933.46
858.64	11928.71
858.961	11942.95
859.283	11933.68
859.605	11870.86
859.926	11810.97
860.248	11815.27
860.57	11788.15
860.891	11771.65
861.212	11676.52
861.534	11695.27
861.855	11606.01
862.176	11614.14
862.498	11642.39
862.819	11587.25
863.14	11560.13
863.461	11544.09
863.782	11469.97
864.103	11503.19
864.424	11447.82
864.745	11451.89
865.065	11379.12
865.386	11386.13
865.707	11271.1
866.027	11372.34
866.348	11287.82
866.668	11308.84
866.989	11287.6
867.309	11221.61
867.63	11212.57
867.95	11155.62
868.27	11125.8
868.59	11120.6
868.91	11136.42
869.23	11113.14
869.55	10982.07
869.87	11142.29
870.19	11127.83
870.51	11133.7
870.83	11108.85
871.15	11037.21
871.469	10989.3
871.789	11037.21
872.109	10992.24
872.428	10886.48
872.748	10931
873.067	10967.16
873.386	10925.8
873.706	10921.28
874.025	10810.55
874.344	10837.22
874.663	10842.86
874.982	10811.68
875.301	10822.98
875.62	10823.2
875.939	10738.23
876.258	10704.11
876.577	10682.64
876.896	10685.58
877.214	10662.76
877.533	10713.38
877.852	10659.37
878.17	10663.66
878.489	10654.62
878.807	10592.25
879.125	10578.24
879.444	10572.82
879.762	10539.14
880.08	10564.23
880.398	10532.82
880.716	10544.79
881.034	10417.79
881.352	10504.79
881.67	10439.49
881.988	10376.21
882.306	10399.71
882.624	10383.44
882.941	10329.66
883.259	10273.39
883.577	10294.18
883.894	10249.21
884.212	10203.11
884.529	10207.85
884.846	10220.06
885.164	10163.56
885.481	10033.85
885.798	10143.45
886.115	10072.72
886.432	10070.91
886.75	10072.94
887.067	9980.97
887.383	10022.32
887.7	9997.01
888.017	9947.97
888.334	9998.14
888.651	9959.27
888.967	9880.18
889.284	9824.36
889.6	9834.08
889.917	9776.23
890.233	9737.58
890.55	9735.32
890.866	9811.93
891.182	9679.28
891.498	9606.74
891.815	9622.33
892.131	9618.26
892.447	9650.13
892.763	9540.53
893.079	9509.11
893.395	9504.14
893.71	9439.51
894.026	9437.25
894.342	9404.48
894.657	9389.34
894.973	9402
895.289	9303.24
895.604	9308.67
895.92	9225.73
896.235	9170.37
896.55	9115
896.865	9180.99
897.181	9104.15
897.496	9177.15
897.811	9119.07
898.126	9072.97
898.441	9023.48
898.756	9007.66
899.071	8920.66
899.386	8924.27
899.7	8861.45
900.015	8801.56
900.33	8794.1
900.644	8750.04
900.959	8797.72
901.273	8712.53
901.588	8697.84
901.902	8630.04
902.216	8696.48
902.531	8592.3
902.845	8656.26
903.159	8502.59
903.473	8524.51
903.787	8511.17
904.101	8440.44
904.415	8447.22
904.729	8367
905.042	8399.99
905.356	8360.67
905.67	8330.61
905.984	8332.2
906.297	8252.88
906.611	8217.17
906.924	8197.74
907.237	8197.06
907.551	8109.6
907.864	8073.45
908.177	8036.84
908.491	8037.29
908.804	7976.5
909.117	7941.47
909.43	7928.82
909.743	7811.98
910.056	7848.59
910.368	7844.07
910.681	7783.96
910.994	7789.61
911.307	7728.82
911.619	7663.74
911.932	7662.61
912.244	7541.03
912.557	7630.07
912.869	7598.2
913.181	7514.36
913.494	7516.85
913.806	7494.03
914.118	7439.34
914.43	7436.85
914.742	7383.97
915.054	7361.6
915.366	7337.87
915.678	7260.81
915.99	7244.32
916.302	7159.8
916.613	7179.23
916.925	7199.8
917.236	7187.59
917.548	7100.14
917.859	7122.96
918.171	7052.68
918.482	6982.63
918.794	6984.89
919.105	6948.5
919.416	6878.45
919.727	6898.79
920.038	6907.15
920.349	6796.64
920.66	6789.86
920.971	6811.78
921.282	6745.35
921.593	6711.22
921.903	6721.84
922.214	6685.69
922.525	6629.87
922.835	6650.66
923.146	6545.58
923.456	6589.64
923.767	6465.8
924.077	6534.05
924.387	6517.55
924.697	6454.73
925.008	6372.25
925.318	6375.19
925.628	6401.17
925.938	6320.72
926.248	6317.11
926.558	6268.75
926.867	6219.94
927.177	6188.07
927.487	6189.43
927.796	6154.63
928.106	6165.25
928.416	6128.86
928.725	6151.91
929.034	6041.18
929.344	6106.72
929.653	6054.06
929.962	5972.48
930.271	5996.89
930.581	5961.64
930.89	5902.66
931.199	5861.98
931.508	5828.99
931.817	5864.92
932.125	5841.87
932.434	5804.13
932.743	5734.75
933.051	5719.61
933.36	5719.84
933.669	5663.79
933.977	5663.57
934.286	5630.57
934.594	5629.22
934.902	5598.48
935.21	5543.12
935.519	5509.22
935.827	5528.88
936.135	5481.2
936.443	5471.93
936.751	5435.1
937.059	5435.55
937.367	5418.6
937.674	5440.29
937.982	5387.87
938.29	5331.82
938.597	5323.69
938.905	5308.32
939.213	5253.41
939.52	5224.48
939.827	5236.91
940.135	5198.95
940.442	5169.79
940.749	5126.86
941.056	5204.82
941.363	5109
941.67	5059.97
941.977	5042.11
942.284	5031.72
942.591	4997.14
942.898	5042.79
943.205	4976.13
943.511	4950.36
943.818	4906.75
944.125	4944.26
944.431	4880.76
944.738	4866.3
945.044	4834.89
945.35	4789.69
945.657	4784.27
945.963	4813.42
946.269	4737.94
946.575	4713.76
946.881	4693.65
947.187	4718.28
947.493	4695
947.799	4688
948.105	4627.21
948.41	4619.75
948.716	4645.06
949.022	4581.79
949.327	4596.7
949.633	4552.63
949.938	4568.23
950.244	4556.7
950.549	4504.05
950.854	4474.9
951.16	4443.48
951.465	4436.93
951.77	4437.61
952.075	4393.09
952.38	4448.23
952.685	4370.04
952.99	4299.08
953.294	4285.3
953.599	4283.04
953.904	4276.03
954.209	4248.91
954.513	4276.03
954.818	4205.07
955.122	4222.25
955.426	4212.53
955.731	4166.2
956.035	4125.75
956.339	4118.75
956.643	4139.31
956.948	4097.51
957.252	4065.87
957.556	4064.51
957.86	4042.37
958.163	4013.44
958.467	4025.64
958.771	4017.06
959.075	4001.91
959.378	3946.1
959.682	3939.09
959.985	3968.7
960.289	3882.82
960.592	3899.77
960.896	3892.76
961.199	3883.73
961.502	3847.34
961.805	3850.51
962.108	3814.12
962.411	3825.65
962.714	3772.54
963.017	3768.47
963.32	3786.1
963.623	3739.55
963.926	3723.96
964.228	3695.26
964.531	3674.24
964.833	3675.6
965.136	3660.23
965.438	3615.48
965.741	3619.33
966.043	3606.9
966.345	3566.45
966.648	3575.94
966.95	3578.42
967.252	3531.42
967.554	3540.01
967.856	3509.27
968.158	3462.27
968.46	3461.59
968.761	3460.46
969.063	3421.59
969.365	3442.61
969.666	3456.39
969.968	3399.22
970.269	3369.16
970.571	3392.89
970.872	3327.13
971.174	3347.69
971.475	3369.61
971.776	3323.74
972.077	3323.51
972.378	3282.16
972.679	3260.24
972.98	3260.92
973.281	3253.01
973.582	3239.9
973.883	3225.66
974.183	3214.36
974.484	3186.57
974.785	3149.96
975.085	3195.83
975.386	3178.43
975.686	3167.13
975.986	3127.36
976.287	3126.01
976.587	3082.39
976.887	3076.97
977.187	3034.03
977.487	3076.52
977.787	3045.78
978.087	3041.71
978.387	2996.97
978.687	2992
978.987	2974.37
979.286	2959
979.586	2929.17
979.885	2947.25
980.185	2890.98
980.484	2903.19
980.784	2887.14
981.083	2855.28
981.382	2885.79
981.682	2858.89
981.981	2869.29
982.28	2827.71
982.579	2822.06
982.878	2829.52
983.177	2784.55
983.475	2824.77
983.774	2760.59
984.073	2755.39
984.372	2745.9
984.67	2738.22
984.969	2727.82
985.267	2756.75
985.566	2727.82
985.864	2673.59
986.162	2679.01
986.461	2666.36
986.759	2629.97
987.057	2634.04
987.355	2635.17
987.653	2602.18
987.951	2637.2
988.249	2630.88
988.547	2608.05
988.844	2539.58
989.142	2594.27
989.44	2551.11
989.737	2554.95
990.035	2517.66
990.332	2526.47
990.63	2514.72
990.927	2521.95
991.224	2448.28
991.521	2495.97
991.819	2462.07
992.116	2477.43
992.413	2427.72
992.71	2443.09
993.006	2404.22
993.303	2400.37
993.6	2361.05
993.897	2404.22
994.193	2361.05
994.49	2358.12
994.787	2346.14
995.083	2350.43
995.379	2337.33
995.676	2312.47
995.972	2281.28
996.268	2270.43
996.565	2295.07
996.861	2275.63
997.157	2284.9
997.453	2244.9
997.749	2223.43
998.044	2210.55
998.34	2234.05
998.636	2210.1
998.932	2218.01
999.227	2186.37
999.523	2173.26
999.818	2181.17
1000.114	2114.73
1000.409	2115.86
1000.704	2116.77
1001	2090.33
1001.295	2112.02
1001.59	2091.68
1001.885	2100.5
1002.18	2062.76
1002.475	2077.45
1002.77	2043.55
1003.065	2026.6
1003.359	2046.03
1003.654	2016.88
1003.949	1969.88
1004.243	1988.18
1004.538	1938.92
1004.832	1977.56
1005.127	1953.38
1005.421	1944.79
1005.715	1931.69
1006.009	1924.46
1006.304	1891.46
1006.598	1904.57
1006.892	1876.32
1007.186	1876.09
1007.48	1869.99
1007.773	1865.25
1008.067	1855.76
1008.361	1849.88
1008.655	1839.26
1008.948	1804.68
1009.242	1815.76
1009.535	1798.13
1009.829	1786.15
1010.122	1769.2
1010.415	1778.02
1010.708	1726.27
1011.001	1764.46
1011.295	1713.61
1011.588	1718.13
1011.881	1727.62
1012.173	1716.55
1012.466	1703.67
1012.759	1698.25
1013.052	1660.73
1013.344	1704.8
1013.637	1656.21
1013.93	1671.35
1014.222	1646.5
1014.514	1668.87
1014.807	1639.26
1015.099	1618.93
1015.391	1587.97
1015.683	1622.99
1015.976	1583.45
1016.268	1575.76
1016.56	1569.89
1016.851	1556.1
1017.143	1530.34
1017.435	1546.16
1017.727	1535.31
1018.018	1529.66
1018.31	1510
1018.602	1492.83
1018.893	1509.78
1019.185	1469.55
1019.476	1482.43
1019.767	1461.64
1020.058	1471.81
1020.35	1455.77
1020.641	1451.02
1020.932	1440.17
1021.223	1417.12
1021.514	1416.22
1021.804	1401.3
1022.095	1354.75
1022.386	1397.46
1022.677	1354.75
1022.967	1351.36
1023.258	1352.72
1023.548	1340.06
1023.839	1336.45
1024.129	1345.71
1024.419	1327.86
1024.709	1285.15
1025	1289.67
1025.29	1302.32
1025.58	1285.38
1025.87	1288.31
1026.16	1258.26
1026.449	1269.78
1026.739	1272.95
1027.029	1224.36
1027.319	1225.49
1027.608	1230.24
1027.898	1217.35
1028.187	1230.91
1028.477	1202.89
1028.766	1210.8
1029.055	1187.98
1029.344	1162.89
1029.634	1194.76
1029.923	1151.59
1030.212	1172.16
1030.501	1151.14
1030.79	1163.12
1031.078	1116.79
1031.367	1125.61
1031.656	1109.11
1031.945	1108.21
1032.233	1117.92
1032.522	1104.14
1032.81	1092.39
1033.099	1088.09
1033.387	1095.78
1033.675	1075.89
1033.963	1070.69
1034.251	1089.22
1034.54	1059.62
1034.828	1033.63
1035.116	1039.05
1035.403	1030.24
1035.691	1031.82
1035.979	1037.7
1036.267	1013.29
1036.554	1001.09
1036.842	988.89
1037.129	1014.65
1037.417	990.24
1037.704	986.17
1037.992	987.98
1038.279	975.55
1038.566	956.57
1038.853	956.57
1039.14	956.57
