Data from hue_350_FLMS001491_79.txt Node
Date: Mon Feb 06 15:38:31 GMT 2017
User: dcchb
Spectrometer: FLMS00149
Trigger mode: 0
Integration Time (sec): 2.000000E-2
Scans to average: 10
Electric dark correction enabled: true
Nonlinearity correction enabled: false
Boxcar width: 0
XAxis mode: Wavelengths
Number of Pixels in Spectrum: 2048
>>>>>Begin Spectral Data<<<<<
341.393	-12.4
341.776	-12.4
342.16	-12.4
342.543	-40.65
342.927	-42
343.31	-73.42
343.693	-76.81
344.077	-71.61
344.46	-55.34
344.843	-49.91
345.226	-45.62
345.61	-37.03
345.993	-21.44
346.376	-12.85
346.759	20.37
347.142	31.67
347.525	49.74
347.908	61.04
348.291	69.4
348.674	100.36
349.057	111.44
349.44	132.23
349.823	136.97
350.206	158.22
350.588	183.75
350.971	202.06
351.354	218.78
351.737	238.44
352.119	252.9
352.502	258.1
352.884	271.89
353.267	270.76
353.65	283.86
354.032	289.74
354.414	299
354.797	320.02
355.179	329.74
355.562	313.24
355.944	322.73
356.326	314.37
356.709	345.78
357.091	343.75
357.473	346.69
357.855	338.78
358.238	334.26
358.62	327.25
359.002	347.82
359.384	336.06
359.766	316.18
360.148	336.52
360.53	359.79
360.912	351.88
361.294	349.17
361.676	317.31
362.057	332.9
362.439	332.22
362.821	325.44
363.203	342.84
363.584	326.8
363.966	322.73
364.348	311.21
364.729	327.03
365.111	338.32
365.493	315.5
365.874	332.22
366.256	303.75
366.637	302.17
367.019	308.04
367.4	315.73
367.781	306.69
368.163	300.13
368.544	301.26
368.925	317.31
369.306	317.53
369.688	320.7
370.069	304.43
370.45	307.59
370.831	308.72
371.212	323.41
371.593	319.79
371.974	293.13
372.355	309.4
372.736	314.37
373.117	327.7
373.498	324.99
373.879	326.8
374.26	331.32
374.641	306.91
375.021	322.28
375.402	332.67
375.783	313.69
376.163	325.67
376.544	335.84
376.925	325.67
377.305	311.43
377.686	347.14
378.066	308.04
378.447	328.61
378.827	321.6
379.208	333.13
379.588	319.34
379.968	311.21
380.349	320.47
380.729	319.34
381.109	329.29
381.489	329.06
381.87	329.06
382.25	323.18
382.63	333.35
383.01	322.96
383.39	332
383.77	335.61
384.15	333.8
384.53	329.96
384.91	348.27
385.29	336.29
385.67	343.52
386.049	358.66
386.429	334.71
386.809	356.4
387.189	337.65
387.568	330.87
387.948	369.28
388.328	340.58
388.707	352.34
389.087	350.98
389.466	354.14
389.846	350.98
390.225	340.36
390.605	339.91
390.984	364.76
391.363	361.6
391.743	360.7
392.122	374.93
392.501	358.66
392.881	350.75
393.26	379
393.639	367.02
394.018	371.32
394.397	385.78
394.776	355.27
395.155	355.27
395.534	356.18
395.913	360.7
396.292	359.79
396.671	370.64
397.05	369.74
397.429	376.52
397.808	385.33
398.186	368.15
398.565	364.31
398.944	364.31
399.323	372.9
399.701	383.07
400.08	377.65
400.458	374.71
400.837	412.67
401.215	386.23
401.594	382.17
401.972	383.3
402.351	394.14
402.729	414.71
403.107	382.17
403.486	390.98
403.864	385.1
404.242	407.02
404.62	412.45
404.999	407.02
405.377	387.59
405.755	399.34
406.133	413.12
406.511	417.64
406.889	428.72
407.267	411.32
407.645	421.26
408.023	414.48
408.401	410.86
408.779	414.71
409.156	431.66
409.534	428.72
409.912	419
410.29	418.32
410.667	419
411.045	443.18
411.422	462.84
411.8	450.86
412.178	448.83
412.555	447.7
412.933	462.84
413.31	451.54
413.687	440.92
414.065	481.15
414.442	447.02
414.819	472.33
415.197	476.17
415.574	462.16
415.951	466.23
416.328	475.5
416.705	478.89
417.082	493.12
417.46	477.08
417.837	514.37
418.214	509.39
418.591	499.9
418.967	500.81
419.344	488.15
419.721	509.39
420.098	495.83
420.475	518.43
420.852	515.72
421.228	517.08
421.605	517.3
421.982	514.14
422.358	515.72
422.735	554.82
423.111	523.86
423.488	540.35
423.864	544.65
424.241	517.08
424.617	540.58
424.994	536.74
425.37	540.13
425.746	531.99
426.123	555.95
426.499	554.82
426.875	559.11
427.251	552.56
427.627	601.37
428.003	591.43
428.379	578.77
428.756	583.29
429.132	588.71
429.507	613.57
429.883	583.52
430.259	602.05
430.635	575.15
431.011	598.2
431.387	615.61
431.763	611.99
432.138	633.23
432.514	610.86
432.89	637.75
433.265	618.77
433.641	639.79
434.016	669.62
434.392	653.57
434.767	661.25
435.143	652.89
435.518	678.43
435.894	670.52
436.269	696.06
436.644	675.04
437.02	689.95
437.395	706.68
437.77	702.61
438.145	710.97
438.52	716.39
438.895	722.5
439.271	702.83
439.646	731.53
440.021	722.72
440.395	744.42
440.77	743.96
441.145	741.93
441.52	751.42
441.895	750.52
442.27	765.66
442.645	744.64
443.019	772.89
443.394	749.16
443.769	771.76
444.143	735.83
444.518	757.97
444.892	777.86
445.267	789.39
445.641	784.19
446.016	782.15
446.39	794.13
446.764	801.82
447.139	779.89
447.513	780.35
447.887	792.32
448.262	777.86
448.636	799.78
449.01	821.7
449.384	825.32
449.758	832.1
450.132	839.78
450.506	830.29
450.88	857.18
451.254	815.83
451.628	830.29
452.002	867.12
452.376	864.86
452.75	892.21
453.123	866.9
453.497	866.9
453.871	893.79
454.244	906.67
454.618	901.25
454.992	890.63
455.365	894.24
455.739	901.7
456.112	942.6
456.486	919.33
456.859	942.6
457.232	948.03
457.606	936.73
457.979	958.65
458.352	967.46
458.725	973.79
459.099	969.04
459.472	1007.23
459.845	1001.36
460.218	1014.46
460.591	1050.85
460.964	1005.88
461.337	1073.45
461.71	1054.01
462.083	1064.86
462.456	1057.4
462.829	1045.65
463.201	1066.44
463.574	1094.24
463.947	1097.63
464.32	1155.48
464.692	1115.93
465.065	1142.6
465.438	1179.88
465.81	1182.37
466.183	1157.96
466.555	1205.65
466.928	1190.28
467.3	1198.87
467.672	1200.22
468.045	1249.03
468.417	1209.49
468.789	1259.66
469.161	1268.92
469.534	1275.93
469.906	1286.55
470.278	1339.65
470.65	1328.35
471.022	1348.24
471.394	1362.25
471.766	1383.49
472.138	1402.25
472.51	1419.43
472.882	1437.5
473.253	1439.54
473.625	1449.26
473.997	1499.42
474.369	1509.82
474.74	1536.94
475.112	1554.79
475.484	1586.88
475.855	1598.4
476.227	1594.34
476.598	1629.36
476.97	1658.74
477.341	1675.69
477.713	1715.92
478.084	1757.72
478.455	1762.24
478.827	1800.88
479.198	1836.82
479.569	1849.7
479.94	1901.22
480.311	1923.14
480.682	1953.88
481.053	1978.73
481.424	1994.1
481.795	2047.21
482.166	2059.86
482.537	2081.33
482.908	2154.32
483.279	2171.72
483.65	2220.53
484.021	2247.43
484.391	2312.28
484.762	2284.04
485.133	2301.89
485.503	2345.96
485.874	2385.05
486.244	2453.52
486.615	2440.64
486.985	2509.57
487.356	2552.96
487.726	2546.4
488.097	2623.46
488.467	2646.51
488.837	2708.21
489.207	2705.04
489.578	2722.44
489.948	2775.1
490.318	2820.75
490.688	2823.68
491.058	2863.46
491.428	2917.47
491.798	2953.4
492.168	2968.76
492.538	2995.88
492.908	3035.88
493.278	3072.04
493.648	3058.48
494.017	3168.76
494.387	3185.03
494.757	3186.39
495.126	3178.7
495.496	3261.64
495.866	3289.66
496.235	3300.51
496.605	3294.63
496.974	3330.79
497.344	3351.8
497.713	3339.83
498.082	3437.9
498.452	3459.15
498.821	3465.93
499.19	3508.18
499.559	3492.59
499.928	3552.25
500.298	3548.18
500.667	3564.68
501.036	3548.41
501.405	3644.68
501.774	3574.62
502.143	3679.71
502.512	3692.81
502.88	3670.67
503.249	3666.6
503.618	3680.38
503.987	3732.81
504.356	3759.03
504.724	3749.76
505.093	3765.58
505.462	3806.03
505.83	3799.48
506.199	3839.7
506.567	3893.71
506.936	3895.75
507.304	3917.21
507.672	3892.58
508.041	3950.43
508.409	3933.94
508.777	3960.15
509.145	3995.86
509.514	3966.93
509.882	4024.1
510.25	4073.59
510.618	4048.28
510.986	4073.14
511.354	4066.59
511.722	4084.44
512.09	4163.53
512.458	4145.46
512.826	4149.07
513.193	4171.67
513.561	4128.06
513.929	4191.33
514.297	4203.08
514.664	4253.7
515.032	4240.59
515.4	4287.37
515.767	4337.54
516.135	4286.7
516.502	4294.83
516.869	4327.6
517.237	4399.01
517.604	4341.38
517.972	4354.72
518.339	4374.38
518.706	4441.72
519.073	4442.4
519.44	4433.81
519.808	4468.84
520.175	4496.86
520.542	4491.66
520.909	4509.06
521.276	4525.78
521.643	4530.53
522.009	4542.28
522.376	4581.6
522.743	4602.17
523.11	4579.12
523.477	4647.14
523.843	4669.28
524.21	4698.44
524.577	4710.86
524.943	4760.36
525.31	4760.58
525.676	4760.81
526.043	4826.34
526.409	4795.83
526.776	4908.15
527.142	4908.15
527.508	4904.31
527.874	4971.42
528.241	4951.31
528.607	5010.29
528.973	4998.09
529.339	5025.66
529.705	5067.24
530.071	5094.13
530.437	5099.56
530.803	5155.6
531.169	5169.16
531.535	5142.72
531.901	5164.19
532.267	5187.91
532.632	5221.36
532.998	5271.75
533.364	5268.14
533.73	5290.28
534.095	5358.76
534.461	5366.89
534.826	5362.83
535.192	5433.33
535.557	5419.32
535.923	5438.3
536.288	5432.2
536.653	5485.99
537.019	5477.62
537.384	5500
537.749	5566.66
538.114	5537.51
538.479	5575.02
538.845	5630.16
539.21	5587.9
539.575	5653.21
539.94	5667
540.305	5686.21
540.67	5652.99
541.034	5700.44
541.399	5697.51
541.764	5758.52
542.129	5749.93
542.494	5779.76
542.858	5816.37
543.223	5797.62
543.587	5878.52
543.952	5870.38
544.316	5898.18
544.681	5903.15
545.045	5912.87
545.41	6017.27
545.774	5998.97
546.138	6022.02
546.503	6060.66
546.867	6071.73
547.231	6107.44
547.595	6116.7
547.959	6118.74
548.324	6146.31
548.688	6184.27
549.052	6178.62
549.416	6177.72
549.779	6190.6
550.143	6195.57
550.507	6283.48
550.871	6328.22
551.235	6328.9
551.599	6333.87
551.962	6411.61
552.326	6431.95
552.689	6394.89
553.053	6389.24
553.417	6410.71
553.78	6482.8
554.143	6476.69
554.507	6507.65
554.87	6496.35
555.234	6539.74
555.597	6581.78
555.96	6560.53
556.323	6591.27
556.686	6615
557.05	6649.8
557.413	6607.76
557.776	6645.96
558.139	6705.39
558.502	6739.96
558.865	6708.55
559.228	6744.94
559.59	6794.43
559.953	6802.56
560.316	6875.55
560.679	6900.41
561.041	6867.19
561.404	6913.07
561.767	6933.63
562.129	6921.43
562.492	6988.77
562.854	6947.87
563.217	6971.14
563.579	7043.23
563.941	7044.14
564.304	7103.8
564.666	7108.99
565.028	7188.99
565.39	7099.5
565.753	7140.18
566.115	7229.89
566.477	7237.8
566.839	7277.58
567.201	7318.25
567.563	7376.56
567.925	7389.44
568.287	7370.46
568.648	7439.38
569.01	7421.08
569.372	7488.87
569.734	7465.14
570.095	7492.94
570.457	7590.34
570.819	7543.33
571.18	7664.23
571.542	7640.51
571.903	7665.59
572.265	7732.25
572.626	7801.41
572.987	7746.72
573.349	7784.68
573.71	7874.85
574.071	7973.15
574.432	7962.53
574.794	7993.72
575.155	8052.25
575.516	8126.59
575.877	8123.66
576.238	8231.22
576.599	8309.64
576.96	8390.54
577.32	8375.18
577.681	8433.03
578.042	8529.75
578.403	8610.88
578.763	8676.64
579.124	8788.72
579.485	8868.72
579.845	8945.33
580.206	9003.63
580.566	9102.84
580.927	9254.02
581.287	9390.74
581.648	9485.88
582.008	9595.03
582.368	9730.85
582.728	9838.19
583.089	9922.71
583.449	10082.25
583.809	10305.75
584.169	10390.49
584.529	10599.75
584.889	10826.41
585.249	10879.74
585.609	11000.19
585.969	11298.49
586.329	11404.93
586.688	11595.88
587.048	11781.64
587.408	11933.27
587.768	12204
588.127	12375.3
588.487	12567.16
588.846	12942.29
589.206	13058.67
589.565	13306.8
589.925	13580.69
590.284	13780.46
590.643	14061.13
591.003	14287.34
591.362	14545.18
591.721	14814.1
592.08	15013.19
592.44	15258.61
592.799	15612.95
593.158	15830.12
593.517	16073.5
593.876	16377.9
594.235	16557.56
594.593	16977.89
594.952	17261.72
595.311	17552.34
595.67	17675.04
596.029	18173.56
596.387	18451.07
596.746	18606.54
597.104	18907.78
597.463	19158.85
597.822	19521.77
598.18	19748.89
598.538	20150.23
598.897	20412.15
599.255	20574.63
599.613	21076.76
599.972	21265.68
600.33	21514.94
600.688	21734.15
601.046	22041.93
601.404	22537.51
601.762	22629.49
602.12	22958.52
602.478	23250.26
602.836	23623.81
603.194	23600.99
603.552	23993.97
603.91	24159.39
604.268	24489.33
604.625	24664.01
604.983	25028.52
605.341	25162.53
605.698	25605.91
606.056	25806.13
606.413	25943.75
606.771	26324.99
607.128	26574.47
607.485	26668.48
607.843	27005.42
608.2	27348.91
608.557	27621.45
608.914	27810.82
609.272	28026.86
609.629	28356.12
609.986	28554.98
610.343	28661.65
610.7	29080.62
611.057	29098.47
611.414	29338.47
611.771	29552.02
612.127	29831.11
612.484	30050.76
612.841	30159.46
613.198	30292.57
613.554	30457.76
613.911	30853.45
614.267	30992.66
614.624	31138.87
614.98	31353.55
615.337	31645.75
615.693	31689.59
616.05	31746.99
616.406	32236.02
616.762	32059.07
617.118	32332.96
617.475	32508.1
617.831	32777.92
618.187	32769.79
618.543	32925.94
618.899	33189.66
619.255	33148.54
619.611	33393.27
619.967	33524.8
620.323	33745.81
620.678	33697
621.034	33722.31
621.39	33925.46
621.746	34089.53
622.101	34535.84
622.457	34334.72
622.812	34470.99
623.168	34639.8
623.523	34636.86
623.879	34974.93
624.234	34834.14
624.589	34990.29
624.945	35070.74
625.3	35165.88
625.655	35200.01
626.01	35311.64
626.365	35425.54
626.72	35465.08
627.075	35607
627.43	35476.38
627.785	35622.59
628.14	35680.45
628.495	35824.85
628.85	35759.31
629.205	35834.57
629.559	35923.6
629.914	35982.13
630.269	35924.51
630.623	35950.95
630.978	35999.76
631.332	36173.54
631.687	36216.7
632.041	36158.85
632.396	36255.12
632.75	36220.77
633.104	36274.1
633.459	36125.41
633.813	36227.1
634.167	36240.43
634.521	36266.65
634.875	36310.03
635.229	36290.15
635.583	36219.64
635.937	36244.05
636.291	36345.97
636.645	36370.15
636.999	36284.95
637.352	36357.49
637.706	36204.95
638.06	36527.66
638.413	36346.19
638.767	36246.98
639.121	36385.29
639.474	36277.27
639.828	36143.48
640.181	36297.38
640.534	36331.5
640.888	36151.62
641.241	36199.53
641.594	36204.5
641.947	36337.15
642.301	36245.85
642.654	36301.9
643.007	36249.7
643.36	36188.68
643.713	36261.45
644.066	36298.28
644.419	36208.57
644.771	35876.6
645.124	35574.69
645.477	35486.1
645.83	35343.51
646.182	35230.51
646.535	35243.17
646.888	35312.32
647.24	35065.32
647.593	35275.71
647.945	35108.71
648.298	35047.02
648.65	34967.92
649.002	34991.2
649.355	35214.7
649.707	34927.92
650.059	35174.7
650.411	35595.48
650.763	35666.89
651.115	35960.21
651.467	35917.73
651.819	35947.56
652.171	35840.67
652.523	35878.86
652.875	35802.7
653.227	35697.17
653.578	35888.35
653.93	35891.06
654.282	35792.99
654.633	35688.36
654.985	35728.81
655.337	35856.94
655.688	35698.52
656.039	35916.37
656.391	35593.44
656.742	35653.55
657.094	35774.23
657.445	35777.62
657.796	35671.18
658.147	35650.16
658.498	35641.8
658.849	35659.88
659.2	35627.79
659.551	35463.28
659.902	35732.42
660.253	35507.12
660.604	35566.1
660.955	35432.32
661.306	35560.9
661.656	35493.78
662.007	35506.67
662.358	35568.36
662.708	35582.14
663.059	35452.66
663.409	35313
663.76	35423.96
664.11	35498.08
664.461	35509.15
664.811	35547.57
665.161	35531.3
665.511	35536.04
665.862	35498.3
666.212	35637.06
666.562	35413.56
666.912	35391.64
667.262	35334.01
667.612	35406.55
667.962	35586.21
668.312	35401.13
668.662	35610.17
669.011	35473.22
669.361	35444.29
669.711	35451.3
670.06	35385.31
670.41	35327.46
670.76	35306.67
671.109	35410.85
671.459	35356.16
671.808	35409.27
672.157	35440.23
672.507	35193.68
672.856	35096.05
673.205	35211.31
673.554	35367.91
673.904	35235.49
674.253	35373.79
674.602	35232.77
674.951	34775.16
675.3	34696.07
675.649	35222.6
675.998	35032.33
676.346	35055.83
676.695	35141.48
677.044	34919.79
677.393	35072.1
677.741	35070.74
678.09	34933.35
678.438	34944.87
678.787	34920.69
679.135	35008.83
679.484	34794.82
679.832	34960.69
680.181	34831.2
680.529	34879.34
680.877	34735.84
681.225	34693.81
681.573	34868.26
681.922	34635.95
682.27	34590.08
682.618	34572.68
682.966	34405.9
683.314	34552.34
683.661	34472.57
684.009	34411.1
684.357	34265.79
684.705	34179.24
685.053	34347.83
685.4	34145.12
685.748	34012.02
686.095	33960.72
686.443	33835.3
686.79	33789.65
687.138	33986.25
687.485	33916.42
687.832	33712.81
688.18	33915.75
688.527	33510.11
688.874	33634.17
689.221	33456.32
689.568	33459.71
689.915	33419.26
690.262	33431.69
690.609	33252.71
690.956	33271.92
691.303	33201.87
691.65	33034.19
691.997	32985.15
692.344	32841.88
692.69	32916
693.037	32817.47
693.383	32593.75
693.73	32706.51
694.077	32528.44
694.423	32566.18
694.769	32423.58
695.116	32376.58
695.462	32309.01
695.808	32157.6
696.155	32246.64
696.501	32114.66
696.847	31949.92
697.193	31842.81
697.539	31821.56
697.885	31555.36
698.231	31612.08
698.577	31494.12
698.923	31493.44
699.269	31379.54
699.614	31267
699.96	31303.16
700.306	31180.23
700.651	31069.27
700.997	31059.32
701.342	31101.13
701.688	30862.04
702.033	30775.04
702.379	30862.27
702.724	30798.09
703.069	30788.6
703.415	30340.02
703.76	30472.45
704.105	30333.02
704.45	30272.68
704.795	30105
705.14	30052.12
705.485	30119.69
705.83	30015.06
706.175	29952.24
706.52	29963.76
706.865	29727.16
707.209	29718.12
707.554	29631.57
707.899	29607.61
708.243	29378.24
708.588	29465.47
708.932	29384.34
709.277	29215.53
709.621	29203.1
709.966	29069.55
710.31	29208.75
710.654	28930.57
710.998	28997.23
711.342	28959.72
711.687	28994.29
712.031	28806.28
712.375	28704.13
712.719	28777.58
713.063	28646.05
713.407	28749.78
713.75	28564.93
714.094	28559.5
714.438	28516.11
714.782	28404.03
715.125	28262.56
715.469	28373.97
715.812	28178.5
716.156	27999.74
716.499	28046.52
716.843	28042.91
717.186	27955.45
717.53	28079.29
717.873	27934.43
718.216	27878.84
718.559	27857.6
718.902	27675.91
719.246	27604.5
719.589	27573.09
719.932	27559.08
720.275	27524.73
720.617	27517.5
720.96	27405.18
721.303	27322.25
721.646	27336.26
721.989	27296.71
722.331	27308.91
722.674	27292.19
723.016	27191.63
723.359	27185.53
723.701	27188.92
724.044	26945.76
724.386	26969.49
724.729	26949.15
725.071	26898.76
725.413	26918.87
725.755	26926.33
726.097	26931.75
726.439	26785.99
726.782	26743.51
727.124	26849.94
727.465	26569.73
727.807	26654.69
728.149	26557.3
728.491	26526.34
728.833	26588.48
729.175	26426.23
729.516	26372.89
729.858	26377.64
730.199	26484.76
730.541	26197.31
730.882	26197.08
731.224	26362.27
731.565	26125.67
731.906	26241.37
732.248	26164.31
732.589	25964.77
732.93	25964.77
733.271	26035.95
733.612	25933.13
733.953	25909.18
734.294	25875.05
734.635	25882.06
734.976	25841.16
735.317	25696.98
735.658	25706.92
735.999	25771.78
736.339	25633.25
736.68	25737.88
737.021	25650.88
737.361	25539.24
737.702	25609.75
738.042	25553.71
738.383	25473.71
738.723	25426.93
739.063	25419.47
739.404	25503.76
739.744	25328.4
740.084	25295.41
740.424	25327.5
740.764	25204.11
741.104	25282.3
741.444	25109.2
741.784	24996.21
742.124	25091.57
742.464	25031.69
742.804	24866.95
743.143	24875.76
743.483	25047.51
743.823	24919.82
744.162	24897.45
744.502	24893.84
744.841	24735.88
745.181	24875.31
745.52	24710.11
745.86	24674.86
746.199	24661.07
746.538	24633.28
746.877	24608.65
747.216	24674.41
747.556	24511.02
747.895	24478.25
748.234	24427.63
748.573	24417.24
748.911	24426.73
749.25	24371.59
749.589	24206.62
749.928	24227.64
750.267	24346.28
750.605	24201.43
750.944	24167.3
751.283	24089.56
751.621	24141.99
751.96	23942.68
752.298	23959.85
752.636	24052.05
752.975	23881.43
753.313	23789.46
753.651	23997.36
753.989	23694.55
754.327	23706.52
754.666	23631.05
755.004	23658.16
755.342	23718.73
755.679	23647.54
756.017	23459.3
756.355	23553.08
756.693	23403.03
757.031	23449.13
757.368	23202.58
757.706	23352.41
758.044	23092.75
758.381	23207.55
758.719	23092.98
759.056	23135.24
759.394	23064.96
759.731	22872.42
760.068	22947
760.405	22794.46
760.743	22731.41
761.08	22723.72
761.417	22670.62
761.754	22533.22
762.091	22581.13
762.428	22478.53
762.765	22355.37
763.102	22411.19
763.438	22184.98
763.775	22254.81
764.112	22148.37
764.449	22169.84
764.785	22120.12
765.122	21933.69
765.458	21815.95
765.795	21824.31
766.131	21715.39
766.467	21733.47
766.804	21596.75
767.14	21588.84
767.476	21553.36
767.812	21378.9
768.148	21479.92
768.485	21357.43
768.821	21220.49
769.157	21158.34
769.492	21183.65
769.828	21083.09
770.164	20945.47
770.5	20904.56
770.836	20928.74
771.171	20760.16
771.507	20787.73
771.842	20599.26
772.178	20590.9
772.513	20509.09
772.849	20486.95
773.184	20468.64
773.519	20470.68
773.855	20337.57
774.19	20201.98
774.525	20063
774.86	20085.38
775.195	19948.66
775.53	19852.39
775.865	19870.24
776.2	19662.79
776.535	19631.15
776.87	19577.82
777.205	19466.41
777.539	19329.92
777.874	19482.91
778.209	19232.52
778.543	19311.84
778.878	19109.13
779.212	19140.09
779.547	19009.7
779.881	19016.93
780.215	18776.03
780.55	18910.27
780.884	18806.99
781.218	18686.09
781.552	18680.44
781.886	18565.64
782.22	18510.05
782.554	18409.04
782.888	18294.91
783.222	18189.15
783.556	18200.68
783.889	18056.95
784.223	17992.1
784.557	17928.6
784.89	18003.17
785.224	17879.11
785.557	17858.99
785.891	17719.56
786.224	17734.03
786.558	17739.67
786.891	17507.82
787.224	17542.39
787.557	17439.12
787.891	17413.13
788.224	17350.98
788.557	17402.73
788.89	17328.84
789.223	17290.2
789.556	17109.18
789.888	16974.5
790.221	16955.74
790.554	16830.09
790.887	16929.07
791.219	16764.79
791.552	16753.71
791.884	16763.2
792.217	16678.69
792.549	16573.38
792.882	16498.8
793.214	16371.58
793.546	16409.31
793.879	16320.73
794.211	16238.7
794.543	16306.27
794.875	16208.64
795.207	16151.47
795.539	16063.33
795.871	16067.4
796.203	15955.77
796.535	15895.2
796.867	15793.06
797.198	15801.87
797.53	15747.18
797.862	15720.74
798.193	15699.05
798.525	15557.59
798.856	15539.73
799.188	15403.24
799.519	15419.74
799.85	15315.56
800.182	15339.96
800.513	15314.43
800.844	15172.74
801.175	15298.84
801.506	15309.23
801.837	15203.02
802.168	15112.17
802.499	15021.78
802.83	14913.99
803.161	14949.24
803.491	14932.74
803.822	14909.24
804.153	14754.22
804.483	14707.89
804.814	14730.94
805.145	14615.46
805.475	14702.01
805.805	14599.42
806.136	14594.45
806.466	14592.19
806.796	14532.3
807.126	14426.09
807.457	14362.36
807.787	14433.77
808.117	14323.95
808.447	14247.11
808.777	14295.7
809.107	14211.41
809.436	14157.17
809.766	14162.14
810.096	14070.17
810.426	14083.27
810.755	14014.8
811.085	13979.77
811.414	13973.9
811.744	13797.63
812.073	13832.43
812.403	13751.31
812.732	13789.27
813.061	13767.58
813.39	13615.94
813.719	13633.34
814.049	13729.38
814.378	13654.36
814.707	13479
815.036	13601.7
815.365	13439.9
815.693	13404.65
816.022	13355.61
816.351	13322.84
816.68	13261.37
817.008	13323.07
817.337	13153.58
817.665	13168.5
817.994	13268.15
818.322	13252.79
818.651	13078.33
818.979	13090.31
819.307	13097.31
819.636	13085.33
819.964	12958.78
820.292	13000.36
820.62	12986.35
820.948	12868.62
821.276	12968.27
821.604	12958.11
821.932	12976.86
822.259	12964.66
822.587	12932.57
822.915	12909.97
823.243	12913.14
823.57	12849.63
823.898	12917.43
824.225	12878.56
824.553	12927.15
824.88	12898.22
825.207	12925.79
825.535	12917.65
825.862	12908.62
826.189	12852.57
826.516	12925.56
826.843	12952.46
827.17	12880.82
827.497	12927.15
827.824	12889.41
828.151	12985
828.478	12849.63
828.805	12872.91
829.131	12883.31
829.458	12781.84
829.785	12762.18
830.111	12843.76
830.438	12814.38
830.764	12843.08
831.09	12823.65
831.417	12814.61
831.743	12890.54
832.069	12732.35
832.395	12765.34
832.722	12804.44
833.048	12759.69
833.374	12792.69
833.7	12642.41
834.026	12703.65
834.351	12736.42
834.677	12786.13
835.003	12748.62
835.329	12712.46
835.654	12625.23
835.98	12556.08
836.306	12625.01
836.631	12565.35
836.956	12611.9
837.282	12624.78
837.607	12503.88
837.932	12534.61
838.258	12544.33
838.583	12433.15
838.908	12448.74
839.233	12509.3
839.558	12430.66
839.883	12417.33
840.208	12330.1
840.533	12367.16
840.858	12357.22
841.182	12355.18
841.507	12385.24
841.832	12225.47
842.156	12198.13
842.481	12211.01
842.805	12206.03
843.13	12103.89
843.454	12124.91
843.778	12079.71
844.103	12092.82
844.427	12025.47
844.751	11980.5
845.075	12032.03
845.399	11883.33
845.723	11865.93
846.047	11857.12
846.371	11791.81
846.695	11822.99
847.019	11830.23
847.343	11679.27
847.666	11561.76
847.99	11497.81
848.313	11593.4
848.637	11435.89
848.96	11412.16
849.284	11412.61
849.607	11374.64
849.931	11335.55
850.254	11285.16
850.577	11200.19
850.9	11152.73
851.223	11131.94
851.546	11079.74
851.869	10992.73
852.192	11041.55
852.515	10950.7
852.838	10876.58
853.161	10897.59
853.483	10787.99
853.806	10789.58
854.129	10783.02
854.451	10719.07
854.774	10667.09
855.096	10586.42
855.419	10578.51
855.741	10556.59
856.063	10626.19
856.385	10550.49
856.708	10443.14
857.03	10453.99
857.352	10429.81
857.674	10397.72
857.996	10373.09
858.318	10330.38
858.64	10317.5
858.961	10320.43
859.283	10221.45
859.605	10206.31
859.926	10251.74
860.248	10154.79
860.57	10115.24
860.891	10114.11
861.212	10085.19
861.534	10103.72
861.855	10049.26
862.176	9983.27
862.498	9931.74
862.819	10072.08
863.14	9981.91
863.461	9958.86
863.782	9863.95
864.103	9928.58
864.424	9843.61
864.745	9797.74
865.065	9839.09
865.386	9828.7
865.707	9738.98
866.027	9755.7
866.348	9757.74
866.668	9767.23
866.989	9797.51
867.309	9664.86
867.63	9722.71
867.95	9703.28
868.27	9610.85
868.59	9642.26
868.91	9668.93
869.23	9586.67
869.55	9602.04
869.87	9630.06
870.19	9645.65
870.51	9562.04
870.83	9611.07
871.15	9530.85
871.469	9544.41
871.789	9503.96
872.109	9480.23
872.428	9431.87
872.748	9523.17
873.067	9477.75
873.386	9470.74
873.706	9399.1
874.025	9352.1
874.344	9410.85
874.663	9353.91
874.982	9383.28
875.301	9314.13
875.62	9288.6
875.939	9218.99
876.258	9263.51
876.577	9231.2
876.896	9254.7
877.214	9144.65
877.533	9238.66
877.852	9218.99
878.17	9175.15
878.489	9171.09
878.807	9181.48
879.125	9142.61
879.444	9117.3
879.762	9051.99
880.08	9111.2
880.398	9011.09
880.716	9043.86
881.034	8998.44
881.352	9064.65
881.67	9063.97
881.988	8943.75
882.306	9019.68
882.624	8963.86
882.941	8934.48
883.259	8895.84
883.577	8872.79
883.894	8841.15
884.212	8856.97
884.529	8827.37
884.846	8781.94
885.164	8845.9
885.481	8803.86
885.798	8739.01
886.115	8669.4
886.432	8659.91
886.75	8720.7
887.067	8674.15
887.383	8573.14
887.7	8618.78
888.017	8563.87
888.334	8703.53
888.651	8531.78
888.967	8554.15
889.284	8434.61
889.6	8468.05
889.917	8498.34
890.233	8487.26
890.55	8390.77
890.866	8429.64
891.182	8373.37
891.498	8386.25
891.815	8333.14
892.131	8254.73
892.447	8283.43
892.763	8247.72
893.079	8172.47
893.395	8217.67
893.71	8189.64
894.026	8078.01
894.342	8144.67
894.657	8076.2
894.973	8065.58
895.289	8049.53
895.604	8046.82
895.92	7973.15
896.235	7962.53
896.55	7990.1
896.865	7965.92
897.181	7928.86
897.496	7909.2
897.811	7869.88
898.126	7866.26
898.441	7747.85
898.756	7744.46
899.071	7700.62
899.386	7758.47
899.7	7702.2
900.015	7643.9
900.33	7558.25
900.644	7580.85
900.959	7614.97
901.273	7532.03
901.588	7516.44
901.902	7499.49
902.216	7455.65
902.531	7451.81
902.845	7378.37
903.159	7412.26
903.473	7293.85
903.787	7261.98
904.101	7280.74
904.415	7273.74
904.729	7238.26
905.042	7211.59
905.356	7153.51
905.67	7143.34
905.984	7203.45
906.297	7145.15
906.611	7048.43
906.924	7050.69
907.237	7028.32
907.551	7014.53
907.864	7000.75
908.177	6918.94
908.491	6967.53
908.804	6888.43
909.117	6833.97
909.43	6876.91
909.743	6785.61
910.056	6747.2
910.368	6802.11
910.681	6705.84
910.994	6725.05
911.307	6695.45
911.619	6605.96
911.932	6570.48
912.244	6566.86
912.557	6641.89
912.869	6489.58
913.181	6501.55
913.494	6552.85
913.806	6428.11
914.118	6464.04
914.43	6423.59
914.742	6349.24
915.054	6395.11
915.366	6354.44
915.678	6358.28
915.99	6324.61
916.302	6253.88
916.613	6191.96
916.925	6205.29
917.236	6219.53
917.548	6130.04
917.859	6179.07
918.171	6091.85
918.482	6126.65
918.794	6015.46
919.105	6060.43
919.416	5972.3
919.727	5956.71
920.038	5938.86
920.349	5931.4
920.66	6006.42
920.971	5879.42
921.282	5833.77
921.593	5819.99
921.903	5824.51
922.214	5828.8
922.525	5766.88
922.835	5720.78
923.146	5714.68
923.456	5698.64
923.767	5629.48
924.077	5657.05
924.387	5614.57
924.697	5587.9
925.008	5573.67
925.318	5571.41
925.628	5531.86
925.938	5530.28
926.248	5481.92
926.558	5429.72
926.867	5412.09
927.177	5398.76
927.487	5379.1
927.796	5356.27
928.106	5326.67
928.416	5354.01
928.725	5293
929.034	5284.18
929.344	5299.78
929.653	5282.15
929.962	5219.78
930.271	5151.76
930.581	5176.16
930.89	5165.99
931.199	5136.84
931.508	5132.32
931.817	5087.8
932.125	5122.15
932.434	5075.83
932.743	4956.06
933.051	5001.7
933.36	5013
933.669	4955.83
933.977	4923.97
934.286	4922.16
934.594	4921.48
934.902	4873.12
935.21	4823.4
935.519	4815.49
935.827	4814.59
936.135	4780.69
936.443	4791.09
936.751	4731.66
937.059	4723.52
937.367	4681.49
937.674	4664.99
937.982	4659.11
938.29	4650.08
938.597	4648.27
938.905	4586.57
939.213	4583.18
939.52	4560.36
939.827	4554.94
940.135	4528.95
940.442	4449.18
940.749	4514.03
941.056	4483.3
941.363	4472.45
941.67	4450.98
941.977	4425.22
942.284	4375.51
942.591	4370.53
942.898	4337.09
943.205	4353.59
943.511	4362.85
943.818	4317.65
944.125	4292.34
944.431	4270.65
944.738	4247.6
945.044	4229.52
945.35	4198.56
945.657	4192.91
945.963	4148.39
946.269	4117.89
946.575	4162.86
946.881	4125.8
947.187	4128.96
947.493	4088.51
947.799	4066.14
948.105	4035.18
948.41	4037.89
948.716	4045.57
949.022	4022.07
949.327	3987.49
949.633	3957.21
949.938	3966.48
950.244	3972.58
950.549	3904.78
950.854	3931.22
951.16	3897.1
951.465	3882.19
951.77	3830.66
952.075	3812.81
952.38	3815.75
952.685	3794.28
952.99	3778.91
953.294	3773.49
953.599	3781.4
953.904	3714.73
954.209	3699.82
954.513	3700.95
954.818	3672.25
955.122	3661.17
955.426	3636.54
955.731	3654.85
956.035	3610.78
956.339	3590.89
956.643	3587.05
956.948	3587.5
957.252	3572.59
957.556	3540.5
957.86	3549.99
958.163	3518.81
958.467	3515.87
958.771	3459.82
959.075	3461.41
959.378	3455.76
959.682	3459.6
959.985	3421.41
960.289	3429.09
960.592	3406.72
960.896	3365.59
961.199	3384.57
961.502	3365.59
961.805	3374.4
962.108	3309.77
962.411	3340.51
962.714	3307.96
963.017	3331.24
963.32	3300.05
963.623	3246.95
963.926	3243.33
964.228	3221.86
964.531	3206.5
964.833	3248.98
965.136	3203.56
965.438	3185.48
965.741	3184.8
966.043	3155.43
966.345	3112.26
966.648	3132.6
966.95	3145.03
967.252	3074.52
967.554	3097.35
967.856	3083.79
968.158	3040.17
968.46	3020.97
968.761	3027.29
969.063	3044.92
969.365	2994.07
969.666	3008.31
969.968	2968.99
970.269	2974.19
970.571	2916.56
970.872	2908.65
971.174	2936
971.475	2896.22
971.776	2947.3
972.077	2895.32
972.378	2884.25
972.679	2884.47
972.98	2853.51
973.281	2841.08
973.582	2848.09
973.883	2840.18
974.183	2799.73
974.484	2794.53
974.785	2778.03
975.085	2758.15
975.386	2764.02
975.686	2738.04
975.986	2759.28
976.287	2715.66
976.587	2693.52
976.887	2704.82
977.187	2663.69
977.487	2686.96
977.787	2669.79
978.087	2653.29
978.387	2637.7
978.687	2641.09
978.987	2615.55
979.286	2630.24
979.586	2618.72
979.885	2585.72
980.185	2577.14
980.484	2556.8
980.784	2507.53
981.083	2540.98
981.382	2541.43
981.682	2511.37
981.981	2474.99
982.28	2476.8
982.579	2458.72
982.878	2465.27
983.177	2470.02
983.475	2467.76
983.774	2450.36
984.073	2403.13
984.372	2406.29
984.67	2392.06
984.969	2388.44
985.267	2422.56
985.566	2379.17
985.864	2389.12
986.162	2370.14
986.461	2355.45
986.759	2357.48
987.057	2326.07
987.355	2324.71
987.653	2305.28
987.951	2270.03
988.249	2312.74
988.547	2276.35
988.844	2260.08
989.142	2285.17
989.44	2223.7
989.737	2232.96
990.035	2231.16
990.332	2202.68
990.63	2210.82
990.927	2198.16
991.224	2194.09
991.521	2183.02
991.819	2167.43
992.116	2173.53
992.413	2150.48
992.71	2121.78
993.006	2126.07
993.303	2091.5
993.6	2155.9
993.897	2074.32
994.193	2113.42
994.49	2063.02
994.787	2052.4
995.083	2083.82
995.379	2063.93
995.676	2035.91
995.972	2046.53
996.268	2037.71
996.565	1973.76
996.861	1997.72
997.157	1985.29
997.453	1978.06
997.749	1993.87
998.044	1966.98
998.34	1954.55
998.636	1944.84
998.932	1928.34
999.227	1927.44
999.523	1901.67
999.818	1918.62
1000.114	1886.08
1000.409	1889.7
1000.704	1862.58
1001	1859.87
1001.295	1842.24
1001.59	1849.47
1001.885	1836.59
1002.18	1829.58
1002.475	1818.29
1002.77	1794.56
1003.065	1774.9
1003.359	1792.75
1003.654	1785.52
1003.949	1750.94
1004.243	1783.03
1004.538	1754.11
1004.832	1763.82
1005.127	1740.1
1005.421	1738.74
1005.715	1692.41
1006.009	1702.13
1006.304	1700.77
1006.598	1689.02
1006.892	1677.27
1007.186	1679.31
1007.48	1654
1007.773	1645.41
1008.067	1628.23
1008.361	1626.65
1008.655	1626.88
1008.948	1590.27
1009.242	1614.68
1009.535	1608.35
1009.829	1570.16
1010.122	1574.9
1010.415	1557.28
1010.708	1566.99
1011.001	1560.67
1011.295	1550.72
1011.588	1519.31
1011.881	1517.95
1012.173	1519.76
1012.466	1499.88
1012.759	1488.58
1013.052	1489.25
1013.344	1526.99
1013.637	1479.76
1013.93	1483.83
1014.222	1441.8
1014.514	1482.25
1014.807	1436.37
1015.099	1447
1015.391	1423.49
1015.683	1435.92
1015.976	1433.89
1016.268	1407.9
1016.56	1390.05
1016.851	1403.16
1017.143	1395.47
1017.435	1370.39
1017.727	1355.47
1018.018	1333.78
1018.31	1336.49
1018.602	1325.19
1018.893	1320.9
1019.185	1325.42
1019.476	1316.15
1019.767	1297.85
1020.058	1279.09
1020.35	1274.35
1020.641	1277.73
1020.932	1269.6
1021.223	1267.57
1021.514	1259.66
1021.804	1277.51
1022.095	1243.61
1022.386	1256.27
1022.677	1231.63
1022.967	1243.39
1023.258	1211.97
1023.548	1206.78
1023.839	1211.3
1024.129	1221.24
1024.419	1200.9
1024.709	1170.84
1025	1184.86
1025.29	1162.48
1025.58	1159.77
1025.87	1150.96
1026.16	1141.02
1026.449	1155.7
1026.739	1109.15
1027.029	1111.41
1027.319	1092.2
1027.608	1125.2
1027.898	1105.31
1028.187	1091.07
1028.477	1114.8
1028.766	1070.73
1029.055	1058.53
1029.344	1060.79
1029.634	1065.99
1029.923	1043.84
1030.212	1050.17
1030.501	1051.75
1030.79	1039.32
1031.078	1035.03
1031.367	1017.4
1031.656	1024.86
1031.945	1017.4
1032.233	999.1
1032.522	998.42
1032.81	956.16
1033.099	968.59
1033.387	987.57
1033.675	965.88
1033.963	969.49
1034.251	962.26
1034.54	938.76
1034.828	965.2
1035.116	939.66
1035.403	932.21
1035.691	939.21
1035.979	937.86
1036.267	902.15
1036.554	898.08
1036.842	893.56
1037.129	904.19
1037.417	911.19
1037.704	884.3
1037.992	864.41
1038.279	867.12
1038.566	856.95
1038.853	856.95
1039.14	856.95
