Data from hue_22_FLMS001491_00047.txt Node
Date: Tue Feb 07 17:10:11 GMT 2017
User: dcchb
Spectrometer: FLMS00149
Trigger mode: 0
Integration Time (sec): 2.000000E-2
Scans to average: 10
Electric dark correction enabled: true
Nonlinearity correction enabled: false
Boxcar width: 0
XAxis mode: Wavelengths
Number of Pixels in Spectrum: 2048
>>>>>Begin Spectral Data<<<<<
341.393	-7.66
341.776	-7.66
342.16	-7.66
342.543	-78.16
342.927	-69.12
343.31	-61.44
343.693	-71.83
344.077	-73.87
344.46	-67.77
344.843	-51.04
345.226	-47.43
345.61	-29.12
345.993	-23.47
346.376	-2.68
346.759	0.48
347.142	36.64
347.525	51.33
347.908	56.98
348.291	70.76
348.674	109.18
349.057	103.3
349.44	126.35
349.823	162.28
350.206	161.83
350.588	206.58
350.971	216.97
351.354	227.37
351.737	238.89
352.119	235.95
352.502	260.59
352.884	278.89
353.267	302.39
353.65	303.07
354.032	320.7
354.414	303.3
354.797	316.4
355.179	342.39
355.562	351.21
355.944	324.77
356.326	326.8
356.709	324.31
357.091	315.05
357.473	327.03
357.855	345.33
358.238	345.1
358.62	329.29
359.002	340.13
359.384	340.36
359.766	343.97
360.148	331.09
360.53	339.45
360.912	348.27
361.294	357.76
361.676	332.67
362.057	329.96
362.439	348.27
362.821	332.22
363.203	322.05
363.584	317.31
363.966	341.71
364.348	332.45
364.729	332
365.111	315.73
365.493	302.62
365.874	315.27
366.256	309.4
366.637	315.27
367.019	315.5
367.4	312.56
367.781	330.19
368.163	320.25
368.544	312.34
368.925	315.95
369.306	318.44
369.688	306.91
370.069	311.43
370.45	318.89
370.831	313.69
371.212	315.95
371.593	317.53
371.974	312.11
372.355	314.6
372.736	328.61
373.117	314.37
373.498	323.41
373.879	321.83
374.26	330.42
374.641	328.61
375.021	317.31
375.402	307.14
375.783	336.74
376.163	320.02
376.544	326.12
376.925	322.51
377.305	315.27
377.686	310.53
378.066	323.64
378.447	322.73
378.827	343.07
379.208	329.06
379.588	343.07
379.968	336.29
380.349	335.61
380.729	325.9
381.109	332.45
381.489	360.24
381.87	320.7
382.25	339.91
382.63	340.13
383.01	332
383.39	345.33
383.77	341.94
384.15	345.78
384.53	362.96
384.91	357.53
385.29	332.9
385.67	367.7
386.049	339.68
386.429	358.66
386.809	367.7
387.189	349.85
387.568	347.14
387.948	369.28
388.328	364.31
388.707	372.22
389.087	384.65
389.466	368.15
389.846	364.09
390.225	379.45
390.605	348.72
390.984	360.92
391.363	379.68
391.743	359.79
392.122	356.18
392.501	356.4
392.881	398.66
393.26	375.84
393.639	384.42
394.018	372.67
394.397	368.61
394.776	381.04
395.155	390.53
395.534	371.32
395.913	383.52
396.292	391.2
396.671	383.75
397.05	391.2
397.429	392.79
397.808	379
398.186	376.52
398.565	388.04
398.944	400.47
399.323	401.37
399.701	407.93
400.08	394.37
400.458	397.08
400.837	396.18
401.215	396.85
401.594	374.48
401.972	419.9
402.351	416.06
402.729	407.25
403.107	392.56
403.486	420.58
403.864	426.23
404.242	416.06
404.62	405.67
404.999	433.69
405.377	400.47
405.755	449.96
406.133	419.68
406.511	421.03
406.889	419.23
407.267	434.59
407.645	414.48
408.023	443.41
408.401	428.27
408.779	430.53
409.156	444.31
409.534	449.06
409.912	436.17
410.29	457.19
410.667	428.72
411.045	443.63
411.422	446.34
411.8	462.39
412.178	448.38
412.555	431.2
412.933	467.36
413.31	450.86
413.687	471.2
414.065	447.93
414.442	484.99
414.819	451.77
415.197	495.38
415.574	489.05
415.951	478.43
416.328	473.01
416.705	486.34
417.082	487.93
417.46	481.82
417.837	474.59
418.214	489.28
418.591	524.53
418.967	515.72
419.344	502.84
419.721	509.85
420.098	511.43
420.475	515.49
420.852	524.08
421.228	520.24
421.605	507.36
421.982	533.57
422.358	524.76
422.735	535.83
423.111	510.3
423.488	522.95
423.864	539.22
424.241	529.73
424.617	555.72
424.994	556.4
425.37	551.43
425.746	561.14
426.123	561.37
426.499	555.04
426.875	552.56
427.251	554.59
427.627	597.07
428.003	594.14
428.379	589.17
428.756	559.11
429.132	620.35
429.507	592.78
429.883	621.93
430.259	616.51
430.635	583.06
431.011	624.19
431.387	630.29
431.763	635.04
432.138	637.98
432.514	641.82
432.89	639.79
433.265	660.8
433.641	654.02
434.016	644.53
434.392	672.1
434.767	675.26
435.143	661.25
435.518	691.08
435.894	677.07
436.269	677.52
436.644	690.86
437.02	694.25
437.395	701.48
437.77	701.03
438.145	690.63
438.52	672.78
438.895	692.21
439.271	705.55
439.646	725.21
440.021	731.31
440.395	757.3
440.77	731.99
441.145	739.67
441.52	754.58
441.895	752.1
442.27	763.17
442.645	739.9
443.019	768.82
443.394	766.11
443.769	781.48
444.143	778.31
444.518	775.6
444.892	799.33
445.267	781.02
445.641	795.04
446.016	811.98
446.39	788.71
446.764	783.06
447.139	791.19
447.513	790.06
447.887	809.05
448.262	814.24
448.636	820.12
449.01	819.89
449.384	820.57
449.758	822.61
450.132	834.13
450.506	847.92
450.88	856.28
451.254	839.33
451.628	877.07
452.002	870.06
452.376	870.97
452.75	885.43
453.123	884.75
453.497	903.06
453.871	918.87
454.244	917.97
454.618	910.29
454.992	920
455.365	939.66
455.739	940.57
456.112	947.12
456.486	932.89
456.859	943.96
457.232	977.63
457.606	990.74
457.979	994.58
458.352	1001.81
458.725	1030.74
459.099	1017.18
459.472	1061.92
459.845	1051.07
460.218	1056.95
460.591	1072.09
460.964	1074.58
461.337	1108.93
461.71	1084.75
462.083	1118.64
462.456	1118.42
462.829	1147.12
463.201	1149.6
463.574	1146.21
463.947	1125.87
464.32	1192.31
464.692	1180.56
465.065	1201.58
465.438	1210.62
465.81	1223.05
466.183	1240.67
466.555	1263.05
466.928	1242.26
467.3	1265.08
467.672	1295.81
468.045	1292.65
468.417	1329.26
468.789	1335.36
469.161	1317.51
469.534	1374.46
469.906	1369.94
470.278	1399.99
470.65	1419.65
471.022	1447.67
471.394	1437.5
471.766	1482.25
472.138	1491.51
472.51	1531.51
472.882	1546.65
473.253	1568.12
473.625	1566.31
473.997	1627.1
474.369	1627.33
474.74	1663.26
475.112	1683.83
475.484	1722.02
475.855	1759.76
476.227	1762.92
476.598	1800.21
476.97	1844.73
477.341	1859.41
477.713	1900.54
478.084	1942.8
478.455	1937.38
478.827	1985.51
479.198	2057.83
479.569	2055.57
479.94	2132.18
480.311	2136.47
480.682	2190.25
481.053	2204.49
481.424	2269.12
481.795	2283.81
482.166	2328.55
482.537	2386.86
482.908	2396.58
483.279	2461.21
483.65	2500.08
484.021	2518.61
484.391	2604.71
484.762	2602.45
485.133	2619.62
485.503	2694.42
485.874	2717.7
486.244	2777.81
486.615	2844.93
486.985	2886.73
487.356	2917.24
487.726	2945.71
488.097	3041.08
488.467	3075.2
488.837	3096.9
489.207	3175.54
489.578	3225.93
489.948	3229.32
490.318	3273.84
490.688	3292.37
491.058	3384.12
491.428	3429.32
491.798	3424.8
492.168	3509.09
492.538	3541.86
492.908	3580.73
493.278	3629.09
493.648	3638.58
494.017	3692.13
494.387	3734.17
494.757	3779.82
495.126	3805.58
495.496	3808.06
495.866	3890.1
496.235	3911.56
496.605	3939.13
496.974	3949.53
497.344	4009.19
497.713	4051.22
498.082	4049.19
498.452	4118.56
498.821	4149.07
499.19	4128.96
499.559	4209.18
499.928	4235.85
500.298	4262.74
500.667	4319.46
501.036	4336.19
501.405	4393.36
501.774	4386.35
502.143	4397.43
502.512	4454.83
502.88	4456.18
503.249	4487.59
503.618	4513.13
503.987	4551.32
504.356	4544.77
504.724	4565.78
505.093	4586.35
505.462	4596.97
505.83	4661.15
506.199	4702.96
506.567	4724.42
506.936	4736.85
507.304	4782.5
507.672	4810.52
508.041	4824.31
508.409	4837.87
508.777	4886.23
509.145	4922.38
509.514	4888.94
509.882	4944.53
510.25	4953.34
510.618	4996.51
510.986	5012.1
511.354	5007.58
511.722	5062.95
512.09	5111.08
512.458	5110.63
512.826	5140.46
513.193	5128.71
513.561	5173.45
513.929	5135.71
514.297	5236.05
514.664	5242.83
515.032	5264.75
515.4	5316.05
515.767	5305.43
516.135	5342.49
516.502	5329.38
516.869	5416.61
517.237	5427.23
517.604	5382.49
517.972	5424.07
518.339	5462.71
518.706	5468.81
519.073	5507.45
519.44	5526.66
519.808	5549.26
520.175	5528.02
520.542	5611.18
520.909	5633.1
521.276	5674
521.643	5716.49
522.009	5683.27
522.376	5708.58
522.743	5814.34
523.11	5815.24
523.477	5899.08
523.843	5921.45
524.21	5906.77
524.577	5985.63
524.943	5982.24
525.31	6002.36
525.676	6035.35
526.043	6073.31
526.409	6093.65
526.776	6181.11
527.142	6223.82
527.508	6185.85
527.874	6239.86
528.241	6278.51
528.607	6307.66
528.973	6314.66
529.339	6326.64
529.705	6442.34
530.071	6435.11
530.437	6478.73
530.803	6485.51
531.169	6495.68
531.535	6467.43
531.901	6575.67
532.267	6621.1
532.632	6628.78
532.998	6653.19
533.364	6692.06
533.73	6708.55
534.095	6720.98
534.461	6809.79
534.826	6796.46
535.192	6855.44
535.557	6893.86
535.923	6887.53
536.288	6897.93
536.653	6910.81
537.019	6924.82
537.384	6949.22
537.749	7051.14
538.114	7033.29
538.479	7087.98
538.845	7045.04
539.21	7066.06
539.575	7146.96
539.94	7122.33
540.305	7187.86
540.67	7264.47
541.034	7253.4
541.399	7287.07
541.764	7311.25
542.129	7341.3
542.494	7323.9
542.858	7440.96
543.223	7398.93
543.587	7437.57
543.952	7460.85
544.316	7490.45
544.681	7490.23
545.045	7539.94
545.41	7585.14
545.774	7589.21
546.138	7635.08
546.503	7654.52
546.867	7696.78
547.231	7717.11
547.595	7735.64
547.959	7755.3
548.324	7818.81
548.688	7812.7
549.052	7848.41
549.416	7830.56
549.779	7853.61
550.143	7907.39
550.507	7893.38
550.871	7987.16
551.235	7969.76
551.599	8085.01
551.962	8069.87
552.326	8085.47
552.689	8074.62
553.053	8132.7
553.417	8156.42
553.78	8267.83
554.143	8174.95
554.507	8201.62
554.87	8301.73
555.234	8376.08
555.597	8287.49
555.96	8322.75
556.323	8416.53
556.686	8395.06
557.05	8425.12
557.413	8523.19
557.776	8456.08
558.139	8536.07
558.502	8548.05
558.865	8560.48
559.228	8647.48
559.59	8604.55
559.953	8669.63
560.316	8718.9
560.679	8763.19
561.041	8754.15
561.404	8802.06
561.767	8846.12
562.129	8795.5
562.492	8948.49
562.854	8840.93
563.217	8868.04
563.579	8936.74
563.941	9030.98
564.304	9041.37
564.666	9129.73
565.028	9098.32
565.39	9193.01
565.753	9188.49
566.115	9170.18
566.477	9160.47
566.839	9274.81
567.201	9313
567.563	9316.39
567.925	9402.94
568.287	9375.6
568.648	9471.87
569.01	9487.24
569.372	9503.96
569.734	9531.76
570.095	9533.11
570.457	9658.53
570.819	9640.23
571.18	9699.43
571.542	9701.92
571.903	9786.21
572.265	9812.88
572.626	9887.68
572.987	9863.27
573.349	9922.71
573.71	10001.57
574.071	10064.85
574.432	10095.58
574.794	10189.14
575.155	10124.51
575.516	10277.27
575.877	10390.49
576.238	10406.76
576.599	10463.48
576.96	10532.41
577.32	10628.9
577.681	10677.04
578.042	10749.35
578.403	10817.37
578.763	10943.47
579.124	10993.64
579.485	11123.8
579.845	11192.95
580.206	11309.11
580.566	11394.53
580.927	11494.64
581.287	11642.21
581.648	11678.82
582.008	11850.11
582.368	11942.09
582.728	12123.1
583.089	12281.29
583.449	12401.06
583.809	12592.47
584.169	12744.78
584.529	12905.45
584.889	13196.07
585.249	13254.59
585.609	13385.21
585.969	13660.69
586.329	13802.15
586.688	14069.04
587.048	14218.64
587.408	14415.02
587.768	14645.07
588.127	14928.45
588.487	15076.69
588.846	15387.87
589.206	15582.9
589.565	15838.71
589.925	16120.51
590.284	16337
590.643	16659.48
591.003	17012.01
591.362	17219.24
591.721	17478.21
592.08	17694.25
592.44	18072.77
592.799	18308.02
593.158	18638.18
593.517	18908.68
593.876	19272.74
594.235	19534.2
594.593	19769.45
594.952	20193.62
595.311	20441.98
595.67	20789.31
596.029	21156.31
596.387	21407.37
596.746	21809.4
597.104	22045.1
597.463	22349.27
597.822	22688.25
598.18	22910.84
598.538	23210.72
598.897	23604.61
599.255	23721.44
599.613	24377.47
599.972	24659.49
600.33	24914.4
600.688	25017.68
601.046	25542.63
601.404	25803.87
601.762	26119.79
602.12	26512.1
602.478	26769.27
602.836	27199.09
603.194	27197.73
603.552	27590.94
603.91	27744.84
604.268	28214.88
604.625	28376.68
604.983	28785.03
605.341	28874.75
605.698	29358.13
606.056	29595.41
606.413	29869.07
606.771	30176.18
607.128	30457.76
607.485	30592.9
607.843	30755.38
608.2	31194.46
608.557	31510.39
608.914	31692.75
609.272	31969.81
609.629	32293.19
609.986	32583.13
610.343	32644.59
610.7	33005.71
611.057	33265.59
611.414	33346.5
611.771	33601.63
612.127	33926.59
612.484	34008.85
612.841	34318.9
613.198	34393.25
613.554	34637.54
613.911	34988.94
614.267	35091.53
614.624	35332.88
614.98	35442.26
615.337	35875.92
615.693	35875.47
616.05	36037.95
616.406	36386.42
616.762	36369.69
617.118	36512.29
617.475	36800.42
617.831	37043.12
618.187	37156.57
618.543	37285.15
618.899	37499.61
619.255	37619.83
619.611	37722.65
619.967	37935.08
620.323	38069.76
620.678	38157.67
621.034	38177.78
621.39	38360.15
621.746	38214.84
622.101	38949.96
622.457	38745.45
622.812	38817.09
623.168	39048.72
623.523	39286
623.879	39451.65
624.234	39176.17
624.589	39459.56
624.945	39469.5
625.3	39571.87
625.655	39723.28
626.01	39718.08
626.365	39902.03
626.72	39905.42
627.075	40089.37
627.43	39989.49
627.785	40001.46
628.14	40288.01
628.495	40250.5
628.85	40257.5
629.205	40233.77
629.559	40473.31
629.914	40376.14
630.269	40472.41
630.623	40408.68
630.978	40450.72
631.332	40589.7
631.687	40708.56
632.041	40629.92
632.396	40731.16
632.75	40676.7
633.104	40813.19
633.459	40592.63
633.813	40662.01
634.167	40634.21
634.521	40807.54
634.875	40749.92
635.229	40841.67
635.583	40760.76
635.937	40715.12
636.291	40695.23
636.645	40658.62
636.999	40728.45
637.352	40770.03
637.706	40733.19
638.06	40870.82
638.413	40678.28
638.767	40563.03
639.121	40761.67
639.474	40530.26
639.828	40703.36
640.181	40789.46
640.534	40842.12
640.888	40661.78
641.241	40654.55
641.594	40779.29
641.947	40712.63
642.301	40703.82
642.654	40729.58
643.007	40863.13
643.36	40688.9
643.713	40636.7
644.066	40766.87
644.419	40507.44
644.771	40255.01
645.124	40044.4
645.477	39928.92
645.83	39756.72
646.182	39616.16
646.535	39502.49
646.888	39521.93
647.24	39407.13
647.593	39701.81
647.945	39460.91
648.298	39308.83
648.65	39403.74
649.002	39325.32
649.355	39364.87
649.707	39420.23
650.059	39628.36
650.411	40064.51
650.763	40087.11
651.115	40344.73
651.467	40173.21
651.819	40275.58
652.171	40179.99
652.523	40154.68
652.875	40180.89
653.227	40197.84
653.578	40291.17
653.93	40313.77
654.282	39999.65
654.633	39955.81
654.985	40089.6
655.337	40205.52
655.688	40142.25
656.039	40287.56
656.391	39915.59
656.742	39935.25
657.094	40030.16
657.445	40065.64
657.796	40144.28
658.147	39908.58
658.498	39926.44
658.849	40054.12
659.2	39975.25
659.551	39767.57
659.902	39966.21
660.253	40011.63
660.604	40007.79
660.955	39675.6
661.306	40017.06
661.656	39966.44
662.007	40021.8
662.358	39906.78
662.708	39953.33
663.059	39974.34
663.409	39642.6
663.76	40036.94
664.11	39926.89
664.461	39922.59
664.811	40040.33
665.161	39863.84
665.511	39863.16
665.862	39932.09
666.212	39873.33
666.562	39882.6
666.912	39845.99
667.262	39782.71
667.612	39787.23
667.962	39704.97
668.312	39768.7
668.662	39925.76
669.011	39893.67
669.361	39814.8
669.711	39902.71
670.06	39838.08
670.41	39801.47
670.76	39728.7
671.109	39818.42
671.459	39819.55
671.808	39714.24
672.157	39796.27
672.507	39645.31
672.856	39461.82
673.205	39528.71
673.554	39775.48
673.904	39479.22
674.253	39766.67
674.602	39590.17
674.951	38942.51
675.3	38831.1
675.649	39533
675.998	39507.24
676.346	39293.68
676.695	39456.39
677.044	39292.1
677.393	39254.59
677.741	39410.52
678.09	39475.83
678.438	39298.43
678.787	39210.07
679.135	39285.32
679.484	39045.33
679.832	39256.4
680.181	39041.94
680.529	39199.22
680.877	39072.45
681.225	38888.05
681.573	39229.96
681.922	38820.48
682.27	38775.96
682.618	38877.88
682.966	38789.06
683.314	38688.5
683.661	38671.78
684.009	38630.65
684.357	38409.19
684.705	38411.22
685.053	38525.79
685.4	38497.77
685.748	38214.84
686.095	38327.16
686.443	38175.52
686.79	37966.71
687.138	38241.73
687.485	38166.93
687.832	37907.51
688.18	38098.69
688.527	37722.43
688.874	37733.95
689.221	37617.57
689.568	37539.15
689.915	37545.26
690.262	37523.56
690.609	37553.17
690.956	37199.73
691.303	37251.48
691.65	37100.3
691.997	37242.44
692.344	36874.31
692.69	36952.28
693.037	36897.14
693.383	36516.36
693.73	36703.02
694.077	36552.29
694.423	36373.76
694.769	36379.18
695.116	36400.43
695.462	36197.49
695.808	36129.02
696.155	36203.6
696.501	36025.75
696.847	35956.82
697.193	35625.53
697.539	35807.67
697.885	35573.78
698.231	35593.67
698.577	35561.81
698.923	35352.77
699.269	35186
699.614	34938.54
699.96	35136.05
700.306	35034.36
700.651	34853.35
700.997	34840.69
701.342	34803.86
701.688	34702.84
702.033	34583.3
702.379	34539.46
702.724	34451.55
703.069	34487.26
703.415	34087.49
703.76	34288.62
704.105	34166.36
704.45	34069.64
704.795	33944.45
705.14	33831.23
705.485	33882.75
705.83	33720.05
706.175	33663.32
706.52	33618.58
706.865	33342.43
707.209	33514.63
707.554	33316.89
707.899	33365.25
708.243	33196.67
708.588	33131.59
708.932	33077.12
709.277	32890.91
709.621	32926.39
709.966	32721.43
710.31	32856.57
710.654	32556.69
710.998	32614.31
711.342	32547.65
711.687	32464.71
712.031	32216.81
712.375	32327.99
712.719	32392.62
713.063	32242.12
713.407	32392.62
713.75	32242.12
714.094	32124.61
714.438	31970.49
714.782	32025.85
715.125	31908.12
715.469	31899.53
715.812	31654.11
716.156	31580.67
716.499	31606.2
716.843	31589.93
717.186	31428.81
717.53	31610.5
717.873	31507
718.216	31582.02
718.559	31390.39
718.902	31207.57
719.246	31231.52
719.589	31138.42
719.932	31019.33
720.275	30930.06
720.617	31000.8
720.96	30889.61
721.303	30950.63
721.646	30919.89
721.989	30711.09
722.331	30888.48
722.674	30730.97
723.016	30833.12
723.359	30673.8
723.701	30594.7
724.044	30498.66
724.386	30306.12
724.729	30484.65
725.071	30310.87
725.413	30300.93
725.755	30298.44
726.097	30204.43
726.439	30088.5
726.782	30061.84
727.124	30257.09
727.465	30009.41
727.807	30075.62
728.149	29936.19
728.491	29695.52
728.833	29813.26
729.175	29840.6
729.516	29772.8
729.858	29809.64
730.199	29851.9
730.541	29601.96
730.882	29514.28
731.224	29644.67
731.565	29407.62
731.906	29419.14
732.248	29442.64
732.589	29251.91
732.93	29269.99
733.271	29277
733.612	29357.22
733.953	29324.45
734.294	29107.29
734.635	29099.6
734.976	29242.65
735.317	28954.97
735.658	29046.5
735.999	28991.13
736.339	29015.08
736.68	28945.48
737.021	28723.34
737.361	28877.46
737.702	28750.01
738.042	28800.17
738.383	28737.13
738.723	28846.05
739.063	28643.34
739.404	28731.25
739.744	28565.15
740.084	28538.71
740.424	28438.6
740.764	28383.24
741.104	28627.98
741.444	28360.64
741.784	28214.2
742.124	28362.22
742.464	28372.16
742.804	28188.67
743.143	28198.83
743.483	28224.6
743.823	27966.75
744.162	28128.78
744.502	28109.8
744.841	28099.4
745.181	27982.34
745.52	27932.4
745.86	27904.15
746.199	27803.82
746.538	27842.91
746.877	27787.32
747.216	27889.24
747.556	27827.77
747.895	27697.61
748.234	27606.76
748.573	27720.66
748.911	27613.54
749.25	27648.57
749.589	27437.05
749.928	27523.15
750.267	27524.05
750.605	27555.69
750.944	27464.39
751.283	27305.98
751.621	27312.3
751.96	27296.94
752.298	27304.4
752.636	27279.76
752.975	27128.58
753.313	26996.38
753.651	27074.12
753.989	26916.38
754.327	26934.69
754.666	26771.75
755.004	26784.18
755.342	26860.56
755.679	26753.68
756.017	26682.26
756.355	26629.84
756.693	26515.72
757.031	26603.4
757.368	26534.92
757.706	26383.74
758.044	26414.47
758.381	26442.27
758.719	26360.24
759.056	26301.03
759.394	26185.33
759.731	26076.4
760.068	26018.78
760.405	26005.9
760.743	25788.95
761.08	25810.88
761.417	25623.99
761.754	25722.52
762.091	25661.27
762.428	25604.55
762.765	25381.06
763.102	25510.77
763.438	25367.27
763.775	25303.54
764.112	25257.44
764.449	25263.77
764.785	25112.14
765.122	24951.69
765.458	24823.78
765.795	24837.79
766.131	24767.29
766.467	24823.33
766.804	24719.15
767.14	24600.51
767.476	24596.67
767.812	24529.1
768.148	24465.37
768.485	24308.09
768.821	24224.02
769.157	24172.05
769.492	24086.63
769.828	24128.21
770.164	23762.79
770.5	23856.12
770.836	23847.99
771.171	23636.69
771.507	23624.04
771.842	23399.19
772.178	23399.41
772.513	23402.12
772.849	23304.05
773.184	23136.6
773.519	23156.03
773.855	22968.92
774.19	22905.87
774.525	22960.78
774.86	22904.96
775.195	22837.17
775.53	22665.65
775.865	22568.7
776.2	22425.65
776.535	22275.6
776.87	22330.74
777.205	22267.47
777.539	22156.51
777.874	22162.16
778.209	22066.79
778.543	21995.38
778.878	21866.35
779.212	21800.13
779.547	21669.51
779.881	21607.14
780.215	21517.88
780.55	21651.21
780.884	21418
781.218	21304.1
781.552	21309.52
781.886	21266.81
782.22	21101.62
782.554	21072.47
782.888	20934.62
783.222	20777.34
783.556	20749.99
783.889	20747.51
784.223	20516.78
784.557	20439.26
784.89	20537.12
785.224	20344.8
785.557	20297.8
785.891	20237.01
786.224	20241.98
786.558	20168.99
786.891	19911.82
787.224	19958.15
787.557	19949.56
787.891	19849.68
788.224	19860.07
788.557	19771.26
788.89	19691.26
789.223	19764.71
789.556	19463.47
789.888	19580.76
790.221	19403.36
790.554	19204.27
790.887	19333.53
791.219	19143.48
791.552	19135.12
791.884	19100.77
792.217	18938.51
792.549	18932.19
792.882	18796.82
793.214	18717.28
793.546	18767.22
793.879	18697.84
794.211	18567
794.543	18597.96
794.875	18575.13
795.207	18511.41
795.539	18448.36
795.871	18374.91
796.203	18280
796.535	18098.08
796.867	18037.97
797.198	18062.15
797.53	18106.9
797.862	17976.28
798.193	18039.78
798.525	17793.46
798.856	17778.54
799.188	17670.52
799.519	17594.82
799.85	17595.95
800.182	17487.7
800.513	17473.69
800.844	17373.58
801.175	17506.01
801.506	17389.63
801.837	17285.68
802.168	17240.48
802.499	17280.93
802.83	17069.86
803.161	17071.22
803.491	17126.81
803.822	17085.68
804.153	16901.5
804.483	16809.98
804.814	16728.85
805.145	16670.55
805.475	16742.41
805.805	16653.38
806.136	16586.03
806.466	16581.74
806.796	16708.06
807.126	16546.94
807.457	16397.11
807.787	16432.14
808.117	16287.06
808.447	16238.47
808.777	16350.78
809.107	16161.64
809.436	16084.8
809.766	16106.05
810.096	16027.86
810.426	16051.36
810.755	16001.87
811.085	15942.21
811.414	15936.11
811.744	15818.37
812.073	15705.15
812.403	15780.4
812.732	15677.13
813.061	15617.7
813.39	15642.1
813.719	15568.66
814.049	15650.24
814.378	15555.1
814.707	15481.88
815.036	15471.03
815.365	15373.64
815.693	15246.63
816.022	15330.7
816.351	15217.48
816.68	15183.81
817.008	15220.19
817.337	15068.56
817.665	15007.54
817.994	15131.61
818.322	15039.86
818.651	15064.04
818.979	14932.97
819.307	14959.86
819.636	14892.52
819.964	14835.57
820.292	14829.24
820.62	14921.22
820.948	14714.67
821.276	14952.4
821.604	14753.76
821.932	14815.91
822.259	14827.43
822.587	14811.16
822.915	14711.73
823.243	14788.11
823.57	14709.92
823.898	14720.55
824.225	14719.87
824.553	14637.61
824.88	14731.39
825.207	14800.09
825.535	14764.61
825.862	14745.4
826.189	14683.71
826.516	14810.49
826.843	14880.77
827.17	14776.81
827.497	14772.07
827.824	14794.89
828.151	14752.86
828.478	14703.14
828.805	14799.87
829.131	14759.87
829.458	14691.85
829.785	14500.89
830.111	14702.24
830.438	14816.36
830.764	14654.56
831.09	14608.68
831.417	14631.06
831.743	14685.74
832.069	14601.23
832.395	14550.38
832.722	14636.93
833.048	14527.1
833.374	14584.28
833.7	14533.21
834.026	14568.46
834.351	14549.25
834.677	14423.15
835.003	14462.47
835.329	14539.76
835.654	14450.95
835.98	14395.13
836.306	14494.34
836.631	14495.47
836.956	14406.2
837.282	14456.37
837.607	14365.07
837.932	14327.34
838.258	14382.02
838.583	14286.66
838.908	14202.14
839.233	14154.01
839.558	14243.5
839.883	14162.82
840.208	14087.34
840.533	14147.9
840.858	14087.57
841.182	14068.13
841.507	14033.78
841.832	13995.82
842.156	13972.32
842.481	13990.62
842.805	13934.35
843.13	13888.02
843.454	13875.6
843.778	13731.87
844.103	13811.87
844.427	13795.82
844.751	13742.27
845.075	13634.7
845.399	13677.63
845.723	13568.26
846.047	13578.88
846.371	13423.18
846.695	13477.87
847.019	13258.89
847.343	13316.97
847.666	13311.54
847.99	13187.25
848.313	13128.95
848.637	13107.71
848.96	13069.06
849.284	13068.61
849.607	13008.73
849.931	13008.5
850.254	12954.49
850.577	12861.38
850.9	12677.66
851.223	12707.26
851.546	12621.39
851.869	12560.15
852.192	12602.63
852.515	12437.89
852.838	12489.19
853.161	12447.84
853.483	12388.4
853.806	12330.1
854.129	12333.72
854.451	12305.24
854.774	12151.57
855.096	12163.1
855.419	12137.11
855.741	12104.12
856.063	11980.05
856.385	12008.53
856.708	11922.43
857.03	11875.42
857.352	11896.44
857.674	11879.94
857.996	11786.84
858.318	11728.53
858.64	11810.34
858.961	11749.32
859.283	11578.71
859.605	11586.16
859.926	11604.69
860.248	11563.79
860.57	11593.62
860.891	11546.39
861.212	11452.61
861.534	11424.81
861.855	11595.66
862.176	11457.13
862.498	11440.63
862.819	11478.6
863.14	11379.16
863.461	11331.93
863.782	11287.87
864.103	11372.16
864.424	11246.29
864.745	11280.64
865.065	11297.36
865.386	11207.64
865.707	11164.48
866.027	11218.72
866.348	11140.75
866.668	11127.42
866.989	11097.59
867.309	11051.04
867.63	10993.86
867.95	11079.06
868.27	10961.1
868.59	11018.27
868.91	10971.49
869.23	10949.34
869.55	10856.69
869.87	10966.52
870.19	10943.24
870.51	10888.56
870.83	10934.88
871.15	10878.16
871.469	10869.12
871.789	10856.24
872.109	10851.04
872.428	10736.24
872.748	10808.33
873.067	10743.25
873.386	10722.46
873.706	10734.66
874.025	10662.8
874.344	10653.99
874.663	10649.01
874.982	10672.29
875.301	10653.31
875.62	10625.74
875.939	10566.98
876.258	10595.91
876.577	10525.18
876.896	10529.47
877.214	10480.43
877.533	10490.83
877.852	10491.96
878.17	10421.9
878.489	10462.13
878.807	10422.35
879.125	10392.07
879.444	10420.09
879.762	10382.13
880.08	10354.33
880.398	10301
880.716	10380.77
881.034	10269.59
881.352	10334.45
881.67	10235.01
881.988	10309.81
882.306	10223.71
882.624	10175.35
882.941	10121.8
883.259	10139.42
883.577	10074.57
883.894	10131.74
884.212	10076.37
884.529	10016.04
884.846	9992.53
885.164	9991.4
885.481	10009.48
885.798	10060.33
886.115	9969.94
886.432	9985.75
886.75	9817.62
887.067	9911.86
887.383	9856.27
887.7	9820.79
888.017	9828.24
888.334	9851.52
888.651	9708.02
888.967	9807.23
889.284	9677.97
889.6	9700.11
889.917	9615.59
890.233	9666.89
890.55	9517.97
890.866	9651.75
891.182	9533.56
891.498	9540.34
891.815	9441.14
892.131	9473.68
892.447	9403.85
892.763	9386.45
893.079	9374.02
893.395	9323.85
893.71	9276.62
894.026	9303.96
894.342	9283.63
894.657	9221.48
894.973	9145.1
895.289	9190.07
895.604	9186
895.92	9077.98
896.235	9044.76
896.55	8960.02
896.865	9004.54
897.181	8959.57
897.496	9012.22
897.811	8923.18
898.126	8866.69
898.441	8907.59
898.756	8889.74
899.071	8826.24
899.386	8836.41
899.7	8677.31
900.015	8714.15
900.33	8620.82
900.644	8649.74
900.959	8619.46
901.273	8615.39
901.588	8582.4
901.902	8474.16
902.216	8512.8
902.531	8433.48
902.845	8474.61
903.159	8342.63
903.473	8403.42
903.787	8313.71
904.101	8335.4
904.415	8288.4
904.729	8257.89
905.042	8159.14
905.356	8168.63
905.67	8182.41
905.984	8163.2
906.297	8122.07
906.611	8056.31
906.924	8076.65
907.237	8007.95
907.551	7979.48
907.864	8008.18
908.177	7975.41
908.491	7883.66
908.804	7823.33
909.117	7783.33
909.43	7737.45
909.743	7699.26
910.056	7795.3
910.368	7747.85
910.681	7596.21
910.994	7601.64
911.307	7599.15
911.619	7547.17
911.932	7569.55
912.244	7541.52
912.557	7496.33
912.869	7450.68
913.181	7389.66
913.494	7414.52
913.806	7350.12
914.118	7320.74
914.43	7301.08
914.742	7303.11
915.054	7225.15
915.366	7197.58
915.678	7197.58
915.99	7108.54
916.302	7089.79
916.613	7046.85
916.925	7064.48
917.236	7048.88
917.548	7043.46
917.859	7009.79
918.171	6924.59
918.482	6902.67
918.794	6884.37
919.105	6915.33
919.416	6805.95
919.727	6799.85
920.038	6693.64
920.349	6752.39
920.66	6701.09
920.971	6697.48
921.282	6703.13
921.593	6501.1
921.903	6618.84
922.214	6558.05
922.525	6600.76
922.835	6507.88
923.146	6462.46
923.456	6448.9
923.767	6455.23
924.077	6358.96
924.387	6382.91
924.697	6362.8
925.008	6365.06
925.318	6333.2
925.628	6258.17
925.938	6291.61
926.248	6228.11
926.558	6185.18
926.867	6230.15
927.177	6154.67
927.487	6124.39
927.796	6019.98
928.106	6066.76
928.416	6050.72
928.725	6023.82
929.034	5966.43
929.344	5982.02
929.653	5963.04
929.962	5906.09
930.271	5872.87
930.581	5838.74
930.89	5831.29
931.199	5777.05
931.508	5741.57
931.817	5764.17
932.125	5759.88
932.434	5751.06
932.743	5737.05
933.051	5696.38
933.36	5560.79
933.669	5643.72
933.977	5573.89
934.286	5608.69
934.594	5554.23
934.902	5488.47
935.21	5475.14
935.519	5469.94
935.827	5449.83
936.135	5371.64
936.443	5412.54
936.751	5322.6
937.059	5413.45
937.367	5320.57
937.674	5274.24
937.982	5302.94
938.29	5249.16
938.597	5281.47
938.905	5186.78
939.213	5174.13
939.52	5170.97
939.827	5190.17
940.135	5123.06
940.442	5110.63
940.749	5094.13
941.056	5045.77
941.363	5018.2
941.67	5059.33
941.977	4994.93
942.284	4940.69
942.591	4944.31
942.898	4973.91
943.205	4960.35
943.511	4871.99
943.818	4912.22
944.125	4802.39
944.431	4831.54
944.738	4825.44
945.044	4807.13
945.35	4751.99
945.657	4725.33
945.963	4717.19
946.269	4700.7
946.575	4716.51
946.881	4671.09
947.187	4606.69
947.493	4608.04
947.799	4589.29
948.105	4574.6
948.41	4537.31
948.716	4534.82
949.022	4520.81
949.327	4509.51
949.633	4496.86
949.938	4486.92
950.244	4475.39
950.549	4400.59
950.854	4444.43
951.16	4403.3
951.465	4342.06
951.77	4369.4
952.075	4345.68
952.38	4299.35
952.685	4326.69
952.99	4249.18
953.294	4288.96
953.599	4243.08
953.904	4193.82
954.209	4252.12
954.513	4178
954.818	4165.79
955.122	4132.12
955.426	4137.55
955.731	4103.88
956.035	4125.34
956.339	4091.22
956.643	4074.95
956.948	4009.19
957.252	4000.83
957.556	4005.8
957.86	3996.53
958.163	3966.25
958.467	4004.44
958.771	3949.08
959.075	3918.34
959.378	3889.42
959.682	3917.44
959.985	3886.93
960.289	3886.48
960.592	3832.02
960.896	3814.84
961.199	3855.29
961.502	3815.97
961.805	3774.17
962.108	3732.59
962.411	3710.21
962.714	3720.61
963.017	3698.24
963.32	3686.26
963.623	3669.08
963.926	3653.27
964.228	3624.79
964.531	3554.74
964.833	3646.71
965.136	3585.92
965.438	3572.36
965.741	3563.78
966.043	3507.05
966.345	3542.99
966.648	3526.49
966.95	3495.76
967.252	3466.6
967.554	3488.52
967.856	3448.53
968.158	3416.66
968.46	3405.14
968.761	3380.96
969.063	3384.35
969.365	3357.91
969.666	3382.54
969.968	3345.93
970.269	3317.46
970.571	3278.81
970.872	3292.15
971.174	3315.65
971.475	3307.29
971.776	3251.92
972.077	3245.14
972.378	3230
972.679	3237.68
972.98	3186.84
973.281	3206.95
973.582	3172.83
973.883	3161.53
974.183	3188.19
974.484	3147.29
974.785	3125.14
975.085	3092.15
975.386	3123.79
975.686	3085.82
975.986	3107.52
976.287	3050.12
976.587	3030.91
976.887	2999.05
977.187	3041.53
977.487	2983.45
977.787	2981.19
978.087	2973.06
978.387	2982.55
978.687	2978.93
978.987	2941.87
979.286	2908.65
979.586	2951.82
979.885	2922.44
980.185	2895.55
980.484	2873.17
980.784	2820.52
981.083	2901.87
981.382	2849.44
981.682	2809.22
981.981	2817.58
982.28	2826.17
982.579	2797.69
982.878	2836.11
983.177	2759.96
983.475	2749.79
983.774	2729
984.073	2723.57
984.372	2731.48
984.67	2720.18
984.969	2698.26
985.267	2696.91
985.566	2682.44
985.864	2693.52
986.162	2700.97
986.461	2639.51
986.759	2639.96
987.057	2611.03
987.355	2617.13
987.653	2591.15
987.951	2553.41
988.249	2578.04
988.547	2564.71
988.844	2536.68
989.142	2528.55
989.44	2522
989.737	2506.85
990.035	2532.39
990.332	2488.1
990.63	2449.46
990.927	2414.2
991.224	2437.25
991.521	2418.95
991.819	2436.8
992.116	2411.94
992.413	2377.59
992.71	2411.72
993.006	2374.66
993.303	2350.02
993.6	2349.35
993.897	2324.26
994.193	2343.92
994.49	2367.65
994.787	2333.3
995.083	2325.16
995.379	2287.43
995.676	2263.7
995.972	2272.28
996.268	2250.36
996.565	2246.52
996.861	2259.86
997.157	2242.68
997.453	2226.18
997.749	2232.06
998.044	2213.53
998.34	2178.95
998.636	2178.05
998.932	2163.36
999.227	2123.14
999.523	2112.74
999.818	2117.94
1000.114	2105.28
1000.409	2110.93
1000.704	2094.66
1001	2115.9
1001.295	2062.8
1001.59	2066.19
1001.885	2027.77
1002.18	2027.55
1002.475	2059.18
1002.77	2035.23
1003.065	2000.43
1003.359	2007.89
1003.654	1972.41
1003.949	1987.32
1004.243	1957.26
1004.538	1970.37
1004.832	1949.13
1005.127	1934.21
1005.421	1935.8
1005.715	1890.83
1006.009	1916.59
1006.304	1901.67
1006.598	1874.1
1006.892	1886.08
1007.186	1861.9
1007.48	1865.06
1007.773	1840.21
1008.067	1815.57
1008.361	1843.14
1008.655	1813.77
1008.948	1799.08
1009.242	1772.86
1009.535	1790.26
1009.829	1751.17
1010.122	1745.97
1010.415	1749.13
1010.708	1735.12
1011.001	1722.24
1011.295	1721.34
1011.588	1714.33
1011.881	1703.71
1012.173	1701.23
1012.466	1685.86
1012.759	1682.47
1013.052	1672.3
1013.344	1647.67
1013.637	1677.27
1013.93	1652.41
1014.222	1612.87
1014.514	1640.89
1014.807	1606.09
1015.099	1597.05
1015.391	1602.02
1015.683	1557.73
1015.976	1566.99
1016.268	1569.25
1016.56	1547.33
1016.851	1543.49
1017.143	1548.69
1017.435	1523.83
1017.727	1520.21
1018.018	1505.98
1018.31	1496.49
1018.602	1487.22
1018.893	1493.32
1019.185	1486.54
1019.476	1462.14
1019.767	1460.55
1020.058	1433.44
1020.35	1414.68
1020.641	1406.54
1020.932	1421.23
1021.223	1395.02
1021.514	1392.53
1021.804	1390.73
1022.095	1363.61
1022.386	1375.59
1022.677	1368.35
1022.967	1374.46
1023.258	1341.01
1023.548	1318.19
1023.839	1342.82
1024.129	1348.47
1024.419	1287.45
1024.709	1283.38
1025	1289.03
1025.29	1284.97
1025.58	1256.94
1025.87	1263.95
1026.16	1291.97
1026.449	1236.83
1026.739	1239.32
1027.029	1242.26
1027.319	1202.26
1027.608	1225.98
1027.898	1209.04
1028.187	1195.7
1028.477	1178.08
1028.766	1159.55
1029.055	1197.51
1029.344	1171.52
1029.634	1161.81
1029.923	1152.54
1030.212	1147.12
1030.501	1145.08
1030.79	1103.28
1031.078	1156.38
1031.367	1084.07
1031.656	1122.03
1031.945	1086.33
1032.233	1077.74
1032.522	1085.88
1032.81	1097.63
1033.099	1057.4
1033.387	1052.2
1033.675	1070.06
1033.963	1065.08
1034.251	1070.96
1034.54	1020.79
1034.828	1054.46
1035.116	1039.77
1035.403	1002.94
1035.691	999.1
1035.979	1014.24
1036.267	1003.17
1036.554	1034.13
1036.842	1007.46
1037.129	1006.56
1037.417	1006.33
1037.704	949.16
1037.992	943.05
1038.279	956.84
1038.566	965.43
1038.853	965.43
1039.14	965.43
