Data from hue_290_FLMS001491_00087.txt Node
Date: Tue Feb 07 15:53:24 GMT 2017
User: dcchb
Spectrometer: FLMS00149
Trigger mode: 0
Integration Time (sec): 2.000000E-2
Scans to average: 10
Electric dark correction enabled: true
Nonlinearity correction enabled: false
Boxcar width: 0
XAxis mode: Wavelengths
Number of Pixels in Spectrum: 2048
>>>>>Begin Spectral Data<<<<<
341.393	-28.08
341.776	-28.08
342.16	-28.08
342.543	-65.59
342.927	-62.2
343.31	-53.16
343.693	-66.72
344.077	-58.13
344.46	-47.96
344.843	-48.42
345.226	-33.5
345.61	-38.7
345.993	-26.95
346.376	-12.71
346.759	1.07
347.142	8.53
347.525	42.2
347.908	55.08
348.291	82.65
348.674	92.6
349.057	104.12
349.44	147.96
349.823	147.06
350.206	142.54
350.588	187.96
350.971	203.55
351.354	203.1
351.737	228.86
352.119	242.65
352.502	248.3
352.884	221.86
353.267	253.95
353.65	297.79
354.032	295.08
354.414	291.01
354.797	289.88
355.179	310.67
355.562	325.81
355.944	316.32
356.326	323.1
356.709	326.94
357.091	332.59
357.473	348.86
357.855	354.74
358.238	346.6
358.62	327.39
359.002	317.22
359.384	307.05
359.766	339.14
360.148	339.82
360.53	322.65
360.912	327.39
361.294	327.17
361.676	321.07
362.057	321.29
362.439	335.98
362.821	325.13
363.203	317.22
363.584	322.65
363.966	304.79
364.348	304.57
364.729	303.21
365.111	331.69
365.493	315.64
365.874	287.62
366.256	299.14
366.637	305.25
367.019	297.79
367.4	315.19
367.781	318.13
368.163	294.85
368.544	294.4
368.925	302.31
369.306	312.03
369.688	311.57
370.069	319.03
370.45	314.96
370.831	300.05
371.212	309.31
371.593	299.82
371.974	319.03
372.355	304.79
372.736	310.22
373.117	296.21
373.498	292.37
373.879	309.09
374.26	296.43
374.641	316.09
375.021	312.48
375.402	313.16
375.783	297.79
376.163	309.54
376.544	311.8
376.925	335.08
377.305	316.55
377.686	318.81
378.066	317.9
378.447	343.66
378.827	342.08
379.208	307.28
379.588	323.1
379.968	328.52
380.349	313.83
380.729	321.52
381.109	329.2
381.489	334.4
381.87	344.79
382.25	335.75
382.63	328.52
383.01	341.63
383.39	348.41
383.77	334.62
384.15	343.89
384.53	346.6
384.91	328.3
385.29	352.48
385.67	350.67
386.049	355.64
386.429	360.39
386.809	339.14
387.189	356.54
387.568	342.08
387.948	356.54
388.328	353.61
388.707	332.14
389.087	351.57
389.466	345.25
389.846	348.86
390.225	383.21
390.605	342.53
390.984	369.88
391.363	363.55
391.743	395.64
392.122	371.01
392.501	376.66
392.881	373.04
393.26	369.43
393.639	382.98
394.018	371.23
394.397	378.69
394.776	372.82
395.155	411.68
395.534	388.41
395.913	393.15
396.292	361.97
396.671	393.61
397.05	398.35
397.429	392.02
397.808	406.26
398.186	403.77
398.565	403.77
398.944	418.69
399.323	388.18
399.701	377.79
400.08	387.73
400.458	404.9
400.837	395.19
401.215	407.39
401.594	403.1
401.972	427.28
402.351	453.04
402.729	442.42
403.107	439.71
403.486	436.99
403.864	433.83
404.242	430.89
404.62	452.59
404.999	465.47
405.377	430.67
405.755	451.46
406.133	430.44
406.511	470.67
406.889	466.15
407.267	460.95
407.645	473.15
408.023	484
408.401	487.16
408.779	481.51
409.156	475.41
409.534	479.93
409.912	478.8
410.29	518.57
410.667	513.15
411.045	526.71
411.422	538.69
411.8	533.71
412.178	533.94
412.555	553.15
412.933	565.35
413.31	557.44
413.687	575.3
414.065	599.7
414.442	569.42
414.819	594.28
415.197	620.49
415.574	619.14
415.951	635.86
416.328	616.88
416.705	631.11
417.082	638.57
417.46	657.78
417.837	674.5
418.214	650.1
418.591	647.16
418.967	677.44
419.344	669.98
419.721	704.11
420.098	717.66
420.475	715.63
420.852	691.22
421.228	723.77
421.605	729.64
421.982	716.99
422.358	740.04
422.735	752.47
423.111	787.95
423.488	780.26
423.864	782.52
424.241	808.74
424.617	798.34
424.994	808.51
425.37	801.5
425.746	832.01
426.123	850.77
426.499	846.93
426.875	846.47
427.251	884.89
427.627	873.82
428.003	900.48
428.379	908.62
428.756	890.99
429.132	921.5
429.507	924.66
429.883	947.49
430.259	949.3
430.635	958.79
431.011	976.64
431.387	993.14
431.763	995.85
432.138	1025
432.514	1005.79
432.89	1016.19
433.265	1088.73
433.641	1049.18
434.016	1084.66
434.392	1096.86
434.767	1089.18
435.143	1101.61
435.518	1107.71
435.894	1155.17
436.269	1144.77
436.644	1182.29
437.02	1190.19
437.395	1169.63
437.77	1205.34
438.145	1234.94
438.52	1227.03
438.895	1220.7
439.271	1231.1
439.646	1271.55
440.021	1294.6
440.395	1298.21
440.77	1272
441.145	1301.38
441.52	1300.47
441.895	1308.16
442.27	1320.59
442.645	1321.72
443.019	1330.98
443.394	1346.8
443.769	1343.86
444.143	1357.87
444.518	1335.95
444.892	1352.9
445.267	1350.87
445.641	1390.87
446.016	1394.03
446.39	1402.62
446.764	1386.8
447.139	1393.58
447.513	1406.91
447.887	1414.14
448.262	1408.72
448.636	1432.22
449.01	1463.63
449.384	1460.92
449.758	1459.57
450.132	1469.51
450.506	1462.96
450.88	1471.32
451.254	1482.39
451.628	1477.64
452.002	1494.37
452.376	1514.03
452.75	1535.95
453.123	1537.3
453.497	1554.25
453.871	1563.29
454.244	1573.46
454.618	1610.3
454.992	1635.83
455.365	1582.5
455.739	1622.5
456.112	1635.15
456.486	1627.92
456.859	1665.66
457.232	1709.73
457.606	1682.16
457.979	1706.11
458.352	1750.18
458.725	1724.19
459.099	1706.79
459.472	1749.95
459.845	1774.36
460.218	1809.84
460.591	1837.41
460.964	1799.44
461.337	1828.82
461.71	1843.28
462.083	1900.01
462.456	1875.37
462.829	1894.36
463.201	1934.81
463.574	1939.55
463.947	1914.24
464.32	1928.93
464.692	1991.3
465.065	1998.99
465.438	1996.05
465.81	2039.89
466.183	2036.5
466.555	2104.75
466.928	2062.94
467.3	2072.21
467.672	2104.75
468.045	2115.82
468.417	2134.35
468.789	2146.33
469.161	2170.73
469.534	2212.99
469.906	2285.76
470.278	2231.75
470.65	2244.18
471.022	2314.68
471.394	2354.01
471.766	2353.1
472.138	2349.49
472.51	2398.75
472.882	2416.15
473.253	2441.46
473.625	2445.53
473.997	2505.64
474.369	2512.65
474.74	2558.97
475.112	2579.54
475.484	2576.37
475.855	2617.95
476.227	2616.6
476.598	2711.74
476.97	2730.49
477.341	2771.85
477.713	2805.07
478.084	2822.02
478.455	2859.3
478.827	2884.61
479.198	2946.53
479.569	2927.32
479.94	2976.36
480.311	3026.08
480.682	3052.29
481.053	3103.59
481.424	3120.77
481.795	3190.37
482.166	3221.78
482.537	3217.49
482.908	3280.08
483.279	3302.46
483.65	3310.82
484.021	3396.92
484.391	3412.96
484.762	3443.47
485.133	3480.76
485.503	3485.95
485.874	3525.27
486.244	3558.27
486.615	3620.19
486.985	3618.61
487.356	3681.2
487.726	3711.03
488.097	3739.73
488.467	3763.69
488.837	3852.05
489.207	3861.54
489.578	3923.46
489.948	3943.79
490.318	3993.06
490.688	3980.63
491.058	4009.33
491.428	4095.66
491.798	4073.06
492.168	4220.85
492.538	4145.37
492.908	4220.85
493.278	4216.78
493.648	4284.58
494.017	4293.39
494.387	4320.73
494.757	4291.13
495.126	4350.11
495.496	4395.53
495.866	4417.23
496.235	4468.75
496.605	4483.89
496.974	4465.14
497.344	4535.87
497.713	4553.04
498.082	4552.37
498.452	4623.78
498.821	4649.31
499.19	4628.3
499.559	4663.55
499.928	4698.58
500.298	4657.67
500.667	4742.19
501.036	4738.58
501.405	4746.71
501.774	4777.45
502.143	4830.1
502.512	4805.01
502.88	4816.54
503.249	4791.23
503.618	4863.09
503.987	4899.48
504.356	4900.15
504.724	4919.59
505.093	4885.46
505.462	4928.63
505.83	4969.98
506.199	4963.65
506.567	5094.95
506.936	4998
507.304	5087.95
507.672	5064.9
508.041	5047.27
508.409	5160.71
508.777	5138.11
509.145	5186.7
509.514	5170.2
509.882	5175.63
510.25	5219.24
510.618	5252.46
510.986	5224.21
511.354	5256.98
511.722	5222.86
512.09	5329.97
512.458	5304.89
512.826	5320.71
513.193	5397.99
513.561	5319.35
513.929	5426.24
514.297	5428.28
514.664	5425.11
515.032	5425.11
515.4	5503.75
515.767	5461.49
516.135	5505.56
516.502	5434.15
516.869	5485.22
517.237	5527.03
517.604	5541.72
517.972	5586.92
518.339	5630.3
518.706	5549.4
519.073	5566.8
519.44	5633.69
519.808	5639.57
520.175	5626.69
520.542	5714.37
520.909	5772
521.276	5663.52
521.643	5753.24
522.009	5795.95
522.376	5767.25
522.743	5837.3
523.11	5889.51
523.477	5915.95
523.843	5941.48
524.21	5931.31
524.577	5933.12
524.943	5995.27
525.31	5988.94
525.676	6068.71
526.043	6077.3
526.409	6098.31
526.776	6148.26
527.142	6132.21
527.508	6157.52
527.874	6234.36
528.241	6180.12
528.607	6258.76
528.973	6293.79
529.339	6336.5
529.705	6312.77
530.071	6389.15
530.437	6352.77
530.803	6403.62
531.169	6465.54
531.535	6403.62
531.901	6419.66
532.267	6517.29
532.632	6464.18
532.998	6519.77
533.364	6584.63
533.73	6618.3
534.095	6616.72
534.461	6658.98
534.826	6674.34
535.192	6625.31
535.557	6698.3
535.923	6666.43
536.288	6744.85
536.653	6744.85
537.019	6694.46
537.384	6735.36
537.749	6816.04
538.114	6749.82
538.479	6826.66
538.845	6869.14
539.21	6831.63
539.575	6837.73
539.94	6870.27
540.305	6948.91
540.67	6915.24
541.034	6982.36
541.399	6961.34
541.764	6979.87
542.129	7057.39
542.494	7002.7
542.858	6995.69
543.223	7029.14
543.587	7099.19
543.952	7071.85
544.316	7142.81
544.681	7143.48
545.045	7169.25
545.41	7117.27
545.774	7127.89
546.138	7210.15
546.503	7189.58
546.867	7210.15
547.231	7283.59
547.595	7328.11
547.959	7282.46
548.324	7328.56
548.688	7358.85
549.052	7345.97
549.416	7450.14
549.779	7401.1
550.143	7405.62
550.507	7442.91
550.871	7444.04
551.235	7426.19
551.599	7535.11
551.962	7528.33
552.326	7533.3
552.689	7560.2
553.053	7571.27
553.417	7488.11
553.78	7646.75
554.143	7616.47
554.507	7601.78
554.87	7636.58
555.234	7702.79
555.597	7682
555.96	7680.87
556.323	7719.06
556.686	7703.02
557.05	7807.65
557.413	7748.67
557.776	7768.33
558.139	7826.86
558.502	7814.65
558.865	7844.93
559.228	7845.16
559.59	7889.23
559.953	7898.94
560.316	7962.9
560.679	7890.81
561.041	8046.51
561.404	8008.55
561.767	8044.48
562.129	8048.77
562.492	8131.71
562.854	8087.87
563.217	8155.89
563.579	8096.91
563.941	8159.5
564.304	8165.38
564.666	8161.99
565.028	8252.83
565.39	8242.44
565.753	8279.05
566.115	8316.56
566.477	8329.44
566.839	8358.59
567.201	8417.35
567.563	8390.46
567.925	8434.07
568.287	8427.29
568.648	8465.71
569.01	8567.4
569.372	8542.77
569.734	8556.33
570.095	8635.87
570.457	8636.55
570.819	8648.53
571.18	8681.98
571.542	8790.45
571.903	8756.32
572.265	8775.98
572.626	8860.05
572.987	8826.38
573.349	8899.6
573.71	8929.2
574.071	8949.54
574.432	8988.63
574.794	9118.57
575.155	9088.74
575.516	9131.23
575.877	9161.06
576.238	9198.57
576.599	9278.8
576.96	9335.07
577.32	9370.54
577.681	9370.54
578.042	9486.25
578.403	9545.91
578.763	9550.2
579.124	9681.27
579.485	9740.7
579.845	9815.73
580.206	9895.05
580.566	9887.82
580.927	9952.9
581.287	10034.93
581.648	10061.83
582.008	10167.36
582.368	10263.85
582.728	10360.58
583.089	10451.42
583.449	10573.68
583.809	10695.03
584.169	10775.03
584.529	10820.9
584.889	10982.03
585.249	10958.75
585.609	11079.2
585.969	11247.56
586.329	11313.77
586.688	11458.17
587.048	11590.15
587.408	11728.67
587.768	11775.91
588.127	11892.74
588.487	11974.32
588.846	12212.5
589.206	12318.26
589.565	12402.1
589.925	12551.93
590.284	12687.97
590.643	12748.76
591.003	12938.81
591.362	13054.06
591.721	13231.01
592.08	13354.39
592.44	13446.6
592.799	13600.26
593.158	13749.19
593.517	13866.7
593.876	14001.84
594.235	14170.42
594.593	14254.94
594.952	14425.1
595.311	14457.19
595.67	14618.09
596.029	14908.93
596.387	14950.96
596.746	15056.5
597.104	15268.24
597.463	15330.16
597.822	15552.75
598.18	15582.58
598.538	15620.55
598.897	15762.47
599.255	15834.78
599.613	16195.9
599.972	16073.19
600.33	16331.72
600.688	16319.29
601.046	16559.51
601.404	16666.62
601.762	16712.72
602.12	16918.59
602.478	16998.14
602.836	17157.46
603.194	17183.67
603.552	17193.16
603.91	17281.75
604.268	17486.49
604.625	17532.36
604.983	17581.63
605.341	17593.83
605.698	17884.45
606.056	17857.1
606.413	17961.96
606.771	18119.92
607.128	18268.16
607.485	18269.97
607.843	18305.45
608.2	18493.02
608.557	18614.37
608.914	18634.71
609.272	18821.82
609.629	18817.98
609.986	18933.68
610.343	18915.15
610.7	19118.31
611.057	19225.2
611.414	19168.71
611.771	19357.4
612.127	19371.86
612.484	19461.58
612.841	19453.9
613.198	19489.6
613.554	19477.62
613.911	19608.47
614.267	19678.97
614.624	19692.31
614.98	19781.57
615.337	19861.12
615.693	20012.52
616.05	20017.04
616.406	20171.84
616.762	20076.25
617.118	20106.53
617.475	20246.64
617.831	20336.58
618.187	20325.74
618.543	20444.6
618.899	20522.12
619.255	20592.17
619.611	20492.74
619.967	20615.45
620.323	20660.42
620.678	20726.63
621.034	20702.68
621.39	20655.67
621.746	20781.09
622.101	20966.4
622.457	20866.97
622.812	20876.91
623.168	20986.74
623.523	20969.79
623.879	21065.83
624.234	20866.74
624.589	20970.92
624.945	21000.3
625.3	21122.55
625.655	20973.18
626.01	21004.36
626.365	21093.85
626.72	21124.36
627.075	21157.35
627.43	21069.67
627.785	21073.74
628.14	21111.93
628.495	21169.56
628.85	21228.99
629.205	21199.39
629.559	21312.38
629.914	21137.92
630.269	21059.28
630.623	21115.09
630.978	21000.3
631.332	21281.19
631.687	21279.61
632.041	21079.16
632.396	21146.05
632.75	21149.44
633.104	21073.51
633.459	21015.66
633.813	21047.75
634.167	21141.53
634.521	21079.16
634.875	21070.58
635.229	20981.99
635.583	21037.81
635.937	21082.78
636.291	21044.59
636.645	20922.33
636.999	20953.52
637.352	21121.87
637.706	20972.95
638.06	21038.71
638.413	20921.43
638.767	20937.7
639.121	20982.22
639.474	20795.1
639.828	20859.51
640.181	20922.11
640.534	20808.66
640.888	20894.31
641.241	20761.88
641.594	20758.95
641.947	20819.28
642.301	20851.37
642.654	20819.28
643.007	20892.28
643.36	20755.56
643.713	20773.86
644.066	20861.77
644.419	20745.16
644.771	20564.6
645.124	20519.86
645.477	20383.36
645.83	20295
646.182	20186.08
646.535	20232.41
646.888	20201.67
647.24	20149.47
647.593	20228.34
647.945	20124.84
648.298	20129.81
648.65	20075.12
649.002	20089.81
649.355	20244.61
649.707	20204.38
650.059	20286.64
650.411	20395.79
650.763	20452.29
651.115	20755.33
651.467	20582.45
651.819	20667.42
652.171	20622
652.523	20539.29
652.875	20639.4
653.227	20558.95
653.578	20691.83
653.93	20634.88
654.282	20513.98
654.633	20571.61
654.985	20672.17
655.337	20606.18
655.688	20598.5
656.039	20697.7
656.391	20519.86
656.742	20546.75
657.094	20609.35
657.445	20700.64
657.796	20676.46
658.147	20645.28
658.498	20639.4
658.849	20686.18
659.2	20544.71
659.551	20476.02
659.902	20560.98
660.253	20586.07
660.604	20655.9
660.955	20539.06
661.306	20699.96
661.656	20640.08
662.007	20623.13
662.358	20669
662.708	20647.99
663.059	20642.79
663.409	20484.38
663.76	20594.2
664.11	20750.81
664.461	20755.56
664.811	20668.33
665.161	20697.93
665.511	20618.38
665.862	20718.49
666.212	20750.13
666.562	20754.65
666.912	20798.94
667.262	20680.08
667.612	20730.02
667.962	20634.88
668.312	20673.07
668.662	20694.99
669.011	20737.25
669.361	20680.76
669.711	20653.64
670.06	20684.6
670.41	20591.04
670.76	20542.23
671.109	20754.2
671.459	20641.43
671.808	20566.41
672.157	20652.73
672.507	20548.78
672.856	20471.95
673.205	20566.18
673.554	20592.62
673.904	20504.26
674.253	20664.71
674.602	20532.96
674.951	20177.27
675.3	20181.11
675.649	20481.89
675.998	20459.07
676.346	20506.52
676.695	20535.9
677.044	20298.84
677.393	20392.18
677.741	20413.87
678.09	20404.38
678.438	20299.97
678.787	20386.98
679.135	20389.92
679.484	20296.36
679.832	20260.2
680.181	20124.84
680.529	20288.45
680.877	20129.58
681.225	20118.96
681.573	20251.61
681.922	20071.51
682.27	19958.06
682.618	20035.12
682.966	19877.61
683.314	19991.06
683.661	19867.9
684.009	19808.91
684.357	19818.18
684.705	19818.63
685.053	19727.11
685.4	19595.59
685.748	19548.36
686.095	19645.3
686.443	19494.57
686.79	19488.92
687.138	19474.91
687.485	19497.28
687.832	19433.1
688.18	19534.35
688.527	19384.97
688.874	19408.02
689.221	19269.04
689.568	19219.33
689.915	19225.43
690.262	19164.86
690.609	19088.48
690.956	18980.01
691.303	18948.82
691.65	18857.07
691.997	18936.85
692.344	18850.3
692.69	18735.5
693.037	18675.61
693.383	18564.2
693.73	18642.84
694.077	18455.5
694.423	18429.74
694.769	18417.31
695.116	18404.66
695.462	18361.49
695.808	18253.02
696.155	18242.18
696.501	18119.69
696.847	18202.63
697.193	17966.93
697.539	18095.96
697.885	17899.59
698.231	17858.91
698.577	17807.16
698.923	17821.62
699.269	17666.6
699.614	17648.74
699.96	17578.46
700.306	17650.78
700.651	17419.37
700.997	17397.23
701.342	17430.67
701.688	17314.52
702.033	17239.26
702.379	17253.5
702.724	17182.77
703.069	17171.7
703.415	17026.39
703.76	17014.19
704.105	16957.01
704.45	16904.81
704.795	16707.53
705.14	16729.45
705.485	16786.39
705.83	16717.92
706.175	16677.7
706.52	16675.21
706.865	16532.39
707.209	16513.86
707.554	16546.63
707.899	16474.76
708.243	16412.17
708.588	16352.73
708.932	16162
709.277	16218.05
709.621	16221.89
709.966	16043.59
710.31	16147.77
710.654	15852.63
710.998	16003.14
711.342	16022.8
711.687	15909.81
712.031	15868.68
712.375	15885.18
712.719	15796.59
713.063	15810.38
713.407	15844.72
713.75	15769.02
714.094	15714.11
714.438	15656.93
714.782	15617.16
715.125	15543.94
715.469	15657.38
715.812	15505.75
716.156	15386.88
716.499	15482.7
716.843	15483.38
717.186	15350.95
717.53	15379.65
717.873	15489.71
718.216	15374.23
718.559	15371.74
718.902	15255.59
719.246	15292.65
719.589	15189.15
719.932	15129.94
720.275	15206.32
720.617	15148.25
720.96	15181.01
721.303	15133.78
721.646	15188.92
721.989	15138.08
722.331	15090.85
722.674	15063.05
723.016	15065.08
723.359	14994.35
723.701	15067.57
724.044	14949.61
724.386	14884.07
724.729	14922.94
725.071	14895.6
725.413	14899.21
725.755	14886.33
726.097	14942.38
726.439	14775.37
726.782	14853.79
727.124	14904.18
727.465	14853.56
727.807	14736.05
728.149	14818.99
728.491	14749.61
728.833	14803.17
729.175	14796.16
729.516	14745.54
729.858	14754.58
730.199	14822.6
730.541	14715.49
730.882	14569.05
731.224	14769.95
731.565	14690.18
731.906	14713.91
732.248	14641.59
732.589	14619.67
732.93	14549.62
733.271	14566.57
733.612	14533.8
733.953	14578.77
734.294	14530.86
734.635	14575.83
734.976	14600.01
735.317	14520.69
735.658	14511.65
735.999	14497.42
736.339	14582.16
736.68	14569.05
737.021	14553.46
737.361	14529.28
737.702	14658.09
738.042	14614.7
738.383	14595.72
738.723	14547.36
739.063	14542.16
739.404	14589.84
739.744	14582.38
740.084	14527.7
740.424	14551.43
740.764	14602.72
741.104	14653.34
741.444	14615.6
741.784	14640.24
742.124	14702.16
742.464	14666
742.804	14643.63
743.143	14602.27
743.483	14696.73
743.823	14642.5
744.162	14604.08
744.502	14767.69
744.841	14782.15
745.181	14815.15
745.52	14825.77
745.86	14849.95
746.199	14956.16
746.538	14901.25
746.877	14909.16
747.216	15077.51
747.556	15043.84
747.895	15140.56
748.234	15154.12
748.573	15166.32
748.911	15228.24
749.25	15225.53
749.589	15290.61
749.928	15387.11
750.267	15535.35
750.605	15521.12
750.944	15565.41
751.283	15561.57
751.621	15743.03
751.96	15748.46
752.298	15870.94
752.636	15897.15
752.975	15929.47
753.313	16030.03
753.651	16179.63
753.989	16119.52
754.327	16341.43
754.666	16242.23
755.004	16485.84
755.342	16619.85
755.679	16776.45
756.017	16744.14
756.355	16986.39
756.693	17056.9
757.031	17037.46
757.368	17048.99
757.706	17236.1
758.044	17285.59
758.381	17419.6
758.719	17436.1
759.056	17649.42
759.394	17748.86
759.731	17769.87
760.068	17833.37
760.405	17893.71
760.743	18070.2
761.08	18165.57
761.417	18267.49
761.754	18363.53
762.091	18526.91
762.428	18547.25
762.765	18582.73
763.102	18700.69
763.438	18696.85
763.775	18779.79
764.112	18960.35
764.449	19050.52
764.785	19062.49
765.122	19094.58
765.458	19151.76
765.795	19210.96
766.131	19341.36
766.467	19409.83
766.804	19305.65
767.14	19374.8
767.476	19434.23
767.812	19514.46
768.148	19612.99
768.485	19574.34
768.821	19571.18
769.157	19569.82
769.492	19669.93
769.828	19620.44
770.164	19693.21
770.5	19614.34
770.836	19855.01
771.171	19730.72
771.507	19726.88
771.842	19654.12
772.178	19793.77
772.513	19808.01
772.849	19799.87
773.184	19833.09
773.519	19844.17
773.855	19817.95
774.19	19869.7
774.525	19770.5
774.86	19741.12
775.195	19788.58
775.53	19749.25
775.865	19631.74
776.2	19570.5
776.535	19454.35
776.87	19606.21
777.205	19476.27
777.539	19481.24
777.874	19525.08
778.209	19388.13
778.543	19347.46
778.878	19283.28
779.212	19402.37
779.547	19271.75
779.881	19396.04
780.215	19282.15
780.55	19330.73
780.884	19168.93
781.218	19187.01
781.552	19053.23
781.886	19057.75
782.22	19049.61
782.554	18988.82
782.888	18855.72
783.222	18714.71
783.556	18662.5
783.889	18671.09
784.223	18608.72
784.557	18613.69
784.89	18629.51
785.224	18648.94
785.557	18442.17
785.891	18483.75
786.224	18452.11
786.558	18481.27
786.891	18304.55
787.224	18278.78
787.557	18266.36
787.891	18152.69
788.224	18177.09
788.557	18182.52
788.89	18085.57
789.223	18088.73
789.556	17996.08
789.888	17942.52
790.221	17878.57
790.554	17826.14
790.887	17842.86
791.219	17700.72
791.552	17753.15
791.884	17632.7
792.217	17693.72
792.549	17532.36
792.882	17506.38
793.214	17400.62
793.546	17364.01
793.879	17321.97
794.211	17077.46
794.543	17111.81
794.875	17172.83
795.207	17252.6
795.539	17212.37
795.871	17121.75
796.203	16941.87
796.535	16978.48
796.867	16912.49
797.198	16935.54
797.53	16844.92
797.862	16746.85
798.193	16698.71
798.525	16633.63
798.856	16594.31
799.188	16510.92
799.519	16459.62
799.85	16366.97
800.182	16443.35
800.513	16439.29
800.844	16198.39
801.175	16376.69
801.506	16253.3
801.837	16099.18
802.168	16096.47
802.499	16106.64
802.83	16115.23
803.161	15859.19
803.491	15914.55
803.822	15975.57
804.153	15889.47
804.483	15794.1
804.814	15697.61
805.145	15731.06
805.475	15772.86
805.805	15600.89
806.136	15571.96
806.466	15565.64
806.796	15484.96
807.126	15469.59
807.457	15431.85
807.787	15454.23
808.117	15299.65
808.447	15305.3
808.777	15366.32
809.107	15295.36
809.436	15176.72
809.766	15190.05
810.096	15090.17
810.426	15026.67
810.755	15128.36
811.085	15059.21
811.414	15050.17
811.744	14882.72
812.073	14859.89
812.403	14903.96
812.732	14836.39
813.061	14755.04
813.39	14754.13
813.719	14738.09
814.049	14802.27
814.378	14716.39
814.707	14661.48
815.036	14620.35
815.365	14544.42
815.693	14464.42
816.022	14485.89
816.351	14402.73
816.68	14410.41
817.008	14416.51
817.337	14310.3
817.665	14214.94
817.994	14334.03
818.322	14260.81
818.651	14185.56
818.979	14118.89
819.307	14220.36
819.636	14124.77
819.964	14054.72
820.292	14100.14
820.62	14135.62
820.948	13997.32
821.276	13988.73
821.604	14047.48
821.932	14045.68
822.259	14021.27
822.587	13982.4
822.915	13955.96
823.243	14028.5
823.57	13952.57
823.898	13966.58
824.225	13937.66
824.553	13986.47
824.88	13953.02
825.207	13962.06
825.535	13919.13
825.862	13979.46
826.189	13955.06
826.516	13951.22
826.843	14074.15
827.17	13951.44
827.497	14031.44
827.824	14034.15
828.151	13963.64
828.478	13973.81
828.805	14088.39
829.131	14053.13
829.458	13969.52
829.785	13867.38
830.111	13970.65
830.438	13937.43
830.764	13939.69
831.09	13980.59
831.417	13864.21
831.743	13979.01
832.069	14053.13
832.395	13914.38
832.722	13879.13
833.048	13821.5
833.374	13848.62
833.7	13757.1
834.026	13847.26
834.351	13832.12
834.677	13729.3
835.003	13811.11
835.329	13805
835.654	13799.81
835.98	13711
836.306	13708.28
836.631	13716.64
836.956	13812.69
837.282	13667.38
837.607	13663.54
837.932	13643.65
838.258	13615.63
838.583	13589.87
838.908	13547.38
839.233	13555.29
839.558	13535.63
839.883	13461.51
840.208	13384
840.533	13357.78
840.858	13349.42
841.182	13429.42
841.507	13312.59
841.832	13338.35
842.156	13357.11
842.481	13305.13
842.805	13234.62
843.13	13186.49
843.454	13170.44
843.778	13179.03
844.103	13084.57
844.427	13110.11
844.751	13062.65
845.075	13005.03
845.399	12993.5
845.723	12962.54
846.047	12978.81
846.371	12733.17
846.695	12882.09
847.019	12753.28
847.343	12593.28
847.666	12663.57
847.99	12599.16
848.313	12529.33
848.637	12527.75
848.96	12406.85
849.284	12477.58
849.607	12282.56
849.931	12315.1
850.254	12185.39
850.577	12185.61
850.9	12087.08
851.223	12069.68
851.546	12026.29
851.869	12033.53
852.192	11996.69
852.515	11903.13
852.838	11846.41
853.161	11819.52
853.483	11857.94
853.806	11739.07
854.129	11747.66
854.451	11739.3
854.774	11641.22
855.096	11606.19
855.419	11599.19
855.741	11508.79
856.063	11475.35
856.385	11504.73
856.708	11469.47
857.03	11364.84
857.352	11392.19
857.674	11354.67
857.996	11335.24
858.318	11202.13
858.64	11199.65
858.961	11149.03
859.283	11152.19
859.605	11090.73
859.926	11095.92
860.248	11163.27
860.57	10994.68
860.891	11021.12
861.212	10904.29
861.534	10977.73
861.855	10890.05
862.176	10928.7
862.498	10874.01
862.819	10909.26
863.14	10895.48
863.461	10816.16
863.782	10786.78
864.103	10768.47
864.424	10765.08
864.745	10833.78
865.065	10711.53
865.386	10693.45
865.707	10629.49
866.027	10730.28
866.348	10649.61
866.668	10702.71
866.989	10640.57
867.309	10583.62
867.63	10632.43
867.95	10522.6
868.27	10495.71
868.59	10481.02
868.91	10528.25
869.23	10422.04
869.55	10426.34
869.87	10494.13
870.19	10398.31
870.51	10385.43
870.83	10417.07
871.15	10374.59
871.469	10380.01
871.789	10374.59
872.109	10355.6
872.428	10316.96
872.748	10370.97
873.067	10300.69
873.386	10309.95
873.706	10269.73
874.025	10197.19
874.344	10192.44
874.663	10146.57
874.982	10174.82
875.301	10214.36
875.62	10168.94
875.939	10124.88
876.258	10081.26
876.577	10093.01
876.896	10100.92
877.214	10031.77
877.533	10119.9
877.852	10031.32
878.17	10029.51
878.489	9994.03
878.807	10050.53
879.125	10036.97
879.444	9934.6
879.762	9827.71
880.08	9914.26
880.398	9837.88
880.716	9903.19
881.034	9800.14
881.352	9827.71
881.67	9785.9
881.988	9825.67
882.306	9804.88
882.624	9750.65
882.941	9721.72
883.259	9629.07
883.577	9655.51
883.894	9595.85
884.212	9641.27
884.529	9611.44
884.846	9572.35
885.164	9540.26
885.481	9561.27
885.798	9563.08
886.115	9465.46
886.432	9487.15
886.75	9420.03
887.067	9471.78
887.383	9396.98
887.7	9392.46
888.017	9381.39
888.334	9369.64
888.651	9389.53
888.967	9235.86
889.284	9282.41
889.6	9185.92
889.917	9202.64
890.233	9200.83
890.55	9129.65
890.866	9153.6
891.182	9096.43
891.498	9057.33
891.815	9060.27
892.131	9010.78
892.447	8992.93
892.763	8930.33
893.079	8935.75
893.395	8901.63
893.71	8865.7
894.026	8911.12
894.342	8820.5
894.657	8846.49
894.973	8739.37
895.289	8707.06
895.604	8791.12
895.92	8653.95
896.235	8618.25
896.55	8598.59
896.865	8603.11
897.181	8529.89
897.496	8557.01
897.811	8491.92
898.126	8534.63
898.441	8497.57
898.756	8457.12
899.071	8365.37
899.386	8374.41
899.7	8393.4
900.015	8309.56
900.33	8226.39
900.644	8234.98
900.959	8314.3
901.273	8245.15
901.588	8167.41
901.902	8096.23
902.216	8096.23
902.531	8108.2
902.845	7970.13
903.159	7950.47
903.473	7991.82
903.787	7940.53
904.101	7907.98
904.415	7912.73
904.729	7881.54
905.042	7813.07
905.356	7790.93
905.67	7773.52
905.984	7747.08
906.297	7729.01
906.611	7708.44
906.924	7648.56
907.237	7636.8
907.551	7615.11
907.864	7518.84
908.177	7547.77
908.491	7538.73
908.804	7465.51
909.117	7444.27
909.43	7387.55
909.743	7389.81
910.056	7352.52
910.368	7374.21
910.681	7277.49
910.994	7291.28
911.307	7247.44
911.619	7166.76
911.932	7218.51
912.244	7137.83
912.557	7112.3
912.869	7032.3
913.181	7050.38
913.494	7037.72
913.806	7005.64
914.118	6971.74
914.43	6920.89
914.742	6960.44
915.054	6864.17
915.366	6889.93
915.678	6778.75
915.99	6809.03
916.302	6778.52
916.613	6755.92
916.925	6719.99
917.236	6721.12
917.548	6655.14
917.859	6653.78
918.171	6598.19
918.482	6588.47
918.794	6517.51
919.105	6559.32
919.416	6529.49
919.727	6531.07
920.038	6447.23
920.349	6446.55
920.66	6394.58
920.971	6383.73
921.282	6404.75
921.593	6303.73
921.903	6291.08
922.214	6298.99
922.525	6209.27
922.835	6236.39
923.146	6219.44
923.456	6143.51
923.767	6152.78
924.077	6148.71
924.387	6108.94
924.697	6087.92
925.008	6108.48
925.318	6026
925.628	6005.21
925.938	6006.34
926.248	5929.28
926.558	5873.91
926.867	5893.8
927.177	5833.46
927.487	5799.34
927.796	5816.29
928.106	5760.24
928.416	5733.35
928.725	5717.99
929.034	5701.26
929.344	5677.76
929.653	5641.6
929.962	5633.02
930.271	5626.46
930.581	5568.84
930.89	5511.66
931.199	5579.01
931.508	5526.58
931.817	5509.63
932.125	5508.95
932.434	5473.02
932.743	5400.25
933.051	5394.38
933.36	5391.44
933.669	5351.44
933.977	5308.96
934.286	5340.59
934.594	5307.83
934.902	5285.45
935.21	5259.24
935.519	5289.3
935.827	5243.2
936.135	5200.03
936.443	5122.75
936.751	5146.25
937.059	5161.84
937.367	5085.69
937.674	5043.43
937.982	5085.69
938.29	4984.67
938.597	5039.36
938.905	4964.56
939.213	4970.21
939.52	4941.51
939.827	4953.94
940.135	4909.19
940.442	4885.46
940.749	4888.63
941.056	4890.21
941.363	4856.76
941.67	4771.57
941.977	4795.52
942.284	4704.23
942.591	4711.23
942.898	4772.47
943.205	4702.64
943.511	4655.19
943.818	4690.44
944.125	4649.99
944.431	4657
944.738	4627.62
945.044	4581.97
945.35	4585.81
945.657	4515.31
945.963	4546.49
946.269	4508.75
946.575	4497.45
946.881	4437.57
947.187	4468.3
947.493	4417.45
947.799	4393.27
948.105	4436.44
948.41	4354.86
948.716	4357.8
949.022	4326.16
949.327	4335.2
949.633	4298.36
949.938	4282.32
950.244	4251.81
950.549	4255.65
950.854	4225.82
951.16	4176.33
951.465	4161.42
951.77	4167.97
952.075	4142.21
952.38	4120.06
952.685	4097.91
952.99	4082.55
953.294	4087.52
953.599	4005.49
953.904	4013.4
954.209	4005.04
954.513	3996.45
954.818	3975.43
955.122	3988.99
955.426	3933.4
955.731	3936.79
956.035	3917.13
956.339	3926.17
956.643	3896.11
956.948	3845.72
957.252	3832.61
957.556	3801.2
957.86	3776.34
958.163	3798.71
958.467	3774.99
958.771	3779.28
959.075	3754.42
959.378	3729.79
959.682	3699.96
959.985	3718.94
960.289	3686.17
960.592	3623.58
960.896	3690.24
961.199	3594.65
961.502	3624.93
961.805	3591.71
962.108	3588.1
962.411	3553.75
962.714	3535.44
963.017	3575.67
963.32	3525.95
963.623	3531.38
963.926	3494.77
964.228	3457.25
964.531	3426.29
964.833	3469.91
965.136	3442.79
965.438	3420.42
965.741	3399.4
966.043	3379.97
966.345	3396.01
966.648	3348.56
966.95	3358.5
967.252	3326.18
967.554	3295.22
967.856	3291.16
968.158	3298.61
968.46	3289.12
968.761	3250.93
969.063	3237.37
969.365	3241.44
969.666	3222.91
969.968	3235.11
970.269	3189.24
970.571	3159.86
970.872	3149.01
971.174	3133.87
971.475	3130.03
971.776	3101.1
972.077	3139.07
972.378	3079.86
972.679	3093.42
972.98	3084.38
973.281	3103.59
973.582	3045.74
973.883	3034.44
974.183	3009.36
974.484	3040.09
974.785	2979.53
975.085	2991.5
975.386	2944.72
975.686	2967.1
975.986	2936.82
976.287	2915.8
976.587	2919.41
976.887	2874.9
977.187	2843.71
977.487	2882.13
977.787	2857.72
978.087	2857.5
978.387	2852.07
978.687	2853.2
978.987	2814.11
979.286	2755.8
979.586	2797.38
979.885	2764.16
980.185	2752.41
980.484	2743.83
980.784	2732.53
981.083	2706.76
981.382	2725.3
981.682	2690.04
981.981	2655.01
982.28	2668.35
982.579	2650.5
982.878	2664.05
983.177	2624.06
983.475	2601.23
983.774	2614.11
984.073	2612.3
984.372	2591.74
984.67	2587.9
984.969	2576.15
985.267	2552.87
985.566	2554.23
985.864	2514.45
986.162	2523.72
986.461	2513.32
986.759	2475.81
987.057	2476.71
987.355	2488.24
987.653	2471.06
987.951	2436.72
988.249	2440.78
988.547	2465.87
988.844	2410.95
989.142	2378.19
989.44	2391.97
989.737	2383.84
990.035	2358.98
990.332	2335.7
990.63	2355.81
990.927	2334.57
991.224	2333.67
991.521	2308.81
991.819	2342.25
992.116	2285.53
992.413	2274.23
992.71	2285.08
993.006	2265.65
993.303	2266.1
993.6	2259.55
993.897	2210.96
994.193	2233.56
994.49	2238.53
994.787	2210.28
995.083	2190.17
995.379	2195.37
995.676	2178.87
995.972	2171.19
996.268	2147.46
996.565	2127.35
996.861	2108.81
997.157	2104.07
997.453	2114.01
997.749	2120.57
998.044	2076.95
998.34	2062.04
998.636	2064.97
998.932	2053.22
999.227	2051.41
999.523	2020.46
999.818	2013.68
1000.114	2032.43
1000.409	1998.76
1000.704	1998.31
1001	1976.39
1001.295	1982.72
1001.59	1946.33
1001.885	1974.58
1002.18	1953.79
1002.475	1955.37
1002.77	1925.99
1003.065	1917.86
1003.359	1881.25
1003.654	1904.3
1003.949	1881.48
1004.243	1860.46
1004.538	1840.57
1004.832	1866.79
1005.127	1835.6
1005.421	1819.1
1005.715	1815.49
1006.009	1800.12
1006.304	1811.42
1006.598	1803.96
1006.892	1784.08
1007.186	1777.3
1007.48	1785.43
1007.773	1754.47
1008.067	1761.03
1008.361	1735.72
1008.655	1740.24
1008.948	1730.29
1009.242	1690.29
1009.535	1706.11
1009.829	1681.03
1010.122	1643.06
1010.415	1644.19
1010.708	1657.08
1011.001	1653.91
1011.295	1653.69
1011.588	1610.52
1011.881	1620.24
1012.173	1624.76
1012.466	1597.19
1012.759	1582.05
1013.052	1570.98
1013.344	1602.16
1013.637	1562.84
1013.93	1544.54
1014.222	1569.62
1014.514	1538.21
1014.807	1526.91
1015.099	1504.54
1015.391	1527.81
1015.683	1508.6
1015.976	1503.18
1016.268	1458.21
1016.56	1480.58
1016.851	1485.33
1017.143	1453.69
1017.435	1458.66
1017.727	1433.35
1018.018	1445.56
1018.31	1397.87
1018.602	1400.81
1018.893	1394.26
1019.185	1385.22
1019.476	1392.68
1019.767	1384.54
1020.058	1360.36
1020.35	1340.02
1020.641	1350.19
1020.932	1339.12
1021.223	1365.11
1021.514	1311.77
1021.804	1322.17
1022.095	1312
1022.386	1284.66
1022.677	1274.71
1022.967	1293.69
1023.258	1254.15
1023.548	1231.32
1023.839	1241.04
1024.129	1257.99
1024.419	1226.35
1024.709	1243.3
1025	1225
1025.29	1205.79
1025.58	1201.95
1025.87	1189.29
1026.16	1160.59
1026.449	1171.66
1026.739	1184.09
1027.029	1153.13
1027.319	1152.68
1027.608	1136.64
1027.898	1146.81
1028.187	1138.9
1028.477	1134.38
1028.766	1139.12
1029.055	1107.03
1029.344	1142.51
1029.634	1109.07
1029.923	1101.61
1030.212	1070.65
1030.501	1083.3
1030.79	1090.31
1031.078	1071.78
1031.367	1049.18
1031.656	1079.24
1031.945	1034.94
1032.233	1068.16
1032.522	1036.53
1032.81	1023.42
1033.099	1062.97
1033.387	1003.76
1033.675	1003.98
1033.963	1001.73
1034.251	989.07
1034.54	983.87
1034.828	988.62
1035.116	980.93
1035.403	983.42
1035.691	952.01
1035.979	973.93
1036.267	986.81
1036.554	953.36
1036.842	936.64
1037.129	946.59
1037.417	917.89
1037.704	938.22
1037.992	920.6
1038.279	929.18
1038.566	899.13
1038.853	899.13
1039.14	899.13
