Data from hue_140_FLMS001491_00036.txt Node
Date: Tue Feb 07 16:55:50 GMT 2017
User: dcchb
Spectrometer: FLMS00149
Trigger mode: 0
Integration Time (sec): 2.000000E-2
Scans to average: 10
Electric dark correction enabled: true
Nonlinearity correction enabled: false
Boxcar width: 0
XAxis mode: Wavelengths
Number of Pixels in Spectrum: 2048
>>>>>Begin Spectral Data<<<<<
341.393	-13.36
341.776	-13.36
342.16	-13.36
342.543	-57.65
342.927	-82.74
343.31	-61.5
343.693	-65.11
344.077	-75.96
344.46	-76.41
344.843	-49.07
345.226	-49.07
345.61	-34.38
345.993	-14.27
346.376	-5.45
346.759	-12.68
347.142	41.55
347.525	72.06
347.908	27.32
348.291	90.82
348.674	83.59
349.057	128.56
349.44	131.95
349.823	152.74
350.206	158.61
350.588	214.88
350.971	211.94
351.354	225.73
351.737	234.09
352.119	237.03
352.502	265.28
352.884	276.57
353.267	280.87
353.65	293.07
354.032	299.17
354.414	281.55
354.797	322.45
355.179	331.71
355.562	331.49
355.944	332.84
356.326	316.12
356.709	341.66
357.091	344.14
357.473	335.78
357.855	355.22
358.238	340.3
358.62	336.01
359.002	332.84
359.384	350.7
359.766	323.81
360.148	341.43
360.53	351.83
360.912	338.27
361.294	333.97
361.676	338.95
362.057	341.88
362.439	357.48
362.821	342.79
363.203	350.7
363.584	346.18
363.966	335.1
364.348	325.39
364.729	354.54
365.111	323.81
365.493	301.43
365.874	310.25
366.256	322.68
366.637	340.08
367.019	315.67
367.4	327.42
367.781	329.91
368.163	314.09
368.544	315.9
368.925	317.93
369.306	316.35
369.688	346.4
370.069	317.03
370.45	329.45
370.831	329
371.212	317.48
371.593	303.47
371.974	320.87
372.355	321.32
372.736	318.16
373.117	295.78
373.498	317.7
373.879	314.54
374.26	300.98
374.641	318.83
375.021	302.11
375.402	324.48
375.783	319.74
376.163	325.16
376.544	327.42
376.925	336.01
377.305	328.32
377.686	345.73
378.066	343.69
378.447	342.11
378.827	307.76
379.208	340.98
379.588	319.51
379.968	346.86
380.349	350.7
380.729	347.31
381.109	340.98
381.489	336.46
381.87	331.71
382.25	352.96
382.63	345.95
383.01	346.4
383.39	341.43
383.77	357.02
384.15	348.89
384.53	347.53
384.91	359.06
385.29	358.83
385.67	357.02
386.049	364.48
386.429	374.2
386.809	369
387.189	353.86
387.568	357.93
387.948	366.52
388.328	369.45
388.707	368.1
389.087	378.04
389.466	369.68
389.846	375.33
390.225	373.97
390.605	360.87
390.984	374.65
391.363	371.71
391.743	357.7
392.122	386.18
392.501	393.41
392.881	384.82
393.26	411.03
393.639	394.99
394.018	382.33
394.397	402.67
394.776	389.11
395.155	374.88
395.534	385.27
395.913	384.59
396.292	394.76
396.671	387.98
397.05	399.74
397.429	410.58
397.808	420.53
398.186	406.29
398.565	412.62
398.944	423.69
399.323	417.36
399.701	418.94
400.08	392.73
400.458	407.42
400.837	420.3
401.215	427.53
401.594	437.02
401.972	406.51
402.351	430.02
402.729	419.17
403.107	417.14
403.486	444.03
403.864	438.6
404.242	402.67
404.62	432.95
404.999	432.5
405.377	440.41
405.755	437.47
406.133	455.1
406.511	420.07
406.889	453.52
407.267	452.84
407.645	447.19
408.023	462.78
408.401	440.86
408.779	457.81
409.156	472.28
409.534	447.42
409.912	457.59
410.29	453.97
410.667	469.79
411.045	503.69
411.422	455.78
411.8	495.78
412.178	497.59
412.555	499.39
412.933	518.15
413.31	495.1
413.687	488.32
414.065	496.68
414.442	523.35
414.819	518.83
415.197	513.63
415.574	517.02
415.951	510.24
416.328	526.29
416.705	501.88
417.082	534.87
417.46	517.92
417.837	556.12
418.214	538.94
418.591	524.93
418.967	555.66
419.344	542.78
419.721	553.18
420.098	551.6
420.475	585.04
420.852	546.17
421.228	570.58
421.605	559.28
421.982	559.73
422.358	577.36
422.735	574.19
423.111	583.23
423.488	594.53
423.864	585.72
424.241	597.92
424.617	582.56
424.994	602.22
425.37	599.96
425.746	617.58
426.123	639.5
426.499	617.81
426.875	643.8
427.251	610.58
427.627	624.81
428.003	644.25
428.379	634.08
428.756	642.44
429.132	643.8
429.507	685.6
429.883	689.67
430.259	666.17
430.635	666.17
431.011	681.54
431.387	698.26
431.763	717.24
432.138	696.68
432.514	682.21
432.89	722.89
433.265	722.89
433.641	730.12
434.016	717.02
434.392	762.66
434.767	770.35
435.143	744.81
435.518	761.53
435.894	766.28
436.269	792.72
436.644	790.01
437.02	795.88
437.395	771.02
437.77	824.36
438.145	809.22
438.52	804.24
438.895	795.88
439.271	815.77
439.646	838.82
440.021	840.18
440.395	852.6
440.77	830.01
441.145	847.18
441.52	859.61
441.895	855.99
442.27	864.58
442.645	841.08
443.019	891.7
443.394	895.99
443.769	872.49
444.143	884.47
444.518	880.85
444.892	890.8
445.267	911.81
445.641	899.84
446.016	922.89
446.39	915.43
446.764	944.35
447.139	932.38
447.513	928.53
447.887	938.48
448.262	956.33
448.636	956.56
449.01	975.99
449.384	946.61
449.758	961.98
450.132	980.51
450.506	1003.56
450.88	971.7
451.254	991.13
451.628	1036.1
452.002	1032.94
452.376	1028.65
452.75	1047.4
453.123	1050.57
453.497	1061.86
453.871	1060.73
454.244	1066.61
454.618	1095.54
454.992	1133.28
455.365	1107.74
455.739	1106.84
456.112	1117.23
456.486	1147.51
456.859	1150.22
457.232	1166.49
457.606	1196.1
457.979	1208.98
458.352	1203.1
458.725	1219.83
459.099	1242.65
459.472	1264.8
459.845	1268.64
460.218	1275.19
460.591	1287.62
460.964	1268.19
461.337	1326.49
461.71	1349.77
462.083	1382.31
462.456	1352.93
462.829	1362.87
463.201	1410.78
463.574	1400.61
463.947	1448.07
464.32	1454.62
464.692	1490.1
465.065	1509.99
465.438	1517.67
465.81	1540.04
466.183	1562.42
466.555	1587.73
466.928	1591.12
467.3	1597.44
467.672	1648.06
468.045	1682.19
468.417	1671.34
468.789	1711.34
469.161	1739.14
469.534	1809.87
469.906	1846.48
470.278	1816.2
470.65	1894.84
471.022	1908.17
471.394	1941.16
471.766	1980.71
472.138	2001.05
472.51	2035.62
472.882	2081.27
473.253	2125.57
473.625	2171.44
473.997	2222.96
474.369	2243.08
474.74	2299.57
475.112	2348.84
475.484	2387.93
475.855	2471.09
476.227	2519
476.598	2596.29
476.97	2649.39
477.341	2715.38
477.713	2764.42
478.084	2780.92
478.455	2916.73
478.827	2996.96
479.198	3095.26
479.569	3116.05
479.94	3250.96
480.311	3306.78
480.682	3423.61
481.053	3516.49
481.424	3603.72
481.795	3669.71
482.166	3779.53
482.537	3857.95
482.908	3978.85
483.279	4075.57
483.65	4218.39
484.021	4344.04
484.391	4401.44
484.762	4505.16
485.133	4580.42
485.503	4693.86
485.874	4865.83
486.244	4974.76
486.615	5152.6
486.985	5233.05
487.356	5442.77
487.726	5514.85
488.097	5651.35
488.467	5800.5
488.837	6003.66
489.207	6109.42
489.578	6215.85
489.948	6330.88
490.318	6605.45
490.688	6634.6
491.058	6804.76
491.428	6967.02
491.798	7136.73
492.168	7336.28
492.538	7352.55
492.908	7538.98
493.278	7694.23
493.648	7794.12
494.017	7943.27
494.387	8135.58
494.757	8267.32
495.126	8433.87
495.496	8544.15
495.866	8702.79
496.235	8817.14
496.605	8947.76
496.974	9091.03
497.344	9203.57
497.713	9307.75
498.082	9432.04
498.452	9575.09
498.821	9662.32
499.19	9803.78
499.559	9909.77
499.928	9997.9
500.298	10141.17
500.667	10298.91
501.036	10383.88
501.405	10541.16
501.774	10522.18
502.143	10706.81
502.512	10788.16
502.88	10961.04
503.249	10932.34
503.618	11055.5
503.987	11178.21
504.356	11234.93
504.724	11298.66
505.093	11316.74
505.462	11456.85
505.83	11533
506.199	11673.11
506.567	11809.83
506.936	11849.83
507.304	11966.89
507.672	12113.78
508.041	12081.69
508.409	12183.83
508.777	12281.23
509.145	12410.04
509.514	12436.25
509.882	12528.46
510.25	12530.49
510.618	12625.85
510.986	12561.45
511.354	12772.52
511.722	12803.02
512.09	12873.08
512.458	12892.06
512.826	13080.76
513.193	13076.92
513.561	13109.23
513.929	13207.99
514.297	13307.42
514.664	13406.62
515.032	13281.88
515.4	13494.76
515.767	13509.45
516.135	13537.69
516.502	13427.42
516.869	13687.52
517.237	13579.95
517.604	13609.78
517.972	13717.13
518.339	13824.02
518.706	13781.98
519.073	13848.2
519.44	13875.09
519.808	13969.32
520.175	13857.01
520.542	13936.55
520.909	14054.52
521.276	14029.89
521.643	14235.3
522.009	14094.29
522.376	14185.81
522.743	14208.41
523.11	14327.5
523.477	14302.19
523.843	14464
524.21	14517.1
524.577	14575.86
524.943	14581.28
525.31	14550.32
525.676	14647.04
526.043	14623.54
526.409	14615.63
526.776	14754.84
527.142	14747.15
527.508	14820.37
527.874	14809.75
528.241	14845.91
528.607	14747.61
528.973	14801.16
529.339	14793.03
529.705	14852.91
530.071	14895.85
530.437	14925.23
530.803	14916.42
531.169	14932.46
531.535	14877.09
531.901	14850.88
532.267	14881.61
532.632	14907.83
532.998	14843.65
533.364	14928.62
533.73	14822.41
534.095	14973.36
534.461	14944.89
534.826	14850.43
535.192	14835.06
535.557	14899.02
535.923	14869.86
536.288	14850.88
536.653	14744.44
537.019	14682.07
537.384	14720.04
537.749	14713.26
538.114	14675.97
538.479	14594.62
538.845	14622.64
539.21	14641.39
539.575	14570.66
539.94	14485.92
540.305	14632.58
540.67	14425.81
541.034	14562.3
541.399	14515.3
541.764	14468.74
542.129	14402.76
542.494	14378.35
542.858	14413.6
543.223	14260.84
543.587	14296.77
543.952	14178.58
544.316	14209.32
544.681	14135.19
545.045	14167.96
545.41	14169.32
545.774	14097.68
546.138	14138.58
546.503	14016.55
546.867	13981.75
547.231	14087.06
547.595	13966.16
547.959	14007.97
548.324	13875.54
548.688	13903.56
549.052	13775.88
549.416	13790.57
549.779	13746.95
550.143	13720.74
550.507	13814.3
550.871	13703.57
551.235	13674.19
551.599	13692.95
551.962	13641.19
552.326	13633.51
552.689	13647.75
553.053	13533.85
553.417	13444.82
553.78	13653.85
554.143	13477.13
554.507	13515.55
554.87	13512.61
555.234	13577.02
555.597	13400.98
555.96	13442.33
556.323	13436
556.686	13421.77
557.05	13372.05
557.413	13427.87
557.776	13389.22
558.139	13458.15
558.502	13373.41
558.865	13396.23
559.228	13399.85
559.59	13416.79
559.953	13433.29
560.316	13473.52
560.679	13411.6
561.041	13398.26
561.404	13509.45
561.767	13478.71
562.129	13360.3
562.492	13480.07
562.854	13446.62
563.217	13414.76
563.579	13443.91
563.941	13459.28
564.304	13484.36
564.666	13527.75
565.028	13517.58
565.39	13487.07
565.753	13584.25
566.115	13636
566.477	13574.98
566.839	13590.35
567.201	13589.22
567.563	13654.3
567.925	13730.23
568.287	13735.2
568.648	13617.47
569.01	13687.97
569.372	13794.64
569.734	13631.48
570.095	13703.57
570.457	13817.46
570.819	13710.8
571.18	13698.82
571.542	13814.75
571.903	13721.19
572.265	13782.21
572.626	13816.33
572.987	13807.52
573.349	13940.4
573.71	13845.03
574.071	13864.01
574.432	13959.6
574.794	13857.46
575.155	14062.65
575.516	13881.41
575.877	13970.9
576.238	13978.36
576.599	13920.28
576.96	13975.88
577.32	13946.05
577.681	14058.36
578.042	14002.09
578.403	13962.77
578.763	13996.67
579.124	14042.77
579.485	14029.89
579.845	14114.4
580.206	14042.31
580.566	14040.05
580.927	14076.44
581.287	14156.44
581.648	13978.14
582.008	14102.2
582.368	13942.43
582.728	14034.63
583.089	14021.98
583.449	13964.35
583.809	14004.12
584.169	14008.87
584.529	13975.65
584.889	14025.37
585.249	13953.28
585.609	13979.04
585.969	13977.46
586.329	13883
586.688	13962.32
587.048	13957.12
587.408	13913.96
587.768	13924.8
588.127	13881.64
588.487	13825.82
588.846	14004.12
589.206	13748.99
589.565	13797.12
589.925	13845.03
590.284	13783.79
590.643	13931.36
591.003	13887.29
591.362	13854.3
591.721	13799.61
592.08	13802.55
592.44	13860.85
592.799	13817.91
593.158	13798.48
593.517	13824.02
593.876	13805.26
594.235	13719.16
594.593	13764.13
594.952	13816.56
595.311	13704.7
595.67	13826.05
596.029	13815.65
596.387	13796.67
596.746	13866.5
597.104	13745.37
597.463	13721.42
597.822	13791.25
598.18	13748.31
598.538	13699.05
598.897	13783.79
599.255	13671.02
599.613	13867.86
599.972	13716
600.33	13852.04
600.688	13710.57
601.046	13755.99
601.404	13743.57
601.762	13676.9
602.12	13760.29
602.478	13902.21
602.836	13779.95
603.194	13691.36
603.552	13812.49
603.91	13722.55
604.268	13777.91
604.625	13766.16
604.983	13815.43
605.341	13689.78
605.698	13798.7
606.056	13807.74
606.413	13786.95
606.771	13850.23
607.128	13797.58
607.485	13739.05
607.843	13771.36
608.2	13841.19
608.557	13825.14
608.914	13765.71
609.272	13801.19
609.629	13861.98
609.986	13911.7
610.343	13825.6
610.7	13959.38
611.057	13919.38
611.414	13866.95
611.771	13817.46
612.127	14017
612.484	13972.26
612.841	13982.65
613.198	13995.08
613.554	13945.37
613.911	14104.91
614.267	14018.13
614.624	14018.59
614.98	13999.38
615.337	14029.89
615.693	14008.42
616.05	14040.05
616.406	14130.9
616.762	14014.29
617.118	14083.44
617.475	13939.72
617.831	14083.22
618.187	14094.06
618.543	14115.08
618.899	14178.13
619.255	14117.34
619.611	14085.48
619.967	14167.73
620.323	14193.95
620.678	14157.11
621.034	14172.93
621.39	14139.49
621.746	14098.36
622.101	14335.41
622.457	14221.07
622.812	14169.77
623.168	14233.72
623.523	14166.6
623.879	14154.63
624.234	14124.12
624.589	14201.63
624.945	14183.1
625.3	14235.98
625.655	14182.88
626.01	14223.1
626.365	14334.06
626.72	14114.85
627.075	14176.55
627.43	14136.78
627.785	14093.61
628.14	14210.9
628.495	14203.67
628.85	14179.71
629.205	14181.07
629.559	14155.98
629.914	14108.3
630.269	14101.52
630.623	14136.1
630.978	14082.77
631.332	14137.68
631.687	14056.33
632.041	14047.74
632.396	14055.87
632.75	14056.55
633.104	14049.09
633.459	13948.31
633.813	13940.62
634.167	13905.14
634.521	13902.66
634.875	13915.54
635.229	13908.98
635.583	13896.1
635.937	13883.9
636.291	13839.61
636.645	13988.53
636.999	13792.6
637.352	13887.74
637.706	13788.08
638.06	13781.76
638.413	13800.29
638.767	13672.61
639.121	13772.72
639.474	13661.76
639.828	13683
640.181	13668.31
640.534	13644.58
640.888	13697.69
641.241	13604.59
641.594	13593.06
641.947	13739.5
642.301	13602.78
642.654	13607.98
643.007	13629.67
643.36	13566.39
643.713	13562.1
644.066	13587.64
644.419	13471.03
644.771	13499.28
645.124	13349
645.477	13339.51
645.83	13319.4
646.182	13232.84
646.535	13118.04
646.888	13233.52
647.24	13093.19
647.593	13234.43
647.945	13101.1
648.298	13145.39
648.65	13120.3
649.002	13015.67
649.355	13132.28
649.707	13049.35
650.059	13185.61
650.411	13313.07
650.763	13213.18
651.115	13410.92
651.467	13352.62
651.819	13408.88
652.171	13398.04
652.523	13314.88
652.875	13299.96
653.227	13348.32
653.578	13479.84
653.93	13394.42
654.282	13294.54
654.633	13296.8
654.985	13386.74
655.337	13350.36
655.688	13327.08
656.039	13355.78
656.391	13312.39
656.742	13285.95
657.094	13351.49
657.445	13323.01
657.796	13329.79
658.147	13315.78
658.498	13333.63
658.849	13309.23
659.2	13413.18
659.551	13320.3
659.902	13365.27
660.253	13276.23
660.604	13351.94
660.955	13295.44
661.306	13428.32
661.656	13346.06
662.007	13365.95
662.358	13357.36
662.708	13327.53
663.059	13395.1
663.409	13251.15
663.76	13379.73
664.11	13394.87
664.461	13429.68
664.811	13432.61
665.161	13373.86
665.511	13320.75
665.862	13415.66
666.212	13377.02
666.562	13369.79
666.912	13375.67
667.262	13279.85
667.612	13397.13
667.962	13432.39
668.312	13360.98
668.662	13427.19
669.011	13457.47
669.361	13309
669.711	13342.9
670.06	13419.28
670.41	13330.24
670.76	13327.3
671.109	13377.7
671.459	13397.36
671.808	13310.13
672.157	13436.91
672.507	13281.43
672.856	13272.17
673.205	13290.92
673.554	13303.8
673.904	13293.63
674.253	13330.02
674.602	13308.77
674.951	13134.54
675.3	12979.74
675.649	13252.73
675.998	13244.6
676.346	13147.87
676.695	13256.35
677.044	13134.09
677.393	13229.68
677.741	13192.17
678.09	13167.54
678.438	13049.35
678.787	13133.64
679.135	13102.68
679.484	13021.55
679.832	13026.52
680.181	12999.18
680.529	13007.54
680.877	13043.24
681.225	13011.83
681.573	13011.38
681.922	12933.64
682.27	12934.77
682.618	12929.8
682.966	12803.25
683.314	12884.15
683.661	12826.98
684.009	12867.88
684.357	12817.71
684.705	12756.92
685.053	12731.84
685.4	12789.24
685.748	12559.19
686.095	12659.53
686.443	12640.77
686.79	12569.36
687.138	12586.99
687.485	12568.68
687.832	12535.24
688.18	12475.12
688.527	12447.1
688.874	12480.1
689.221	12357.39
689.568	12329.82
689.915	12339.31
690.262	12298.63
690.609	12285.52
690.956	12251.4
691.303	12169.82
691.65	12111.74
691.997	12057.51
692.344	12079.2
692.69	12038.53
693.037	11993.33
693.383	11893.67
693.73	11883.95
694.077	11878.76
694.423	11810.51
694.769	11814.12
695.116	11758.53
695.462	11799.21
695.808	11724.18
696.155	11724.41
696.501	11633.56
696.847	11570.06
697.193	11574.58
697.539	11532.1
697.885	11432.44
698.231	11354.25
698.577	11377.98
698.923	11453.23
699.269	11260.01
699.614	11291.43
699.96	11227.02
700.306	11213.24
700.651	11181.6
700.997	11145.22
701.342	11055.05
701.688	11075.16
702.033	11080.36
702.379	11001.94
702.724	10989.06
703.069	11006.69
703.415	10820.93
703.76	10897.99
704.105	10874.04
704.45	10821.38
704.795	10775.96
705.14	10689.63
705.485	10742.06
705.83	10667.49
706.175	10691.22
706.52	10584.1
706.865	10570.77
707.209	10540.03
707.554	10530.09
707.899	10526.47
708.243	10442.18
708.588	10398.79
708.932	10382.98
709.277	10316.31
709.621	10324.45
709.966	10202.87
710.31	10214.62
710.654	10133.49
710.998	10199.25
711.342	10194.28
711.687	10114.28
712.031	10148.41
712.375	10033.61
712.719	10102.76
713.063	10052.36
713.407	10111.34
713.75	10035.64
714.094	10026.15
714.438	10036.77
714.782	9986.83
715.125	9948.86
715.469	9969.88
715.812	9948.86
716.156	9909.09
716.499	9826.83
716.843	9853.95
717.186	9837.23
717.53	9909.54
717.873	9843.33
718.216	9862.99
718.559	9841.97
718.902	9762.88
719.246	9742.31
719.589	9750.9
719.932	9703.9
720.275	9717
720.617	9696.67
720.96	9634.97
721.303	9677.23
721.646	9687.4
721.989	9606.05
722.331	9635.88
722.674	9606.05
723.016	9623.22
723.359	9624.58
723.701	9667.06
724.044	9552.49
724.386	9503.9
724.729	9643.56
725.071	9559.04
725.413	9599.49
725.755	9470.01
726.097	9515.43
726.439	9478.14
726.782	9473.17
727.124	9528.08
727.465	9533.05
727.807	9536.44
728.149	9453.73
728.491	9419.16
728.833	9399.5
729.175	9477.01
729.516	9414.41
729.858	9446.28
730.199	9503.45
730.541	9451.02
730.882	9419.84
731.224	9493.51
731.565	9343.68
731.906	9403.57
732.248	9423.9
732.589	9406.96
732.93	9340.97
733.271	9441.98
733.612	9424.13
733.953	9444.47
734.294	9379.61
734.635	9309.11
734.976	9403.34
735.317	9372.83
735.658	9427.29
735.999	9392.72
736.339	9350.69
736.68	9460.74
737.021	9390.69
737.361	9327.41
737.702	9408.76
738.042	9357.01
738.383	9421.42
738.723	9456.45
739.063	9407.41
739.404	9496.22
739.744	9399.05
740.084	9421.19
740.424	9435.43
740.764	9446.05
741.104	9533.73
741.444	9497.12
741.784	9419.39
742.124	9465.71
742.464	9492.6
742.804	9536.9
743.143	9486.05
743.483	9484.24
743.823	9641.75
744.162	9587.06
744.502	9655.99
744.841	9588.19
745.181	9677.91
745.52	9751.35
745.86	9743.44
746.199	9768.98
746.538	9748.19
746.877	9881.52
747.216	9867.28
747.556	10027.05
747.895	9973.72
748.234	9993.38
748.573	10046.71
748.911	10109.31
749.25	10158.35
749.589	10234.5
749.928	10270.44
750.267	10332.81
750.605	10404.22
750.944	10531.9
751.283	10640.6
751.621	10666.13
751.96	10750.42
752.298	10745.23
752.636	10984.54
752.975	10992.23
753.313	11087.82
753.651	11331.88
753.989	11362.38
754.327	11361.71
754.666	11462.95
755.004	11697.29
755.342	11898.87
755.679	11984.29
756.017	12072.65
756.355	12188.13
756.693	12344.96
757.031	12505.18
757.368	12619.53
757.706	12738.62
758.044	12916.92
758.381	13070.59
758.719	13268.32
759.056	13398.26
759.394	13612.5
759.731	13652.72
760.068	13793.73
760.405	13972.94
760.743	14115.31
761.08	14348.3
761.417	14498.12
761.754	14672.58
762.091	14831.22
762.428	14986.7
762.765	15134.26
763.102	15401.37
763.438	15497.64
763.775	15623.06
764.112	15752.33
764.449	16045.2
764.785	16176.04
765.122	16201.13
765.458	16396.38
765.795	16649.93
766.131	16778.74
766.467	16903.48
766.804	17060.77
767.14	17197.49
767.476	17336.47
767.812	17404.49
768.148	17701.88
768.485	17726.96
768.821	17809.67
769.157	17937.58
769.492	18025.03
769.828	18271.58
770.164	18231.58
770.5	18354.52
770.836	18545.7
771.171	18577.79
771.507	18711.57
771.842	18708.86
772.178	18879.25
772.513	18979.36
772.849	19002.86
773.184	19131.45
773.519	19218.9
773.855	19256.41
774.19	19285.79
774.525	19378.22
774.86	19462.51
775.195	19527.82
775.53	19537.09
775.865	19606.24
776.2	19590.19
776.535	19586.58
776.87	19648.04
777.205	19652.34
777.539	19702.28
777.874	19862.5
778.209	19792.67
778.543	19866.57
778.878	19710.64
779.212	19919.45
779.547	19853.46
779.881	20084.19
780.215	19954.93
780.55	20100.23
780.884	19909.05
781.218	19921.26
781.552	20091.87
781.886	19921.93
782.22	19966.9
782.554	19922.39
782.888	19830.18
783.222	19765.33
783.556	19749.51
783.889	19797.19
784.223	19801.26
784.557	19759.23
784.89	19810.07
785.224	19678.32
785.557	19607.82
785.891	19688.27
786.224	19665.9
786.558	19662.51
786.891	19587.25
787.224	19467.71
787.557	19606.01
787.891	19508.61
788.224	19522.4
788.557	19550.87
788.89	19524.66
789.223	19488.5
789.556	19449.86
789.888	19383.87
790.221	19408.27
790.554	19322.4
790.887	19208.28
791.219	19261.84
791.552	19175.74
791.884	19121.05
792.217	19186.13
792.549	19119.02
792.882	19056.65
793.214	18982.3
793.546	19095.74
793.879	18932.36
794.211	18885.58
794.543	18985.01
794.875	18898.46
795.207	19018.23
795.539	18787.73
795.871	18864.56
796.203	18715.64
796.535	18586.15
796.867	18563.33
797.198	18521.74
797.53	18571.01
797.862	18524.68
798.193	18516.77
798.525	18374.18
798.856	18417.34
799.188	18263.45
799.519	18209.44
799.85	18157.01
800.182	18174.18
800.513	18190.23
800.844	18002.89
801.175	18081.3
801.506	18100.74
801.837	17999.5
802.168	17931.7
802.499	17928.77
802.83	17794.98
803.161	17836.79
803.491	17860.07
803.822	17780.3
804.153	17704.59
804.483	17608.1
804.814	17552.73
805.145	17526.97
805.475	17528.1
805.805	17478.61
806.136	17492.62
806.466	17478.16
806.796	17399.06
807.126	17348.67
807.457	17277.03
807.787	17295.56
808.117	17280.42
808.447	17116.13
808.777	17186.86
809.107	17117.04
809.436	17024.61
809.766	17084.49
810.096	17067.77
810.426	16970.37
810.755	16990.26
811.085	16949.36
811.414	16951.62
811.744	16836.82
812.073	16761.79
812.403	16683.37
812.732	16698.29
813.061	16735.35
813.39	16630.04
813.719	16566.99
814.049	16636.82
814.378	16571.06
814.707	16460.1
815.036	16438.41
815.365	16410.39
815.693	16327.68
816.022	16327.45
816.351	16280.45
816.68	16243.84
817.008	16294.46
817.337	16143.28
817.665	16119.32
817.994	16060.34
818.322	16079.1
818.651	16012.88
818.979	16083.39
819.307	16104.86
819.636	16088.36
819.964	15853.79
820.292	16032.77
820.62	15963.85
820.948	15850.63
821.276	15930.85
821.604	15919.78
821.932	15904.41
822.259	15918.65
822.587	15866
822.915	15887.46
823.243	15947.35
823.57	15881.81
823.898	15904.41
824.225	15748.71
824.553	15761.59
824.88	15889.5
825.207	15905.09
825.535	15908.25
825.862	15890.4
826.189	15854.47
826.516	15891.98
826.843	15990.51
827.17	15944.41
827.497	15978.53
827.824	15923.39
828.151	16022.15
828.478	15847.92
828.805	16019.21
829.131	15864.41
829.458	15891.98
829.785	15895.15
830.111	15923.39
830.438	15948.7
830.764	15864.41
831.09	15989.38
831.417	15819.89
831.743	15886.56
832.069	15846.79
832.395	15805.21
832.722	15894.02
833.048	15815.15
833.374	15805.66
833.7	15759.11
834.026	15817.63
834.351	15849.05
834.677	15745.32
835.003	15815.83
835.329	15764.98
835.654	15780.8
835.98	15675.49
836.306	15729.28
836.631	15633.23
836.956	15769.27
837.282	15681.59
837.607	15691.99
837.932	15603.63
838.258	15647.47
838.583	15620.35
838.908	15549.39
839.233	15407.25
839.558	15445.22
839.883	15442.5
840.208	15285.9
840.533	15390.75
840.858	15387.36
841.182	15402.28
841.507	15384.43
841.832	15142.85
842.156	15249.74
842.481	15243.41
842.805	15140.59
843.13	15115.28
843.454	15185.11
843.778	15000.48
844.103	15037.09
844.427	14949.86
844.751	15001.16
845.075	14950.31
845.399	14904.21
845.723	14724.78
846.047	14867.38
846.371	14706.7
846.695	14689.08
847.019	14538.57
847.343	14581.06
847.666	14427.39
847.99	14354.4
848.313	14396.66
848.637	14298.35
848.96	14357.11
849.284	14285.47
849.607	14157.79
849.931	14095.42
850.254	13982.65
850.577	13930.45
850.9	13884.8
851.223	13855.43
851.546	13791.93
851.869	13695.66
852.192	13761.42
852.515	13567.52
852.838	13514.87
853.161	13617.01
853.483	13566.17
853.806	13449.11
854.129	13429.9
854.451	13355.55
854.774	13301.32
855.096	13278.49
855.419	13278.27
855.741	13193.52
856.063	13187.42
856.385	13135.45
856.708	13032.4
857.03	13012.51
857.352	13050.48
857.674	12939.29
857.996	12928.45
858.318	12835.11
858.64	12930.93
858.961	12773.2
859.283	12804.15
859.605	12686.87
859.926	12683.03
860.248	12671.95
860.57	12591.28
860.891	12620.88
861.212	12608
861.534	12578.62
861.855	12508.57
862.176	12499.98
862.498	12563.71
862.819	12564.84
863.14	12365.97
863.461	12453.43
863.782	12483.49
864.103	12407.33
864.424	12349.48
864.745	12386.99
865.065	12323.72
865.386	12310.38
865.707	12217.73
866.027	12206.43
866.348	12231.29
866.668	12251.85
866.989	12240.33
867.309	12088.02
867.63	12184.74
867.95	12101.12
868.27	12027.9
868.59	12077.85
868.91	12072.2
869.23	12042.59
869.55	11908.36
869.87	12075.36
870.19	11923.05
870.51	11987.45
870.83	11965.76
871.15	11915.82
871.469	11922.37
871.789	11875.14
872.109	11879.89
872.428	11784.29
872.748	11864.29
873.067	11834.91
873.386	11789.04
873.706	11802.83
874.025	11677.86
874.344	11607.8
874.663	11700.23
874.982	11708.59
875.301	11721.25
875.62	11621.14
875.939	11630.4
876.258	11705.65
876.577	11529.16
876.896	11591.08
877.214	11537.52
877.533	11565.77
877.852	11473.34
878.17	11566.67
878.489	11537.75
878.807	11506.34
879.125	11447.58
879.444	11453.91
879.762	11395.38
880.08	11370.75
880.398	11334.59
880.716	11380.01
881.034	11351.76
881.352	11315.38
881.67	11344.31
881.988	11243.52
882.306	11243.97
882.624	11271.54
882.941	11046.91
883.259	11151.54
883.577	11151.54
883.894	11119.23
884.212	11071.77
884.529	11091.66
884.846	10943.19
885.164	11009.63
885.481	10892.34
885.798	10958.78
886.115	10888.5
886.432	10888.05
886.75	10814.83
887.067	10829.52
887.383	10754.94
887.7	10761.27
888.017	10781.61
888.334	10715.4
888.651	10729.18
888.967	10706.81
889.284	10639.69
889.6	10669.52
889.917	10511.33
890.233	10560.37
890.55	10486.7
890.866	10453.03
891.182	10436.99
891.498	10459.58
891.815	10327.61
892.131	10356.08
892.447	10354.5
892.763	10262.53
893.079	10224.34
893.395	10233.15
893.71	10184.79
894.026	10176.65
894.342	10143.66
894.657	10062.76
894.973	10067.96
895.289	10082.64
895.604	10037.22
895.92	9912.25
896.235	9914.06
896.55	9912.93
896.865	9888.3
897.181	9848.53
897.496	9852.14
897.811	9780.51
898.126	9819.83
898.441	9736.66
898.756	9717.91
899.071	9615.09
899.386	9646.95
899.7	9591.58
900.015	9450.8
900.33	9460.74
900.644	9489.44
900.959	9439.05
901.273	9434.3
901.588	9352.95
901.902	9249.67
902.216	9239.05
902.531	9223.46
902.845	9271.82
903.159	9129.68
903.473	9179.84
903.787	9118.83
904.101	9040.19
904.415	9053.97
904.729	9009.68
905.042	9002.45
905.356	8962.67
905.67	8886.74
905.984	8897.36
906.297	8823.02
906.611	8733.53
906.924	8736.24
907.237	8735.56
907.551	8702.57
907.864	8666.86
908.177	8616.92
908.491	8652.85
908.804	8531.27
909.117	8551.61
909.43	8494.89
909.743	8442.24
910.056	8436.81
910.368	8417.6
910.681	8312.3
910.994	8342.35
911.307	8291.96
911.619	8224.16
911.932	8289.25
912.244	8207.67
912.557	8175.58
912.869	8126.54
913.181	8048.12
913.494	8088.35
913.806	7955.24
914.118	7935.81
914.43	7903.27
914.742	7966.54
915.054	7901.01
915.366	7856.49
915.678	7878.18
915.99	7774
916.302	7751.41
916.613	7723.16
916.925	7681.13
917.236	7679.77
917.548	7574.69
917.859	7668.92
918.171	7533.78
918.482	7535.14
918.794	7533.56
919.105	7487.01
919.416	7419.66
919.727	7448.82
920.038	7424.86
920.349	7325.43
920.66	7294.7
920.971	7351.87
921.282	7281.36
921.593	7266.22
921.903	7191.2
922.214	7170.18
922.525	7157.52
922.835	7132.44
923.146	7035.49
923.456	7055.61
923.767	7040.01
924.077	7026
924.387	7010.63
924.697	6941.71
925.008	6938.09
925.318	6870.98
925.628	6826.23
925.938	6806.35
926.248	6805.89
926.558	6807.25
926.867	6775.61
927.177	6733.58
927.487	6660.14
927.796	6635.5
928.106	6632.79
928.416	6601.83
928.725	6608.84
929.034	6539.91
929.344	6511.66
929.653	6509.18
929.962	6477.54
930.271	6395.06
930.581	6448.39
930.89	6400.71
931.199	6318.68
931.508	6318.22
931.817	6316.87
932.125	6328.39
932.434	6303.76
932.743	6176.31
933.051	6156.19
933.36	6204.1
933.669	6129.53
933.977	6151.67
934.286	6092.24
934.594	6078.46
934.902	6039.13
935.21	6005.69
935.519	5986.71
935.827	5939.02
936.135	5912.81
936.443	5884.34
936.751	5886.37
937.059	5874.62
937.367	5838.69
937.674	5849.31
937.982	5834.39
938.29	5743.1
938.597	5769.99
938.905	5717.11
939.213	5676.21
939.52	5622.87
939.827	5671.69
940.135	5596.89
940.442	5571.12
940.749	5547.85
941.056	5617.68
941.363	5514.85
941.67	5478.7
941.977	5462.65
942.284	5454.29
942.591	5459.49
942.898	5410.68
943.205	5459.49
943.511	5346.05
943.818	5354.18
944.125	5294.75
944.431	5300.17
944.738	5328.19
945.044	5262.43
945.35	5223.56
945.657	5191.93
945.963	5173.17
946.269	5099.72
946.575	5106.96
946.881	5097.46
947.187	5073.96
947.493	5060.63
947.799	5093.17
948.105	5053.62
948.41	4989.67
948.716	5008.2
949.022	4998.26
949.327	4958.71
949.633	4901.09
949.938	4889.11
950.244	4883.46
950.549	4853.63
950.854	4840.3
951.16	4804.14
951.465	4768.89
951.77	4794.65
952.075	4770.24
952.38	4753.07
952.685	4752.62
952.99	4671.94
953.294	4633.07
953.599	4651.37
953.904	4623.58
954.209	4564.6
954.513	4620.19
954.818	4569.8
955.122	4610.92
955.426	4492.96
955.731	4521.66
956.035	4497.71
956.339	4431.04
956.643	4491.83
956.948	4405.96
957.252	4410.25
957.556	4422.91
957.86	4365.28
958.163	4339.07
958.467	4318.5
958.771	4315.34
959.075	4330.71
959.378	4296.81
959.682	4304.27
959.985	4228.34
960.289	4258.39
960.592	4255.23
960.896	4151.95
961.199	4173.42
961.502	4157.6
961.805	4159.64
962.108	4142.91
962.411	4137.94
962.714	4081.9
963.017	4025.18
963.32	4097.94
963.623	4040.09
963.926	4045.06
964.228	3997.83
964.531	4000.77
964.833	3968.45
965.136	3926.65
965.438	3923.26
965.741	3936.82
966.043	3911.73
966.345	3867.21
966.648	3862.7
966.95	3862.47
967.252	3798.52
967.554	3823.15
967.856	3775.24
968.158	3745.86
968.46	3780.21
968.761	3762.36
969.063	3742.02
969.365	3741.79
969.666	3695.92
969.968	3683.72
970.269	3669.25
970.571	3664.06
970.872	3661.12
971.174	3600.33
971.475	3598.3
971.776	3603.72
972.077	3599.2
972.378	3533.89
972.679	3557.84
972.98	3547.9
973.281	3537.51
973.582	3518.98
973.883	3486.89
974.183	3451.86
974.484	3479.65
974.785	3457.28
975.085	3463.38
975.386	3433.33
975.686	3393.1
975.986	3306.55
976.287	3367.57
976.587	3354.01
976.887	3319.88
977.187	3324.4
977.487	3319.66
977.787	3268.81
978.087	3276.04
978.387	3253.22
978.687	3208.25
978.987	3210.06
979.286	3212.77
979.586	3224.52
979.885	3170.51
980.185	3143.39
980.484	3144.75
980.784	3150.85
981.083	3123.05
981.382	3119.21
981.682	3095.71
981.981	3078.08
982.28	3063.85
982.579	3052.55
982.878	3035.6
983.177	3049.16
983.475	3019.33
983.774	3014.36
984.073	2983.85
984.372	2952.66
984.67	2947.24
984.969	2976.62
985.267	2934.58
985.566	2915.6
985.864	2911.76
986.162	2921.02
986.461	2858.43
986.759	2889.61
987.057	2823.17
987.355	2825.43
987.653	2843.74
987.951	2813.23
988.249	2797.19
988.547	2792.89
988.844	2775.72
989.142	2754.93
989.44	2757.41
989.737	2709.73
990.035	2738.66
990.332	2690.52
990.63	2678.55
990.927	2665.44
991.224	2681.71
991.521	2652.11
991.819	2627.7
992.116	2627.7
992.413	2628.83
992.71	2610.07
993.006	2594.48
993.303	2612.33
993.6	2532.11
993.897	2560.36
994.193	2565.1
994.49	2534.14
994.787	2511.77
995.083	2504.99
995.379	2499.34
995.676	2485.1
995.972	2477.87
996.268	2474.93
996.565	2442.85
996.861	2415.73
997.157	2422.05
997.453	2433.81
997.749	2414.6
998.044	2382.06
998.34	2356.75
998.636	2382.51
998.932	2374.82
999.227	2342.96
999.523	2302.51
999.818	2344.99
1000.114	2283.53
1000.409	2310.19
1000.704	2294.83
1001	2287.6
1001.295	2264.09
1001.59	2225.45
1001.885	2231.33
1002.18	2195.62
1002.475	2213.7
1002.77	2221.83
1003.065	2171.89
1003.359	2214.38
1003.654	2172.57
1003.949	2159.91
1004.243	2151.1
1004.538	2112.23
1004.832	2124.44
1005.127	2131.89
1005.421	2097.09
1005.715	2090.09
1006.009	2083.98
1006.304	2056.87
1006.598	2020.48
1006.892	2045.12
1007.186	2020.71
1007.48	1985.91
1007.773	1987.26
1008.067	1952.69
1008.361	1992.91
1008.655	1994.27
1008.948	1938.45
1009.242	1910.88
1009.535	1917.89
1009.829	1911.11
1010.122	1908.17
1010.415	1893.93
1010.708	1872.46
1011.001	1871.33
1011.295	1861.39
1011.588	1882.63
1011.881	1801.73
1012.173	1782.52
1012.466	1808.74
1012.759	1785.24
1013.052	1770.77
1013.344	1784.33
1013.637	1768.96
1013.93	1772.35
1014.222	1742.3
1014.514	1771.45
1014.807	1737.55
1015.099	1718.12
1015.391	1714.05
1015.683	1740.26
1015.976	1689.42
1016.268	1685.13
1016.56	1653.71
1016.851	1657.78
1017.143	1653.49
1017.435	1653.04
1017.727	1622.08
1018.018	1628.63
1018.31	1620.72
1018.602	1617.78
1018.893	1609.19
1019.185	1578.01
1019.476	1584.56
1019.767	1538.01
1020.058	1552.47
1020.35	1541.85
1020.641	1501.4
1020.932	1541.85
1021.223	1523.1
1021.514	1493.49
1021.804	1516.77
1022.095	1458.92
1022.386	1483.55
1022.677	1459.37
1022.967	1451.01
1023.258	1448.52
1023.548	1428.63
1023.839	1399.03
1024.129	1421.86
1024.419	1403.32
1024.709	1365.13
1025	1382.31
1025.29	1380.73
1025.58	1348.86
1025.87	1365.13
1026.16	1331.69
1026.449	1337.11
1026.739	1328.07
1027.029	1312.03
1027.319	1279.26
1027.608	1298.69
1027.898	1294.18
1028.187	1279.26
1028.477	1278.13
1028.766	1285.81
1029.055	1235.19
1029.344	1269.77
1029.634	1261.63
1029.923	1258.24
1030.212	1225.25
1030.501	1222.09
1030.79	1212.6
1031.078	1199.49
1031.367	1192.03
1031.656	1191.35
1031.945	1159.72
1032.233	1163.33
1032.522	1163.11
1032.81	1153.84
1033.099	1154.74
1033.387	1132.37
1033.675	1122.2
1033.963	1125.82
1034.251	1121.52
1034.54	1099.15
1034.828	1091.69
1035.116	1134.18
1035.403	1091.24
1035.691	1068.64
1035.979	1083.11
1036.267	1071.13
1036.554	1075.88
1036.842	1055.09
1037.129	1048.53
1037.417	1059.38
1037.704	1010.79
1037.992	1044.92
1038.279	1025.48
1038.566	990.91
1038.853	990.91
1039.14	990.91
