Data from hue_200_FLMS001491_00060.txt Node
Date: Tue Feb 07 16:43:39 GMT 2017
User: dcchb
Spectrometer: FLMS00149
Trigger mode: 0
Integration Time (sec): 2.000000E-2
Scans to average: 10
Electric dark correction enabled: true
Nonlinearity correction enabled: false
Boxcar width: 0
XAxis mode: Wavelengths
Number of Pixels in Spectrum: 2048
>>>>>Begin Spectral Data<<<<<
341.393	-10.44
341.776	-10.44
342.16	-10.44
342.543	-31.68
342.927	-65.58
343.31	-69.87
343.693	-59.93
344.077	-62.19
344.46	-56.54
344.843	-49.76
345.226	-22.19
345.61	-22.87
345.993	-17.22
346.376	-12.02
346.759	11.26
347.142	15.55
347.525	41.76
347.908	49.67
348.291	83.8
348.674	75.44
349.057	95.1
349.44	138.71
349.823	131.25
350.206	175.32
350.588	170.8
350.971	196.79
351.354	226.84
351.737	241.53
352.119	253.51
352.502	260.74
352.884	284.24
353.267	269.33
353.65	284.7
354.032	310.91
354.414	310.23
354.797	326.28
355.179	306.39
355.562	316.79
355.944	323.79
356.326	345.03
356.709	323.34
357.091	347.97
357.473	344.81
357.855	349.33
358.238	333.51
358.62	356.56
359.002	341.87
359.384	337.8
359.766	335.09
360.148	348.88
360.53	347.52
360.912	344.13
361.294	328.54
361.676	344.13
362.057	321.53
362.439	356.78
362.821	327.63
363.203	316.56
363.584	349.1
363.966	329.89
364.348	334.41
364.729	325.37
365.111	308.2
365.493	328.99
365.874	333.51
366.256	314.53
366.637	335.09
367.019	287.18
367.4	319.95
367.781	312.72
368.163	343.9
368.544	297.35
368.925	319.05
369.306	328.31
369.688	320.18
370.069	318.59
370.45	291.7
370.831	311.36
371.212	324.47
371.593	330.57
371.974	318.37
372.355	326.95
372.736	328.54
373.117	319.05
373.498	305.71
373.879	310.23
374.26	304.36
374.641	322.44
375.021	321.76
375.402	340.29
375.783	335.54
376.163	343.9
376.544	320.85
376.925	341.87
377.305	321.98
377.686	314.98
378.066	314.07
378.447	321.98
378.827	338.71
379.208	315.43
379.588	321.53
379.968	316.11
380.349	317.69
380.729	347.07
381.109	353.85
381.489	354.3
381.87	331.02
382.25	349.33
382.63	352.04
383.01	339.16
383.39	358.37
383.77	343.9
384.15	338.25
384.53	337.8
384.91	337.8
385.29	349.1
385.67	335.32
386.049	359.5
386.429	376.44
386.809	350
387.189	356.56
387.568	335.99
387.948	341.87
388.328	360.4
388.707	366.73
389.087	368.76
389.466	370.12
389.846	355.88
390.225	351.13
390.605	368.54
390.984	378.48
391.363	361.76
391.743	368.08
392.122	366.73
392.501	382.09
392.881	392.72
393.26	385.48
393.639	388.42
394.018	376.44
394.397	387.07
394.776	380.96
395.155	361.08
395.534	370.57
395.913	393.62
396.292	411.47
396.671	380.06
397.05	415.09
397.429	404.01
397.808	413.05
398.186	389.78
398.565	379.38
398.944	404.01
399.323	426.84
399.701	427.07
400.08	425.03
400.458	407.86
400.837	399.72
401.215	430.23
401.594	437.46
401.972	397.01
402.351	420.51
402.729	426.16
403.107	449.66
403.486	448.08
403.864	427.52
404.242	453.96
404.62	443.34
404.999	444.47
405.377	477.23
405.755	461.87
406.133	478.36
406.511	474.75
406.889	485.82
407.267	478.82
407.645	494.18
408.023	480.85
408.401	476.33
408.779	493.73
409.156	515.2
409.534	521.98
409.912	516.55
410.29	536.21
410.667	542.77
411.045	546.16
411.422	564.46
411.8	546.61
412.178	566.95
412.555	580.28
412.933	611.02
413.31	593.39
413.687	611.92
414.065	612.14
414.442	625.7
414.819	630
415.197	632.48
415.574	647.85
415.951	658.25
416.328	678.13
416.705	680.17
417.082	691.69
417.46	663.22
417.837	692.59
418.214	705.02
418.591	726.27
418.967	726.94
419.344	731.69
419.721	768.75
420.098	740.73
420.475	791.58
420.852	783.89
421.228	777.34
421.605	800.39
421.982	829.54
422.358	856.88
422.735	867.28
423.111	873.38
423.488	883.78
423.864	889.65
424.241	898.01
424.617	882.87
424.994	911.12
425.37	925.36
425.746	966.03
426.123	984.34
426.499	995.64
426.875	1029.54
427.251	1018.91
427.627	1041.96
428.003	1042.42
428.379	1064.34
428.756	1086.48
429.132	1060.72
429.507	1102.98
429.883	1131.23
430.259	1129.19
430.635	1118.35
431.011	1135.07
431.387	1159.93
431.763	1168.74
432.138	1190.43
432.514	1231.56
432.89	1216.42
433.265	1263.65
433.641	1278.57
434.016	1301.84
434.392	1349.75
434.767	1380.26
435.143	1383.88
435.518	1433.59
435.894	1415.97
436.269	1459.35
436.644	1485.57
437.02	1521.27
437.395	1504.1
437.77	1563.76
438.145	1566.7
438.52	1614.38
438.895	1634.04
439.271	1646.92
439.646	1681.95
440.021	1710.65
440.395	1735.96
440.77	1755.39
441.145	1794.71
441.52	1823.86
441.895	1838.78
442.27	1831.55
442.645	1851.21
443.019	1874.94
443.394	1895.05
443.769	1941.15
444.143	1922.84
444.518	1927.82
444.892	1963.97
445.267	1980.24
445.641	2010.07
446.016	2030.41
446.39	2076.29
446.764	2073.35
447.139	2083.07
447.513	2102.95
447.887	2108.38
448.262	2115.61
448.636	2142.05
449.01	2174.82
449.384	2193.57
449.758	2237.19
450.132	2236.28
450.506	2281.48
450.88	2293.23
451.254	2320.12
451.628	2314.47
452.002	2343.62
452.376	2353.57
452.75	2396.73
453.123	2392.21
453.497	2439.44
453.871	2478.31
454.244	2484.19
454.618	2516.95
454.992	2573.68
455.365	2575.71
455.739	2608.02
456.112	2648.02
456.486	2655.48
456.859	2718.98
457.232	2718.3
457.606	2690.96
457.979	2748.81
458.352	2804.63
458.725	2837.85
459.099	2829.04
459.472	2883.5
459.845	2952.42
460.218	2989.26
460.591	2951.52
460.964	2975.92
461.337	3052.98
461.71	3178.41
462.083	3177.73
462.456	3184.96
462.829	3225.18
463.201	3263.37
463.574	3283.94
463.947	3325.97
464.32	3384.73
464.692	3412.75
465.065	3429.92
465.438	3481
465.81	3573.65
466.183	3573.42
466.555	3674.21
466.928	3665.17
467.3	3670.37
467.672	3700.2
468.045	3770.71
468.417	3806.41
468.789	3837.6
469.161	3875.79
469.534	3957.14
469.906	4052.05
470.278	4040.53
470.65	4089.12
471.022	4132.73
471.394	4236.23
471.766	4231.03
472.138	4284.36
472.51	4365.49
472.882	4447.07
473.253	4466.05
473.625	4540.18
473.997	4599.38
474.369	4649.78
474.74	4749.66
475.112	4786.27
475.484	4830.57
475.855	4948.98
476.227	5022.65
476.598	5111.46
476.97	5131.35
477.341	5268.07
477.713	5325.92
478.084	5322.76
478.455	5513.03
478.827	5543.99
479.198	5637.32
479.569	5713.93
479.94	5740.6
480.311	5855.17
480.682	5975.62
481.053	6024.43
481.424	6142.39
481.795	6184.65
482.166	6327.25
482.537	6406.12
482.908	6497.87
483.279	6533.12
483.65	6687.47
484.021	6776.05
484.391	6851.08
484.762	6914.13
485.133	6899.21
485.503	6995.25
485.874	7148.7
486.244	7263.5
486.615	7352.76
486.985	7374.23
487.356	7481.12
487.726	7531.51
488.097	7738.29
488.467	7689.02
488.837	7912.74
489.207	7924.5
489.578	8030.03
489.948	8203.13
490.318	8092.63
490.688	8238.84
491.058	8356.12
491.428	8387.53
491.798	8506.85
492.168	8650.58
492.538	8704.36
492.908	8698.03
493.278	8832.72
493.648	8800.4
494.017	8886.28
494.387	8996.11
494.757	9068.42
495.126	9191.35
495.496	9146.84
495.866	9170.34
496.235	9322.2
496.605	9307.51
496.974	9342.99
497.344	9474.28
497.713	9492.59
498.082	9524.68
498.452	9525.81
498.821	9572.36
499.19	9615.98
499.559	9676.09
499.928	9751.79
500.298	9728.06
500.667	9859.81
501.036	9744.11
501.405	9889.19
501.774	9820.26
502.143	9932.35
502.512	9981.16
502.88	10015.74
503.249	9995.85
503.618	10089.64
503.987	10084.66
504.356	10041.28
504.724	10100.48
505.093	10115.17
505.462	10166.92
505.83	10271.33
506.199	10224.1
506.567	10373.24
506.936	10308.39
507.304	10428.84
507.672	10470.19
508.041	10524.65
508.409	10470.87
508.777	10492.79
509.145	10549.06
509.514	10529.4
509.882	10612.11
510.25	10574.59
510.618	10646.01
510.986	10642.84
511.354	10677.19
511.722	10711.77
512.09	10737.75
512.458	10630.64
512.826	10834.25
513.193	10749.96
513.561	10733.91
513.929	10829.73
514.297	10855.94
514.664	10820.46
515.032	10897.07
515.4	10926
515.767	10956.05
516.135	10880.58
516.502	10831.99
516.869	10968.48
517.237	11016.84
517.604	10930.74
517.972	10995.6
518.339	10953.34
518.706	10969.39
519.073	10929.61
519.44	10963.51
519.808	11064.53
520.175	11020.46
520.542	11121.7
520.909	11091.87
521.276	11023.62
521.643	11099.78
522.009	11087.35
522.376	11061.36
522.743	11102.04
523.11	11179.55
523.477	11227.91
523.843	11243.28
524.21	11304.07
524.577	11260
524.943	11282.37
525.31	11235.82
525.676	11338.87
526.043	11281.24
526.409	11286.44
526.776	11336.61
527.142	11343.16
527.508	11368.25
527.874	11287.8
528.241	11245.99
528.607	11288.47
528.973	11339.32
529.339	11309.72
529.705	11384.97
530.071	11270.4
530.437	11273.33
530.803	11322.82
531.169	11265.88
531.535	11243.5
531.901	11178.42
532.267	11182.49
532.632	11192.66
532.998	11213.67
533.364	11169.16
533.73	11187.01
534.095	11177.52
534.461	11136.16
534.826	11127.57
535.192	11079.67
535.557	11071.53
535.923	10940.46
536.288	11005.09
536.653	11071.3
537.019	10848.26
537.384	10861.37
537.749	10872.44
538.114	10848.03
538.479	10796.96
538.845	10804.19
539.21	10648.04
539.575	10609.62
539.94	10609.4
540.305	10639.23
540.67	10551.54
541.034	10547.7
541.399	10454.82
541.764	10444.88
542.129	10401.27
542.494	10395.84
542.858	10413.24
543.223	10315.62
543.587	10320.82
543.952	10239.01
544.316	10280.59
544.681	10130.31
545.045	10127.83
545.41	10126.92
545.774	10088.05
546.138	10025.91
546.503	9965.35
546.867	9966.93
547.231	9911.11
547.595	9887.61
547.959	9807.84
548.324	9830.21
548.688	9776.42
549.052	9723.54
549.416	9710.66
549.779	9679.93
550.143	9589.08
550.507	9616.88
550.871	9594.96
551.235	9477.67
551.599	9510.89
551.962	9520.16
552.326	9488.97
552.689	9488.52
553.053	9316.55
553.417	9370.33
553.78	9364.68
554.143	9321.75
554.507	9256.21
554.87	9293.95
555.234	9305.25
555.597	9258.25
555.96	9142.99
556.323	9169.21
556.686	9134.86
557.05	9132.82
557.413	9113.39
557.776	9105.71
558.139	9023.45
558.502	9058.7
558.865	9072.04
559.228	9076.78
559.59	9046.95
559.953	9037.46
560.316	9044.47
560.679	9009.89
561.041	8962.43
561.404	9004.01
561.767	9042.66
562.129	8998.14
562.492	8960.17
562.854	9010.79
563.217	8927.63
563.579	8909.1
563.941	8955.43
564.304	8968.99
564.666	8975.77
565.028	8937.58
565.39	8964.69
565.753	8979.61
566.115	8966.28
566.477	8955.88
566.839	8972.38
567.201	9025.03
567.563	8932.83
567.925	9024.81
568.287	9023.45
568.648	8931.02
569.01	9023.68
569.372	9021.64
569.734	8938.03
570.095	8988.87
570.457	8983.45
570.819	8971.02
571.18	9015.54
571.542	9045.37
571.903	8959.72
572.265	9037.91
572.626	9017.57
572.987	9035.2
573.349	9020.74
573.71	9032.49
574.071	9049.66
574.432	9031.13
574.794	9053.5
575.155	9061.64
575.516	9061.64
575.877	9025.03
576.238	9041.53
576.599	9059.83
576.96	9100.74
577.32	9121.3
577.681	9098.93
578.042	9096.89
578.403	9069.55
578.763	9093.28
579.124	9050.79
579.485	9082.43
579.845	9150.68
580.206	9088.98
580.566	9074.07
580.927	9038.59
581.287	9113.16
581.648	9065.26
582.008	9074.3
582.368	9015.99
582.728	9075.88
583.089	9065.48
583.449	9061.87
583.809	9057.57
584.169	9032.94
584.529	8967.18
584.889	9079.04
585.249	9007.18
585.609	9026.61
585.969	9065.48
586.329	9028.42
586.688	8985.03
587.048	9047.18
587.408	8987.29
587.768	9007.86
588.127	8976.44
588.487	8985.03
588.846	9015.99
589.206	8930.8
589.565	8972.83
589.925	8971.25
590.284	8988.42
590.643	8979.61
591.003	8944.81
591.362	8997.69
591.721	8977.35
592.08	8937.35
592.44	9003.11
592.799	8945.71
593.158	8982.09
593.517	8844.47
593.876	8976.67
594.235	8926.95
594.593	8955.43
594.952	8951.13
595.311	8906.62
595.67	8918.59
596.029	8964.69
596.387	8907.07
596.746	8993.39
597.104	8858.71
597.463	8835.21
597.822	8877.69
598.18	8839.95
598.538	8873.17
598.897	8877.46
599.255	8849.89
599.613	8881.31
599.972	8928.54
600.33	8817.58
600.688	8827.52
601.046	8833.4
601.404	8912.04
601.762	8863.45
602.12	8938.25
602.478	8878.82
602.836	8907.75
603.194	8855.09
603.552	8853.06
603.91	8843.34
604.268	8884.92
604.625	8861.19
604.983	8915.43
605.341	8796.79
605.698	8879.05
606.056	8863
606.413	8910.23
606.771	8854.41
607.128	8874.53
607.485	8846.05
607.843	8874.98
608.2	8905.49
608.557	8888.09
608.914	8867.07
609.272	8935.54
609.629	8988.65
609.986	8990.68
610.343	8914.53
610.7	8973.51
611.057	8950
611.414	8926.95
611.771	8945.26
612.127	8973.51
612.484	8963.11
612.841	9009.89
613.198	8973.06
613.554	8979.61
613.911	8968.08
614.267	8973.06
614.624	8999.04
614.98	9006.27
615.337	9046.27
615.693	8985.94
616.05	8984.13
616.406	9069.32
616.762	9007.63
617.118	8942.1
617.475	9013.51
617.831	9080.4
618.187	9032.49
618.543	9096.67
618.899	9123.11
619.255	9048.31
619.611	9102.09
619.967	9111.36
620.323	9106.38
620.678	9082.88
621.034	9030.91
621.39	9061.41
621.746	9023.45
622.101	9102.77
622.457	9082.43
622.812	9072.71
623.168	9090.11
623.523	9125.37
623.879	9117.23
624.234	8989.78
624.589	9065.71
624.945	9072.94
625.3	9083.11
625.655	9043.56
626.01	9050.34
626.365	8986.61
626.72	9022.09
627.075	8995.65
627.43	9086.95
627.785	9014.64
628.14	9080.4
628.495	9076.78
628.85	9030.91
629.205	8957.01
629.559	9015.77
629.914	8971.7
630.269	9001.3
630.623	9025.48
630.978	8995.2
631.332	8978.93
631.687	8961.98
632.041	8976.67
632.396	8938.25
632.75	8897.58
633.104	8996.78
633.459	8894.41
633.813	8892.15
634.167	8879.72
634.521	8806.96
634.875	8907.52
635.229	8917.46
635.583	8791.59
635.937	8831.36
636.291	8810.12
636.645	8853.74
636.999	8733.51
637.352	8835.66
637.706	8850.12
638.06	8745.26
638.413	8772.16
638.767	8728.99
639.121	8743.68
639.474	8718.37
639.828	8741.65
640.181	8714.53
640.534	8709.79
640.888	8763.57
641.241	8598.38
641.594	8677.47
641.947	8682.44
642.301	8641.99
642.654	8673.4
643.007	8651.93
643.36	8639.96
643.713	8593.18
644.066	8683.57
644.419	8625.72
644.771	8547.53
645.124	8502.33
645.477	8485.84
645.83	8401.77
646.182	8383.01
646.535	8342.11
646.888	8406.52
647.24	8375.56
647.593	8336.69
647.945	8279.06
648.298	8300.98
648.65	8236.13
649.002	8311.38
649.355	8367.2
649.707	8306.18
650.059	8373.07
650.411	8512.05
650.763	8502.78
651.115	8543.46
651.467	8514.08
651.819	8537.81
652.171	8537.13
652.523	8518.38
652.875	8481.77
653.227	8458.04
653.578	8535.78
653.93	8503.91
654.282	8488.1
654.633	8466.63
654.985	8516.34
655.337	8453.29
655.688	8486.29
656.039	8536.46
656.391	8509.11
656.742	8451.71
657.094	8506.85
657.445	8511.15
657.796	8525.84
658.147	8464.37
658.498	8460.98
658.849	8503.46
659.2	8486.06
659.551	8522.67
659.902	8536.91
660.253	8490.13
660.604	8515.21
660.955	8493.07
661.306	8573.74
661.656	8505.27
662.007	8567.87
662.358	8557.7
662.708	8585.49
663.059	8535.1
663.409	8528.09
663.76	8572.84
664.11	8516.34
664.461	8499.62
664.811	8542.56
665.161	8536.23
665.511	8514.31
665.862	8581.2
666.212	8524.25
666.562	8554.76
666.912	8562.22
667.262	8511.37
667.612	8580.75
667.962	8527.42
668.312	8533.52
668.662	8541.43
669.011	8558.6
669.361	8561.31
669.711	8492.84
670.06	8558.83
670.41	8466.18
670.76	8481.09
671.109	8538.94
671.459	8520.64
671.808	8533.07
672.157	8474.09
672.507	8403.13
672.856	8473.63
673.205	8448.1
673.554	8487.87
673.904	8462.11
674.253	8474.76
674.602	8503.46
674.951	8430.47
675.3	8283.58
675.649	8474.54
675.998	8444.71
676.346	8417.59
676.695	8463.24
677.044	8394.77
677.393	8359.96
677.741	8382.11
678.09	8337.82
678.438	8331.26
678.787	8358.38
679.135	8295.33
679.484	8316.35
679.832	8262.79
680.181	8290.14
680.529	8292.17
680.877	8210.36
681.225	8232.06
681.573	8251.04
681.922	8190.7
682.27	8197.71
682.618	8142.34
682.966	8162.23
683.314	8226.41
683.661	8156.13
684.009	8130.82
684.357	8155.45
684.705	8103.25
685.053	8129.46
685.4	8088.33
685.748	8093.98
686.095	8000.65
686.443	8005.62
686.79	7967.43
687.138	7995.45
687.485	7984.83
687.832	7884.5
688.18	7965.4
688.527	7923.14
688.874	7846.98
689.221	7820.99
689.568	7814.44
689.915	7844.5
690.262	7769.7
690.609	7762.69
690.956	7728.12
691.303	7741.22
691.65	7675.24
691.997	7676.82
692.344	7590.94
692.69	7557.5
693.037	7582.58
693.383	7490.83
693.73	7586.88
694.077	7514.56
694.423	7532.64
694.769	7533.32
695.116	7437.28
695.462	7427.11
695.808	7402.25
696.155	7380.55
696.501	7345.08
696.847	7349.82
697.193	7296.04
697.539	7254.46
697.885	7225.98
698.231	7152.76
698.577	7211.07
698.923	7251.07
699.269	7185.31
699.614	7110.73
699.96	7104.4
700.306	7040.22
700.651	6982.37
700.997	6981.47
701.342	7003.84
701.688	6988.7
702.033	6967.46
702.379	6917.74
702.724	6904.86
703.069	6906.44
703.415	6826.67
703.76	6838.65
704.105	6844.98
704.45	6790.97
704.795	6777.41
705.14	6762.27
705.485	6715.04
705.83	6673.45
706.175	6704.64
706.52	6685.43
706.865	6640.46
707.209	6626.45
707.554	6580.58
707.899	6613.34
708.243	6569.5
708.588	6558.2
708.932	6539.45
709.277	6531.99
709.621	6451.99
709.966	6483.85
710.31	6425.1
710.654	6383.29
710.998	6415.16
711.342	6413.8
711.687	6407.7
712.031	6339.9
712.375	6383.97
712.719	6351.66
713.063	6295.61
713.407	6404.08
713.75	6280.47
714.094	6357.3
714.438	6343.07
714.782	6287.48
715.125	6257.19
715.469	6256.74
715.812	6227.36
716.156	6228.04
716.499	6204.09
716.843	6213.35
717.186	6228.72
717.53	6194.37
717.873	6187.82
718.216	6132
718.559	6158.21
718.902	6131.55
719.246	6114.83
719.589	6155.73
719.932	6141.04
720.275	6111.21
720.617	6013.58
720.96	6054.49
721.303	6084.32
721.646	6119.12
721.989	6064.2
722.331	6041.83
722.674	6057.65
723.016	6051.55
723.359	6045.22
723.701	6071.66
724.044	6060.36
724.386	6026.24
724.729	5984.89
725.071	6020.59
725.413	6030.99
725.755	6040.7
726.097	5999.57
726.439	5939.24
726.782	5942.63
727.124	5964.09
727.465	5939.01
727.807	5943.98
728.149	5961.38
728.491	5971.78
728.833	5929.75
729.175	5911.21
729.516	5988.5
729.858	5931.78
730.199	5954.83
730.541	5967.48
730.882	5936.07
731.224	5981.95
731.565	5988.95
731.906	5918.22
732.248	5960.7
732.589	5930.42
732.93	5913.47
733.271	5932.91
733.612	5930.65
733.953	5949.86
734.294	5948.05
734.635	5966.35
734.976	5951.89
735.317	5925.45
735.658	5959.35
735.999	5965
736.339	5930.65
736.68	5959.35
737.021	5990.53
737.361	5952.8
737.702	6020.59
738.042	5960.48
738.383	5918.9
738.723	6000.48
739.063	6006.13
739.404	6039.12
739.744	6038.89
740.084	5995.28
740.424	6048.61
740.764	6057.2
741.104	6085.22
741.444	6057.2
741.784	6081.61
742.124	6071.89
742.464	6102.85
742.804	6117.08
743.143	6105.56
743.483	6167.25
743.823	6171.55
744.162	6149.17
744.502	6247.48
744.841	6189.4
745.181	6275.95
745.52	6268.72
745.86	6367.93
746.199	6317.08
746.538	6395.95
746.877	6465.55
747.216	6474.59
747.556	6497.19
747.895	6590.74
748.234	6524.98
748.573	6570.86
748.911	6655.38
749.25	6710.97
749.589	6743.74
749.928	6803.62
750.267	6915.93
750.605	6936.27
750.944	6976.05
751.283	7023.95
751.621	7172.2
751.96	7170.84
752.298	7374.23
752.636	7411.74
752.975	7472.53
753.313	7518.63
753.651	7684.95
753.989	7757.95
754.327	7842.24
754.666	7914.78
755.004	8079.07
755.342	8253.98
755.679	8294.43
756.017	8415.33
756.355	8632.72
756.693	8654.65
757.031	8867.07
757.368	8941.42
757.706	9117.01
758.044	9189.55
758.381	9328.98
758.719	9526.26
759.056	9734.16
759.394	9952.01
759.731	9934.84
760.068	10101.16
760.405	10243.3
760.743	10437.2
761.08	10618.89
761.417	10735.95
761.754	10955.38
762.091	11095.26
762.428	11176.61
762.765	11337.29
763.102	11594.46
763.438	11700.21
763.775	11979.53
764.112	12131.84
764.449	12353.08
764.785	12437.82
765.122	12594.65
765.458	12770.7
765.795	12959.62
766.131	13068.54
766.467	13153.74
766.804	13423.79
767.14	13499.04
767.476	13691.12
767.812	13788.07
768.148	13944
768.485	14063.32
768.821	14228.96
769.157	14372.91
769.492	14571.55
769.828	14652
770.164	14702.17
770.5	14877.31
770.836	14987.59
771.171	15041.14
771.507	15182.16
771.842	15198.65
772.178	15376.05
772.513	15474.13
772.849	15523.39
773.184	15682.71
773.519	15764.06
773.855	15849.03
774.19	15868.69
774.525	16046.54
774.86	16054
775.195	16203.6
775.53	16219.64
775.865	16117.95
776.2	16202.92
776.535	16270.04
776.87	16397.72
777.205	16385.29
777.539	16430.71
777.874	16582.57
778.209	16510.71
778.543	16496.02
778.878	16569.47
779.212	16569.24
779.547	16669.12
779.881	16738.73
780.215	16723.59
780.55	16787.31
780.884	16720.42
781.218	16868.21
781.552	16788.67
781.886	16849.46
782.22	16792.28
782.554	16833.19
782.888	16764.94
783.222	16795.45
783.556	16780.99
783.889	16834.32
784.223	16778.5
784.557	16711.38
784.89	16770.14
785.224	16773.53
785.557	16763.81
785.891	16733.53
786.224	16785.73
786.558	16799.97
786.891	16658.28
787.224	16773.3
787.557	16728.56
787.891	16694.66
788.224	16739.86
788.557	16772.17
788.89	16697.6
789.223	16761.55
789.556	16675
789.888	16643.14
790.221	16576.47
790.554	16469.36
790.887	16600.2
791.219	16439.75
791.552	16513.42
791.884	16393.42
792.217	16439.53
792.549	16551.16
792.882	16299.87
793.214	16317.49
793.546	16336.93
793.879	16322.47
794.211	16292.86
794.543	16314.56
794.875	16164.73
795.207	16229.14
795.539	16256.48
795.871	16083.15
796.203	16084.05
796.535	16058.97
796.867	16072.08
797.198	16037.5
797.53	15979.65
797.862	15942.36
798.193	15916.6
798.525	15777.17
798.856	15915.02
799.188	15731.52
799.519	15704.4
799.85	15632.54
800.182	15653.11
800.513	15728.13
800.844	15712.31
801.175	15673.44
801.506	15540.34
801.837	15510.06
802.168	15570.85
802.499	15489.49
802.83	15442.72
803.161	15468.48
803.491	15405.88
803.822	15370.17
804.153	15394.36
804.483	15309.16
804.814	15255.6
805.145	15230.52
805.475	15203.63
805.805	15196.17
806.136	15119.56
806.466	15205.89
806.796	15151.42
807.126	14977.42
807.457	15037.3
807.787	15027.36
808.117	14990.75
808.447	14866.23
808.777	14951.88
809.107	14841.15
809.436	14699.91
809.766	14765.22
810.096	14785.33
810.426	14745.33
810.755	14751.43
811.085	14745.33
811.414	14754.6
811.744	14548.5
812.073	14578.56
812.403	14552.8
812.732	14489.97
813.061	14564.55
813.39	14509.41
813.719	14351.44
814.049	14432.35
814.378	14405
814.707	14333.82
815.036	14405
815.365	14316.87
815.693	14197.55
816.022	14204.56
816.351	14122.75
816.68	14073.03
817.008	14192.35
817.337	14111.68
817.665	14007.27
817.994	14045.24
818.322	13992.36
818.651	13943.09
818.979	13879.59
819.307	13990.78
819.636	13966.14
819.964	13872.59
820.292	13999.82
820.62	13898.58
820.948	13824.23
821.276	13903.77
821.604	13876.88
821.932	13899.03
822.259	13922.3
822.587	13892.25
822.915	13813.83
823.243	13851.8
823.57	13784.45
823.898	13942.19
824.225	13844.34
824.553	13905.58
824.88	13842.76
825.207	13873.94
825.535	13904
825.862	13827.16
826.189	13853.6
826.516	13823.32
826.843	13906.71
827.17	13868.07
827.497	13935.64
827.824	13959.82
828.151	13984
828.478	13830.1
828.805	13969.08
829.131	13889.76
829.458	13853.83
829.785	13867.84
830.111	13802.98
830.438	13983.09
830.764	13958.91
831.09	13894.51
831.417	13947.61
831.743	13926.15
832.069	13937.44
832.395	13839.59
832.722	13850.89
833.048	13883.43
833.374	13836.66
833.7	13768.64
834.026	13805.02
834.351	13839.37
834.677	13791.23
835.003	13841.85
835.329	13812.02
835.654	13799.37
835.98	13751.46
836.306	13777.22
836.631	13675.08
836.956	13722.31
837.282	13735.87
837.607	13661.75
837.932	13662.88
838.258	13709.43
838.583	13722.99
838.908	13588.75
839.233	13555.99
839.558	13648.64
839.883	13534.52
840.208	13443.22
840.533	13512.82
840.858	13420.85
841.182	13453.16
841.507	13455.2
841.832	13312.83
842.156	13434.18
842.481	13391.7
842.805	13295.65
843.13	13285.71
843.454	13253.17
843.778	13233.28
844.103	13215.43
844.427	13207.29
844.751	13173.4
845.075	13105.6
845.399	13127.3
845.723	13060.86
846.047	12943.57
846.371	12910.8
846.695	12942.89
847.019	12868.09
847.343	12758.94
847.666	12694.31
847.99	12661.32
848.313	12610.93
848.637	12691.6
848.96	12552.17
849.284	12540.87
849.607	12497.71
849.931	12458.16
850.254	12284.83
850.577	12286.19
850.9	12188.34
851.223	12180.88
851.546	12038.06
851.869	12002.81
852.192	12046.87
852.515	11874.67
852.838	11911.28
853.161	11880.32
853.483	11828.57
853.806	11743.15
854.129	11796.94
854.451	11736.37
854.774	11667.22
855.096	11648.92
855.419	11639.43
855.741	11581.8
856.063	11516.94
856.385	11490.95
856.708	11430.39
857.03	11417.28
857.352	11391.3
857.674	11360.34
857.996	11375.25
858.318	11273.56
858.64	11313.78
858.961	11218.19
859.283	11196.05
859.605	11095.71
859.926	11213.67
860.248	11147.24
860.57	11088.71
860.891	11096.84
861.212	11063.17
861.534	11049.38
861.855	11042.15
862.176	10998.09
862.498	10989.05
862.819	10882.16
863.14	10896.62
863.461	10929.39
863.782	10908.37
864.103	10881.03
864.424	10838.99
864.745	10802.61
865.065	10880.8
865.386	10751.77
865.707	10795.38
866.027	10827.24
866.348	10726
866.668	10780.69
866.989	10742.95
867.309	10635.84
867.63	10662.28
867.95	10670.41
868.27	10612.33
868.59	10605.1
868.91	10572.56
869.23	10574.37
869.55	10582.28
869.87	10576.18
870.19	10570.98
870.51	10613.69
870.83	10548.61
871.15	10406.46
871.469	10449.63
871.789	10440.59
872.109	10459.34
872.428	10366.46
872.748	10358.33
873.067	10399.23
873.386	10349.29
873.706	10354.94
874.025	10314.26
874.344	10254.6
874.663	10267.48
874.982	10309.29
875.301	10219.12
875.62	10253.7
875.939	10244.66
876.258	10166.7
876.577	10227.03
876.896	10270.2
877.214	10090.09
877.533	10178.22
877.852	10133.25
878.17	10134.61
878.489	10135.06
878.807	10077.66
879.125	10038.34
879.444	10115.17
879.762	10060.48
880.08	10003.99
880.398	9982.75
880.716	9969.41
881.034	9922.63
881.352	9932.8
881.67	9886.25
881.988	9909.08
882.306	9917.44
882.624	9865.91
882.941	9771.68
883.259	9772.13
883.577	9722.41
883.894	9800.38
884.212	9733.94
884.529	9701.62
884.846	9704.34
885.164	9619.14
885.481	9681.06
885.798	9700.27
886.115	9598.58
886.432	9544.79
886.75	9530.33
887.067	9564.23
887.383	9516.77
887.7	9472.25
888.017	9425.02
888.334	9489.88
888.651	9404.23
888.967	9402.87
889.284	9330.11
889.6	9345.02
889.917	9288.53
890.233	9302.76
890.55	9232.26
890.866	9282.43
891.182	9204.24
891.498	9251.47
891.815	9142.77
892.131	9111.36
892.447	9142.77
892.763	9093.28
893.079	9070.91
893.395	9039.72
893.71	9019.16
894.026	8950.46
894.342	8921.53
894.657	8907.75
894.973	8891.25
895.289	8827.3
895.604	8867.07
895.92	8755.21
896.235	8695.32
896.55	8686.51
896.865	8728.99
897.181	8665.04
897.496	8684.02
897.811	8586.4
898.126	8585.27
898.441	8529.9
898.756	8580.75
899.071	8486.51
899.386	8434.09
899.7	8350.47
900.015	8297.14
900.33	8279.74
900.644	8253.53
900.959	8378.95
901.273	8303.02
901.588	8291.72
901.902	8214.2
902.216	8175.56
902.531	8161.78
902.845	8099.41
903.159	8130.59
903.473	8070.25
903.787	7986.87
904.101	7982.35
904.415	7987.09
904.729	7915.23
905.042	7922.01
905.356	7853.54
905.67	7886.3
905.984	7791.39
906.297	7790.26
906.611	7740.32
906.924	7735.12
907.237	7719.53
907.551	7692.41
907.864	7555.69
908.177	7606.99
908.491	7558.63
908.804	7564.96
909.117	7464.85
909.43	7435.69
909.743	7368.58
910.056	7405.41
910.368	7398.18
910.681	7336.49
910.994	7345.08
911.307	7311.18
911.619	7246.32
911.932	7244.06
912.244	7201.58
912.557	7135.36
912.869	7106.89
913.181	7100.56
913.494	7038.19
913.806	7015.37
914.118	7014.46
914.43	7000.68
914.742	6962.71
915.054	6940.11
915.366	6881.36
915.678	6863.05
915.99	6851.75
916.302	6789.16
916.613	6794.36
916.925	6756.39
917.236	6803.17
917.548	6680.69
917.859	6675.04
918.171	6670.06
918.482	6665.55
918.794	6571.08
919.105	6565.21
919.416	6548.03
919.727	6574.7
920.038	6496.51
920.349	6452.44
920.66	6455.83
920.971	6421.03
921.282	6393.69
921.593	6328.38
921.903	6357.76
922.214	6381.48
922.525	6281.37
922.835	6260.58
923.146	6252.22
923.456	6182.62
923.767	6150.98
924.077	6213.35
924.387	6141.27
924.697	6104.43
925.008	6115.05
925.318	6065.33
925.628	6030.31
925.938	6041.61
926.248	5931.78
926.558	5980.14
926.867	5947.15
927.177	5903.98
927.487	5943.53
927.796	5851.78
928.106	5892.01
928.416	5845
928.725	5816.08
929.034	5830.09
929.344	5775.4
929.653	5742.41
929.962	5689.53
930.271	5694.72
930.581	5666.7
930.89	5629.87
931.199	5593.93
931.508	5621.28
931.817	5572.24
932.125	5609.08
932.434	5567.04
932.743	5471.45
933.051	5484.56
933.36	5464.45
933.669	5428.74
933.977	5474.62
934.286	5423.77
934.594	5358.69
934.902	5313.72
935.21	5323.89
935.519	5300.38
935.827	5294.06
936.135	5286.82
936.443	5245.7
936.751	5250.22
937.059	5230.1
937.367	5165.47
937.674	5160.73
937.982	5109.65
938.29	5139.26
938.597	5110.33
938.905	5062.88
939.213	5062.65
939.52	4989.88
939.827	5024.46
940.135	4993.95
940.442	4956.66
940.749	4975.87
941.056	4950.56
941.363	4902.2
941.67	4856.55
941.977	4881.86
942.284	4792.83
942.591	4860.85
942.898	4837.57
943.205	4761.64
943.511	4789.21
943.818	4771.81
944.125	4722.09
944.431	4746.27
944.738	4650.68
945.044	4667.18
945.35	4607.29
945.657	4643.9
945.963	4586.96
946.269	4575.66
946.575	4530.69
946.881	4539.73
947.187	4561.19
947.493	4473.06
947.799	4447.07
948.105	4473.51
948.41	4471.93
948.716	4372.5
949.022	4405.94
949.327	4399.39
949.633	4370.24
949.938	4318.71
950.244	4316.23
950.549	4309.9
950.854	4280.52
951.16	4257.7
951.465	4261.77
951.77	4200.53
952.075	4254.31
952.38	4208.43
952.685	4161.2
952.99	4171.83
953.294	4215.44
953.599	4116.46
953.904	4106.74
954.209	4107.42
954.513	4099.06
954.818	4021.32
955.122	4050.02
955.426	4038.04
955.731	4046.4
956.035	3969.12
956.339	4000.53
956.643	3976.12
956.948	3915.11
957.252	3904.94
957.556	3917.14
957.86	3903.13
958.163	3857.48
958.467	3841.44
958.771	3841.21
959.075	3800.76
959.378	3821.55
959.682	3843.92
959.985	3795.56
960.289	3736.58
960.592	3785.39
960.896	3751.05
961.199	3670.37
961.502	3671.5
961.805	3673.31
962.108	3638.96
962.411	3667.21
962.714	3631.27
963.017	3628.11
963.32	3634.66
963.623	3590.37
963.926	3579.98
964.228	3531.16
964.531	3523.93
964.833	3543.59
965.136	3508.57
965.438	3500.2
965.741	3455.23
966.043	3512.86
966.345	3460.43
966.648	3478.28
966.95	3414.78
967.252	3416.82
967.554	3405.52
967.856	3395.57
968.158	3354.22
968.46	3382.24
968.761	3339.98
969.063	3298.4
969.365	3269.25
969.666	3313.09
969.968	3267.89
970.269	3237.84
970.571	3266.76
970.872	3234.9
971.174	3215.47
971.475	3225.18
971.776	3201.46
972.077	3196.71
972.378	3190.83
972.679	3148.35
972.98	3166.65
973.281	3121.46
973.582	3145.86
973.883	3087.33
974.183	3060.89
974.484	3073.32
974.785	3067.45
975.085	3082.81
975.386	3012.08
975.686	3021.8
975.986	2970.5
976.287	2986.55
976.587	2951.74
976.887	2954.46
977.187	2958.07
977.487	2930.28
977.787	2949.03
978.087	2911.75
978.387	2921.24
978.687	2897.06
978.987	2908.13
979.286	2886.21
979.586	2824.74
979.885	2829.26
980.185	2814.8
980.484	2806.21
980.784	2769.38
981.083	2802.6
981.382	2765.76
981.682	2756.5
981.981	2720.34
982.28	2747.23
982.579	2709.94
982.878	2743.39
983.177	2715.59
983.475	2703.16
983.774	2668.59
984.073	2659.32
984.372	2650.51
984.67	2633.56
984.969	2639.21
985.267	2620.68
985.566	2602.15
985.864	2596.5
986.162	2579.55
986.461	2561.7
986.759	2577.29
987.057	2556.95
987.355	2573.45
987.653	2534.35
987.951	2539.55
988.249	2523.73
988.547	2509.04
988.844	2490.06
989.142	2466.11
989.44	2457.07
989.737	2454.36
990.035	2411.42
990.332	2425.2
990.63	2418.88
990.927	2422.49
991.224	2384.98
991.521	2401.25
991.819	2367.13
992.116	2402.15
992.413	2375.04
992.71	2322.83
993.006	2340.24
993.303	2290.07
993.6	2310.63
993.897	2312.44
994.193	2291.65
994.49	2308.15
994.787	2255.94
995.083	2230.18
995.379	2224.53
995.676	2245.32
995.972	2206.68
996.268	2188.6
996.565	2215.72
996.861	2210.97
997.157	2177.53
997.453	2159.9
997.749	2178.21
998.044	2120.81
998.34	2136.85
998.636	2131.65
998.932	2129.39
999.227	2116.74
999.523	2082.84
999.818	2062.05
1000.114	2043.97
1000.409	2027.02
1000.704	2022.05
1001	2030.19
1001.295	2015.5
1001.59	2015.05
1001.885	1957.65
1002.18	2017.53
1002.475	1953.13
1002.77	1968.72
1003.065	1963.3
1003.359	1941.15
1003.654	1921.26
1003.949	1930.75
1004.243	1912.22
1004.538	1894.15
1004.832	1882.62
1005.127	1902.51
1005.421	1873.13
1005.715	1880.13
1006.009	1874.48
1006.304	1857.31
1006.598	1862.73
1006.892	1849.85
1007.186	1806.46
1007.48	1796.07
1007.773	1792
1008.067	1804.2
1008.361	1763.98
1008.655	1749.52
1008.948	1764.66
1009.242	1748.16
1009.535	1720.82
1009.829	1727.37
1010.122	1699.57
1010.415	1742.51
1010.708	1700.03
1011.001	1667.48
1011.295	1670.42
1011.588	1660.48
1011.881	1641.5
1012.173	1650.99
1012.466	1641.72
1012.759	1662.06
1013.052	1608.05
1013.344	1612.12
1013.637	1592.23
1013.93	1594.04
1014.222	1604.66
1014.514	1567.6
1014.807	1562.63
1015.099	1533.7
1015.391	1538
1015.683	1551.78
1015.976	1526.25
1016.268	1542.97
1016.56	1511.33
1016.851	1479.92
1017.143	1472.91
1017.435	1448.73
1017.727	1476.98
1018.018	1464.33
1018.31	1476.53
1018.602	1424.33
1018.893	1431.78
1019.185	1420.49
1019.476	1413.03
1019.767	1419.58
1020.058	1401.95
1020.35	1365.12
1020.641	1366.25
1020.932	1354.5
1021.223	1374.38
1021.514	1355.18
1021.804	1337.32
1022.095	1380.94
1022.386	1319.24
1022.677	1323.99
1022.967	1309.75
1023.258	1293.93
1023.548	1295.06
1023.839	1288.96
1024.129	1262.3
1024.419	1272.01
1024.709	1279.92
1025	1254.16
1025.29	1249.42
1025.58	1240.83
1025.87	1239.02
1026.16	1237.67
1026.449	1234.05
1026.739	1202.41
1027.029	1209.19
1027.319	1211
1027.608	1173.71
1027.898	1175.07
1028.187	1166.25
1028.477	1176.88
1028.766	1155.18
1029.055	1139.36
1029.344	1141.17
1029.634	1132.36
1029.923	1121.51
1030.212	1122.87
1030.501	1106.6
1030.79	1069.08
1031.078	1085.35
1031.367	1093.49
1031.656	1102.53
1031.945	1083.77
1032.233	1053.49
1032.522	1059.14
1032.81	1060.49
1033.099	1022.53
1033.387	1040.61
1033.675	1059.59
1033.963	1057.1
1034.251	1033.6
1034.54	1017.56
1034.828	1004
1035.116	1004
1035.403	967.62
1035.691	999.93
1035.979	982.08
1036.267	986.6
1036.554	970.33
1036.842	967.84
1037.129	993.6
1037.417	952.02
1037.704	955.19
1037.992	946.6
1038.279	943.21
1038.566	907.05
1038.853	907.05
1039.14	907.05
