Data from hue_130_FLMS001491_00074.txt Node
Date: Tue Feb 07 16:58:04 GMT 2017
User: dcchb
Spectrometer: FLMS00149
Trigger mode: 0
Integration Time (sec): 2.000000E-2
Scans to average: 10
Electric dark correction enabled: true
Nonlinearity correction enabled: false
Boxcar width: 0
XAxis mode: Wavelengths
Number of Pixels in Spectrum: 2048
>>>>>Begin Spectral Data<<<<<
341.393	-2.91
341.776	-2.91
342.16	-2.91
342.543	-60.54
342.927	-68.22
343.31	-73.19
343.693	-72.51
344.077	-48.11
344.46	-63.47
344.843	-46.52
345.226	-67.99
345.61	-23.7
345.993	-11.5
346.376	10.65
346.759	15.62
347.142	4.77
347.525	32.8
347.908	65.34
348.291	80.48
348.674	92.46
349.057	104.88
349.44	132.23
349.823	143.08
350.206	162.51
350.588	190.98
350.971	200.02
351.354	214.03
351.737	236.63
352.119	246.12
352.502	256.97
352.884	272.34
353.267	269.17
353.65	300.59
354.032	301.04
354.414	303.07
354.797	311.43
355.179	317.76
355.562	321.83
355.944	312.79
356.326	333.58
356.709	336.52
357.091	356.18
357.473	328.83
357.855	347.82
358.238	325.9
358.62	346.91
359.002	334.03
359.384	343.07
359.766	344.43
360.148	345.33
360.53	346.69
360.912	353.47
361.294	324.09
361.676	315.05
362.057	337.87
362.439	332.45
362.821	330.42
363.203	335.39
363.584	310.08
363.966	335.16
364.348	309.62
364.729	318.21
365.111	326.12
365.493	310.53
365.874	322.96
366.256	300.59
366.637	315.95
367.019	308.72
367.4	308.49
367.781	299.68
368.163	302.17
368.544	316.86
368.925	323.18
369.306	305.56
369.688	317.31
370.069	312.34
370.45	315.27
370.831	319.79
371.212	311.88
371.593	300.81
371.974	313.01
372.355	314.82
372.736	341.71
373.117	308.27
373.498	307.82
373.879	304.65
374.26	321.6
374.641	317.53
375.021	321.83
375.402	324.77
375.783	340.58
376.163	318.66
376.544	311.66
376.925	318.89
377.305	333.13
377.686	335.16
378.066	325.44
378.447	332.22
378.827	350.98
379.208	332.9
379.588	321.38
379.968	327.25
380.349	334.03
380.729	332
381.109	332.9
381.489	335.16
381.87	336.06
382.25	330.42
382.63	344.2
383.01	330.19
383.39	324.99
383.77	342.62
384.15	357.08
384.53	366.12
384.91	336.29
385.29	343.97
385.67	346.69
386.049	349.4
386.429	354.14
386.809	346.69
387.189	359.34
387.568	338.78
387.948	345.78
388.328	350.98
388.707	367.7
389.087	370.87
389.466	349.62
389.846	357.76
390.225	348.49
390.605	359.11
390.984	367.02
391.363	379.68
391.743	362.5
392.122	354.6
392.501	363.63
392.881	367.48
393.26	360.7
393.639	368.38
394.018	366.57
394.397	367.93
394.776	374.48
395.155	376.97
395.534	387.36
395.913	381.49
396.292	395.95
396.671	371.32
397.05	381.94
397.429	378.1
397.808	402.28
398.186	389.17
398.565	387.14
398.944	376.52
399.323	391.2
399.701	380.58
400.08	396.18
400.458	408.38
400.837	411.99
401.215	416.74
401.594	398.44
401.972	395.72
402.351	412.22
402.729	403.18
403.107	411.09
403.486	404.54
403.864	404.99
404.242	400.7
404.62	424.42
404.999	405.22
405.377	415.38
405.755	418.77
406.133	416.06
406.511	433.92
406.889	438.89
407.267	424.42
407.645	424.2
408.023	431.43
408.401	419.68
408.779	418.1
409.156	423.75
409.534	450.41
409.912	432.11
410.29	465.55
410.667	464.65
411.045	441.37
411.422	442.05
411.8	466.46
412.178	485.89
412.555	469.62
412.933	475.04
413.31	471.2
413.687	471.2
414.065	455.38
414.442	468.72
414.819	488.15
415.197	489.73
415.574	499.68
415.951	475.72
416.328	498.32
416.705	504.65
417.082	497.87
417.46	484.08
417.837	508.49
418.214	493.12
418.591	512.33
418.967	523.18
419.344	512.78
419.721	502.61
420.098	520.69
420.475	509.17
420.852	523.86
421.228	514.82
421.605	513.24
421.982	516.4
422.358	536.74
422.735	526.34
423.111	544.42
423.488	514.37
423.864	559.34
424.241	548.94
424.617	556.4
424.994	544.65
425.37	557.3
425.746	555.27
426.123	577.41
426.499	592.33
426.875	580.13
427.251	571.99
427.627	565.66
428.003	605.89
428.379	595.94
428.756	594.36
429.132	592.56
429.507	610.63
429.883	609.28
430.259	615.38
430.635	601.82
431.011	603.85
431.387	622.84
431.763	634.36
432.138	636.4
432.514	644.98
432.89	649.95
433.265	659.67
433.641	675.94
434.016	655.15
434.392	642.95
434.767	676.85
435.143	670.75
435.518	687.02
435.894	695.15
436.269	688.37
436.644	696.96
437.02	692.21
437.395	702.61
437.77	721.14
438.145	721.82
438.52	721.59
438.895	753.23
439.271	722.72
439.646	742.38
440.021	739.44
440.395	754.36
440.77	755.26
441.145	755.04
441.52	787.58
441.895	762.27
442.27	774.92
442.645	779.22
443.019	795.49
443.394	773.57
443.769	792.55
444.143	795.71
444.518	798.2
444.892	817.18
445.267	795.71
445.641	834.58
446.016	806.56
446.39	825.54
446.764	821.25
447.139	845.66
447.513	833.9
447.887	842.04
448.262	840.01
448.636	824.87
449.01	878.42
449.384	857.18
449.758	878.88
450.132	891.53
450.506	886.78
450.88	887.91
451.254	895.6
451.628	907.12
452.002	918.65
452.376	914.13
452.75	922.26
453.123	902.38
453.497	928.82
453.871	964.3
454.244	960.68
454.618	981.7
454.992	978.31
455.365	980.57
455.739	987.35
456.112	1034.58
456.486	1031.19
456.859	1044.97
457.232	1047.91
457.606	1052.2
457.979	1044.29
458.352	1097.85
458.725	1110.28
459.099	1094.24
459.472	1127.68
459.845	1118.19
460.218	1143.5
460.591	1134.01
460.964	1141.02
461.337	1171.52
461.71	1187.57
462.083	1210.39
462.456	1212.2
462.829	1235.25
463.201	1241.13
463.574	1230.73
463.947	1273.44
464.32	1275.25
464.692	1301.24
465.065	1319.54
465.438	1363.83
465.81	1340.33
466.183	1379.2
466.555	1404.96
466.928	1399.54
467.3	1435.7
467.672	1462.59
468.045	1481.8
468.417	1516.82
468.789	1527.22
469.161	1560.44
469.534	1602.7
469.906	1597.5
470.278	1621
470.65	1689.02
471.022	1690.61
471.394	1727.89
471.766	1743.71
472.138	1786.42
472.51	1813.99
472.882	1850.83
473.253	1882.01
473.625	1937.15
473.997	1973.08
474.369	1986.42
474.74	2032.52
475.112	2101.67
475.484	2155.45
475.855	2205.85
476.227	2233.19
476.598	2285.39
476.97	2334.43
477.341	2450.59
477.713	2498.04
478.084	2557.02
478.455	2629.11
478.827	2635.89
479.198	2770.12
479.569	2790.69
479.94	2895.77
480.311	2958.14
480.682	3038.37
481.053	3131.25
481.424	3247.17
481.795	3306.38
482.166	3377.34
482.537	3453.04
482.908	3632.93
483.279	3651.68
483.65	3771.68
484.021	3865.46
484.391	3946.59
484.762	4052.58
485.133	4154.27
485.503	4294.15
485.874	4429.52
486.244	4508.61
486.615	4589.74
486.985	4707.25
487.356	4853.46
487.726	4980.46
488.097	5102.27
488.467	5184.98
488.837	5350.4
489.207	5398.76
489.578	5659.31
489.948	5742.7
490.318	5889.82
490.688	5948.12
491.058	6100.88
491.428	6210.03
491.798	6351.5
492.168	6542.91
492.538	6588.56
492.908	6726.41
493.278	6886.17
493.648	6937.25
494.017	7097.69
494.387	7247.3
494.757	7381.98
495.126	7523.22
495.496	7562.77
495.866	7671.46
496.235	7835.3
496.605	7946.71
496.974	8132.47
497.344	8172.92
497.713	8239.13
498.082	8378.11
498.452	8477.77
498.821	8646.13
499.19	8698.33
499.559	8840.7
499.928	8906.23
500.298	9029.85
500.667	9149.39
501.036	9161.14
501.405	9275.49
501.774	9330.18
502.143	9486.11
502.512	9542.83
502.88	9712.32
503.249	9728.36
503.618	9803.61
503.987	9846.32
504.356	9965.19
504.724	10055.58
505.093	10129.93
505.462	10131.74
505.83	10216.71
506.199	10378.29
506.567	10488.57
506.936	10391.39
507.304	10574.89
507.672	10566.53
508.041	10677.94
508.409	10729.46
508.777	10842.68
509.145	10991.83
509.514	10997.48
509.882	11044.71
510.25	11079.06
510.618	11133.07
510.986	11124.93
511.354	11272.5
511.722	11365.15
512.09	11422.78
512.458	11361.54
512.826	11558.37
513.193	11455.77
513.561	11622.1
513.929	11642.89
514.297	11631.59
514.664	11712.04
515.032	11728.76
515.4	11877.23
515.767	11789.77
516.135	11928.75
516.502	11813.05
516.869	11962.2
517.237	11979.15
517.604	11978.92
517.972	12045.36
518.339	12193.15
518.706	12157.9
519.073	12175.3
519.44	12155.19
519.808	12301.85
520.175	12237.45
520.542	12368.97
520.909	12393.6
521.276	12367.61
521.643	12479.47
522.009	12396.09
522.376	12474.73
522.743	12547.49
523.11	12603.99
523.477	12655.29
523.843	12764.89
524.21	12744.78
524.577	12788.39
524.943	12758.79
525.31	12795.4
525.676	12857.09
526.043	12879.69
526.409	12839.24
526.776	12983.19
527.142	12991.1
527.508	12930.76
527.874	13033.13
528.241	12955.39
528.607	13018.89
528.973	13067.26
529.339	13009.86
529.705	13128.04
530.071	13085.11
530.437	13172.56
530.803	13064.77
531.169	13075.84
531.535	13106.8
531.901	13138.67
532.267	13053.02
532.632	13130.3
532.998	13151.55
533.364	13124.2
533.73	13056.86
534.095	13154.71
534.461	13099.34
534.826	13104.32
535.192	13058.44
535.557	13082.85
535.923	13083.75
536.288	13043.75
536.653	13012.57
537.019	12980.25
537.384	13057.09
537.749	12950.87
538.114	12940.03
538.479	12816.41
538.845	12896.41
539.21	12858.67
539.575	12808.05
539.94	12861.84
540.305	12837.88
540.67	12809.18
541.034	12717.21
541.399	12726.25
541.764	12619.58
542.129	12666.81
542.494	12647.38
542.858	12619.36
543.223	12531.68
543.587	12633.14
543.952	12586.14
544.316	12531.45
544.681	12492.13
545.045	12468.4
545.41	12506.59
545.774	12469.08
546.138	12289.42
546.503	12345.24
546.867	12293.26
547.231	12320.61
547.595	12291
547.959	12270.67
548.324	12239.25
548.688	12151.35
549.052	12116.32
549.416	12163.32
549.779	12045.59
550.143	12079.48
550.507	12095.3
550.871	12002.65
551.235	11936.89
551.599	12095.76
551.962	11936.66
552.326	11877.46
552.689	11945.93
553.053	11864.35
553.417	11792.26
553.78	11908.42
554.143	11769.66
554.507	11728.99
554.87	11824.8
555.234	11833.84
555.597	11706.84
555.96	11722.66
556.323	11803.11
556.686	11655.77
557.05	11768.98
557.413	11691.47
557.776	11632.72
558.139	11691.7
558.502	11662.32
558.865	11656.67
559.228	11724.24
559.59	11677.91
559.953	11674.3
560.316	11695.31
560.679	11736.44
561.041	11689.21
561.404	11709.78
561.767	11712.26
562.129	11643.79
562.492	11757.01
562.854	11661.19
563.217	11698.7
563.579	11642.21
563.941	11735.76
564.304	11726.27
564.666	11732.6
565.028	11788.42
565.39	11786.84
565.753	11791.81
566.115	11739.38
566.477	11733.73
566.839	11788.19
567.201	11857.34
567.563	11839.04
567.925	11809.44
568.287	11828.87
568.648	11892.82
569.01	11852.82
569.372	11843.78
569.734	11879.72
570.095	11895.53
570.457	11941.18
570.819	11961.75
571.18	11908.19
571.542	11938.25
571.903	11962.65
572.265	11937.79
572.626	11969.88
572.987	12030.67
573.349	12039.03
573.71	11942.31
574.071	12012.59
574.432	11969.66
574.794	12100.05
575.155	12111.35
575.516	11963.56
575.877	12067.51
576.238	12112.25
576.599	12076.55
576.96	12046.72
577.32	12062.99
577.681	12067.96
578.042	12086.72
578.403	12080.39
578.763	11983.67
579.124	12013.72
579.485	12100.28
579.845	12130.78
580.206	12064.57
580.566	12063.44
580.927	12121.97
581.287	12091.91
581.648	12033.61
582.008	12095.08
582.368	11981.41
582.728	12035.42
583.089	12152.25
583.449	12060.05
583.809	12095.53
584.169	12113.61
584.529	12076.55
584.889	12098.24
585.249	12001.97
585.609	11984.8
585.969	12028.41
586.329	12026.15
586.688	11990.45
587.048	12042.42
587.408	11945.02
587.768	11934.4
588.127	11882.43
588.487	11953.39
588.846	11982.31
589.206	11910.45
589.565	11899.38
589.925	11945.7
590.284	11877.91
590.643	11921.52
591.003	11977.34
591.362	11961.75
591.721	11848.76
592.08	11926.27
592.44	11868.42
592.799	11870.9
593.158	11814.86
593.517	11808.53
593.876	11869.77
594.235	11864.35
594.593	11927.17
594.952	11842.88
595.311	11786.61
595.67	11854.63
596.029	11860.06
596.387	11825.03
596.746	11894.86
597.104	11805.37
597.463	11800.17
597.822	11851.02
598.18	11814.41
598.538	11768.31
598.897	11792.71
599.255	11725.14
599.613	11862.77
599.972	11824.35
600.33	11738.25
600.688	11790.9
601.046	11782.54
601.404	11811.92
601.762	11831.36
602.12	11832.26
602.478	11823.22
602.836	11781.64
603.194	11792.26
603.552	11762.2
603.91	11731.7
604.268	11766.05
604.625	11763.79
604.983	11755.2
605.341	11725.37
605.698	11813.05
606.056	11821.64
606.413	11841.75
606.771	11808.98
607.128	11855.31
607.485	11825.25
607.843	11716.78
608.2	11824.8
608.557	11837.91
608.914	11812.37
609.272	11873.61
609.629	11932.6
609.986	11898.02
610.343	11902.09
610.7	12024.57
611.057	11853.05
611.414	11874.07
611.771	11831.36
612.127	11892.6
612.484	11939.83
612.841	11937.34
613.198	11927.4
613.554	11853.73
613.911	11950
614.267	11977.34
614.624	11965.82
614.98	12008.53
615.337	12066.38
615.693	12022.31
616.05	11957
616.406	11994.74
616.762	11984.57
617.118	12003.33
617.475	12048.3
617.831	12046.04
618.187	12119.03
618.543	12047.4
618.899	12196.09
619.255	12161.52
619.611	12114.74
619.967	12088.98
620.323	12187.5
620.678	12174.4
621.034	12043.55
621.39	12136.43
621.746	12105.02
622.101	12166.71
622.457	12098.69
622.812	12143.66
623.168	12184.57
623.523	12135.75
623.879	12192.25
624.234	12116.55
624.589	12215.53
624.945	12151.8
625.3	12137.34
625.655	12093.27
626.01	12037.23
626.365	12079.26
626.72	12084.68
627.075	12050.78
627.43	12128.07
627.785	12081.97
628.14	12039.26
628.495	12075.19
628.85	12097.56
629.205	12058.47
629.559	12127.84
629.914	12052.37
630.269	12050.56
630.623	12064.57
630.978	11962.43
631.332	11978.92
631.687	12054.63
632.041	11980.96
632.396	12002.65
632.75	11950.22
633.104	12026.38
633.459	11884.24
633.813	11914.07
634.167	11911.35
634.521	11961.75
634.875	11966.72
635.229	11885.37
635.583	11870
635.937	11888.3
636.291	11832.94
636.645	11872.94
636.999	11865.25
637.352	11898.7
637.706	11732.15
638.06	11710.23
638.413	11806.27
638.767	11742.54
639.121	11751.81
639.474	11686.95
639.828	11681.08
640.181	11738.25
640.534	11680.63
640.888	11628.88
641.241	11632.72
641.594	11620.97
641.947	11689.44
642.301	11575.09
642.654	11627.07
643.007	11633.39
643.36	11641.3
643.713	11617.58
644.066	11614.64
644.419	11505.94
644.771	11502.1
645.124	11416.45
645.477	11339.17
645.83	11312.73
646.182	11217.59
646.535	11244.48
646.888	11228.66
647.24	11237.7
647.593	11329.45
647.945	11268.88
648.298	11256.68
648.65	11175.55
649.002	11097.36
649.355	11244.93
649.707	11202.45
650.059	11280.41
650.411	11403.8
650.763	11440.18
651.115	11525.83
651.467	11445.6
651.819	11451.7
652.171	11463.91
652.523	11367.19
652.875	11434.08
653.227	11380.97
653.578	11443.8
653.93	11478.6
654.282	11397.02
654.633	11418.49
654.985	11482.44
655.337	11495.77
655.688	11408.99
656.039	11509.78
656.391	11424.59
656.742	11437.69
657.094	11431.14
657.445	11495.55
657.796	11434.76
658.147	11446.28
658.498	11443.8
658.849	11425.72
659.2	11440.41
659.551	11408.32
659.902	11513.4
660.253	11476.11
660.604	11566.73
660.955	11516.79
661.306	11518.14
661.656	11434.53
662.007	11584.13
662.358	11528.76
662.708	11529.89
663.059	11533.06
663.409	11406.28
663.76	11461.2
664.11	11508.65
664.461	11536.22
664.811	11513.4
665.161	11518.82
665.511	11496.9
665.862	11493.74
666.212	11546.17
666.562	11513.85
666.912	11491.7
667.262	11438.15
667.612	11543.23
667.962	11538.26
668.312	11498.71
668.662	11614.41
669.011	11524.7
669.361	11449.44
669.711	11479.5
670.06	11454.42
670.41	11505.71
670.76	11451.03
671.109	11511.59
671.459	11502.55
671.808	11490.8
672.157	11505.94
672.507	11450.35
672.856	11353.63
673.205	11469.56
673.554	11435.43
673.904	11535.77
674.253	11487.41
674.602	11429.56
674.951	11374.19
675.3	11214.2
675.649	11382.78
675.998	11388.66
676.346	11311.6
676.695	11369.67
677.044	11307.75
677.393	11340.97
677.741	11315.21
678.09	11247.42
678.438	11265.27
678.787	11239.28
679.135	11244.48
679.484	11201.99
679.832	11234.31
680.181	11124.03
680.529	11190.92
680.877	11201.32
681.225	11140.98
681.573	11264.36
681.922	11188.66
682.27	11093.07
682.618	11095.1
682.966	11039.96
683.314	11004.26
683.661	11036.12
684.009	10933.3
684.357	10948.44
684.705	10901.44
685.053	10943.47
685.4	10876.8
685.748	10811.27
686.095	10814.89
686.443	10829.12
686.79	10766.52
687.138	10745.06
687.485	10824.15
687.832	10784.6
688.18	10812.63
688.527	10709.35
688.874	10653.08
689.221	10626.87
689.568	10574.21
689.915	10543.03
690.262	10601.56
690.609	10508.68
690.956	10509.36
691.303	10479.53
691.65	10472.52
691.997	10420.77
692.344	10354.56
692.69	10277.05
693.037	10293.32
693.383	10241.79
693.73	10240.89
694.077	10206.54
694.423	10171.06
694.769	10202.02
695.116	10063.49
695.462	10057.16
695.808	10022.14
696.155	10075.24
696.501	9965.42
696.847	9986.21
697.193	9865.98
697.539	9931.29
697.885	9818.98
698.231	9791.41
698.577	9867.11
698.923	9707.34
699.269	9691.98
699.614	9716.38
699.96	9655.59
700.306	9585.54
700.651	9552.77
700.997	9557.97
701.342	9506.22
701.688	9447.92
702.033	9446.33
702.379	9483.62
702.724	9398.88
703.069	9372.44
703.415	9291.08
703.76	9243.18
704.105	9320.91
704.45	9264.19
704.795	9254.02
705.14	9134.93
705.485	9156.85
705.83	9127.92
706.175	9117.53
706.52	9096.74
706.865	9090.86
707.209	9029.62
707.554	9035.95
707.899	8967.25
708.243	8936.29
708.588	8899.23
708.932	8804.09
709.277	8804.32
709.621	8825.11
709.966	8785.79
710.31	8763.87
710.654	8714.15
710.998	8732.91
711.342	8703.75
711.687	8702.17
712.031	8648.16
712.375	8666.92
712.719	8610.2
713.063	8657.2
713.407	8628.95
713.75	8574.94
714.094	8565.23
714.438	8522.74
714.782	8508.51
715.125	8499.01
715.469	8548.73
715.812	8413.59
716.156	8457.88
716.499	8473.48
716.843	8384.44
717.186	8451.78
717.53	8468.73
717.873	8401.39
718.216	8391.9
718.559	8357.32
718.902	8321.17
719.246	8358.45
719.589	8347.15
719.932	8290.66
720.275	8315.06
720.617	8253.82
720.96	8267.83
721.303	8273.26
721.646	8261.73
721.989	8200.04
722.331	8306.25
722.674	8186.71
723.016	8219.25
723.359	8255.63
723.701	8229.87
724.044	8183.09
724.386	8168.18
724.729	8157.33
725.071	8110.78
725.413	8165.92
725.755	8178.57
726.097	8204.78
726.439	8133.37
726.782	8127.72
727.124	8169.98
727.465	8113.49
727.807	8148.06
728.149	8086.37
728.491	8057.9
728.833	8103.09
729.175	8078.69
729.516	8047.27
729.858	8065.8
730.199	8115.52
730.541	8076.88
730.882	7984.45
731.224	8047.5
731.565	8012.02
731.906	8065.13
732.248	8070.55
732.589	7962.3
732.93	8002.53
733.271	8063.09
733.612	8083.88
733.953	8064
734.294	8026.26
734.635	7963.21
734.976	8018.35
735.317	7974.51
735.658	8002.53
735.999	8030.55
736.339	8006.82
736.68	8057.22
737.021	8014.96
737.361	7989.2
737.702	7964.34
738.042	8044.79
738.383	8045.47
738.723	8142.41
739.063	8105.35
739.404	8110.32
739.744	8082.98
740.084	8080.27
740.424	8074.17
740.764	8104.45
741.104	8156.65
741.444	8172.47
741.784	8155.97
742.124	8223.99
742.464	8163.43
742.804	8183.54
743.143	8181.51
743.483	8263.77
743.823	8182.19
744.162	8326.14
744.502	8295.18
744.841	8338.34
745.181	8400.03
745.52	8430.09
745.86	8402.29
746.199	8440.94
746.538	8497.88
746.877	8554.61
747.216	8561.84
747.556	8593.02
747.895	8699.46
748.234	8660.82
748.573	8701.72
748.911	8782.4
749.25	8890.64
749.589	8873.47
749.928	9037.98
750.267	9011.77
750.605	9098.55
750.944	9179.9
751.283	9179.9
751.621	9351.65
751.96	9345.55
752.298	9517.74
752.636	9600.91
752.975	9651.98
753.313	9702.6
753.651	9905.53
753.989	9933.33
754.327	10012.42
754.666	10080.44
755.004	10209.7
755.342	10421.22
755.679	10471.17
756.017	10563.59
756.355	10823.92
756.693	10904.83
757.031	11043.35
757.368	11094.2
757.706	11200.19
758.044	11314.08
758.381	11551.81
758.719	11667.97
759.056	11837.01
759.394	11989.09
759.731	12029.77
760.068	12206.03
760.405	12330.1
760.743	12498.68
761.08	12752.69
761.417	12854.61
761.754	12975.28
762.091	13148.16
762.428	13272.22
762.765	13366.68
763.102	13692.55
763.438	13695.04
763.775	13814.81
764.112	14067.68
764.449	14271.97
764.785	14277.17
765.122	14354.68
765.458	14537.5
765.795	14732.07
766.131	14866.53
766.467	14955.57
766.804	15109.01
767.14	15203.92
767.476	15394.2
767.812	15393.75
768.148	15633.74
768.485	15627.87
768.821	15766.62
769.157	15915.32
769.492	16014.52
769.828	16171.35
770.164	16191.69
770.5	16211.81
770.836	16379.48
771.171	16438.69
771.507	16558.24
771.842	16562.98
772.178	16696.99
772.513	16823.54
772.849	16864.9
773.184	16936.76
773.519	17037.09
773.855	16936.98
774.19	17120.93
774.525	17080.94
774.86	17260.82
775.195	17315.28
775.53	17272.79
775.865	17453.13
776.2	17315.73
776.535	17300.36
776.87	17351.66
777.205	17351.21
777.539	17372.9
777.874	17545.56
778.209	17423.52
778.543	17379.68
778.878	17440.7
779.212	17562.5
779.547	17509.4
779.881	17585.1
780.215	17505.56
780.55	17661.26
780.884	17545.1
781.218	17533.35
781.552	17626.01
781.886	17622.16
782.22	17624.2
782.554	17516.4
782.888	17464.2
783.222	17437.08
783.556	17431.89
783.889	17536.29
784.223	17434.82
784.557	17371.55
784.89	17443.86
785.224	17288.61
785.557	17309.86
785.891	17412.45
786.224	17354.6
786.558	17485.9
786.891	17232.57
787.224	17231.44
787.557	17248.84
787.891	17201.84
788.224	17274.38
788.557	17304.21
788.89	17254.26
789.223	17274.83
789.556	17078.45
789.888	17043.42
790.221	17063.31
790.554	16990.32
790.887	16966.81
791.219	16951.67
791.552	16863.77
791.884	16839.59
792.217	16922.75
792.549	16906.02
792.882	16801.17
793.214	16786.71
793.546	16817.67
793.879	16623.09
794.211	16730.44
794.543	16854.05
794.875	16583.32
795.207	16658.12
795.539	16655.41
795.871	16527.73
796.203	16411.35
796.535	16362.99
796.867	16395.76
797.198	16313.05
797.53	16327.73
797.862	16203.9
798.193	16332.03
798.525	16202.09
798.856	16235.53
799.188	16101.98
799.519	15955.31
799.85	15992.6
800.182	15995.09
800.513	15999.61
800.844	15787.86
801.175	16003.22
801.506	15930.23
801.837	15847.07
802.168	15792.61
802.499	15693.17
802.83	15847.07
803.161	15666.96
803.491	15607.75
803.822	15727.98
804.153	15539.05
804.483	15489.56
804.814	15420.19
805.145	15434.88
805.475	15390.36
805.805	15351.94
806.136	15327.53
806.466	15478.04
806.796	15302.68
807.126	15263.13
807.457	15213.87
807.787	15250.7
808.117	15140.42
808.447	15089.35
808.777	15106.75
809.107	15052.29
809.436	14969.58
809.766	14931.84
810.096	14957.38
810.426	14885.06
810.755	14906.75
811.085	14897.94
811.414	14878.73
811.744	14789.92
812.073	14659.98
812.403	14696.82
812.732	14696.36
813.061	14664.95
813.39	14523.71
813.719	14557.39
814.049	14617.95
814.378	14513.77
814.707	14464.96
815.036	14547.89
815.365	14482.59
815.693	14381.8
816.022	14367.33
816.351	14255.92
816.68	14266.77
817.008	14359.88
817.337	14172.76
817.665	14111.3
817.994	14125.08
818.322	14173.44
818.651	14076.04
818.979	14065.87
819.307	14116.04
819.636	14084.4
819.964	14061.58
820.292	14079.21
820.62	13984.29
820.948	13969.6
821.276	13945.42
821.604	13983.84
821.932	13994.01
822.259	14007.8
822.587	13973.45
822.915	13889.38
823.243	13951.98
823.57	13919.44
823.898	13975.93
824.225	13894.13
824.553	13888.93
824.88	13852.32
825.207	13997.63
825.535	13888.7
825.862	14011.86
826.189	13866.33
826.516	13972.09
826.843	13931.64
827.17	13934.35
827.497	14008.47
827.824	13953.33
828.151	14035.59
828.478	13891.64
828.805	14095.48
829.131	13925.99
829.458	13982.03
829.785	13909.72
830.111	13931.19
830.438	14051.86
830.764	14005.76
831.09	14019.32
831.417	13906.1
831.743	13941.58
832.069	14014.8
832.395	13904.3
832.722	13937.97
833.048	13866.78
833.374	13871.53
833.7	13718.31
834.026	13805.09
834.351	13885.09
834.677	13890.06
835.003	13878.99
835.329	13902.04
835.654	13791.08
835.98	13746.79
836.306	13725.54
836.631	13805.31
836.956	13717.18
837.282	13730.06
837.607	13702.04
837.932	13684.41
838.258	13694.13
838.583	13582.72
838.908	13628.6
839.233	13575.26
839.558	13644.42
839.883	13535.49
840.208	13479.67
840.533	13581.82
840.858	13493.01
841.182	13487.81
841.507	13495.72
841.832	13374.14
842.156	13439.9
842.481	13403.29
842.805	13273.8
843.13	13311.54
843.454	13226.57
843.778	13233.35
844.103	13155.16
844.427	13205.1
844.751	13207.59
845.075	13198.55
845.399	13067.48
845.723	13010.31
846.047	13072
846.371	12940.25
846.695	12968.5
847.019	12811.44
847.343	12820.26
847.666	12710.43
847.99	12743.65
848.313	12665.91
848.637	12602.86
848.96	12643.31
849.284	12458.01
849.607	12466.82
849.931	12363.54
850.254	12356.77
850.577	12297.11
850.9	12152.25
851.223	12133.49
851.546	12107.96
851.869	11999.26
852.192	12020.05
852.515	11947.96
852.838	11882.43
853.161	11911.58
853.483	11914.52
853.806	11871.13
854.129	11764.92
854.451	11705.26
854.774	11734.86
855.096	11678.82
855.419	11601.31
855.741	11616.9
856.063	11540.52
856.385	11499.84
856.708	11527.86
857.03	11437.47
857.352	11467.75
857.674	11455.77
857.996	11396.56
858.318	11267.98
858.64	11303.01
858.961	11248.77
859.283	11216
859.605	11220.98
859.926	11169.23
860.248	11139.17
860.57	11106.18
860.891	11096.69
861.212	11038.16
861.534	11053.3
861.855	10989.34
862.176	11032.73
862.498	10997.25
862.819	11006.74
863.14	10959.29
863.461	10892.17
863.782	10926.75
864.103	10902.34
864.424	10839.52
864.745	10863.7
865.065	10766.98
865.386	10693.08
865.707	10738.28
866.027	10737.37
866.348	10700.31
866.668	10686.07
866.989	10732.4
867.309	10637.94
867.63	10581.44
867.95	10625.51
868.27	10584.83
868.59	10595.91
868.91	10562.69
869.23	10604.04
869.55	10484.27
869.87	10630.94
870.19	10522.92
870.51	10574.89
870.83	10513.2
871.15	10463.93
871.469	10469.13
871.789	10425.29
872.109	10507.1
872.428	10359.98
872.748	10445.18
873.067	10337.61
873.386	10432.75
873.706	10280.66
874.025	10278.63
874.344	10272.3
874.663	10278.4
874.982	10183.49
875.301	10263.94
875.62	10280.89
875.939	10204.05
876.258	10227.78
876.577	10192.75
876.896	10105.07
877.214	10143.26
877.533	10127.9
877.852	10156.82
878.17	10047.9
878.489	10115.92
878.807	10004.06
879.125	10038.86
879.444	10085.86
879.762	10035.02
880.08	9976.72
880.398	9952.31
880.716	9982.14
881.034	9894.68
881.352	9933.78
881.67	9857.4
881.988	9881.12
882.306	9903.27
882.624	9797.51
882.941	9806.55
883.259	9760.68
883.577	9757.96
883.894	9773.33
884.212	9717.29
884.529	9712.99
884.846	9707.12
885.164	9688.81
885.481	9606.78
885.798	9609.27
886.115	9587.12
886.432	9582.83
886.75	9562.04
887.067	9546.22
887.383	9530.85
887.7	9518.42
888.017	9453.11
888.334	9387.8
888.651	9428.03
888.967	9373.79
889.284	9341.93
889.6	9311.2
889.917	9264.87
890.233	9211.31
890.55	9229.84
890.866	9278.65
891.182	9255.83
891.498	9143.06
891.815	9158.88
892.131	9123.86
892.447	9016.29
892.763	9060.81
893.079	9042.95
893.395	9025.33
893.71	9011.99
894.026	8920.7
894.342	8901.49
894.657	8839.34
894.973	8882.96
895.289	8828.5
895.604	8804.32
895.92	8798.21
896.235	8751.21
896.55	8775.62
896.865	8669.63
897.181	8595.06
897.496	8640.25
897.811	8574.04
898.126	8553.25
898.441	8530.88
898.756	8553.02
899.071	8446.81
899.386	8463.76
899.7	8341.05
900.015	8372.24
900.33	8296.31
900.644	8277.32
900.959	8284.33
901.273	8262.41
901.588	8235.29
901.902	8167.72
902.216	8171.79
902.531	8136.99
902.845	8100.83
903.159	8034.62
903.473	8032.59
903.787	8032.59
904.101	7934.06
904.415	8005.02
904.729	7981.97
905.042	7917.79
905.356	7843.44
905.67	7827.39
905.984	7812.48
906.297	7738.36
906.611	7717.34
906.924	7711.92
907.237	7757.34
907.551	7666.72
907.864	7627.62
908.177	7581.75
908.491	7605.25
908.804	7509.89
909.117	7460.85
909.43	7484.35
909.743	7405.94
910.056	7371.81
910.368	7344.02
910.681	7390.12
910.994	7325.71
911.307	7310.12
911.619	7259.95
911.932	7288.42
912.244	7210.01
912.557	7166.85
912.869	7172.27
913.181	7071.25
913.494	7138.15
913.806	7032.84
914.118	7003.23
914.43	6970.24
914.742	6979.05
915.054	6973.18
915.366	6929.11
915.678	6889.56
915.99	6833.97
916.302	6804.6
916.613	6798.04
916.925	6800.75
917.236	6738.16
917.548	6726.18
917.859	6758.72
918.171	6664.26
918.482	6692.28
918.794	6560.08
919.105	6581.32
919.416	6511.95
919.727	6492.51
920.038	6490.71
920.349	6471.5
920.66	6460.2
920.971	6475.56
921.282	6387.88
921.593	6343.36
921.903	6320.54
922.214	6329.35
922.525	6312.18
922.835	6300.43
923.146	6230.15
923.456	6190.83
923.767	6163.26
924.077	6199.19
924.387	6177.49
924.697	6093.43
925.008	6120.32
925.318	6063.6
925.628	6066.08
925.938	5986.54
926.248	5976.37
926.558	5975.24
926.867	5929.14
927.177	5885.3
927.487	5894.34
927.796	5837.84
928.106	5826.32
928.416	5833.32
928.725	5785.19
929.034	5800.33
929.344	5777.96
929.653	5733.44
929.962	5695.02
930.271	5650.73
930.581	5672.42
930.89	5614.12
931.199	5541.8
931.508	5613.67
931.817	5585.19
932.125	5547.9
932.434	5532.31
932.743	5531.63
933.051	5438.53
933.36	5439.43
933.669	5407.8
933.977	5355.59
934.286	5428.59
934.594	5323.28
934.902	5295.93
935.21	5286.67
935.519	5334.8
935.827	5284.18
936.135	5244.86
936.443	5210.51
936.751	5219.33
937.059	5158.54
937.367	5171.42
937.674	5170.06
937.982	5139.78
938.29	5104.07
938.597	5129.38
938.905	5052.32
939.213	5078.76
939.52	4996.73
939.827	5003.29
940.135	5014.81
940.442	4990.63
940.749	4932.1
941.056	4927.81
941.363	4854.14
941.67	4859.11
941.977	4821.14
942.284	4839
942.591	4802.16
942.898	4776.63
943.205	4779.56
943.511	4785.21
943.818	4756.97
944.125	4715.16
944.431	4664.76
944.738	4700.7
945.044	4706.8
945.35	4663.86
945.657	4616.18
945.963	4601.04
946.269	4619.79
946.575	4574.6
946.881	4504.09
947.187	4511.32
947.493	4527.59
947.799	4486.01
948.105	4461.83
948.41	4396.52
948.716	4396.3
949.022	4432.23
949.327	4391.33
949.633	4361.72
949.938	4304.77
950.244	4316.52
950.549	4299.35
950.854	4282.63
951.16	4255.51
951.465	4236.08
951.77	4265.45
952.075	4240.82
952.38	4136.42
952.685	4171.22
952.99	4137.09
953.294	4093.93
953.599	4090.09
953.904	4071.79
954.209	4076.31
954.513	4121.95
954.818	4039.47
955.122	4036.98
955.426	3987.95
955.731	3973.03
956.035	3946.37
956.339	3952.24
956.643	3965.57
956.948	3903.88
957.252	3932.58
957.556	3889.19
957.86	3869.76
958.163	3858.01
958.467	3848.51
958.771	3827.95
959.075	3803.54
959.378	3790.89
959.682	3814.39
959.985	3819.59
960.289	3762.87
960.592	3752.47
960.896	3737.78
961.199	3749.76
961.502	3711.8
961.805	3670.44
962.108	3662.98
962.411	3603.55
962.714	3615.07
963.017	3633.83
963.32	3603.78
963.623	3613.94
963.926	3600.61
964.228	3533.95
964.531	3525.13
964.833	3511.35
965.136	3491.01
965.438	3497.11
965.741	3435.64
966.043	3421.18
966.345	3420.96
966.648	3451.91
966.95	3426.38
967.252	3423.67
967.554	3377.57
967.856	3351.35
968.158	3322.88
968.46	3362.2
968.761	3377.57
969.063	3316.78
969.365	3289.21
969.666	3290.11
969.968	3270.22
970.269	3244.01
970.571	3246.27
970.872	3239.94
971.174	3267.51
971.475	3201.53
971.776	3155.2
972.077	3185.93
972.378	3161.3
972.679	3135.09
972.98	3117.01
973.281	3118.14
973.582	3109.33
973.883	3090.57
974.183	3069.1
974.484	3057.12
974.785	3025.03
975.085	3040.85
975.386	3033.17
975.686	3026.16
975.986	2998.59
976.287	2990.01
976.587	2958.14
976.887	2945.49
977.187	2920.63
977.487	2927.86
977.787	2946.39
978.087	2906.62
978.387	2938.48
978.687	2891.93
978.987	2832.04
979.286	2815.55
979.586	2828.2
979.885	2842.67
980.185	2850.57
980.484	2772.16
980.784	2815.1
981.083	2794.76
981.382	2771.03
981.682	2739.62
981.981	2755.21
982.28	2707.08
982.579	2706.17
982.878	2718.37
983.177	2653.74
983.475	2709.79
983.774	2659.62
984.073	2676.12
984.372	2644.48
984.67	2611.49
984.969	2601.77
985.267	2616.23
985.566	2604.25
985.864	2564.48
986.162	2562.67
986.461	2575.55
986.759	2554.76
987.057	2550.02
987.355	2527.87
987.653	2538.94
987.951	2508.66
988.249	2483.13
988.547	2492.84
988.844	2443.13
989.142	2471.83
989.44	2477.93
989.737	2474.09
990.035	2405.84
990.332	2407.65
990.63	2379.4
990.927	2366.75
991.224	2367.65
991.521	2384.37
991.819	2363.58
992.116	2357.93
992.413	2326.07
992.71	2344.6
993.006	2308.89
993.303	2291.72
993.6	2315.9
993.897	2288.56
994.193	2296.47
994.49	2265.05
994.787	2276.13
995.083	2249.46
995.379	2217.37
995.676	2227.77
995.972	2224.6
996.268	2229.35
996.565	2173.53
996.861	2194.09
997.157	2167.43
997.453	2166.98
997.749	2133.98
998.044	2127.88
998.34	2137.83
998.636	2127.2
998.932	2120.2
999.227	2101.67
999.523	2084.27
999.818	2091.27
1000.114	2070.26
1000.409	2060.99
1000.704	2034.1
1001	1991.61
1001.295	2009.69
1001.59	2033.42
1001.885	2019.64
1002.18	2004.5
1002.475	1987.32
1002.77	1966.3
1003.065	1978.73
1003.359	1960.43
1003.654	1926.76
1003.949	1933.31
1004.243	1930.82
1004.538	1886.76
1004.832	1916.14
1005.127	1877.94
1005.421	1880.66
1005.715	1855.35
1006.009	1905.06
1006.304	1839.98
1006.598	1811.73
1006.892	1825.74
1007.186	1798.63
1007.48	1766.31
1007.773	1814.44
1008.067	1764.28
1008.361	1788
1008.655	1738.97
1008.948	1726.08
1009.242	1728.8
1009.535	1737.38
1009.829	1716.37
1010.122	1706.42
1010.415	1679.76
1010.708	1696.03
1011.001	1681.57
1011.295	1631.62
1011.588	1650.61
1011.881	1663.94
1012.173	1646.76
1012.466	1618.52
1012.759	1623.49
1013.052	1632.3
1013.344	1622.81
1013.637	1605.18
1013.93	1588.46
1014.222	1570.61
1014.514	1580.55
1014.807	1575.58
1015.099	1542.13
1015.391	1558.18
1015.683	1523.15
1015.976	1548.69
1016.268	1522.02
1016.56	1510.72
1016.851	1491.29
1017.143	1510.5
1017.435	1477.96
1017.727	1439.31
1018.018	1464.17
1018.31	1438.63
1018.602	1427.11
1018.893	1435.92
1019.185	1434.79
1019.476	1402.93
1019.767	1398.64
1020.058	1396.83
1020.35	1373.55
1020.641	1382.82
1020.932	1357.96
1021.223	1365.19
1021.514	1344.63
1021.804	1333.55
1022.095	1369.48
1022.386	1328.58
1022.677	1324.74
1022.967	1303.27
1023.258	1298.07
1023.548	1299.66
1023.839	1279.77
1024.129	1282.71
1024.419	1272.09
1024.709	1269.15
1025	1233.44
1025.29	1234.57
1025.58	1231.86
1025.87	1233.67
1026.16	1239.54
1026.449	1218.98
1026.739	1195.48
1027.029	1229.37
1027.319	1196.38
1027.608	1212.43
1027.898	1187.12
1028.187	1171.07
1028.477	1154.12
1028.766	1150.96
1029.055	1151.41
1029.344	1146.89
1029.634	1126.55
1029.923	1144.18
1030.212	1131.3
1030.501	1097.85
1030.79	1063.5
1031.078	1109.83
1031.367	1110.96
1031.656	1073.9
1031.945	1075.93
1032.233	1092.65
1032.522	1059.89
1032.81	1051.98
1033.099	1062.37
1033.387	1056.05
1033.675	1043.62
1033.963	1063.73
1034.251	1009.49
1034.54	1006.1
1034.828	995.71
1035.116	1002.49
1035.403	983.73
1035.691	996.16
1035.979	973.56
1036.267	1001.13
1036.554	953
1036.842	941.25
1037.129	956.61
1037.417	936.73
1037.704	917.07
1037.992	941.02
1038.279	936.95
1038.566	915.03
1038.853	915.03
1039.14	915.03
