Data from hue_34_FLMS001491_00032.txt Node
Date: Tue Feb 07 17:25:31 GMT 2017
User: dcchb
Spectrometer: FLMS00149
Trigger mode: 0
Integration Time (sec): 2.000000E-2
Scans to average: 10
Electric dark correction enabled: true
Nonlinearity correction enabled: false
Boxcar width: 0
XAxis mode: Wavelengths
Number of Pixels in Spectrum: 2048
>>>>>Begin Spectral Data<<<<<
341.393	-14.1
341.776	-14.1
342.16	-14.1
342.543	-47.99
342.927	-64.49
343.31	-54.77
343.693	-73.76
344.077	-75.56
344.46	-61.55
344.843	-64.94
345.226	-38.73
345.61	-38.05
345.993	-18.16
346.376	-11.84
346.759	41.04
347.142	16.19
347.525	21.16
347.908	58.44
348.291	81.95
348.674	96.86
349.057	121.72
349.44	142.74
349.823	147.48
350.206	163.75
350.588	196.75
350.971	215.73
351.354	217.31
351.737	227.03
352.119	251.89
352.502	280.59
352.884	280.81
353.267	295.95
353.65	292.34
354.032	298.89
354.414	316.29
354.797	313.13
355.179	341.83
355.562	329.17
355.944	317.42
356.326	348.83
356.709	341.15
357.091	331.66
357.473	360.36
357.855	333.01
358.238	325.56
358.62	341.38
359.002	346.12
359.384	344.09
359.766	334.82
360.148	356.29
360.53	337.31
360.912	345.89
361.294	361.26
361.676	341.6
362.057	333.24
362.439	329.17
362.821	330.53
363.203	316.97
363.584	318.78
363.966	325.78
364.348	350.64
364.729	347.93
365.111	335.27
365.493	330.3
365.874	312.68
366.256	335.5
366.637	309.51
367.019	329.17
367.4	329.17
367.781	310.64
368.163	339.34
368.544	312.68
368.925	316.52
369.306	321.26
369.688	312.45
370.069	332.11
370.45	335.5
370.831	325.56
371.212	313.58
371.593	321.49
371.974	340.02
372.355	325.78
372.736	319
373.117	311.32
373.498	313.35
373.879	328.27
374.26	327.82
374.641	314.94
375.021	309.29
375.402	336.63
375.783	331.43
376.163	340.25
376.544	342.51
376.925	356.52
377.305	329.17
377.686	330.08
378.066	324.43
378.447	312.68
378.827	330.75
379.208	328.27
379.588	333.69
379.968	337.31
380.349	327.36
380.729	327.36
381.109	346.12
381.489	347.02
381.87	328.95
382.25	340.7
382.63	343.86
383.01	341.6
383.39	342.28
383.77	358.78
384.15	341.6
384.53	366.46
384.91	342.28
385.29	367.82
385.67	338.44
386.049	355.16
386.429	353.13
386.809	355.16
387.189	356.52
387.568	366.46
387.948	348.38
388.328	355.16
388.707	361.26
389.087	367.14
389.466	351.09
389.846	366.01
390.225	381.37
390.605	361.71
390.984	377.08
391.363	380.7
391.743	362.84
392.122	383.41
392.501	378.89
392.881	392.22
393.26	385.89
393.639	372.56
394.018	370.75
394.397	382.28
394.776	371.43
395.155	376.63
395.534	368.95
395.913	352.9
396.292	373.46
396.671	382.05
397.05	365.1
397.429	368.72
397.808	393.8
398.186	365.1
398.565	394.48
398.944	399.9
399.323	405.78
399.701	383.18
400.08	373.69
400.458	388.83
400.837	401.94
401.215	405.1
401.594	408.94
401.972	429.96
402.351	410.3
402.729	407.36
403.107	415.72
403.486	409.17
403.864	418.44
404.242	425.89
404.62	410.07
404.999	399.23
405.377	410.53
405.755	429.28
406.133	443.52
406.511	425.89
406.889	418.66
407.267	439.23
407.645	417.76
408.023	453.01
408.401	439.45
408.779	445.1
409.156	423.86
409.534	415.72
409.912	445.1
410.29	421.37
410.667	451.43
411.045	469.96
411.422	451.88
411.8	464.54
412.178	450.52
412.555	461.37
412.933	476.96
413.31	469.51
413.687	470.64
414.065	475.38
414.442	452.11
414.819	503.18
415.197	484.87
415.574	486.23
415.951	465.21
416.328	476.96
416.705	480.35
417.082	490.75
417.46	473.12
417.837	503.4
418.214	486.46
418.591	490.75
418.967	504.53
419.344	505.89
419.721	494.37
420.098	488.26
420.475	508.15
420.852	505.44
421.228	519.68
421.605	495.04
421.982	533.69
422.358	523.74
422.735	527.81
423.111	518.09
423.488	535.27
423.864	533.69
424.241	533.91
424.617	522.39
424.994	523.52
425.37	545.44
425.746	530.97
426.123	542.5
426.499	550.41
426.875	587.24
427.251	588.37
427.627	575.49
428.003	573.69
428.379	565.55
428.756	565.55
429.132	598.77
429.507	606
429.883	586.34
430.259	609.62
430.635	594.48
431.011	584.76
431.387	596.96
431.763	616.85
432.138	624.31
432.514	637.86
432.89	615.49
433.265	624.53
433.641	652.55
434.016	638.77
434.392	645.55
434.767	661.82
435.143	657.53
435.518	665.21
435.894	668.82
436.269	668.15
436.644	677.41
437.02	668.15
437.395	678.32
437.77	696.85
438.145	681.71
438.52	707.02
438.895	686.45
439.271	700.46
439.646	691.65
440.021	716.73
440.395	723.96
440.77	707.24
441.145	740.91
441.52	731.2
441.895	718.54
442.27	768.26
442.645	741.14
443.019	743.85
443.394	750.18
443.769	749.73
444.143	747.92
444.518	785.88
444.892	757.64
445.267	765.54
445.641	773.68
446.016	781.59
446.39	771.19
446.764	769.16
447.139	769.39
447.513	790.85
447.887	784.3
448.262	796.05
448.636	791.53
449.01	818.42
449.384	813
449.758	820.46
450.132	828.14
450.506	825.66
450.88	815.04
451.254	826.79
451.628	847.12
452.002	872.43
452.376	840.8
452.75	862.94
453.123	857.75
453.497	881.93
453.871	902.72
454.244	891.42
454.618	874.92
454.992	903.17
455.365	905.43
455.739	878.54
456.112	922.38
456.486	941.13
456.859	927.8
457.232	947.23
457.606	968.48
457.979	954.24
458.352	980.68
458.725	995.82
459.099	997.18
459.472	995.37
459.845	1026.78
460.218	1019.32
460.591	1030.17
460.964	1050.06
461.337	1074.69
461.71	1077.18
462.083	1071.75
462.456	1097.29
462.829	1085.54
463.201	1124.63
463.574	1122.37
463.947	1131.41
464.32	1141.13
464.692	1154.91
465.065	1178.42
465.438	1172.99
465.81	1210.73
466.183	1213.44
466.555	1246.21
466.928	1250.96
467.3	1227.68
467.672	1248.24
468.045	1288.92
468.417	1297.73
468.789	1326.21
469.161	1344.06
469.534	1369.82
469.906	1397.62
470.278	1377.28
470.65	1420.22
471.022	1466.54
471.394	1464.06
471.766	1479.2
472.138	1530.72
472.51	1545.19
472.882	1578.86
473.253	1594.68
473.625	1596.71
473.997	1643.71
474.369	1661.34
474.74	1685.07
475.112	1733.43
475.484	1763.03
475.855	1800.09
476.227	1789.47
476.598	1863.6
476.97	1894.55
477.341	1935.91
477.713	2023.36
478.084	2002.35
478.455	2092.06
478.827	2094.78
479.198	2153.08
479.569	2210.7
479.94	2246.64
480.311	2279.4
480.682	2354.66
481.053	2401.21
481.424	2479.85
481.795	2517.14
482.166	2585.61
482.537	2614.99
482.908	2711.71
483.279	2768.66
483.65	2813.63
484.021	2910.12
484.391	2964.13
484.762	3017.24
485.133	3090.23
485.503	3173.84
485.874	3254.97
486.244	3303.78
486.615	3371.13
486.985	3464
487.356	3517.56
487.726	3575.87
488.097	3708.07
488.467	3774.28
488.837	3854.73
489.207	3914.61
489.578	4002.97
489.948	4052.24
490.318	4149.18
490.688	4208.39
491.058	4335.62
491.428	4416.75
491.798	4432.34
492.168	4551.89
492.538	4623.97
492.908	4705.78
493.278	4809.73
493.648	4825.33
494.017	4927.47
494.387	4948.03
494.757	5074.58
495.126	5112.1
495.496	5199.1
495.866	5281.81
496.235	5353.22
496.605	5419.21
496.974	5455.82
497.344	5556.61
497.713	5619.88
498.082	5698.07
498.452	5764.06
498.821	5785.53
499.19	5874.79
499.559	5953.43
499.928	5965.86
500.298	6077.95
500.667	6145.74
501.036	6173.09
501.405	6194.1
501.774	6251.95
502.143	6363.59
502.512	6349.8
502.88	6465.73
503.249	6526.3
503.618	6573.3
503.987	6533.53
504.356	6651.04
504.724	6653.53
505.093	6718.16
505.462	6748.44
505.83	6842.9
506.199	6925.16
506.567	6986.62
506.936	7007.19
507.304	7073.4
507.672	7157.02
508.041	7178.26
508.409	7165.38
508.777	7264.81
509.145	7323.56
509.514	7389.33
509.882	7410.57
510.25	7451.92
510.618	7516.1
510.986	7533.95
511.354	7605.82
511.722	7688.75
512.09	7741.86
512.458	7713.84
512.826	7778.69
513.193	7835.64
513.561	7818.92
513.929	7928.07
514.297	7972.36
514.664	8050.1
515.032	8094.62
515.4	8112.02
515.767	8172.13
516.135	8187.27
516.502	8164.67
516.869	8251.45
517.237	8268.17
517.604	8350.88
517.972	8420.48
518.339	8407.15
518.706	8408.28
519.073	8401.28
519.44	8446.7
519.808	8604.21
520.175	8575.73
520.542	8724.43
520.909	8739.35
521.276	8776.63
521.643	8784.32
522.009	8862.51
522.376	8909.51
522.743	8984.09
523.11	9020.24
523.477	9079.22
523.843	9121.71
524.21	9223.85
524.577	9275.15
524.943	9353.34
525.31	9337.3
525.676	9444.41
526.043	9467.01
526.409	9517.86
526.776	9504.98
527.142	9676.05
527.508	9667.91
527.874	9786.32
528.241	9778.42
528.607	9754.24
528.973	9911.75
529.339	9951.29
529.705	10043.04
530.071	10093.66
530.437	10082.59
530.803	10148.12
531.169	10193.32
531.535	10161
531.901	10224.28
532.267	10297.95
532.632	10342.69
532.998	10372.98
533.364	10494.78
533.73	10443.03
534.095	10530.71
534.461	10696.58
534.826	10648
535.192	10630.14
535.557	10798.05
535.923	10751.27
536.288	10805.05
536.653	10782.68
537.019	10934.77
537.384	10938.38
537.749	10988.78
538.114	10995.78
538.479	11025.16
538.845	11073.97
539.21	11097.02
539.575	11174.76
539.94	11255.66
540.305	11270.13
540.67	11268.55
541.034	11363.46
541.399	11359.62
541.764	11435.32
542.129	11493.17
542.494	11502.89
542.858	11584.7
543.223	11574.07
543.587	11662.43
543.952	11704.47
544.316	11785.14
544.681	11768.87
545.045	11845.71
545.41	11887.29
545.774	11888.64
546.138	11936.1
546.503	12059.03
546.867	11901.52
547.231	12153.95
547.595	12097.45
547.959	12216.77
548.324	12209.54
548.688	12237.33
549.052	12268.52
549.416	12347.84
549.779	12370.89
550.143	12387.16
550.507	12485.24
550.871	12465.58
551.235	12552.58
551.599	12638
551.962	12636.19
552.326	12671.45
552.689	12726.81
553.053	12750.31
553.417	12702.18
553.78	12988.73
554.143	12877.54
554.507	12902.4
554.87	12957.31
555.234	12988.27
555.597	12973.36
555.96	13025.56
556.323	13107.14
556.686	13132.23
557.05	13122.28
557.413	13273.46
557.776	13325.67
558.139	13294.48
558.502	13325.44
558.865	13400.69
559.228	13516.17
559.59	13577.19
559.953	13555.72
560.316	13688.37
560.679	13662.38
561.041	13772.66
561.404	13837.52
561.767	13906.89
562.129	13881.13
562.492	14036.83
562.854	13960.68
563.217	14074.35
563.579	14052.65
563.941	14089.71
564.304	14185.53
564.666	14194.8
565.028	14321.12
565.39	14366.32
565.753	14415.13
566.115	14335.13
566.477	14568.35
566.839	14537.61
567.201	14674.33
567.563	14600.44
567.925	14702.58
568.287	14696.7
568.648	14672.07
569.01	14839.07
569.372	14897.83
569.734	14877.04
570.095	14959.3
570.457	15061.89
570.819	15145.05
571.18	15126.75
571.542	15211.49
571.903	15292.17
572.265	15363.35
572.626	15515.89
572.987	15446.06
573.349	15521.09
573.71	15668.2
574.071	15762.44
574.432	15847.86
574.794	16038.14
575.155	16042.43
575.516	15956.78
575.877	16131.69
576.238	16388.18
576.599	16394.06
576.96	16439.93
577.32	16555.19
577.681	16630.44
578.042	16789.3
578.403	16928.96
578.763	17027.04
579.124	17127.6
579.485	17356.97
579.845	17528.49
580.206	17644.2
580.566	17676.29
580.927	17913.57
581.287	18073.79
581.648	18125.31
582.008	18413.22
582.368	18470.62
582.728	18741.12
583.089	18907.44
583.449	19161.22
583.809	19318.5
584.169	19444.6
584.529	19521.21
584.889	19948.54
585.249	20007.98
585.609	20142.89
585.969	20589.88
586.329	20734.51
586.688	20932.25
587.048	21117.55
587.408	21299.92
587.768	21517.09
588.127	21806.57
588.487	22001.6
588.846	22363.85
589.206	22452.66
589.565	22815.59
589.925	23074.11
590.284	23282.69
590.643	23418.06
591.003	23758.84
591.362	24154.99
591.721	24433.62
592.08	24654.18
592.44	24959.71
592.799	25152.93
593.158	25364.67
593.517	25664.33
593.876	25957.88
594.235	26136.63
594.593	26311.99
594.952	26725.09
595.311	26927.34
595.67	27181.35
596.029	27505.63
596.387	27799.41
596.746	28035.79
597.104	28181.32
597.463	28523.23
597.822	28780.63
598.18	29045.48
598.538	29147.4
598.897	29521.17
599.255	29504.45
599.613	30249.29
599.972	30229.85
600.33	30495.38
600.688	30695.15
601.046	30893.79
601.404	31258.53
601.762	31364.29
602.12	31604.73
602.478	32011.95
602.836	32144.15
603.194	32180.76
603.552	32464.6
603.91	32554.31
604.268	33025.49
604.625	32955.88
604.983	33434.74
605.341	33415.99
605.698	33740.27
606.056	33933.26
606.413	34149.3
606.771	34337.09
607.128	34402.63
607.485	34616.18
607.843	34742.73
608.2	34978.88
608.557	35438.98
608.914	35345.2
609.272	35585.42
609.629	35839.88
609.986	35975.24
610.343	35839.65
610.7	36385.4
611.057	36508.79
611.414	36497.03
611.771	36691.83
612.127	37004.37
612.484	37073.06
612.841	37196.45
613.198	37167.53
613.554	37428.99
613.911	37647.51
614.267	37837.11
614.624	37922.08
614.98	38051.34
615.337	38312.81
615.693	38290.43
616.05	38467.83
616.406	38747.37
616.762	38719.58
617.118	38822.17
617.475	38986.69
617.831	39030.08
618.187	39187.13
618.543	39237.98
618.899	39568.59
619.255	39499.44
619.611	39538.99
619.967	39741.7
620.323	40060.33
620.678	39834.8
621.034	39723.39
621.39	39936.49
621.746	39990.95
622.101	40525.4
622.457	40187.56
622.812	40329.25
623.168	40551.17
623.523	40461
623.879	40668.22
624.234	40437.72
624.589	40746.87
624.945	40872.29
625.3	40973.75
625.655	40906.64
626.01	41034.32
626.365	41050.36
626.72	41050.14
627.075	41051.72
627.43	41066.63
627.785	41031.38
628.14	41265.04
628.495	41221.43
628.85	41226.85
629.205	41143.01
629.559	41384.59
629.914	41204.26
630.269	41310.92
630.623	41271.6
630.978	41270.92
631.332	41257.81
631.687	41558.37
632.041	41412.39
632.396	41523.8
632.75	41378.71
633.104	41416.45
633.459	41264.37
633.813	41414.42
634.167	41377.81
634.521	41331.26
634.875	41493.06
635.229	41452.61
635.583	41381.88
635.937	41434.53
636.291	41312.73
636.645	41269.34
636.999	41287.19
637.352	41511.37
637.706	41124.94
638.06	41377.81
638.413	41230.7
638.767	41203.35
639.121	41238.15
639.474	41140.53
639.828	41205.39
640.181	41207.42
640.534	41257.59
640.888	41190.92
641.241	40912.51
641.594	41071.6
641.947	41054.2
642.301	40988.44
642.654	41109.12
643.007	41060.53
643.36	41034.54
643.713	41027.09
644.066	41151.83
644.419	40950.02
644.771	40813.53
645.124	40370.83
645.477	40293.09
645.83	39985.3
646.182	40007.22
646.535	39818.08
646.888	39824.63
647.24	39736.27
647.593	40049.48
647.945	39924.97
648.298	39677.74
648.65	39682.26
649.002	39608.37
649.355	39676.61
649.707	39629.16
650.059	39764.07
650.411	40301.45
650.763	40408.57
651.115	40710.03
651.467	40512.3
651.819	40484.95
652.171	40507.55
652.523	40423.26
652.875	40397.27
653.227	40249.25
653.578	40563.37
653.93	40432.3
654.282	40195.69
654.633	40267.78
654.985	40431.85
655.337	40250.83
655.688	40397.72
656.039	40435.91
656.391	40100.56
656.742	40181.91
657.094	40289.03
657.445	40318.86
657.796	40310.27
658.147	40325.18
658.498	40115.92
658.849	40208.35
659.2	40183.27
659.551	40038.41
659.902	40316.37
660.253	40135.13
660.604	40262.59
660.955	40024.63
661.306	40246.31
661.656	40071.63
662.007	40167.9
662.358	40132.87
662.708	40067.79
663.059	40109.37
663.409	39810.39
663.76	40104.85
664.11	40023.27
664.461	40204.51
664.811	40032.99
665.161	40052.87
665.511	39910.05
665.862	39927.23
666.212	40210.16
666.562	40075.7
666.912	40043.83
667.262	39986.66
667.612	39935.81
667.962	39981.69
668.312	39933.1
668.662	40085.19
669.011	40032.08
669.361	39815.37
669.711	39931.29
670.06	39911.86
670.41	39822.6
670.76	39865.99
671.109	40110.5
671.459	39865.76
671.808	39804.07
672.157	39819.66
672.507	39647.01
672.856	39607.46
673.205	39550.97
673.554	39874.35
673.904	39708.02
674.253	39781.02
674.602	39639.32
674.951	39082.28
675.3	38892.9
675.649	39640.91
675.998	39599.33
676.346	39607.91
676.695	39774.24
677.044	39423.51
677.393	39506.67
677.741	39501.02
678.09	39448.6
678.438	39395.49
678.787	39474.58
679.135	39431.19
679.484	39153.01
679.832	39280.24
680.181	39126.34
680.529	39209.05
680.877	39000.92
681.225	39105.55
681.573	39352.55
681.922	39054.03
682.27	38879.12
682.618	38976.52
682.966	38911.66
683.314	38891.1
683.661	38880.02
684.009	38658.56
684.357	38573.59
684.705	38585.34
685.053	38531.56
685.4	38552.12
685.748	38239.36
686.095	38492.69
686.443	38173.37
686.79	38190.55
687.138	38336.08
687.485	38151
687.832	38029.2
688.18	38007.73
688.527	37992.36
688.874	37948.97
689.221	37886.83
689.568	37676.21
689.915	37728.41
690.262	37638.47
690.609	37669.21
690.956	37362.55
691.303	37328.2
691.65	37151.71
691.997	37262.66
692.344	37083.91
692.69	36977.7
693.037	36990.58
693.383	36752.85
693.73	36755.78
694.077	36663.58
694.423	36642.34
694.769	36579.29
695.116	36481.67
695.462	36385.17
695.808	36322.12
696.155	36382.01
696.501	35957.39
696.847	36099.76
697.193	35930.27
697.539	35906.99
697.885	35489.6
698.231	35707
698.577	35724.63
698.923	35600.34
699.269	35373.22
699.614	35262.49
699.96	35246.9
700.306	35101.14
700.651	34992.22
700.997	34902.5
701.342	34773.01
701.688	34877.64
702.033	34700.47
702.379	34590.19
702.724	34534.15
703.069	34753.58
703.415	34251.44
703.76	34268.39
704.105	34169.86
704.45	34193.14
704.795	33982.75
705.14	33964.22
705.485	33805.81
705.83	33848.29
706.175	33901.4
706.52	33748.41
706.865	33599.03
707.209	33654.17
707.554	33484.01
707.899	33565.36
708.243	33283.79
708.588	33366.5
708.932	33116.56
709.277	33220.74
709.621	33066.84
709.966	32840.63
710.31	32995.88
710.654	32635.89
710.998	32707.76
711.342	32602.22
711.687	32655.33
712.031	32510.47
712.375	32352.28
712.719	32453.07
713.063	32335.56
713.407	32550.92
713.75	32287.65
714.094	32175.57
714.438	32096.7
714.782	32084.27
715.125	32123.59
715.469	31986.42
715.812	31852.64
716.156	31746.2
716.499	31836.59
716.843	31794.79
717.186	31697.84
717.53	31781.68
717.873	31628.91
718.216	31635.69
718.559	31499.43
718.902	31213.33
719.246	31306.89
719.589	31173.78
719.932	31064.18
720.275	31093.33
720.617	31116.16
720.96	30999.78
721.303	31021.7
721.646	30938.99
721.989	30802.5
722.331	30881.59
722.674	30774.47
723.016	30738.32
723.359	30628.26
723.701	30934.92
724.044	30527.02
724.386	30357.31
724.729	30561.6
725.071	30546.91
725.413	30355.95
725.755	30345.33
726.097	30130.2
726.439	30169.97
726.782	30028.05
727.124	30237.31
727.465	29978.11
727.807	30068.73
728.149	30111.67
728.491	29965.23
728.833	30027.15
729.175	29859.24
729.516	29815.18
729.858	29817.21
730.199	29836.19
730.541	29746.25
730.882	29741.05
731.224	29805.91
731.565	29516.88
731.906	29581.51
732.248	29725.01
732.589	29444.34
732.93	29330.44
733.271	29334.74
733.612	29377
733.953	29346.49
734.294	29215.19
734.635	29174.97
734.976	29252.48
735.317	29112.14
735.658	29151.92
735.999	29051.81
736.339	28863.11
736.68	29037.34
737.021	28890.68
737.361	28824.02
737.702	29095.87
738.042	28820.85
738.383	28780.18
738.723	28771.81
739.063	28674.87
739.404	28713.06
739.744	28610.46
740.084	28669.44
740.424	28680.29
740.764	28471.48
741.104	28675.09
741.444	28458.38
741.784	28382.45
742.124	28380.41
742.464	28365.5
742.804	28232.62
743.143	28297.7
743.483	28233.52
743.823	28156.24
744.162	28085.96
744.502	28193.52
744.841	28045.28
745.181	28127.99
745.52	27976.13
745.86	28112.85
746.199	27924.38
746.538	27955.56
746.877	27937.71
747.216	27908.56
747.556	27826.3
747.895	27793.99
748.234	27716.7
748.573	27633.99
748.911	27711.5
749.25	27683.93
749.589	27398.74
749.928	27379.53
750.267	27501.57
750.605	27381.12
750.944	27402.81
751.283	27176.38
751.621	27292.76
751.96	27089.37
752.298	27154
752.636	27221.12
752.975	27048.92
753.313	26938.42
753.651	27094.8
753.989	26840.34
754.327	26821.81
754.666	26712.66
755.004	26843.28
755.342	26789.04
755.679	26697.07
756.017	26585.43
756.355	26755.82
756.693	26584.53
757.031	26535.71
757.368	26235.61
757.706	26376.62
758.044	26309.51
758.381	26306.57
758.719	26237.87
759.056	26149.74
759.394	26032.68
759.731	25833.36
760.068	25900.25
760.405	25760.14
760.743	25711.56
761.08	25674.27
761.417	25534.61
761.754	25538
762.091	25554.5
762.428	25436.53
762.765	25360.6
763.102	25456.42
763.438	25220.5
763.775	25234.96
764.112	25032.7
764.449	25190.44
764.785	24993.38
765.122	24819.83
765.458	24740.96
765.795	24640.85
766.131	24673.84
766.467	24571.47
766.804	24380.52
767.14	24394.08
767.476	24403.57
767.812	24222.33
768.148	24297.58
768.485	24103.46
768.821	24011.26
769.157	23962.9
769.492	23824.15
769.828	23928.55
770.164	23680.65
770.5	23621.22
770.836	23644.72
771.171	23475.68
771.507	23409.47
771.842	23255.35
772.178	23192.07
772.513	23089.7
772.849	23112.53
773.184	23026.43
773.519	23076.6
773.855	22872.76
774.19	22819.88
774.525	22732.2
774.86	22660.56
775.195	22596.16
775.53	22555.25
775.865	22369.27
776.2	22306.45
776.535	22141.71
776.87	22198.43
777.205	22018.55
777.539	21990.3
777.874	22106.68
778.209	21703.07
778.543	21758.89
778.878	21709.17
779.212	21625.56
779.547	21498.56
779.881	21562.29
780.215	21435.06
780.55	21460.59
780.884	21244.78
781.218	21241.84
781.552	21226.25
781.886	21063.54
782.22	20956.65
782.554	20838.92
782.888	20710.78
783.222	20568.41
783.556	20539.71
783.889	20537
784.223	20440.28
784.557	20276.22
784.89	20275.31
785.224	20201.19
785.557	20186.28
785.891	20060.63
786.224	19981.31
786.558	19942.89
786.891	19742.9
787.224	19746.97
787.557	19607.08
787.891	19656.12
788.224	19684.37
788.557	19617.93
788.89	19429.91
789.223	19537.71
789.556	19411.61
789.888	19336.13
790.221	19211.61
790.554	19073.09
790.887	19046.87
791.219	18978.4
791.552	18965.29
791.884	18881
792.217	18849.36
792.549	18819.53
792.882	18666.32
793.214	18528.92
793.546	18600.1
793.879	18436.94
794.211	18347.68
794.543	18454.57
794.875	18322.82
795.207	18441.24
795.539	18257.51
795.871	18163.73
796.203	18115.6
796.535	18033.34
796.867	17905.89
797.198	17979.1
797.53	17909.05
797.862	17841.93
798.193	17830.18
798.525	17581.15
798.856	17734.59
799.188	17432
799.519	17446.69
799.85	17370.31
800.182	17380.48
800.513	17391.32
800.844	17173.7
801.175	17308.39
801.506	17207.82
801.837	17205.11
802.168	17127.15
802.499	17091.22
802.83	16978.68
803.161	16936.65
803.491	16907.49
803.822	16870.21
804.153	16745.24
804.483	16694.39
804.814	16613.49
805.145	16555.86
805.475	16639.93
805.805	16534.17
806.136	16502.53
806.466	16477.45
806.796	16455.98
807.126	16264.12
807.457	16177.34
807.787	16218.25
808.117	16123.11
808.447	16098.02
808.777	16254.63
809.107	16027.06
809.436	16054.41
809.766	16034.52
810.096	15969.89
810.426	15874.75
810.755	15886.5
811.085	15763.79
811.414	15806.96
811.744	15660.52
812.073	15700.07
812.403	15699.62
812.732	15527.19
813.061	15502.33
813.39	15519.28
813.719	15405.61
814.049	15515.67
814.378	15402
814.707	15296.01
815.036	15354.77
815.365	15285.16
815.693	15150.7
816.022	15108.67
816.351	15106.86
816.68	15039.97
817.008	15042.91
817.337	14918.85
817.665	14971.27
817.994	14929.69
818.322	14869.35
818.651	14828.68
818.979	14791.62
819.307	14851.28
819.636	14765.18
819.964	14721.11
820.292	14672.98
820.62	14658.29
820.948	14703.94
821.276	14733.09
821.604	14600.21
821.932	14727.21
822.259	14700.32
822.587	14558.18
822.915	14644.5
823.243	14661.22
823.57	14571.28
823.898	14616.25
824.225	14564.5
824.553	14546.2
824.88	14482.92
825.207	14512.53
825.535	14596.14
825.862	14657.61
826.189	14529.7
826.516	14641.56
826.843	14577.61
827.17	14607.21
827.497	14558.63
827.824	14584.39
828.151	14679.08
828.478	14557.95
828.805	14636.37
829.131	14480.89
829.458	14462.81
829.785	14513.21
830.111	14486.09
830.438	14632.75
830.764	14607.67
831.09	14494.9
831.417	14390.72
831.743	14438.41
832.069	14473.43
832.395	14318.41
832.722	14509.82
833.048	14392.76
833.374	14455.81
833.7	14405.86
834.026	14426.88
834.351	14416.26
834.677	14354.79
835.003	14454
835.329	14405.19
835.654	14273.44
835.98	14279.09
836.306	14353.89
836.631	14310.95
836.956	14325.41
837.282	14250.39
837.607	14217.17
837.932	14174.68
838.258	14130.62
838.583	14106.21
838.908	14065.99
839.233	14083.61
839.558	14003.39
839.883	14030.51
840.208	13985.54
840.533	13964.52
840.858	13936.95
841.182	13957.51
841.507	13926.33
841.832	13875.03
842.156	13847.91
842.481	13735.15
842.805	13826.67
843.13	13767.01
843.454	13736.5
843.778	13672.1
844.103	13717.52
844.427	13607.92
844.751	13618.54
845.075	13645.21
845.399	13491.76
845.723	13418.77
846.047	13521.37
846.371	13365.67
846.695	13247.93
847.019	13230.3
847.343	13109.85
847.666	13112.11
847.99	12989.18
848.313	13036.63
848.637	12993.47
848.96	13005
849.284	12841.61
849.607	12866.24
849.931	12790.31
850.254	12716.64
850.577	12599.58
850.9	12573.82
851.223	12607.04
851.546	12460.6
851.869	12400.95
852.192	12548.06
852.515	12358.69
852.838	12306.26
853.161	12326.14
853.483	12209.99
853.806	12149.88
854.129	12189.2
854.451	12238.46
854.774	12027.62
855.096	12008.19
855.419	11973.16
855.741	11952.14
856.063	11870.11
856.385	11876.67
856.708	11845.03
857.03	11800.06
857.352	11749.66
857.674	11814.97
857.996	11830.79
858.318	11616.33
858.64	11601.87
858.961	11574.3
859.283	11574.3
859.605	11548.09
859.926	11558.03
860.248	11502.21
860.57	11460.63
860.891	11536.56
861.212	11400.97
861.534	11328.66
861.855	11357.36
862.176	11281.88
862.498	11345.38
862.819	11324.59
863.14	11263.8
863.461	11244.37
863.782	11153.29
864.103	11258.15
864.424	11226.51
864.745	11187.87
865.065	11095.89
865.386	11031.26
865.707	11069
866.027	11097.02
866.348	11105.39
866.668	11126.18
866.989	11012.73
867.309	10924.37
867.63	10895.45
867.95	11003.92
868.27	10886.18
868.59	10947.2
868.91	10936.12
869.23	10912.17
869.55	10803.47
869.87	10886.41
870.19	10861.78
870.51	10824.49
870.83	10856.8
871.15	10755.79
871.469	10716.02
871.789	10810.93
872.109	10739.29
872.428	10689.58
872.748	10680.99
873.067	10651.84
873.386	10652.52
873.706	10665.4
874.025	10638.73
874.344	10603.48
874.663	10551.05
874.982	10493.65
875.301	10566.87
875.62	10556.02
875.939	10475.35
876.258	10474.22
876.577	10421.11
876.896	10409.81
877.214	10379.3
877.533	10402.35
877.852	10356.71
878.17	10351.28
878.489	10436.93
878.807	10344.5
879.125	10317.84
879.444	10292.98
879.762	10244.62
880.08	10258.63
880.398	10177.05
880.716	10317.38
881.034	10224.05
881.352	10203.94
881.67	10143.6
881.988	10160.33
882.306	10119.65
882.624	10084.85
882.941	10050.72
883.259	10027
883.577	9944.06
883.894	9988.58
884.212	10040.1
884.529	9938.19
884.846	9950.84
885.164	9872.88
885.481	9835.59
885.798	9894.12
886.115	9835.81
886.432	9819.32
886.75	9782.03
887.067	9811.41
887.383	9765.08
887.7	9780.22
888.017	9686.44
888.334	9730.73
888.651	9672.88
888.967	9675.82
889.284	9607.35
889.6	9641.47
889.917	9513.34
890.233	9533.9
890.55	9511.08
890.866	9489.38
891.182	9490.06
891.498	9462.04
891.815	9404.87
892.131	9302.95
892.447	9323.74
892.763	9269.73
893.079	9261.82
893.395	9226.11
893.71	9245.55
894.026	9176.85
894.342	9220.69
894.657	9090.98
894.973	9074.48
895.289	9125.33
895.604	9070.41
895.92	9055.5
896.235	9029.06
896.55	8931.21
896.865	8950.19
897.181	8929.85
897.496	8963.3
897.811	8869.96
898.126	8881.72
898.441	8785.22
898.756	8744.32
899.071	8689.18
899.386	8750.65
899.7	8611.89
900.015	8634.04
900.33	8561.72
900.644	8583.19
900.959	8540.03
901.273	8521.05
901.588	8485.34
901.902	8454.83
902.216	8413.93
902.531	8396.98
902.845	8363.76
903.159	8320.37
903.473	8350.2
903.787	8234.5
904.101	8220.72
904.415	8260.26
904.729	8134.39
905.042	8174.62
905.356	8116.99
905.67	8059.14
905.984	8103.43
906.297	8047.61
906.611	8005.81
906.924	8014.85
907.237	7972.36
907.551	7964
907.864	7850.78
908.177	7832.7
908.491	7838.81
908.804	7727.62
909.117	7728.3
909.43	7682.88
909.743	7727.17
910.056	7713.38
910.368	7607.85
910.681	7569.21
910.994	7563.56
911.307	7583.67
911.619	7451.47
911.932	7475.2
912.244	7345.48
912.557	7416.22
912.869	7333.06
913.181	7309.55
913.494	7293.51
913.806	7303.9
914.118	7264.36
914.43	7185.26
914.742	7172.38
915.054	7133.51
915.366	7134.42
915.678	7097.13
915.99	7096
916.302	6989.34
916.613	7020.07
916.925	7000.64
917.236	6965.83
917.548	6908.21
917.859	6937.59
918.171	6894.2
918.482	6800.64
918.794	6811.94
919.105	6765.16
919.416	6720.42
919.727	6707.99
920.038	6708.44
920.349	6653.3
920.66	6618.5
920.971	6583.92
921.282	6638.38
921.593	6567.2
921.903	6562
922.214	6545.28
922.525	6444.04
922.835	6396.81
923.146	6420.31
923.456	6397.94
923.767	6425.73
924.077	6374.66
924.387	6305.74
924.697	6305.29
925.008	6236.14
925.318	6211.05
925.628	6188.91
925.938	6171.96
926.248	6190.49
926.558	6090.83
926.867	6094.67
927.177	6082.02
927.487	6104.84
927.796	6037.27
928.106	6050.6
928.416	5945.52
928.725	5970.38
929.034	5956.59
929.344	5886.31
929.653	5922.02
929.962	5833.43
930.271	5831.85
930.581	5806.09
930.89	5787.11
931.199	5738.75
931.508	5762.02
931.817	5714.57
932.125	5708.24
932.434	5685.64
932.743	5599.54
933.051	5577.62
933.36	5601.35
933.669	5558.87
933.977	5526.32
934.286	5560.67
934.594	5487.91
934.902	5457.4
935.21	5437.51
935.519	5423.28
935.827	5385.76
936.135	5337.4
936.443	5353.22
936.751	5344.86
937.059	5311.41
937.367	5254.47
937.674	5251.75
937.982	5233.9
938.29	5164.53
938.597	5187.58
938.905	5136.96
939.213	5145.32
939.52	5053.34
939.827	5084.3
940.135	5067.35
940.442	5056.73
940.749	5014.02
941.056	5032.33
941.363	4969.5
941.67	4987.35
941.977	4962.5
942.284	4927.02
942.591	4943.06
942.898	4890.63
943.205	4941.48
943.511	4854.48
943.818	4824.2
944.125	4794.37
944.431	4765.21
944.738	4753.69
945.044	4710.98
945.35	4742.62
945.657	4679.57
945.963	4670.98
946.269	4625.1
946.575	4634.37
946.881	4617.19
947.187	4635.27
947.493	4563.41
947.799	4544.43
948.105	4471.44
948.41	4564.99
948.716	4538.1
949.022	4511.66
949.327	4479.12
949.633	4456.97
949.938	4375.62
950.244	4457.88
950.549	4371.1
950.854	4402.96
951.16	4384.88
951.465	4312.8
951.77	4294.04
952.075	4278.9
952.38	4249.52
952.685	4252.46
952.99	4200.71
953.294	4210.2
953.599	4174.04
953.904	4143.99
954.209	4189.41
954.513	4141.5
954.818	4151.22
955.122	4159.81
955.426	4094.04
955.731	4114.38
956.035	4045.68
956.339	4015.63
956.643	4070.99
956.948	4000.94
957.252	4038.45
957.556	3972.69
957.86	3921.62
958.163	3934.95
958.467	3919.59
958.771	3931.56
959.075	3917.78
959.378	3875.75
959.682	3891.56
959.985	3840.94
960.289	3827.61
960.592	3815.41
960.896	3821.96
961.199	3765.01
961.502	3792.13
961.805	3728.63
962.108	3699.03
962.411	3724.11
962.714	3698.35
963.017	3708.74
963.32	3659.25
963.623	3662.42
963.926	3636.88
964.228	3621.51
964.531	3624.23
964.833	3606.83
965.136	3565.47
965.438	3557.56
965.741	3538.58
966.043	3538.13
966.345	3522.53
966.648	3487.96
966.95	3438.92
967.252	3484.57
967.554	3435.08
967.856	3449.77
968.158	3382.43
968.46	3411.35
968.761	3389.43
969.063	3385.14
969.365	3346.95
969.666	3324.57
969.968	3313.27
970.269	3310.11
970.571	3327.51
970.872	3292.94
971.174	3247.74
971.475	3235.99
971.776	3246.61
972.077	3184.92
972.378	3247.51
972.679	3221.53
972.98	3154.63
973.281	3138.14
973.582	3154.18
973.883	3144.92
974.183	3165.71
974.484	3134.52
974.785	3068.08
975.085	3108.99
975.386	3092.72
975.686	3089.33
975.986	3014.07
976.287	3028.54
976.587	2977.69
976.887	2976.56
977.187	2989.67
977.487	3021.53
977.787	2948.76
978.087	2946.28
978.387	2950.8
978.687	2927.07
978.987	2915.54
979.286	2906.05
979.586	2902.66
979.885	2857.02
980.185	2880.52
980.484	2858.15
980.784	2846.62
981.083	2850.01
981.382	2781.99
981.682	2782.67
981.981	2773.18
982.28	2766.62
982.579	2777.47
982.878	2744.93
983.177	2767.53
983.475	2730.46
983.774	2696.12
984.073	2697.92
984.372	2690.92
984.67	2630.58
984.969	2695.89
985.267	2675.33
985.566	2635.1
985.864	2622.45
986.162	2656.34
986.461	2635.33
986.759	2615.44
987.057	2575.67
987.355	2572.73
987.653	2519.62
987.951	2545.84
988.249	2544.48
988.547	2505.39
988.844	2505.84
989.142	2505.16
989.44	2498.38
989.737	2494.99
990.035	2474.2
990.332	2463.35
990.63	2448.44
990.927	2468.1
991.224	2425.39
991.521	2443.24
991.819	2396.69
992.116	2430.81
992.413	2400.3
992.71	2394.65
993.006	2348.78
993.303	2366.41
993.6	2350.59
993.897	2347.42
994.193	2319.63
994.49	2305.17
994.787	2286.86
995.083	2293.19
995.379	2260.65
995.676	2242.34
995.972	2249.35
996.268	2265.84
996.565	2251.61
996.861	2194.66
997.157	2209.8
997.453	2191.95
997.749	2190.37
998.044	2141.78
998.34	2175
998.636	2173.19
998.932	2170.03
999.227	2151.72
999.523	2093.87
999.818	2111.27
1000.114	2096.58
1000.409	2066.98
1000.704	2082.57
1001	2088.9
1001.295	2057.94
1001.59	2048.67
1001.885	2059.97
1002.18	2037.38
1002.475	2008.22
1002.77	2002.12
1003.065	2013.87
1003.359	1950.82
1003.654	1990.15
1003.949	1992.41
1004.243	1950.6
1004.538	1927.1
1004.832	1928.9
1005.127	1907.44
1005.421	1895.46
1005.715	1876.02
1006.009	1909.02
1006.304	1876.7
1006.598	1870.37
1006.892	1866.98
1007.186	1850.26
1007.48	1831.05
1007.773	1798.06
1008.067	1834.67
1008.361	1774.11
1008.655	1800.09
1008.948	1777.5
1009.242	1775.91
1009.535	1779.53
1009.829	1770.49
1010.122	1736.82
1010.415	1739.98
1010.708	1716.93
1011.001	1722.36
1011.295	1722.36
1011.588	1707.89
1011.881	1674.22
1012.173	1664.28
1012.466	1701.11
1012.759	1653.66
1013.052	1663.6
1013.344	1627.67
1013.637	1631.06
1013.93	1643.49
1014.222	1608.46
1014.514	1606.65
1014.807	1625.41
1015.099	1608.46
1015.391	1575.47
1015.683	1586.09
1015.976	1557.84
1016.268	1561
1016.56	1563.26
1016.851	1550.61
1017.143	1532.98
1017.435	1496.6
1017.727	1512.42
1018.018	1488.46
1018.31	1484.17
1018.602	1467.9
1018.893	1493.44
1019.185	1473.32
1019.476	1457.5
1019.767	1451.18
1020.058	1441.91
1020.35	1448.46
1020.641	1417.73
1020.932	1396.26
1021.223	1375.92
1021.514	1389.48
1021.804	1385.42
1022.095	1373.66
1022.386	1361.91
1022.677	1354.23
1022.967	1349.03
1023.258	1336.6
1023.548	1354.23
1023.839	1313.33
1024.129	1315.59
1024.419	1317.85
1024.709	1285.76
1025	1292.54
1025.29	1282.82
1025.58	1266.1
1025.87	1263.84
1026.16	1274.01
1026.449	1252.76
1026.739	1237.62
1027.029	1233.56
1027.319	1212.76
1027.608	1198.53
1027.898	1197.62
1028.187	1188.81
1028.477	1207.79
1028.766	1199.66
1029.055	1170.73
1029.344	1171.86
1029.634	1145.42
1029.923	1148.13
1030.212	1132.31
1030.501	1147.91
1030.79	1140.68
1031.078	1116.95
1031.367	1144.52
1031.656	1114.46
1031.945	1106.78
1032.233	1109.49
1032.522	1103.62
1032.81	1104.07
1033.099	1069.49
1033.387	1044.86
1033.675	1061.13
1033.963	1057.97
1034.251	1062.49
1034.54	1053.22
1034.828	1015.03
1035.116	1005.54
1035.403	1020.23
1035.691	985.2
1035.979	1001.24
1036.267	999.44
1036.554	992.43
1036.842	978.87
1037.129	952.66
1037.417	983.17
1037.704	935.48
1037.992	970.51
1038.279	930.96
1038.566	950.85
1038.853	950.85
1039.14	950.85
