Data from hue_80_FLMS001491_58.txt Node
Date: Mon Feb 06 15:23:14 GMT 2017
User: dcchb
Spectrometer: FLMS00149
Trigger mode: 0
Integration Time (sec): 2.000000E-2
Scans to average: 10
Electric dark correction enabled: true
Nonlinearity correction enabled: false
Boxcar width: 0
XAxis mode: Wavelengths
Number of Pixels in Spectrum: 2048
>>>>>Begin Spectral Data<<<<<
341.393	-7.39
341.776	-7.39
342.16	-7.39
342.543	-68.18
342.927	-58.91
343.31	-69.31
343.693	-63.2
344.077	-63.66
344.46	-44.9
344.843	-44.22
345.226	-24.11
345.61	-51
345.993	-26.82
346.376	-19.59
346.759	33.97
347.142	15.21
347.525	33.52
347.908	36.23
348.291	93.63
348.674	88.2
349.057	106.06
349.44	94.98
349.823	151.25
350.206	166.85
350.588	180.18
350.971	193.06
351.354	225.38
351.737	243.23
352.119	234.41
352.502	274.87
352.884	297.24
353.267	291.81
353.65	288.42
354.032	285.26
354.414	305.15
354.797	297.69
355.179	320.74
355.562	311.7
355.944	314.19
356.326	320.74
356.709	334.07
357.091	328.88
357.473	337.69
357.855	316.22
358.238	353.51
358.62	353.51
359.002	349.44
359.384	330.46
359.766	315.99
360.148	355.32
360.53	346.28
360.912	323.23
361.294	312.83
361.676	339.27
362.057	330.68
362.439	336.33
362.821	334.53
363.203	338.14
363.584	321.87
363.966	320.97
364.348	325.03
364.729	322.55
365.111	301.08
365.493	311.02
365.874	305.15
366.256	316.45
366.637	307.86
367.019	303.11
367.4	293.4
367.781	311.25
368.163	300.4
368.544	304.92
368.925	286.84
369.306	301.31
369.688	315.32
370.069	314.64
370.45	308.31
370.831	318.03
371.212	302.89
371.593	305.15
371.974	314.86
372.355	308.99
372.736	305.83
373.117	314.19
373.498	306.73
373.879	309.44
374.26	313.73
374.641	310.34
375.021	322.1
375.402	313.28
375.783	303.11
376.163	339.95
376.544	318.48
376.925	320.51
377.305	321.19
377.686	313.06
378.066	319.38
378.447	334.53
378.827	316.45
379.208	323.45
379.588	331.59
379.968	328.88
380.349	342.89
380.729	335.43
381.109	344.02
381.489	319.61
381.87	312.6
382.25	343.34
382.63	336.11
383.01	338.82
383.39	327.52
383.77	318.48
384.15	336.11
384.53	325.94
384.91	339.5
385.29	354.86
385.67	359.38
386.049	355.54
386.429	359.38
386.809	336.78
387.189	361.64
387.568	360.97
387.948	336.78
388.328	350.34
388.707	363.22
389.087	355.32
389.466	347.63
389.846	356.22
390.225	336.78
390.605	377.46
390.984	363.9
391.363	377.24
391.743	358.25
392.122	367.29
392.501	346.5
392.881	400.06
393.26	364.81
393.639	366.16
394.018	374.98
394.397	357.58
394.776	376.78
395.155	392.6
395.534	364.81
395.913	367.52
396.292	382.66
396.671	374.52
397.05	385.82
397.429	381.76
397.808	392.15
398.186	355.32
398.565	382.21
398.944	374.07
399.323	366.39
399.701	383.79
400.08	395.09
400.458	390.57
400.837	376.78
401.215	399.61
401.594	406.84
401.972	375.2
402.351	391.92
402.729	378.59
403.107	396.9
403.486	386.28
403.864	417.91
404.242	415.88
404.62	416.56
404.999	412.72
405.377	416.33
405.755	419.72
406.133	398.03
406.511	413.62
406.889	406.61
407.267	417.46
407.645	456.1
408.023	423.11
408.401	415.43
408.779	412.26
409.156	448.87
409.534	432.83
409.912	425.14
410.29	450.23
410.667	448.65
411.045	462.43
411.422	447.29
411.8	448.42
412.178	450.91
412.555	446.84
412.933	446.84
413.31	436.67
413.687	453.17
414.065	483
414.442	468.31
414.819	453.17
415.197	484.8
415.574	481.19
415.951	470.34
416.328	482.77
416.705	467.85
417.082	484.8
417.46	493.84
417.837	507.18
418.214	520.28
418.591	490.68
418.967	498.36
419.344	497.68
419.721	506.27
420.098	499.04
420.475	522.09
420.852	529.1
421.228	529.77
421.605	537.01
421.982	518.25
422.358	518.25
422.735	549.43
423.111	549.43
423.488	553.05
423.864	517.57
424.241	525.48
424.617	555.54
424.994	546.5
425.37	544.46
425.746	579.49
426.123	555.76
426.499	551.47
426.875	548.53
427.251	584.91
427.627	595.08
428.003	577.68
428.379	600.28
428.756	586.5
429.132	601.64
429.507	593.73
429.883	607.74
430.259	595.54
430.635	606.16
431.011	604.8
431.387	666.04
431.763	652.93
432.138	632.82
432.514	625.36
432.89	650.9
433.265	678.24
433.641	646.16
434.016	667.4
434.392	652.71
434.767	659.94
435.143	680.73
435.518	665.82
435.894	674.4
436.269	685.25
436.644	692.71
437.02	680.96
437.395	694.06
437.77	696.1
438.145	727.51
438.52	740.39
438.895	720.96
439.271	744.91
439.646	743.78
440.021	761.63
440.395	733.84
440.77	755.08
441.145	761.63
441.52	758.92
441.895	760.05
442.27	754.85
442.645	770.67
443.019	794.17
443.394	806.83
443.769	779.03
444.143	774.51
444.518	817
444.892	796.89
445.267	803.21
445.641	823.1
446.016	813.61
446.39	817
446.764	813.61
447.139	812.48
447.513	815.87
447.887	812.25
448.262	819.26
448.636	828.07
449.01	856.32
449.384	846.83
449.758	870.1
450.132	872.59
450.506	873.95
450.88	865.81
451.254	873.72
451.628	873.04
452.002	900.84
452.376	925.24
452.75	915.75
453.123	912.59
453.497	932.02
453.871	951.01
454.244	957.11
454.618	944.68
454.992	982.42
455.365	987.62
455.739	1002.98
456.112	1016.32
456.486	1001.4
456.859	994.62
457.232	1049.53
457.606	1038.46
457.979	1031.23
458.352	1055.64
458.725	1081.85
459.099	1074.39
459.472	1082.53
459.845	1134.73
460.218	1116.88
460.591	1119.82
460.964	1122.75
461.337	1137.89
461.71	1189.87
462.083	1198.46
462.456	1179.25
462.829	1224.67
463.201	1245.69
463.574	1249.3
463.947	1238.68
464.32	1283.88
464.692	1302.18
465.065	1306.7
465.438	1339.7
465.81	1341.73
466.183	1366.59
466.555	1385.8
466.928	1407.72
467.3	1413.37
467.672	1420.6
468.045	1479.13
468.417	1478.22
468.789	1496.53
469.161	1530.43
469.534	1567.04
469.906	1605.23
470.278	1594.6
470.65	1650.2
471.022	1659.91
471.394	1722.51
471.766	1672.57
472.138	1739.91
472.51	1779.01
472.882	1835.28
473.253	1907.37
473.625	1898.33
473.997	1907.37
474.369	2016.29
474.74	1998.44
475.112	2056.29
475.484	2125.66
475.855	2193.23
476.227	2236.62
476.598	2288.37
476.97	2344.64
477.341	2393.68
477.713	2450.18
478.084	2470.51
478.455	2573.79
478.827	2621.7
479.198	2746.89
479.569	2791.64
479.94	2858.3
480.311	2918.19
480.682	3028.01
481.053	3129.71
481.424	3222.13
481.795	3253.54
482.166	3321.11
482.537	3436.59
482.908	3575.12
483.279	3648.34
483.65	3739.41
484.021	3853.3
484.391	3862.34
484.762	3983.02
485.133	4158.83
485.503	4260.75
485.874	4387.07
486.244	4465.94
486.615	4596.56
486.985	4758.36
487.356	4830.23
487.726	4986.83
488.097	5109.99
488.467	5212.36
488.837	5333.49
489.207	5483.32
489.578	5564.22
489.948	5747.94
490.318	5876.53
490.688	6007.6
491.058	6101.61
491.428	6314.71
491.798	6478.32
492.168	6612.33
492.538	6766.9
492.908	6842.15
493.278	6990.85
493.648	7122.14
494.017	7256.6
494.387	7398.29
494.757	7552.64
495.126	7708.34
495.496	7799.41
495.866	7956.02
496.235	8084.6
496.605	8197.82
496.974	8374.77
497.344	8495.89
497.713	8596.91
498.082	8697.92
498.452	8880.97
498.821	8969.1
499.19	9155.99
499.559	9290.22
499.928	9429.43
500.298	9479.37
500.667	9574.96
501.036	9691.79
501.405	9815.86
501.774	9991.9
502.143	10057.43
502.512	10155.28
502.88	10291.78
503.249	10340.59
503.618	10487.03
503.987	10642.05
504.356	10755.49
504.724	10828.26
505.093	10920.01
505.462	11001.59
505.83	11062.6
506.199	11190.51
506.567	11391.64
506.936	11410.84
507.304	11576.72
507.672	11670.27
508.041	11699.2
508.409	11866.88
508.777	11964.28
509.145	12060.32
509.514	12070.26
509.882	12213.99
510.25	12248.11
510.618	12429.8
510.986	12470.7
511.354	12569.23
511.722	12781.88
512.09	12765.16
512.458	12837.02
512.826	12977.58
513.193	12988.88
513.561	13131.02
513.929	13127.41
514.297	13326.73
514.664	13364.92
515.032	13424.8
515.4	13573.5
515.767	13560.39
516.135	13721.52
516.502	13604.01
516.869	13878.58
517.237	13914.06
517.604	13883.32
517.972	14006.48
518.339	14030.44
518.706	14091
519.073	14124.67
519.44	14314.72
519.808	14348.85
520.175	14360.37
520.542	14454.83
520.909	14576.18
521.276	14661.15
521.643	14685.79
522.009	14840.81
522.376	14890.07
522.743	14928.94
523.11	14995.16
523.477	15130.29
523.843	15249.39
524.21	15323.96
524.577	15407.58
524.943	15453.45
525.31	15465.65
525.676	15591.3
526.043	15615.71
526.409	15714.46
526.776	15844.17
527.142	15824.29
527.508	15873.78
527.874	15907
528.241	15949.03
528.607	15991.74
528.973	16175.69
529.339	16081.46
529.705	16219.98
530.071	16342.69
530.437	16391.96
530.803	16351.96
531.169	16525.74
531.535	16431.28
531.901	16460.43
532.267	16406.42
532.632	16450.71
532.998	16544.27
533.364	16607.54
533.73	16546.98
534.095	16793.98
534.461	16704.26
534.826	16780.65
535.192	16780.65
535.557	16770.7
535.923	16834.2
536.288	16858.16
536.653	16806.18
537.019	16728.22
537.384	16911.49
537.749	16840.08
538.114	16858.38
538.479	16850.93
538.845	16913.3
539.21	16690.93
539.575	16817.48
539.94	16843.24
540.305	16851.38
540.67	16879.4
541.034	16885.95
541.399	16855.9
541.764	16853.19
542.129	16885.5
542.494	16860.42
542.858	16884.82
543.223	16901.77
543.587	16854.99
543.952	16795.56
544.316	16880.98
544.681	16879.17
545.045	16898.61
545.41	16897.03
545.774	16907.87
546.138	16910.13
546.503	16831.49
546.867	16856.35
547.231	16902.68
547.595	16874.43
547.959	16930.92
548.324	16828.33
548.688	16913.75
549.052	16754.43
549.416	16868.1
549.779	16897.03
550.143	16873.53
550.507	16941.32
550.871	16825.16
551.235	16853.19
551.599	17005.95
551.962	16998.04
552.326	16937.25
552.689	16886.41
553.053	16875.33
553.417	16866.52
553.78	17022.9
554.143	16837.14
554.507	16937.25
554.87	16808.44
555.234	17101.09
555.597	16870.81
555.96	16952.62
556.323	16887.31
556.686	16947.2
557.05	17013.41
557.413	16938.16
557.776	17014.54
558.139	17101.99
558.502	17066.97
558.865	17030.36
559.228	17181.31
559.59	17138.38
559.953	17148.55
560.316	17322.33
560.679	17238.94
561.041	17423.34
561.404	17344.25
561.767	17426.73
562.129	17343.34
562.492	17479.39
562.854	17469.89
563.217	17380.63
563.579	17480.51
563.941	17538.37
564.304	17608.87
564.666	17574.98
565.028	17539.95
565.39	17592.83
565.753	17697.46
566.115	17646.84
566.477	17721.86
566.839	17751.69
567.201	17890.22
567.563	17868.75
567.925	17888.41
568.287	17916.66
568.648	17971.12
569.01	17965.93
569.372	18013.16
569.734	18002.76
570.095	17954.63
570.457	18026.04
570.819	18197.11
571.18	18075.08
571.542	18151.01
571.903	18191.23
572.265	18191.91
572.626	18195.98
572.987	18203.89
573.349	18346.71
573.71	18333.83
574.071	18339.93
574.432	18469.64
574.794	18541.73
575.155	18500.38
575.516	18400.26
575.877	18529.3
576.238	18557.32
576.599	18518.45
576.96	18427.61
577.32	18515.29
577.681	18595.97
578.042	18583.31
578.403	18557.32
578.763	18599.13
579.124	18668.51
579.485	18749.41
579.845	18673.25
580.206	18606.14
580.566	18717.32
580.927	18705.34
581.287	18781.5
581.648	18666.92
582.008	18724.32
582.368	18642.07
582.728	18756.41
583.089	18669.18
583.449	18722.29
583.809	18712.35
584.169	18654.27
584.529	18580.82
584.889	18825.11
585.249	18648.85
585.609	18593.48
585.969	18635.96
586.329	18686.81
586.688	18667.38
587.048	18552.35
587.408	18686.81
587.768	18536.76
588.127	18523.2
588.487	18646.59
588.846	18648.39
589.206	18537.66
589.565	18505.8
589.925	18555.74
590.284	18464.22
590.643	18483.88
591.003	18517.78
591.362	18598.9
591.721	18509.87
592.08	18524.56
592.44	18538.11
592.799	18582.63
593.158	18558
593.517	18527.72
593.876	18523.88
594.235	18502.41
594.593	18559.58
594.952	18512.35
595.311	18446.82
595.67	18469.87
596.029	18638.68
596.387	18633.48
596.746	18638.45
597.104	18570.66
597.463	18533.82
597.822	18603.65
598.18	18454.73
598.538	18506.7
598.897	18631.67
599.255	18370.44
599.613	18640.03
599.972	18503.31
600.33	18551.9
600.688	18509.19
601.046	18576.08
601.404	18631.67
601.762	18532.69
602.12	18636.19
602.478	18654.5
602.836	18619.24
603.194	18468.96
603.552	18510.32
603.91	18367.5
604.268	18578.34
604.625	18528.17
604.983	18586.7
605.341	18451.11
605.698	18580.6
606.056	18618.79
606.413	18568.4
606.771	18770.42
607.128	18683.42
607.485	18548.06
607.843	18635.74
608.2	18635.96
608.557	18685.68
608.914	18691.78
609.272	18758.9
609.629	18726.13
609.986	18803.87
610.343	18786.47
610.7	18830.31
611.057	18812.46
611.414	18835.96
611.771	18898.78
612.127	18907.37
612.484	18862.4
612.841	18982.85
613.198	18901.72
613.554	18860.37
613.911	18978.33
614.267	18991.66
614.624	18987.37
614.98	19069.63
615.337	19056.07
615.693	19103.98
616.05	19105.78
616.406	19171.54
616.762	19037.99
617.118	19136.97
617.475	19167.48
617.831	19124.77
618.187	19093.13
618.543	19175.61
618.899	19211.09
619.255	19244.31
619.611	19189.62
619.967	19234.59
620.323	19389.84
620.678	19255.84
621.034	19147.14
621.39	19267.36
621.746	19236.85
622.101	19423.97
622.457	19259.9
622.812	19287.93
623.168	19235.72
623.523	19282.95
623.879	19405.89
624.234	19270.52
624.589	19236.4
624.945	19288.83
625.3	19379.67
625.655	19358.43
626.01	19318.21
626.365	19334.48
626.72	19321.37
627.075	19374.48
627.43	19356.17
627.785	19277.08
628.14	19324.99
628.495	19421.93
628.85	19232.56
629.205	19253.12
629.559	19282.95
629.914	19256.06
630.269	19221.26
630.623	19207.02
630.978	19080.25
631.332	19255.38
631.687	19164.99
632.041	19236.4
632.396	19141.49
632.75	19042.06
633.104	19157.08
633.459	19068.72
633.813	19105.78
634.167	19104.43
634.521	19133.8
634.875	18994.37
635.229	19080.92
635.583	18853.59
635.937	18978.1
636.291	18887.71
636.645	18945.11
636.999	18909.18
637.352	18930.65
637.706	18779.92
638.06	18891.78
638.413	18793.02
638.767	18719.35
639.121	18858.33
639.474	18781.27
639.828	18778.79
640.181	18771.33
640.534	18864.43
640.888	18750.31
641.241	18582.86
641.594	18644.78
641.947	18775.17
642.301	18594.16
642.654	18624.21
643.007	18677.32
643.36	18651.56
643.713	18545.35
644.066	18625.57
644.419	18499.92
644.771	18516.65
645.124	18288.63
645.477	18344.9
645.83	18097.22
646.182	18061.52
646.535	18031.01
646.888	17931.12
647.24	17967.28
647.593	18027.62
647.945	18071.01
648.298	17885.48
648.65	17825.82
649.002	17923.89
649.355	17984
649.707	17936.1
650.059	17952.82
650.411	18321.4
650.763	18292.92
651.115	18471.22
651.467	18336.76
651.819	18352.13
652.171	18424.9
652.523	18300.15
652.875	18454.73
653.227	18255.64
653.578	18403.43
653.93	18341.74
654.282	18356.65
654.633	18263.55
654.985	18381.96
655.337	18320.94
655.688	18374.28
656.039	18395.75
656.391	18301.51
656.742	18355.75
657.094	18277.78
657.445	18383.54
657.796	18350.1
658.147	18211.12
658.498	18290.66
658.849	18341.06
659.2	18265.58
659.551	18261.51
659.902	18365.69
660.253	18311.68
660.604	18308.52
660.955	18292.47
661.306	18287.5
661.656	18276.43
662.007	18389.19
662.358	18287.5
662.708	18340.61
663.059	18285.01
663.409	18261.06
663.76	18403.2
664.11	18385.8
664.461	18307.16
664.811	18460.38
665.161	18394.16
665.511	18311
665.862	18420.83
666.212	18446.14
666.562	18400.72
666.912	18405.01
667.262	18379.7
667.612	18373.37
667.962	18420.6
668.312	18271.91
668.662	18372.24
669.011	18352.58
669.361	18252.92
669.711	18261.51
670.06	18285.47
670.41	18305.8
670.76	18190.33
671.109	18313.71
671.459	18337.22
671.808	18274.17
672.157	18336.99
672.507	18192.59
672.856	18160.05
673.205	18193.94
673.554	18250.89
673.904	18122.76
674.253	18192.13
674.602	18169.76
674.951	17955.98
675.3	17804.8
675.649	18074.17
675.998	18050.22
676.346	18122.98
676.695	18189.87
677.044	17967.73
677.393	17991.24
677.741	18028.98
678.09	18028.75
678.438	18094.06
678.787	18006.83
679.135	17955.3
679.484	17862.2
679.832	17885.7
680.181	17927.06
680.529	17838.25
680.877	17788.08
681.225	17799.6
681.573	17826.49
681.922	17674.86
682.27	17711.24
682.618	17744.91
682.966	17711.02
683.314	17645.71
683.661	17685.03
684.009	17487.29
684.357	17456.11
684.705	17494.75
685.053	17396.22
685.4	17443.91
685.748	17289.79
686.095	17338.37
686.443	17296.56
686.79	17210.47
687.138	17241.88
687.485	17163.69
687.832	17030.13
688.18	17141.54
688.527	16977.48
688.874	17027.65
689.221	16928.21
689.568	16960.98
689.915	16897.25
690.262	16913.07
690.609	16883.47
690.956	16660.65
691.303	16719.18
691.65	16598.73
691.997	16551.5
692.344	16484.38
692.69	16518.05
693.037	16484.38
693.383	16413.65
693.73	16418.85
694.077	16390.83
694.423	16263.15
694.769	16259.08
695.116	16158.52
695.462	16205.97
695.808	16041.91
696.155	16125.97
696.501	16030.38
696.847	16025.19
697.193	15831.07
697.539	15846.89
697.885	15668.36
698.231	15616.38
698.577	15719.43
698.923	15621.58
699.269	15569.6
699.614	15490.28
699.96	15450.96
700.306	15486.22
700.651	15312.66
700.997	15248.03
701.342	15257.52
701.688	15145.21
702.033	15129.84
702.379	15032.9
702.724	14999.68
703.069	15095.27
703.415	14925.33
703.76	14954.93
704.105	14812.79
704.45	14888.04
704.795	14718.33
705.14	14672
705.485	14711.55
705.83	14606.01
706.175	14620.93
706.52	14563.3
706.865	14474.27
707.209	14453.7
707.554	14440.82
707.899	14466.13
708.243	14368.28
708.588	14338.45
708.932	14219.58
709.277	14128.06
709.621	14224.33
709.966	14067.72
710.31	14081.28
710.654	13970.78
710.998	13990.89
711.342	13941.17
711.687	13919.93
712.031	13819.82
712.375	13843.77
712.719	13840.16
713.063	13797.22
713.407	13770.1
713.75	13739.14
714.094	13732.36
714.438	13724.91
714.782	13796.09
715.125	13670.9
715.469	13644.68
715.812	13567.4
716.156	13531.01
716.499	13523.33
716.843	13493.5
717.186	13451.92
717.53	13574.63
717.873	13586.15
718.216	13481.52
718.559	13432.71
718.902	13317.01
719.246	13272.04
719.589	13347.52
719.932	13295.54
720.275	13286.05
720.617	13237.91
720.96	13185.49
721.303	13260.29
721.646	13186.16
721.989	13173.74
722.331	13192.72
722.674	13100.07
723.016	13104.36
723.359	13124.02
723.701	13089.9
724.044	13010.8
724.386	13034.3
724.729	13082.44
725.071	13087.64
725.413	13033.63
725.755	12990.92
726.097	12964.48
726.439	12913.63
726.782	13002.21
727.124	13033.85
727.465	12917.7
727.807	12952.27
728.149	12953.4
728.491	12863.46
728.833	12991.14
729.175	12815.55
729.516	12930.58
729.858	12859.39
730.199	12800.19
730.541	12799.73
730.882	12837.47
731.224	12845.83
731.565	12754.76
731.906	12804.71
732.248	12748.21
732.589	12783.69
732.93	12679.06
733.271	12681.32
733.612	12704.37
733.953	12679.51
734.294	12761.09
734.635	12719.28
734.976	12766.51
735.317	12690.36
735.658	12756.57
735.999	12737.14
736.339	12767.87
736.68	12813.07
737.021	12727.87
737.361	12664.6
737.702	12711.37
738.042	12703.92
738.383	12744.59
738.723	12785.5
739.063	12674.09
739.404	12777.59
739.744	12777.36
740.084	12733.97
740.424	12780.53
740.764	12756.57
741.104	12906.4
741.444	12775.1
741.784	12770.36
742.124	12889
742.464	12811.03
742.804	12892.39
743.143	12795.21
743.483	12911.14
743.823	12902.33
744.162	12930.13
744.502	12961.54
744.841	12958.37
745.181	13046.28
745.52	13052.16
745.86	13139.84
746.199	13099.61
746.538	13109.1
746.877	13161.98
747.216	13137.58
747.556	13249.89
747.895	13381.87
748.234	13364.46
748.573	13353.84
748.911	13444.91
749.25	13502.54
749.589	13535.08
749.928	13548.19
750.267	13673.16
750.605	13759.26
750.944	13750.22
751.283	13867.05
751.621	13878.12
751.96	13961.29
752.298	14014.39
752.636	14218.23
752.975	14198.57
753.313	14132.58
753.651	14435.17
753.989	14418.9
754.327	14518.78
754.666	14537.77
755.004	14765.33
755.342	14847.59
755.679	14941.82
756.017	15055.72
756.355	15151.31
756.693	15126
757.031	15329.61
757.368	15373.23
757.706	15483.51
758.044	15565.54
758.381	15763.95
758.719	15862.48
759.056	15913.1
759.394	16032.42
759.731	16121.45
760.068	16174.56
760.405	16245.75
760.743	16364.84
761.08	16559.86
761.417	16636.92
761.754	16773.41
762.091	16915.11
762.428	16910.81
762.765	16945.16
763.102	17158.26
763.438	17167.08
763.775	17212.05
764.112	17356
764.449	17484.13
764.785	17504.47
765.122	17517.12
765.458	17633.28
765.795	17621.75
766.131	17789.89
766.467	17887.28
766.804	17883.22
767.14	17903.1
767.476	18104
767.812	18036.43
768.148	18131.12
768.485	18125.7
768.821	18174.51
769.157	18191
769.492	18222.64
769.828	18333.83
770.164	18349.64
770.5	18298.12
770.836	18402.52
771.171	18441.17
771.507	18379.7
771.842	18448.85
772.178	18498.34
772.513	18390.1
772.849	18432.35
773.184	18517.1
773.519	18622.86
773.855	18526.82
774.19	18529.75
774.525	18592.12
774.86	18499.92
775.195	18540.37
775.53	18446.14
775.865	18474.84
776.2	18348.06
776.535	18415.86
776.87	18292.47
777.205	18472.35
777.539	18400.72
777.874	18424.67
778.209	18252.02
778.543	18311.45
778.878	18285.69
779.212	18323.66
779.547	18135.19
779.881	18341.06
780.215	18170.44
780.55	18235.07
780.884	18069.43
781.218	18176.09
781.552	18186.03
781.886	18065.36
782.22	18031.23
782.554	17978.81
782.888	17820.84
783.222	17933.16
783.556	17743.78
783.889	17763.9
784.223	17635.77
784.557	17673.05
784.89	17733.84
785.224	17587.4
785.557	17499.27
785.891	17497.92
786.224	17539.95
786.558	17504.7
786.891	17297.02
787.224	17279.16
787.557	17321.88
787.891	17293.85
788.224	17254.08
788.557	17192.84
788.89	17226.28
789.223	17193.97
789.556	17059.06
789.888	16988.55
790.221	16998.72
790.554	16865.39
790.887	16850.02
791.219	16845.05
791.552	16837.37
791.884	16687.09
792.217	16686.64
792.549	16655.23
792.882	16612.52
793.214	16470.37
793.546	16534.55
793.879	16432.86
794.211	16391.5
794.543	16490.26
794.875	16408.68
795.207	16414.33
795.539	16224.73
795.871	16235.58
796.203	16137.5
796.535	16088.46
796.867	16136.37
797.198	16007.11
797.53	16040.55
797.862	15861.8
798.193	15982.93
798.525	15860.67
798.856	15807.34
799.188	15729.37
799.519	15658.42
799.85	15562.83
800.182	15609.38
800.513	15654.8
800.844	15449.83
801.175	15506.56
801.506	15413.45
801.837	15359.44
802.168	15367.8
802.499	15326.22
802.83	15254.81
803.161	15161.03
803.491	15168.49
803.822	15174.81
804.153	15105.66
804.483	14986.8
804.814	14982.95
805.145	14994.48
805.475	15011.65
805.805	14839.23
806.136	14893.24
806.466	14838.78
806.796	14863.41
807.126	14776.86
807.457	14589.52
807.787	14723.07
808.117	14639.91
808.447	14616.18
808.777	14582.06
809.107	14559.46
809.436	14550.87
809.766	14446.92
810.096	14454.83
810.426	14407.83
810.755	14357.89
811.085	14374.61
811.414	14319.24
811.744	14230.43
812.073	14246.02
812.403	14096.2
812.732	14123.77
813.061	14157.21
813.39	14150.88
813.719	14053.49
814.049	14138.91
814.378	13958.57
814.707	13951.79
815.036	13949.53
815.365	13886.49
815.693	13735.53
816.022	13738.24
816.351	13758.13
816.68	13676.55
817.008	13681.29
817.337	13614.18
817.665	13529.21
817.994	13610.33
818.322	13588.87
818.651	13539.38
818.979	13436.78
819.307	13460.51
819.636	13496.66
819.964	13351.36
820.292	13493.05
820.62	13475.65
820.948	13388.65
821.276	13424.8
821.604	13382.77
821.932	13412.83
822.259	13392.94
822.587	13375.99
822.915	13343
823.243	13389.1
823.57	13360.85
823.898	13386.39
824.225	13312.94
824.553	13318.59
824.88	13326.05
825.207	13406.5
825.535	13295.77
825.862	13285.15
826.189	13239.72
826.516	13379.38
826.843	13407.63
827.17	13429.55
827.497	13422.32
827.824	13368.31
828.151	13399.04
828.478	13293.51
828.805	13396.33
829.131	13288.31
829.458	13197.01
829.785	13229.78
830.111	13317.69
830.438	13288.76
830.764	13204.7
831.09	13344.13
831.417	13270.23
831.743	13351.58
832.069	13367.4
832.395	13292.6
832.722	13257.58
833.048	13220.06
833.374	13255.54
833.7	13108.2
834.026	13231.14
834.351	13176.9
834.677	13213.96
835.003	13140.74
835.329	13210.12
835.654	13034.08
835.98	13158.82
836.306	13103.68
836.631	13106.62
836.956	13129.67
837.282	13178.26
837.607	13043.57
837.932	12872.95
838.258	12991.82
838.583	12977.58
838.908	12926.96
839.233	13024.36
839.558	12831.82
839.883	12860.52
840.208	12825.27
840.533	12846.06
840.858	12863.46
841.182	12890.58
841.507	12852.39
841.832	12707.76
842.156	12726.29
842.481	12679.06
842.805	12686.52
843.13	12644.03
843.454	12625.73
843.778	12602.23
844.103	12518.16
844.427	12579.4
844.751	12569.23
845.075	12441.1
845.399	12482
845.723	12423.47
846.047	12384.83
846.371	12304.15
846.695	12259.64
847.019	12200.2
847.343	12099.19
847.666	12067.55
847.99	12023.26
848.313	12068.45
848.637	11962.02
848.96	11925.18
849.284	11877.27
849.607	11784.17
849.931	11778.07
850.254	11702.59
850.577	11628.01
850.9	11612.87
851.223	11633.66
851.546	11582.59
851.869	11449.94
852.192	11518.41
852.515	11350.28
852.838	11304.18
853.161	11370.62
853.483	11241.81
853.806	11192.09
854.129	11284.75
854.451	11155.94
854.774	11062.15
855.096	11160.91
855.419	11064.41
855.741	11049.72
856.063	10983.06
856.385	10956.39
856.708	10853.12
857.03	10893.34
857.352	10869.39
857.674	10807.92
857.996	10826
858.318	10723.86
858.64	10747.36
858.961	10701.26
859.283	10665.78
859.605	10624.65
859.926	10584.65
860.248	10624.2
860.57	10586.23
860.891	10570.41
861.212	10514.82
861.534	10508.95
861.855	10416.97
862.176	10472.79
862.498	10417.88
862.819	10435.05
863.14	10405.67
863.461	10386.01
863.782	10346.69
864.103	10318.9
864.424	10310.76
864.745	10296.52
865.065	10222.4
865.386	10178.11
865.707	10160.93
866.027	10171.33
866.348	10209.97
866.668	10193.7
866.989	10146.47
867.309	10071.44
867.63	10103.08
867.95	10077.09
868.27	9965.68
868.59	10003.2
868.91	10081.16
869.23	9956.64
869.55	9958.68
869.87	10013.59
870.19	9974.05
870.51	9938.79
870.83	10008.4
871.15	9926.82
871.469	9893.6
871.789	9916.42
872.109	9885.91
872.428	9778.8
872.748	9949.87
873.067	9808.85
873.386	9879.58
873.706	9831.22
874.025	9745.58
874.344	9730.89
874.663	9735.86
874.982	9674.84
875.301	9759.59
875.62	9696.31
875.939	9651.12
876.258	9669.19
876.577	9671.68
876.896	9697.44
877.214	9490.44
877.533	9649.76
877.852	9569.08
878.17	9600.27
878.489	9590.1
878.807	9574.96
879.125	9604.34
879.444	9521.4
879.762	9414.74
880.08	9460.61
880.398	9427.39
880.716	9438.92
881.034	9440.95
881.352	9482.53
881.67	9381.29
881.988	9312.82
882.306	9354.4
882.624	9337.23
882.941	9291.58
883.259	9242.09
883.577	9282.09
883.894	9208.42
884.212	9184.91
884.529	9123.45
884.846	9187.4
885.164	9122.77
885.481	9101.53
885.798	9152.6
886.115	9021.98
886.432	9040.51
886.75	9002.32
887.067	9090.68
887.383	9003.9
887.7	8981.98
888.017	8912.83
888.334	8960.06
888.651	8919.16
888.967	8852.27
889.284	8858.14
889.6	8830.12
889.917	8758.48
890.233	8772.27
890.55	8671.71
890.866	8771.14
891.182	8707.19
891.498	8675.77
891.815	8652.5
892.131	8614.08
892.447	8557.13
892.763	8534.76
893.079	8527.08
893.395	8493.63
893.71	8516
894.026	8532.05
894.342	8423.58
894.657	8352.17
894.973	8366.4
895.289	8370.7
895.604	8302.45
895.92	8297.03
896.235	8271.49
896.55	8306.52
896.865	8264.26
897.181	8215.67
897.496	8215
897.811	8106.75
898.126	8120.76
898.441	8074.66
898.756	8072.63
899.071	8000.09
899.386	8038.73
899.7	8012.06
900.015	7939.3
900.33	7879.19
900.644	7896.81
900.959	7873.54
901.273	7848.68
901.588	7791.05
901.902	7828.11
902.216	7756.48
902.531	7763.26
902.845	7721
903.159	7638.29
903.473	7656.59
903.787	7660.89
904.101	7585.86
904.415	7592.64
904.729	7527.1
905.042	7508.8
905.356	7472.87
905.67	7454.34
905.984	7417.05
906.297	7403.72
906.611	7323.49
906.924	7336.83
907.237	7322.14
907.551	7244.85
907.864	7247.34
908.177	7263.61
908.491	7172.54
908.804	7184.51
909.117	7149.04
909.43	7071.07
909.743	7051.41
910.056	7087.34
910.368	7038.76
910.681	6942.94
910.994	6963.28
911.307	6910.62
911.619	6882.83
911.932	6920.11
912.244	6799.21
912.557	6822.72
912.869	6766.67
913.181	6770.74
913.494	6738.88
913.806	6737.52
914.118	6709.95
914.43	6638.31
914.742	6631.99
915.054	6592.89
915.366	6574.59
915.678	6486.45
915.99	6515.61
916.302	6468.6
916.613	6452.33
916.925	6421.6
917.236	6432.9
917.548	6353.58
917.859	6416.63
918.171	6332.56
918.482	6334.59
918.794	6316.74
919.105	6258.89
919.416	6195.39
919.727	6159.91
920.038	6174.6
920.349	6163.98
920.66	6115.62
920.971	6108.84
921.282	6089.85
921.593	6008.95
921.903	6041.72
922.214	5991.55
922.525	5944.55
922.835	5973.47
923.146	5928.95
923.456	5951.1
923.767	5910.2
924.077	5885.79
924.387	5848.5
924.697	5815.28
925.008	5801.73
925.318	5801.27
925.628	5728.96
925.938	5742.97
926.248	5685.12
926.558	5632.69
926.867	5652.35
927.177	5657.77
927.487	5632.69
927.796	5564.67
928.106	5536.87
928.416	5507.5
928.725	5529.87
929.034	5472.02
929.344	5432.24
929.653	5506.59
929.962	5405.58
930.271	5396.99
930.581	5368.74
930.89	5326.94
931.199	5328.52
931.508	5348.86
931.817	5318.12
932.125	5241.06
932.434	5218.24
932.743	5205.13
933.051	5163.55
933.36	5166.26
933.669	5129.88
933.977	5115.87
934.286	5109.77
934.594	5070.9
934.902	5052.59
935.21	5032.03
935.519	5009.43
935.827	4987.96
936.135	4987.51
936.443	4921.52
936.751	4923.56
937.059	4951.13
937.367	4874.74
937.674	4882.43
937.982	4869.55
938.29	4844.46
938.597	4825.71
938.905	4808.53
939.213	4739.16
939.52	4723.79
939.827	4746.61
940.135	4704.81
940.442	4707.29
940.749	4707.74
941.056	4674.98
941.363	4605.15
941.67	4640.17
941.977	4610.34
942.284	4557.46
942.591	4571.93
942.898	4507.52
943.205	4512.04
943.511	4478.6
943.818	4478.6
944.125	4437.47
944.431	4457.58
944.738	4459.16
945.044	4342.33
945.35	4377.36
945.657	4324.7
945.963	4357.24
946.269	4314.53
946.575	4327.87
946.881	4260.98
947.187	4249.45
947.493	4275.89
947.799	4274.53
948.105	4230.69
948.41	4200.19
948.716	4181.88
949.022	4137.36
949.327	4111.83
949.633	4089
949.938	4110.25
950.244	4091.26
950.549	4068.44
950.854	4046.29
951.16	4034.77
951.465	4019.63
951.77	4009
952.075	3983.24
952.38	3942.57
952.685	3983.02
952.99	3970.81
953.294	3960.87
953.599	3894.88
953.904	3904.83
954.209	3878.61
954.513	3897.6
954.818	3816.02
955.122	3853.53
955.426	3789.58
955.731	3789.35
956.035	3797.94
956.339	3737.37
956.643	3742.12
956.948	3693.53
957.252	3676.36
957.556	3685.4
957.86	3674.32
958.163	3689.24
958.467	3634.33
958.771	3616.47
959.075	3650.14
959.378	3618.51
959.682	3608.56
959.985	3590.48
960.289	3550.49
960.592	3592.52
960.896	3507.55
961.199	3555.91
961.502	3449.47
961.805	3494.67
962.108	3460.54
962.411	3425.74
962.714	3440.66
963.017	3397.04
963.32	3432.3
963.623	3395.01
963.926	3371.06
964.228	3357.27
964.531	3299.87
964.833	3359.08
965.136	3287.89
965.438	3251.74
965.741	3279.08
966.043	3273.43
966.345	3278.18
966.648	3244.05
966.95	3222.13
967.252	3216.26
967.554	3188.69
967.856	3154.11
968.158	3189.14
968.46	3143.94
968.761	3111.18
969.063	3089.71
969.365	3118.18
969.666	3123.6
969.968	3071.18
970.269	3071.4
970.571	3076.15
970.872	3037.96
971.174	3044.06
971.475	3006.55
971.776	3004.29
972.077	3023.27
972.378	2970.61
972.679	2938.98
972.98	2957.28
973.281	2980.33
973.582	2940.11
973.883	2967
974.183	2936.94
974.484	2921.12
974.785	2900.56
975.085	2882.48
975.386	2892.88
975.686	2874.35
975.986	2841.8
976.287	2842.48
976.587	2789.83
976.887	2795.03
977.187	2786.21
977.487	2775.59
977.787	2785.99
978.087	2749.15
978.387	2731.3
978.687	2754.12
978.987	2736.72
979.286	2695.14
979.586	2699.89
979.885	2668.93
980.185	2677.97
980.484	2677.06
980.784	2646.1
981.083	2643.84
981.382	2632.09
981.682	2621.92
981.981	2578.08
982.28	2614.47
982.579	2572.88
982.878	2589.38
983.177	2586.9
983.475	2536.5
983.774	2553.22
984.073	2496.28
984.372	2498.76
984.67	2532.21
984.969	2509.61
985.267	2490.4
985.566	2472.77
985.864	2445.88
986.162	2491.53
986.461	2444.98
986.759	2438.2
987.057	2412.66
987.355	2401.82
987.653	2406.79
987.951	2409.05
988.249	2404.53
988.547	2383.28
988.844	2315.26
989.142	2372.89
989.44	2317.52
989.737	2327.92
990.035	2325.43
990.332	2291.76
990.63	2258.09
990.927	2307.81
991.224	2279.78
991.521	2237.75
991.819	2265.32
992.116	2231.88
992.413	2217.64
992.71	2234.14
993.006	2225.1
993.303	2198.2
993.6	2161.82
993.897	2189.84
994.193	2180.35
994.49	2161.6
994.787	2112.33
995.083	2143.97
995.379	2129.28
995.676	2116.4
995.972	2089.51
996.268	2098.77
996.565	2091.54
996.861	2074.82
997.157	2083.18
997.453	2077.98
997.749	2061.94
998.044	2031.43
998.34	2058.1
998.636	2007.02
998.932	1976.97
999.227	1994.37
999.523	1979.91
999.818	1967.7
1000.114	1950.08
1000.409	1941.04
1000.704	1952.11
1001	1954.82
1001.295	1901.49
1001.59	1894.71
1001.885	1916.86
1002.18	1911.21
1002.475	1887.93
1002.77	1859.46
1003.065	1840.7
1003.359	1841.38
1003.654	1851.32
1003.949	1815.39
1004.243	1843.19
1004.538	1793.92
1004.832	1783.3
1005.127	1777.2
1005.421	1765.9
1005.715	1766.13
1006.009	1761.61
1006.304	1740.59
1006.598	1721.83
1006.892	1700.59
1007.186	1721.61
1007.48	1703.53
1007.773	1708.5
1008.067	1677.99
1008.361	1686.58
1008.655	1682.29
1008.948	1670.31
1009.242	1656.3
1009.535	1640.48
1009.829	1652.68
1010.122	1641.38
1010.415	1637.77
1010.708	1605.23
1011.001	1599.8
1011.295	1612.46
1011.588	1575.4
1011.881	1583.53
1012.173	1583.53
1012.466	1557.09
1012.759	1573.59
1013.052	1555.51
1013.344	1539.24
1013.637	1517.54
1013.93	1509.64
1014.222	1518.67
1014.514	1491.56
1014.807	1484.33
1015.099	1515.29
1015.391	1454.72
1015.683	1456.53
1015.976	1459.47
1016.268	1443.87
1016.56	1443.42
1016.851	1421.28
1017.143	1409.98
1017.435	1413.14
1017.727	1421.28
1018.018	1377.89
1018.31	1384.67
1018.602	1383.31
1018.893	1365.46
1019.185	1362.07
1019.476	1366.59
1019.767	1373.14
1020.058	1352.58
1020.35	1329.75
1020.641	1318.91
1020.932	1310.32
1021.223	1300.6
1021.514	1302.64
1021.804	1301.28
1022.095	1304.44
1022.386	1277.33
1022.677	1268.96
1022.967	1276.65
1023.258	1261.96
1023.548	1245.46
1023.839	1252.24
1024.129	1238.68
1024.419	1197.55
1024.709	1208.85
1025	1197.55
1025.29	1184.22
1025.58	1181.28
1025.87	1169.53
1026.16	1169.53
1026.449	1160.94
1026.739	1130.89
1027.029	1116.65
1027.319	1163.88
1027.608	1120.95
1027.898	1115.75
1028.187	1128.4
1028.477	1113.26
1028.766	1129.76
1029.055	1102.41
1029.344	1095.64
1029.634	1073.71
1029.923	1094.05
1030.212	1090.89
1030.501	1059.48
1030.79	1033.94
1031.078	1065.58
1031.367	1056.09
1031.656	1035.07
1031.945	1033.94
1032.233	1010.89
1032.522	1024.68
1032.81	1010.89
1033.099	1005.69
1033.387	1008.18
1033.675	1010.21
1033.963	980.16
1034.251	1014.06
1034.54	957.79
1034.828	964.34
1035.116	943.55
1035.403	959.14
1035.691	941.29
1035.979	967.5
1036.267	940.61
1036.554	928.86
1036.842	928.41
1037.129	932.7
1037.417	916.43
1037.704	892.25
1037.992	917.56
1038.279	922.31
1038.566	899.26
1038.853	899.26
1039.14	899.26
