Data from hue_130_FLMS001491_00094.txt Node
Date: Tue Feb 07 16:58:21 GMT 2017
User: dcchb
Spectrometer: FLMS00149
Trigger mode: 0
Integration Time (sec): 2.000000E-2
Scans to average: 10
Electric dark correction enabled: true
Nonlinearity correction enabled: false
Boxcar width: 0
XAxis mode: Wavelengths
Number of Pixels in Spectrum: 2048
>>>>>Begin Spectral Data<<<<<
341.393	-24.58
341.776	-24.58
342.16	-24.58
342.543	-57.34
342.927	-51.69
343.31	-71.13
343.693	-64.12
344.077	-61.64
344.46	-68.64
344.843	-51.69
345.226	-31.58
345.61	-22.77
345.993	-31.13
346.376	-4.24
346.759	15.65
347.142	32.37
347.525	30.34
347.908	60.17
348.291	71.92
348.674	95.87
349.057	100.62
349.44	131.8
349.823	131.35
350.206	145.36
350.588	197.34
350.971	203.89
351.354	209.09
351.737	224.46
352.119	239.37
352.502	252.48
352.884	272.14
353.267	278.02
353.65	300.61
354.032	306.49
354.414	310.56
354.797	317.34
355.179	323.44
355.562	323.66
355.944	332.25
356.326	358.01
356.709	297.9
357.091	329.77
357.473	342.65
357.855	318.24
358.238	344
358.62	329.31
359.002	329.31
359.384	342.65
359.766	344.23
360.148	352.82
360.53	311.46
360.912	338.8
361.294	332.25
361.676	327.28
362.057	329.54
362.439	338.8
362.821	313.04
363.203	328.41
363.584	317.79
363.966	319.37
364.348	316.66
364.729	319.6
365.111	304.46
365.493	309.2
365.874	334.28
366.256	313.49
366.637	316.88
367.019	336.77
367.4	306.94
367.781	322.53
368.163	304.91
368.544	289.54
368.925	305.81
369.306	329.77
369.688	292.48
370.069	308.07
370.45	320.5
370.831	332.25
371.212	311.91
371.593	316.88
371.974	303.33
372.355	322.08
372.736	314.85
373.117	305.81
373.498	319.82
373.879	304.23
374.26	305.13
374.641	304.46
375.021	317.11
375.402	304.23
375.783	297.9
376.163	325.02
376.544	311.46
376.925	304.68
377.305	333.83
377.686	322.99
378.066	325.47
378.447	327.96
378.827	317.34
379.208	323.44
379.588	319.6
379.968	305.81
380.349	340.61
380.729	328.18
381.109	315.08
381.489	315.53
381.87	329.31
382.25	334.06
382.63	335.41
383.01	327.51
383.39	347.17
383.77	344.23
384.15	339.93
384.53	328.18
384.91	363.66
385.29	348.3
385.67	334.06
386.049	344.45
386.429	344.23
386.809	342.87
387.189	350.33
387.568	343.55
387.948	345.36
388.328	342.19
388.707	355.98
389.087	357.79
389.466	367.05
389.846	349.43
390.225	343.1
390.605	353.27
390.984	367.28
391.363	372.7
391.743	380.84
392.122	365.24
392.501	346.71
392.881	386.26
393.26	374.96
393.639	367.05
394.018	384
394.397	375.19
394.776	364.57
395.155	387.39
395.534	368.18
395.913	369.31
396.292	401.85
396.671	368.18
397.05	353.49
397.429	377.9
397.808	375.41
398.186	381.97
398.565	364.79
398.944	378.8
399.323	376.54
399.701	367.5
400.08	389.88
400.458	377.45
400.837	398.69
401.215	400.72
401.594	410.89
401.972	399.82
402.351	396.66
402.729	405.47
403.107	383.78
403.486	400.05
403.864	409.09
404.242	390.1
404.62	415.64
404.999	389.42
405.377	418.35
405.755	421.06
406.133	427.84
406.511	421.51
406.889	411.57
407.267	419.93
407.645	437.79
408.023	427.39
408.401	423.1
408.779	418.8
409.156	419.25
409.534	439.59
409.912	417.9
410.29	448.86
410.667	438.24
411.045	460.38
411.422	470.1
411.8	466.48
412.178	428.29
412.555	445.02
412.933	453.83
413.31	470.1
413.687	453.38
414.065	468.07
414.442	451.34
414.819	462.19
415.197	462.64
415.574	474.62
415.951	476.65
416.328	462.64
416.705	487.5
417.082	501.51
417.46	506.94
417.837	492.7
418.214	479.37
418.591	474.62
418.967	485.69
419.344	499.25
419.721	506.03
420.098	512.59
420.475	508.74
420.852	511.68
421.228	505.13
421.605	499.03
421.982	506.26
422.358	535.18
422.735	517.11
423.111	526.6
423.488	526.82
423.864	521.17
424.241	534.05
424.617	530.89
424.994	534.28
425.37	533.6
425.746	539.03
426.123	566.82
426.499	525.01
426.875	587.61
427.251	568.63
427.627	561.62
428.003	560.49
428.379	569.08
428.756	589.19
429.132	597.1
429.507	612.92
429.883	593.49
430.259	595.07
430.635	617.89
431.011	606.37
431.387	625.35
431.763	625.12
432.138	622.64
432.514	610.21
432.89	620.38
433.265	640.27
433.641	652.02
434.016	633.94
434.392	641.62
434.767	649.3
435.143	684.33
435.518	653.82
435.894	651.56
436.269	644.79
436.644	691.79
437.02	672.36
437.395	694.95
437.77	706.25
438.145	682.98
438.52	697.44
438.895	743.77
439.271	709.19
439.646	727.95
440.021	710.77
440.395	728.85
440.77	729.08
441.145	731.34
441.52	760.04
441.895	776.08
442.27	751.9
442.645	768.17
443.019	754.61
443.394	777.89
443.769	757.78
444.143	773.6
444.518	757.1
444.892	764.1
445.267	785.8
445.641	804.78
446.016	784.89
446.39	798.23
446.764	800.04
447.139	808.85
447.513	794.84
447.887	805.01
448.262	835.06
448.636	825.35
449.01	837.1
449.384	846.14
449.758	836.87
450.132	867.15
450.506	855.63
450.88	835.97
451.254	853.37
451.628	860.15
452.002	892.91
452.376	892.91
452.75	898.79
453.123	903.31
453.497	899.24
453.871	908.51
454.244	909.64
454.618	927.04
454.992	955.06
455.365	952.57
455.739	964.55
456.112	975.17
456.486	972.91
456.859	992.12
457.232	1007.26
457.606	1036.41
457.979	1042.74
458.352	1046.36
458.725	1052.91
459.099	1049.75
459.472	1077.09
459.845	1074.6
460.218	1098.56
460.591	1097.43
460.964	1112.34
461.337	1107.15
461.71	1155.51
462.083	1153.02
462.456	1148.27
462.829	1185.11
463.201	1201.15
463.574	1221.95
463.947	1207.93
464.32	1241.15
464.692	1260.81
465.065	1269.85
465.438	1291.1
465.81	1284.09
466.183	1303.75
466.555	1364.99
466.928	1371.32
467.3	1357.76
467.672	1392.34
468.045	1441.6
468.417	1434.82
468.789	1445.22
469.161	1484.31
469.534	1519.79
469.906	1539.9
470.278	1542.39
470.65	1592.11
471.022	1629.39
471.394	1670.97
471.766	1686.57
472.138	1713.91
472.51	1720.69
472.882	1787.81
473.253	1814.47
473.625	1825.09
473.997	1876.62
474.369	1913.9
474.74	1967.91
475.112	2025.99
475.484	2070.06
475.855	2076.84
476.227	2146.89
476.598	2227.79
476.97	2271.86
477.341	2313.22
477.713	2390.28
478.084	2416.72
478.455	2488.58
478.827	2538.07
479.198	2629.37
479.569	2678.4
479.94	2766.31
480.311	2822.81
480.682	2930.83
481.053	3052.41
481.424	3093.31
481.795	3141.44
482.166	3270.48
482.537	3317.71
482.908	3397.71
483.279	3507.76
483.65	3626.18
484.021	3726.74
484.391	3810.13
484.762	3890.8
485.133	3955.21
485.503	4077.92
485.874	4201.53
486.244	4340.28
486.615	4470.22
486.985	4581.4
487.356	4705.47
487.726	4745.02
488.097	4933.03
488.467	5009.87
488.837	5174.16
489.207	5291.44
489.578	5496.86
489.948	5541.83
490.318	5642.39
490.688	5748.15
491.058	5896.17
491.428	6020.92
491.798	6162.61
492.168	6341.36
492.538	6419.55
492.908	6629.03
493.278	6786.77
493.648	6808.01
494.017	6930.5
494.387	7068.12
494.757	7230.37
495.126	7351.73
495.496	7457.71
495.866	7472.63
496.235	7679.63
496.605	7847.53
496.974	7942.45
497.344	8018.15
497.713	8159.84
498.082	8257.01
498.452	8410.23
498.821	8531.58
499.19	8527.97
499.559	8713.05
499.928	8772.03
500.298	8908.07
500.667	9026.49
501.036	9131.79
501.405	9187.16
501.774	9214.28
502.143	9389.87
502.512	9435.29
502.88	9589.86
503.249	9619.92
503.618	9713.47
503.987	9812.45
504.356	9865.56
504.724	9949.63
505.093	10049.96
505.462	10102.62
505.83	10195.27
506.199	10333.12
506.567	10451.31
506.936	10415.15
507.304	10593.68
507.672	10522.04
508.041	10682.04
508.409	10724.52
508.777	10840
509.145	10859.21
509.514	10910.5
509.882	10962.03
510.25	11030.05
510.618	11138.07
510.986	11141.23
511.354	11242.02
511.722	11296.03
512.09	11368.35
512.458	11386.42
512.826	11422.13
513.193	11510.26
513.561	11488.12
513.929	11587.55
514.297	11633.65
514.664	11750.71
515.032	11676.59
515.4	11819.41
515.767	11846.07
516.135	11936.01
516.502	11777.37
516.869	11891.27
517.237	11986.41
517.604	11897.6
517.972	12089.91
518.339	12070.47
518.706	12016.46
519.073	12067.54
519.44	12144.6
519.808	12222.56
520.175	12228.89
520.542	12237.02
520.909	12298.26
521.276	12359.73
521.643	12369.22
522.009	12450.58
522.376	12490.35
522.743	12492.61
523.11	12596.56
523.477	12625.49
523.843	12643.57
524.21	12654.86
524.577	12716.33
524.943	12646.28
525.31	12780.74
525.676	12710
526.043	12807.4
526.409	12835.65
526.776	12901.64
527.142	12905.93
527.508	12918.81
527.874	12956.33
528.241	12860.96
528.607	12951.58
528.973	12956.55
529.339	12958.81
529.705	12999.04
530.071	13071.13
530.437	13024.12
530.803	13056.66
531.169	13113.16
531.535	13054.4
531.901	12899.38
532.267	12968.98
532.632	13000.62
532.998	12913.84
533.364	12984.12
533.73	13006.95
534.095	13055.08
534.461	13031.13
534.826	12961.75
535.192	12898.02
535.557	13009.21
535.923	12896.67
536.288	12942.99
536.653	12939.38
537.019	12857.12
537.384	12821.87
537.749	12838.81
538.114	12745.94
538.479	12724.69
538.845	12773.96
539.21	12611.48
539.575	12717.24
539.94	12712.26
540.305	12695.99
540.67	12637.24
541.034	12611.93
541.399	12604.92
541.764	12623.23
542.129	12574.64
542.494	12509.78
542.858	12511.59
543.223	12373.97
543.587	12420.07
543.952	12428.43
544.316	12334.2
544.681	12286.29
545.045	12207.65
545.41	12301.88
545.774	12288.55
546.138	12154.54
546.503	12222.79
546.867	12105.5
547.231	12204.03
547.595	12085.61
547.959	12101.43
548.324	12058.72
548.688	12046.07
549.052	12051.49
549.416	11893.53
549.779	11895.56
550.143	11905.73
550.507	11847.88
550.871	11980.98
551.235	11824.15
551.599	11801.33
551.962	11841.78
552.326	11833.19
552.689	11841.78
553.053	11672.07
553.417	11639.98
553.78	11794.77
554.143	11638.17
554.507	11745.96
554.87	11612.63
555.234	11696.92
555.597	11524.73
555.96	11586.87
556.323	11597.49
556.686	11554.55
557.05	11548.23
557.413	11541
557.776	11576.02
558.139	11577.61
558.502	11573.76
558.865	11514.56
559.228	11459.64
559.59	11576.93
559.953	11401.11
560.316	11556.59
560.679	11482.24
561.041	11578.51
561.404	11475.01
561.767	11628
562.129	11474.33
562.492	11649.92
562.854	11544.84
563.217	11552.52
563.579	11545.97
563.941	11668.22
564.304	11617.6
564.666	11658.28
565.028	11638.17
565.39	11589.13
565.753	11541.45
566.115	11620.32
566.477	11682.91
566.839	11666.87
567.201	11697.15
567.563	11626.64
567.925	11699.86
568.287	11715
568.648	11719.07
569.01	11774.21
569.372	11771.05
569.734	11672.97
570.095	11695.57
570.457	11744.15
570.819	11724.72
571.18	11662.8
571.542	11783.48
571.903	11805.62
572.265	11796.58
572.626	11831.16
572.987	11836.13
573.349	11785.28
573.71	11815.79
574.071	11887.2
574.432	11861.44
574.794	11913.87
575.155	11878.39
575.516	11804.49
575.877	11900.53
576.238	11948.22
576.599	11843.36
576.96	11858.28
577.32	11820.99
577.681	11951.15
578.042	11851.27
578.403	11872.74
578.763	11930.14
579.124	11933.75
579.485	11850.82
579.845	11948.44
580.206	11927.2
580.566	11911.16
580.927	11950.93
581.287	12031.6
581.648	11914.55
582.008	11958.84
582.368	11983.47
582.728	11925.84
583.089	11952.74
583.449	11891.5
583.809	11979.85
584.169	11957.71
584.529	11890.59
584.889	11864.15
585.249	11796.81
585.609	11816.69
585.969	11863.25
586.329	11762.01
586.688	11785.96
587.048	11843.36
587.408	11745.74
587.768	11826.19
588.127	11776.92
588.487	11728.56
588.846	11773.31
589.206	11722.91
589.565	11752.06
589.925	11776.92
590.284	11746.19
590.643	11706.19
591.003	11789.13
591.362	11773.31
591.721	11758.39
592.08	11757.26
592.44	11702.12
592.799	11642.01
593.158	11675.91
593.517	11701.44
593.876	11648.34
594.235	11657.38
594.593	11679.98
594.952	11707.55
595.311	11608.11
595.67	11629.81
596.029	11680.43
596.387	11673.65
596.746	11662.35
597.104	11604.72
597.463	11566.08
597.822	11655.57
598.18	11583.03
598.538	11627.77
598.897	11721.56
599.255	11581.9
599.613	11672.07
599.972	11611.5
600.33	11665.74
600.688	11617.83
601.046	11623.03
601.404	11735.34
601.762	11693.08
602.12	11772.63
602.478	11693.76
602.836	11709.81
603.194	11601.33
603.552	11591.39
603.91	11600.88
604.268	11611.73
604.625	11613.99
604.983	11610.15
605.341	11623.48
605.698	11623.48
606.056	11558.85
606.413	11630.94
606.771	11669.58
607.128	11646.76
607.485	11691.27
607.843	11662.57
608.2	11672.97
608.557	11696.7
608.914	11649.47
609.272	11764.49
609.629	11837.49
609.986	11763.59
610.343	11679.07
610.7	11766.75
611.057	11663.7
611.414	11687.88
611.771	11769.46
612.127	11778.5
612.484	11743.7
612.841	11792.74
613.198	11800.2
613.554	11747.77
613.911	11814.44
614.267	11866.86
614.624	11703.48
614.98	11865.96
615.337	11845.62
615.693	11846.07
616.05	11832.29
616.406	11933.98
616.762	11849.91
617.118	11825.28
617.475	11912.06
617.831	11884.49
618.187	11972.85
618.543	11872.29
618.899	11993.64
619.255	11931.49
619.611	11999.06
619.967	12013.53
620.323	12020.98
620.678	11940.53
621.034	11907.77
621.39	11929.01
621.746	11895.11
622.101	12052.62
622.457	12021.21
622.812	12009.01
623.168	12064.15
623.523	11986.63
623.879	12124.48
624.234	11935.56
624.589	11959.52
624.945	12013.3
625.3	11995.22
625.655	11954.09
626.01	11967.2
626.365	12040.19
626.72	11980.31
627.075	11935.56
627.43	11881.33
627.785	11892.85
628.14	11954.77
628.495	11887.65
628.85	11930.82
629.205	11835.23
629.559	12007.42
629.914	11873.19
630.269	11857.6
630.623	11929.91
630.978	11854.21
631.332	11807.2
631.687	11862.34
632.041	11831.16
632.396	11866.19
632.75	11804.27
633.104	11788
633.459	11749.58
633.813	11817.37
634.167	11722.69
634.521	11802.46
634.875	11832.29
635.229	11736.7
635.583	11651.28
635.937	11687.43
636.291	11743.25
636.645	11764.49
636.999	11662.57
637.352	11620.77
637.706	11647.21
638.06	11674.78
638.413	11583.93
638.767	11650.6
639.121	11547.78
639.474	11473.65
639.828	11486.08
640.181	11481.34
640.534	11564.05
640.888	11520.21
641.241	11467.55
641.594	11482.47
641.947	11475.01
642.301	11507.32
642.654	11486.99
643.007	11534.44
643.36	11513.43
643.713	11568.57
644.066	11551.84
644.419	11395.92
644.771	11325.63
645.124	11246.54
645.477	11310.95
645.83	11228.46
646.182	11214.22
646.535	11154.57
646.888	11085.64
647.24	11107.79
647.593	11167.45
647.945	11178.75
648.298	11070.27
648.65	11087.22
649.002	10960.67
649.355	11067.79
649.707	11104.62
650.059	11108.24
650.411	11256.48
650.763	11253.09
651.115	11343.49
651.467	11348.46
651.819	11339.42
652.171	11296.71
652.523	11217.84
652.875	11238.63
653.227	11199.54
653.578	11371.73
653.93	11315.92
654.282	11308.01
654.633	11262.81
654.985	11309.14
655.337	11342.58
655.688	11347.33
656.039	11276.82
656.391	11255.35
656.742	11340.78
657.094	11328.57
657.445	11302.36
657.796	11323.15
658.147	11294.67
658.498	11317.73
658.849	11354.79
659.2	11383.26
659.551	11252.87
659.902	11350.27
660.253	11366.31
660.604	11416.03
660.955	11286.77
661.306	11355.24
661.656	11351.4
662.007	11309.82
662.358	11281.79
662.708	11346.42
663.059	11393.2
663.409	11247.9
663.76	11292.41
664.11	11373.99
664.461	11338.06
664.811	11343.49
665.161	11321.57
665.511	11319.31
665.862	11368.57
666.212	11416.93
666.562	11357.27
666.912	11377.16
667.262	11378.74
667.612	11362.24
667.962	11399.53
668.312	11369.48
668.662	11372.86
669.011	11442.02
669.361	11358.63
669.711	11318.4
670.06	11382.81
670.41	11361.79
670.76	11278.4
671.109	11296.26
671.459	11268.46
671.808	11280.66
672.157	11282.47
672.507	11300.32
672.856	11296.26
673.205	11335.35
673.554	11387.33
673.904	11258.29
674.253	11298.97
674.602	11338.74
674.951	11197.5
675.3	10996.6
675.649	11289.25
675.998	11190.27
676.346	11172.64
676.695	11243.38
677.044	11127.22
677.393	11150.95
677.741	11159.31
678.09	11176.94
678.438	11191.63
678.787	11171.29
679.135	11106.21
679.484	10993.44
679.832	11065.53
680.181	11082.25
680.529	11115.7
680.877	11072.08
681.225	11001.35
681.573	11084.28
681.922	10947.11
682.27	10967.9
682.618	10947.11
682.966	10911.18
683.314	10883.39
683.661	10946.89
684.009	10869.38
684.357	10830.51
684.705	10826.44
685.053	10833.44
685.4	10817.17
685.748	10708.25
686.095	10696.95
686.443	10657.86
686.79	10672.32
687.138	10674.13
687.485	10668.93
687.832	10624.18
688.18	10632.09
688.527	10594.58
688.874	10583.96
689.221	10533.11
689.568	10478.88
689.915	10526.11
690.262	10494.24
690.609	10378.99
690.956	10399.11
691.303	10350.07
691.65	10307.13
691.997	10329.95
692.344	10186.46
692.69	10233.01
693.037	10216.29
693.383	10130.86
693.73	10150.07
694.077	10091.09
694.423	10054.93
694.769	9980.81
695.116	10020.13
695.462	9977.65
695.808	9917.31
696.155	9940.13
696.501	9843.64
696.847	9879.8
697.193	9745.56
697.539	9830.08
697.885	9691.78
698.231	9673.7
698.577	9688.16
698.923	9672.8
699.269	9636.19
699.614	9558.45
699.96	9576.98
700.306	9514.61
700.651	9530.65
700.997	9459.47
701.342	9352.58
701.688	9389.87
702.033	9341.51
702.379	9320.94
702.724	9295.86
703.069	9260.15
703.415	9186.71
703.76	9157.56
704.105	9190.32
704.45	9151.23
704.795	9136.99
705.14	9047.73
705.485	9014.28
705.83	8987.62
706.175	9010.22
706.52	9002.98
706.865	8981.74
707.209	8920.27
707.554	8870.56
707.899	8942.42
708.243	8928.18
708.588	8801.41
708.932	8786.72
709.277	8774.97
709.621	8687.51
709.966	8669.43
710.31	8723.67
710.654	8617.01
710.998	8694.29
711.342	8637.8
711.687	8581.07
712.031	8585.14
712.375	8576.55
712.719	8512.38
713.063	8533.84
713.407	8466.27
713.75	8565.03
714.094	8531.13
714.438	8442.55
714.782	8439.83
715.125	8433.96
715.469	8474.18
715.812	8412.94
716.156	8341.31
716.499	8347.86
716.843	8333.62
717.186	8321.87
717.53	8322.1
717.873	8352.83
718.216	8335.43
718.559	8309.67
718.902	8222.44
719.246	8264.25
719.589	8337.01
719.932	8204.13
720.275	8195.32
720.617	8203.68
720.96	8167.75
721.303	8185.6
721.646	8175.89
721.989	8196
722.331	8151.03
722.674	8172.72
723.016	8132.95
723.359	8129.56
723.701	8157.36
724.044	8117.81
724.386	8060.41
724.729	8119.84
725.071	8099.96
725.413	8044.14
725.755	8080.07
726.097	8026.06
726.439	7981.32
726.782	8014.76
727.124	8129.11
727.465	8012.5
727.807	8036.46
728.149	7973.41
728.491	8015.66
728.833	8058.6
729.175	8053.18
729.516	8069.9
729.858	8053.63
730.199	8042.56
730.541	7993.07
730.882	7986.29
731.224	8026.29
731.565	7943.8
731.906	7955.33
732.248	7980.19
732.589	7979.96
732.93	7952.16
733.271	7998.72
733.612	8000.3
733.953	7989.68
734.294	7968.21
734.635	8012.73
734.976	8053.4
735.317	7916.91
735.658	7950.58
735.999	8000.07
736.339	7978.38
736.68	7970.92
737.021	8022.67
737.361	7974.76
737.702	7982.22
738.042	7973.41
738.383	7923.69
738.723	7994.65
739.063	7966.63
739.404	8047.75
739.744	8056.57
740.084	8004.59
740.424	8042.1
740.764	8006.85
741.104	8046.62
741.444	8043.01
741.784	8116
742.124	8046.85
742.464	8117.58
742.804	8158.49
743.143	8147.64
743.483	8221.08
743.823	8158.71
744.162	8195.32
744.502	8221.08
744.841	8225.6
745.181	8287.97
745.52	8352.61
745.86	8390.57
746.199	8377.69
746.538	8428.99
746.877	8484.35
747.216	8542.43
747.556	8529.32
747.895	8567.97
748.234	8642.77
748.573	8617.01
748.911	8763.89
749.25	8774.52
749.589	8835.53
749.928	8887.28
750.267	9001.63
750.605	8991.23
750.944	9075.3
751.283	9148.29
751.621	9252.24
751.96	9324.78
752.298	9437.32
752.636	9485.68
752.975	9530.43
753.313	9561.61
753.651	9800.02
753.989	9876.18
754.327	9974.94
754.666	9992.11
755.004	10174.48
755.342	10371.99
755.679	10432.1
756.017	10519.78
756.355	10677.74
756.693	10747.34
757.031	10982.82
757.368	11016.94
757.706	11153.21
758.044	11319.08
758.381	11526.76
758.719	11569.92
759.056	11790.93
759.394	11886.52
759.731	12090.59
760.068	12207.19
760.405	12324.03
760.743	12468.66
761.08	12645.15
761.417	12799.95
761.754	12929.43
762.091	13193.16
762.428	13290.78
762.765	13279.71
763.102	13606.03
763.438	13646.48
763.775	13856.42
764.112	13994.26
764.449	14118.1
764.785	14318.78
765.122	14418.43
765.458	14513.35
765.795	14712.21
766.131	14883.51
766.467	14953.11
766.804	15043.05
767.14	15225.64
767.476	15369.82
767.812	15450.72
768.148	15631.28
768.485	15706.99
768.821	15760.77
769.157	15925.06
769.492	16027.66
769.828	16215.9
770.164	16164.83
770.5	16319.18
770.836	16504.26
771.171	16540.41
771.507	16555.33
771.842	16654.99
772.178	16848.2
772.513	16866.05
772.849	16937.46
773.184	16899.05
773.519	17168.64
773.855	17110.79
774.19	17125.71
774.525	17186.72
774.86	17296.55
775.195	17418.58
775.53	17427.85
775.865	17414.97
776.2	17383.33
776.535	17368.41
776.87	17512.82
777.205	17612.02
777.539	17382.2
777.874	17531.12
778.209	17633.72
778.543	17700.61
778.878	17592.36
779.212	17662.42
779.547	17722.3
779.881	17785.35
780.215	17657.67
780.55	17680.95
780.884	17724.79
781.218	17717.56
781.552	17788.52
781.886	17836.2
782.22	17620.61
782.554	17738.57
782.888	17600.5
783.222	17600.27
783.556	17650.44
783.889	17667.84
784.223	17510.56
784.557	17592.59
784.89	17605.02
785.224	17563.89
785.557	17513.04
785.891	17549.43
786.224	17514.17
786.558	17576.09
786.891	17518.47
787.224	17383.78
787.557	17389.43
787.891	17406.15
788.224	17465.13
788.557	17443.67
788.89	17482.76
789.223	17435.53
789.556	17349.66
789.888	17292.26
790.221	17331.58
790.554	17184.92
790.887	17105.82
791.219	17146.5
791.552	17078.03
791.884	17033.05
792.217	16988.31
792.549	16976.11
792.882	16941.31
793.214	16973.4
793.546	16911.02
793.879	16847.07
794.211	16717.36
794.543	16838.03
794.875	16764.14
795.207	16924.81
795.539	16731.59
795.871	16730.69
796.203	16598.04
796.535	16502.22
796.867	16556.23
797.198	16499.51
797.53	16520.98
797.862	16397.82
798.193	16494.99
798.525	16373.86
798.856	16311.94
799.188	16266.07
799.519	16261.55
799.85	16103.59
800.182	16219.07
800.513	16203.25
800.844	15962.8
801.175	16080.54
801.506	16095
801.837	15935.91
802.168	16006.87
802.499	15890.94
802.83	15776.36
803.161	15898.17
803.491	15791.05
803.822	15785.4
804.153	15711.51
804.483	15675.8
804.814	15591.96
805.145	15568.46
805.475	15534.34
805.805	15506.09
806.136	15522.13
806.466	15498.41
806.796	15530.04
807.126	15371.63
807.457	15350.39
807.787	15360.33
808.117	15262.03
808.447	15186.1
808.777	15282.37
809.107	15206.89
809.436	15087.8
809.766	15135.03
810.096	15125.31
810.426	15031.53
810.755	15023.16
811.085	15043.05
811.414	15029.49
811.744	14831.53
812.073	14864.07
812.403	14818.2
812.732	14842.83
813.061	14820.68
813.39	14771.19
813.719	14772.55
814.049	14794.02
814.378	14709.05
814.707	14627.02
815.036	14703.4
815.365	14664.98
815.693	14505.44
816.022	14502.27
816.351	14530.97
816.68	14396.06
817.008	14416.63
817.337	14336.85
817.665	14291.66
817.994	14292.11
818.322	14201.04
818.651	14203.98
818.979	14271.09
819.307	14248.04
819.636	14229.29
819.964	14084.88
820.292	14264.77
820.62	14111.55
820.948	14178.67
821.276	14178.89
821.604	14180.47
821.932	14160.36
822.259	14105
822.587	14084.21
822.915	14151.32
823.243	14085.79
823.57	14035.85
823.898	14164.43
824.225	14126.69
824.553	14153.81
824.88	14077.2
825.207	14197.2
825.535	14041.72
825.862	14114.71
826.189	14032.23
826.516	14153.13
826.843	14190.19
827.17	14220.02
827.497	14243.98
827.824	14100.02
828.151	14171.44
828.478	14227.25
828.805	14190.42
829.131	14152.9
829.458	14174.15
829.785	14177.54
830.111	14170.31
830.438	14223.86
830.764	14163.53
831.09	14255.27
831.417	14083.3
831.743	14237.2
832.069	14081.72
832.395	14106.13
832.722	14119.23
833.048	14154.94
833.374	14106.13
833.7	13969.86
834.026	14033.36
834.351	14105.45
834.677	14020.7
835.003	14034.94
835.329	14051.66
835.654	13993.13
835.98	13968.73
836.306	13994.49
836.631	13904.78
836.956	14003.76
837.282	13945.9
837.607	13849.41
837.932	13883.76
838.258	13799.24
838.583	13898.67
838.908	13718.79
839.233	13722.86
839.558	13714.5
839.883	13762.63
840.208	13607.61
840.533	13693.03
840.858	13659.36
841.182	13609.42
841.507	13623.65
841.832	13559.02
842.156	13578
842.481	13524.45
842.805	13495.07
843.13	13443.77
843.454	13509.31
843.778	13333.49
844.103	13358.35
844.427	13340.27
844.751	13364.68
845.075	13292.36
845.399	13226.38
845.723	13087.85
846.047	13237
846.371	13073.84
846.695	13041.52
847.019	12951.81
847.343	12985.25
847.666	12853.05
847.99	12850.79
848.313	12841.07
848.637	12714.3
848.96	12627.75
849.284	12586.39
849.607	12566.96
849.931	12569.67
850.254	12535.09
850.577	12470.69
850.9	12345.95
851.223	12353.4
851.546	12308.21
851.869	12188.89
852.192	12271.6
852.515	12166.74
852.838	12107.76
853.161	12084.26
853.483	12058.95
853.806	11979.4
854.129	11929.46
854.451	11887.88
854.774	11867.09
855.096	11829.35
855.419	11772.63
855.741	11725.17
856.063	11689.24
856.385	11707.32
856.708	11639.75
857.03	11611.5
857.352	11562.69
857.674	11566.98
857.996	11454.44
858.318	11408.8
858.64	11456.93
858.961	11474.56
859.283	11284.96
859.605	11308.91
859.926	11351.17
860.248	11244.96
860.57	11200.21
860.891	11228.01
861.212	11184.85
861.534	11187.11
861.855	11079.99
862.176	11073.21
862.498	11147.56
862.819	11084.28
863.14	11009.71
863.461	11101.23
863.782	11057.17
864.103	11066.66
864.424	11027.79
864.745	11016.04
865.065	10904.18
865.386	10851.75
865.707	10858.98
866.027	10860.79
866.348	10863.73
866.668	10861.69
866.989	10870.96
867.309	10697.18
867.63	10761.36
867.95	10737.85
868.27	10666.22
868.59	10711.87
868.91	10709.83
869.23	10685.65
869.55	10674.13
869.87	10704.41
870.19	10668.7
870.51	10704.41
870.83	10728.59
871.15	10527.46
871.469	10609.95
871.789	10565.88
872.109	10538.08
872.428	10480.23
872.748	10557.97
873.067	10502.61
873.386	10434.58
873.706	10543.28
874.025	10455.83
874.344	10383.51
874.663	10454.24
874.982	10364.53
875.301	10357.75
875.62	10427.35
875.939	10331.76
876.258	10287.02
876.577	10252.89
876.896	10301.93
877.214	10273.68
877.533	10240.01
877.852	10206.34
878.17	10249.73
878.489	10227.81
878.807	10198.88
879.125	10170.64
879.444	10203.4
879.762	10172.9
880.08	10135.38
880.398	10015.84
880.716	10098.32
881.034	10040.47
881.352	10082.28
881.67	10005.9
881.988	10012.67
882.306	9975.61
882.624	9944.2
882.941	9942.85
883.259	9847.48
883.577	9931.77
883.894	9871.66
884.212	9849.74
884.529	9867.82
884.846	9810.42
885.164	9749.63
885.481	9725.68
885.798	9780.59
886.115	9676.86
886.432	9680.93
886.75	9638.22
887.067	9700.82
887.383	9632.12
887.7	9590.09
888.017	9593.25
888.334	9586.47
888.651	9477.77
888.967	9517.55
889.284	9474.38
889.6	9424.89
889.917	9377.89
890.233	9452.01
890.55	9397.32
890.866	9358
891.182	9359.58
891.498	9274.84
891.815	9235.97
892.131	9224.22
892.447	9180.38
892.763	9178.35
893.079	9174.73
893.395	9169.76
893.71	9110.55
894.026	9122.75
894.342	9011.12
894.657	9020.84
894.973	8936.54
895.289	8942.87
895.604	8898.35
895.92	8802.54
896.235	8750.79
896.55	8794.18
896.865	8753.95
897.181	8763.22
897.496	8740.39
897.811	8725.02
898.126	8625.37
898.441	8669.43
898.756	8626.04
899.071	8500.17
899.386	8560.06
899.7	8502.88
900.015	8476.67
900.33	8341.53
900.644	8441.64
900.959	8422.66
901.273	8362.55
901.588	8380.85
901.902	8270.35
902.216	8245.94
902.531	8258.6
902.845	8206.39
903.159	8228.31
903.473	8185.15
903.787	8133.18
904.101	8112.39
904.415	8088.21
904.729	8009.11
905.042	7970.24
905.356	7979.73
905.67	7974.76
905.984	7918.27
906.297	7878.49
906.611	7797.37
906.924	7835.1
907.237	7830.36
907.551	7816.35
907.864	7718.72
908.177	7672.17
908.491	7688.44
908.804	7578.84
909.117	7607.31
909.43	7536.13
909.743	7501.33
910.056	7529.58
910.368	7499.07
910.681	7450.48
910.994	7399.18
911.307	7431.73
911.619	7330.03
911.932	7344.5
912.244	7257.94
912.557	7287.32
912.869	7179.75
913.181	7154.44
913.494	7187.21
913.806	7164.39
914.118	7065.63
914.43	7043.71
914.742	7076.48
915.054	7026.54
915.366	6989.93
915.678	6993.32
915.99	6963.49
916.302	6921.23
916.613	6844.17
916.925	6841.23
917.236	6854.79
917.548	6800.78
917.859	6780.44
918.171	6746.77
918.482	6751.07
918.794	6683.5
919.105	6665.64
919.416	6572.09
919.727	6606.44
920.038	6645.08
920.349	6524.63
920.66	6504.52
920.971	6527.79
921.282	6482.6
921.593	6474.91
921.903	6437.85
922.214	6440.34
922.525	6361.25
922.835	6337.97
923.146	6246.9
923.456	6329.61
923.767	6271.98
924.077	6265.43
924.387	6220.23
924.697	6155.37
925.008	6138.43
925.318	6170.97
925.628	6119.22
925.938	6088.48
926.248	6025.43
926.558	5988.6
926.867	5985.89
927.177	5963.52
927.487	5994.93
927.796	5900.47
928.106	5935.95
928.416	5838.55
928.725	5893.46
929.034	5852.11
929.344	5815.04
929.653	5830.64
929.962	5756.52
930.271	5763.75
930.581	5712.22
930.89	5699.57
931.199	5653.47
931.508	5672.9
931.817	5665.22
932.125	5644.88
932.434	5601.04
932.743	5515.39
933.051	5550.42
933.36	5532.79
933.669	5505.67
933.977	5448.73
934.286	5426.13
934.594	5453.25
934.902	5393.59
935.21	5352.01
935.519	5396.52
935.827	5373.47
936.135	5335.28
936.443	5310.88
936.751	5276.3
937.059	5234.72
937.367	5268.39
937.674	5288.73
937.982	5196.53
938.29	5167.6
938.597	5187.04
938.905	5103.43
939.213	5105.68
939.52	5070.21
939.827	5056.87
940.135	5041.51
940.442	5061.62
940.749	5027.49
941.056	5015.29
941.363	4921.28
941.67	4915.41
941.977	4928.97
942.284	4872.7
942.591	4866.82
942.898	4834.05
943.205	4842.87
943.511	4778.91
943.818	4789.99
944.125	4751.8
944.431	4768.29
944.738	4760.16
945.044	4699.82
945.35	4656.88
945.657	4633.83
945.963	4647.39
946.269	4593.38
946.575	4588.64
946.881	4559.26
947.187	4575.98
947.493	4521.29
947.799	4509.54
948.105	4525.14
948.41	4493.72
948.716	4510.9
949.022	4444.69
949.327	4455.98
949.633	4393.84
949.938	4387.51
950.244	4399.04
950.549	4381.41
950.854	4331.24
951.16	4306.38
951.465	4250.11
951.77	4265.48
952.075	4280.17
952.38	4266.61
952.685	4190.45
952.99	4205.6
953.294	4192.71
953.599	4178.7
953.904	4182.09
954.209	4127.63
954.513	4073.85
954.818	4045.15
955.122	4089.67
955.426	4058.03
955.731	4040.85
956.035	4014.87
956.339	4013.74
956.643	4070.01
956.948	3988.43
957.252	3957.47
957.556	3936.22
957.86	3926.96
958.163	3932.16
958.467	3891.03
958.771	3861.42
959.075	3842.22
959.378	3840.63
959.682	3812.61
959.985	3790.69
960.289	3778.26
960.592	3784.14
960.896	3782.78
961.199	3735.33
961.502	3732.61
961.805	3672.5
962.108	3681.09
962.411	3710.69
962.714	3675.89
963.017	3648.1
963.32	3655.55
963.623	3643.35
963.926	3644.71
964.228	3635.44
964.531	3560.87
964.833	3587.53
965.136	3566.29
965.438	3536.01
965.741	3486.74
966.043	3475.67
966.345	3493.07
966.648	3463.24
966.95	3485.39
967.252	3432.06
967.554	3443.13
967.856	3437.93
968.158	3389.57
968.46	3356.13
968.761	3381.44
969.063	3353.19
969.365	3344.6
969.666	3303.25
969.968	3315
970.269	3303.7
970.571	3289.91
970.872	3276.81
971.174	3249.24
971.475	3245.17
971.776	3222.8
972.077	3203.81
972.378	3174.89
972.679	3151.61
972.98	3143.25
973.281	3131.95
973.582	3118.17
973.883	3122.91
974.183	3099.64
974.484	3107.55
974.785	3089.92
975.085	3079.75
975.386	3065.96
975.686	3044.04
975.986	3005.63
976.287	3035.23
976.587	3005.18
976.887	2991.16
977.187	3006.08
977.487	2953.65
977.787	2963.14
978.087	2946.65
978.387	2913.88
978.687	2926.53
978.987	2923.82
979.286	2892.64
979.586	2898.29
979.885	2867.55
980.185	2865.74
980.484	2780.32
980.784	2803.6
981.083	2816.25
981.382	2786.2
981.682	2787.55
981.981	2760.44
982.28	2757.95
982.579	2714.79
982.878	2753.2
983.177	2712.53
983.475	2732.87
983.774	2703.26
984.073	2694.45
984.372	2669.59
984.67	2681.12
984.969	2691.74
985.267	2647.9
985.566	2610.16
985.864	2615.81
986.162	2627.78
986.461	2570.38
986.759	2533.32
987.057	2547.56
987.355	2573.1
987.653	2578.52
987.951	2546.66
988.249	2508.92
988.547	2506.66
988.844	2519.76
989.142	2483.38
989.44	2474.34
989.737	2441.12
990.035	2454.46
990.332	2465.53
990.63	2463.95
990.927	2438.18
991.224	2412.87
991.521	2405.64
991.819	2416.94
992.116	2347.34
992.413	2364.51
992.71	2368.36
993.006	2340.11
993.303	2329.94
993.6	2313.22
993.897	2328.36
994.193	2289.04
994.49	2276.38
994.787	2232.54
995.083	2252.88
995.379	2269.83
995.676	2253.56
995.972	2248.58
996.268	2225.31
996.565	2196.38
996.861	2241.81
997.157	2202.03
997.453	2174.24
997.749	2199.32
998.044	2186.44
998.34	2135.82
998.636	2138.08
998.932	2126.78
999.227	2124.75
999.523	2108.7
999.818	2080.91
1000.114	2077.06
1000.409	2082.04
1000.704	2063.28
1001	2040.23
1001.295	2027.35
1001.59	2005.65
1001.885	2034.81
1002.18	2001.36
1002.475	1991.42
1002.77	1978.76
1003.065	1980.12
1003.359	1955.94
1003.654	1971.98
1003.949	1928.82
1004.243	1893.57
1004.538	1891.98
1004.832	1901.25
1005.127	1891.08
1005.421	1903.51
1005.715	1891.98
1006.009	1888.59
1006.304	1866.22
1006.598	1820.12
1006.892	1838.43
1007.186	1807.69
1007.48	1808.82
1007.773	1814.47
1008.067	1790.29
1008.361	1790.97
1008.655	1767.69
1008.948	1774.93
1009.242	1784.64
1009.535	1743.06
1009.829	1746.9
1010.122	1689.73
1010.415	1707.13
1010.708	1714.14
1011.001	1706.45
1011.295	1688.83
1011.588	1668.71
1011.881	1649.28
1012.173	1661.48
1012.466	1679.11
1012.759	1652.44
1013.052	1652.22
1013.344	1636.4
1013.637	1619
1013.93	1622.84
1014.222	1625.1
1014.514	1571.99
1014.807	1587.81
1015.099	1570.64
1015.391	1545.55
1015.683	1516.17
1015.976	1557.08
1016.268	1548.72
1016.56	1527.47
1016.851	1524.54
1017.143	1485.22
1017.435	1488.15
1017.727	1467.59
1018.018	1480.7
1018.31	1464.88
1018.602	1465.33
1018.893	1440.7
1019.185	1425.33
1019.476	1414.26
1019.767	1424.2
1020.058	1395.5
1020.35	1381.94
1020.641	1384.2
1020.932	1384.2
1021.223	1352.79
1021.514	1345.56
1021.804	1342.39
1022.095	1346.46
1022.386	1319.12
1022.677	1310.53
1022.967	1315.95
1023.258	1282.96
1023.548	1275.96
1023.839	1299.23
1024.129	1293.81
1024.419	1271.21
1024.709	1284.54
1025	1257.2
1025.29	1265.56
1025.58	1265.11
1025.87	1224.21
1026.16	1205.9
1026.449	1212
1026.739	1215.39
1027.029	1200.93
1027.319	1211.55
1027.608	1199.57
1027.898	1209.06
1028.187	1190.08
1028.477	1193.92
1028.766	1168.84
1029.055	1141.72
1029.344	1172.46
1029.634	1164.55
1029.923	1145.34
1030.212	1147.82
1030.501	1110.31
1030.79	1097.43
1031.078	1103.3
1031.367	1099.46
1031.656	1114.15
1031.945	1102.17
1032.233	1053.36
1032.522	1061.5
1032.81	1067.6
1033.099	1039.58
1033.387	1038
1033.675	1046.58
1033.963	1033.02
1034.251	994.15
1034.54	1010.65
1034.828	1016.98
1035.116	1021.72
1035.403	1004.55
1035.691	986.7
1035.979	993.02
1036.267	982.4
1036.554	993.93
1036.842	958.9
1037.129	944.89
1037.417	954.16
1037.704	958
1037.992	936.76
1038.279	941.95
1038.566	922.29
1038.853	922.29
1039.14	922.29
