Data from hue_50_FLMS001491_92.txt Node
Date: Mon Feb 06 15:11:21 GMT 2017
User: dcchb
Spectrometer: FLMS00149
Trigger mode: 0
Integration Time (sec): 2.000000E-2
Scans to average: 10
Electric dark correction enabled: true
Nonlinearity correction enabled: false
Boxcar width: 0
XAxis mode: Wavelengths
Number of Pixels in Spectrum: 2048
>>>>>Begin Spectral Data<<<<<
341.393	-33.19
341.776	-33.19
342.16	-33.19
342.543	-56.69
342.927	-62.79
343.31	-64.38
343.693	-70.48
344.077	-76.81
344.46	-84.26
344.843	-60.08
345.226	-40.87
345.61	-26.41
345.993	-11.95
346.376	5.9
346.759	-6.3
347.142	21.95
347.525	64.89
347.908	48.84
348.291	87.48
348.674	103.3
349.057	109.18
349.44	132.91
349.823	148.5
350.206	163.87
350.588	193.47
350.971	211.55
351.354	230.53
351.737	237.54
352.119	240.25
352.502	270.76
352.884	254.03
353.267	259.46
353.65	282.73
354.032	300.13
354.414	302.62
354.797	325.67
355.179	317.99
355.562	333.58
355.944	318.89
356.326	319.57
356.709	334.48
357.091	339.45
357.473	343.3
357.855	332
358.238	343.52
358.62	344.43
359.002	352.56
359.384	371.32
359.766	336.97
360.148	335.16
360.53	348.27
360.912	333.13
361.294	340.13
361.676	324.77
362.057	329.29
362.439	324.09
362.821	348.72
363.203	334.93
363.584	332.45
363.966	330.64
364.348	324.09
364.729	310.75
365.111	306.46
365.493	324.31
365.874	334.26
366.256	310.75
366.637	304.2
367.019	303.07
367.4	344.2
367.781	303.52
368.163	332.9
368.544	327.93
368.925	306.46
369.306	320.25
369.688	318.21
370.069	306.01
370.45	295.84
370.831	291.32
371.212	325.9
371.593	323.86
371.974	314.82
372.355	331.32
372.736	321.83
373.117	309.62
373.498	332.9
373.879	309.4
374.26	292.9
374.641	306.69
375.021	326.57
375.402	334.93
375.783	317.31
376.163	321.6
376.544	339.91
376.925	316.4
377.305	327.93
377.686	343.07
378.066	320.25
378.447	326.35
378.827	306.01
379.208	340.58
379.588	328.16
379.968	339.45
380.349	345.33
380.729	304.2
381.109	342.39
381.489	345.56
381.87	332
382.25	355.05
382.63	314.6
383.01	356.18
383.39	379.68
383.77	366.12
384.15	338.32
384.53	357.53
384.91	342.17
385.29	337.19
385.67	351.66
386.049	376.52
386.429	332.45
386.809	349.17
387.189	358.89
387.568	363.41
387.948	363.86
388.328	360.24
388.707	381.71
389.087	351.21
389.466	366.35
389.846	377.19
390.225	366.8
390.605	366.12
390.984	392.56
391.363	377.19
391.743	380.36
392.122	386.91
392.501	374.03
392.881	382.39
393.26	386.91
393.639	386.68
394.018	379.23
394.397	405.89
394.776	412.9
395.155	388.94
395.534	405.44
395.913	390.75
396.292	383.52
396.671	414.03
397.05	408.83
397.429	391.43
397.808	396.18
398.186	398.21
398.565	388.49
398.944	406.57
399.323	410.41
399.701	414.93
400.08	426.01
400.458	437.3
400.837	420.36
401.215	419.23
401.594	407.7
401.972	410.86
402.351	416.74
402.729	438.89
403.107	425.78
403.486	408.83
403.864	396.4
404.242	430.75
404.62	428.04
404.999	442.95
405.377	428.04
405.755	419.68
406.133	434.14
406.511	448.6
406.889	463.07
407.267	447.02
407.645	450.64
408.023	450.41
408.401	447.02
408.779	449.96
409.156	444.76
409.534	461.49
409.912	465.33
410.29	475.5
410.667	480.24
411.045	475.04
411.422	476.4
411.8	477.08
412.178	491.77
412.555	508.04
412.933	513.69
413.31	495.83
413.687	479.11
414.065	503.74
414.442	507.36
414.819	523.18
415.197	520.69
415.574	512.78
415.951	520.92
416.328	517.53
416.705	533.35
417.082	523.63
417.46	528.6
417.837	529.28
418.214	542.84
418.591	548.71
418.967	563.4
419.344	551.2
419.721	550.52
420.098	556.85
420.475	550.52
420.852	548.71
421.228	565.89
421.605	549.17
421.982	556.4
422.358	571.31
422.735	577.41
423.111	588.71
423.488	588.26
423.864	600.24
424.241	597.53
424.617	607.02
424.994	565.21
425.37	618.77
425.746	612.67
426.123	623.74
426.499	613.57
426.875	626.23
427.251	623.97
427.627	643.4
428.003	645.89
428.379	647.92
428.756	636.17
429.132	640.92
429.507	647.24
429.883	643.63
430.259	684.76
430.635	662.16
431.011	661.03
431.387	673.23
431.763	692.67
432.138	711.2
432.514	692.67
432.89	703.96
433.265	733.34
433.641	728.14
434.016	728.37
434.392	730.18
434.767	722.95
435.143	733.12
435.518	755.94
435.894	776.05
436.269	768.6
436.644	763.4
437.02	783.74
437.395	777.41
437.77	801.59
438.145	799.33
438.52	813.57
438.895	803.17
439.271	806.56
439.646	835.49
440.021	822.83
440.395	825.32
440.77	841.14
441.145	833
441.52	870.06
441.895	861.7
442.27	853.34
442.645	869.16
443.019	871.19
443.394	865.77
443.769	879.55
444.143	858.08
444.518	873.45
444.892	867.58
445.267	888.59
445.641	901.93
446.016	898.76
446.39	917.74
446.764	923.85
447.139	900.12
447.513	910.29
447.887	941.25
448.262	928.14
448.636	940.79
449.01	953.9
449.384	976.5
449.758	991.64
450.132	976.5
450.506	987.12
450.88	975.82
451.254	980.34
451.628	990.96
452.002	992.54
452.376	1023.28
452.75	1033.67
453.123	1023.05
453.497	1054.69
453.871	1059.89
454.244	1071.64
454.618	1088.14
454.992	1091.3
455.365	1108.7
455.739	1122.94
456.112	1130.17
456.486	1115.03
456.859	1132.88
457.232	1156.61
457.606	1138.08
457.979	1170.39
458.352	1202.26
458.725	1189.38
459.099	1230.73
459.472	1225.98
459.845	1233.67
460.218	1251.52
460.591	1267.79
460.964	1284.74
461.337	1286.1
461.71	1283.38
462.083	1350.5
462.456	1333.55
462.829	1350.95
463.201	1383.72
463.574	1370.84
463.947	1400.67
464.32	1453.55
464.692	1434.11
465.065	1437.73
465.438	1470.5
465.81	1473.44
466.183	1493.32
466.555	1541.23
466.928	1544.17
467.3	1570.38
467.672	1574.45
468.045	1640.66
468.417	1656.93
468.789	1649.02
469.161	1675.92
469.534	1713.2
469.906	1738.51
470.278	1756.59
470.65	1768.12
471.022	1842.47
471.394	1874.56
471.766	1888.57
472.138	1908.23
472.51	1962.69
472.882	2005.4
473.253	2036.13
473.625	2056.7
473.997	2139.18
474.369	2145.96
474.74	2179.18
475.112	2272.74
475.484	2321.55
475.855	2312.96
476.227	2364.49
476.598	2464.82
476.97	2473.18
477.341	2573.97
477.713	2636.12
478.084	2695.1
478.455	2769.9
478.827	2814.19
479.198	2912.04
479.569	2894.87
479.94	3038.82
480.311	3105.26
480.682	3219.38
481.053	3300.96
481.424	3354.97
481.795	3448.53
482.166	3487.85
482.537	3575.98
482.908	3716.99
483.279	3774.62
483.65	3880.38
484.021	4011.22
484.391	4108.85
484.762	4143.65
485.133	4265
485.503	4370.76
485.874	4516.97
486.244	4629.96
486.615	4751.32
486.985	4881.26
487.356	5005.55
487.726	5114.24
488.097	5257.74
488.467	5339.32
488.837	5517.62
489.207	5635.13
489.578	5729.82
489.948	5892.75
490.318	6037.61
490.688	6106.53
491.058	6255.23
491.428	6410.03
491.798	6554.66
492.168	6734.31
492.538	6808.21
492.908	6947.42
493.278	7101.08
493.648	7213.17
494.017	7375.65
494.387	7581.52
494.757	7635.99
495.126	7740.39
495.496	7904
495.866	8047.73
496.235	8206.37
496.605	8350.32
496.974	8463.31
497.344	8647.94
497.713	8698.56
498.082	8911.88
498.452	9093.8
498.821	9141.26
499.19	9270.29
499.559	9434.36
499.928	9490.63
500.298	9636.84
500.667	9805.42
501.036	9889.94
501.405	10025.75
501.774	10052.19
502.143	10228.23
502.512	10347.33
502.88	10526.08
503.249	10529.47
503.618	10713.64
503.987	10835.9
504.356	10979.17
504.724	11001.55
505.093	11138.04
505.462	11297.36
505.83	11376.23
506.199	11605.82
506.567	11715.2
506.936	11750
507.304	11879.04
507.672	11991.35
508.041	12136.21
508.409	12230.67
508.777	12417.78
509.145	12474.05
509.514	12627.72
509.882	12689.86
510.25	12756.08
510.618	13008.27
510.986	12988.39
511.354	13152.45
511.722	13314.71
512.09	13462.5
512.458	13427.47
512.826	13627.24
513.193	13679.44
513.561	13807.12
513.929	13851.87
514.297	14116.27
514.664	14162.14
515.032	14310.61
515.4	14405.75
515.767	14492.75
516.135	14654.33
516.502	14523.49
516.869	14844.61
517.237	14905.63
517.604	14920.54
517.972	15113.76
518.339	15191.49
518.706	15279.17
519.073	15387.87
519.44	15501.54
519.808	15725.26
520.175	15647.98
520.542	15872.38
520.909	15965.94
521.276	15950.8
521.643	16124.35
522.009	16354.85
522.376	16451.35
522.743	16599.59
523.11	16819.02
523.477	16835.52
523.843	16898.34
524.21	17171.78
524.577	17270.76
524.943	17355.28
525.31	17444.99
525.676	17620.13
526.043	17764.76
526.409	17891.31
526.776	18020.12
527.142	18105.99
527.508	18243.16
527.874	18340.79
528.241	18497.39
528.607	18438.19
528.973	18644.28
529.339	18730.38
529.705	18926.76
530.071	19070.04
530.437	19127.43
530.803	19230.48
531.169	19342.34
531.535	19374.43
531.901	19535.33
532.267	19536.46
532.632	19702.11
532.998	19829.11
533.364	19952.72
533.73	19974.64
534.095	20149.55
534.461	20247.41
534.826	20310.91
535.192	20377.8
535.557	20535.31
535.923	20556.55
536.288	20682.87
536.653	20809.2
537.019	20643.78
537.384	20935.75
537.749	20973.49
538.114	21041.28
538.479	21041.96
538.845	21180.04
539.21	21015.29
539.575	21215.52
539.94	21295.97
540.305	21581.61
540.67	21481.05
541.034	21598.1
541.399	21669.06
541.764	21736.86
542.129	21924.88
542.494	21823.18
542.858	21997.19
543.223	22058.66
543.587	22253.45
543.952	22151.99
544.316	22285.54
544.681	22277.41
545.045	22346.11
545.41	22609.38
545.774	22500.91
546.138	22558.31
546.503	22694.12
546.867	22735.7
547.231	22958.75
547.595	22893.44
547.959	22968.69
548.324	22971.18
548.688	23157.16
549.052	23207.33
549.416	23315.8
549.779	23307.44
550.143	23383.37
550.507	23576.81
550.871	23592.63
551.235	23654.55
551.599	23799.63
551.962	23880.76
552.326	23851.6
552.689	24139.51
553.053	24040.3
553.417	24076.01
553.78	24472.83
554.143	24274.87
554.507	24421.76
554.87	24447.07
555.234	24654.3
555.597	24634.41
555.96	24776.1
556.323	24793.73
556.686	24875.98
557.05	24967.06
557.413	25146.26
557.776	25232.13
558.139	25399.36
558.502	25433.26
558.865	25427.61
559.228	25667.15
559.59	25788.28
559.953	25818.78
560.316	26049.06
560.679	26013.36
561.041	26142.62
561.404	26296.51
561.767	26476.85
562.129	26458.54
562.492	26661.02
562.854	26698.08
563.217	26714.58
563.579	26795.93
563.941	27038.41
564.304	27138.98
564.666	27356.37
565.028	27378.07
565.39	27362.02
565.753	27614.22
566.115	27600.88
566.477	27678.85
566.839	27817.83
567.201	28062.34
567.563	28024.38
567.925	28264.37
568.287	28194.09
568.648	28220.76
569.01	28457.36
569.372	28602.89
569.734	28587.07
570.095	28766.28
570.457	28813.06
570.819	28904.35
571.18	28907.97
571.542	29145.25
571.903	29225.02
572.265	29220.05
572.626	29333.95
572.987	29424.11
573.349	29648.74
573.71	29753.6
574.071	29856.42
574.432	29922.86
574.794	30113.81
575.155	30177.31
575.516	30080.37
575.877	30342.73
576.238	30344.77
576.599	30506.12
576.96	30490.07
577.32	30747.92
577.681	30944.98
578.042	31013.22
578.403	30966.9
578.763	31121.47
579.124	31213.9
579.485	31317.17
579.845	31462.48
580.206	31524.4
580.566	31482.82
580.927	31756.26
581.287	31865.63
581.648	31781.11
582.008	32141.33
582.368	32126.87
582.728	32270.82
583.089	32228.79
583.449	32452.73
583.809	32469.46
584.169	32580.64
584.529	32680.3
584.889	33006.62
585.249	32701.99
585.609	32896.34
585.969	33199.38
586.329	33188.53
586.688	33314.63
587.048	33357.8
587.408	33440.5
587.768	33561.41
588.127	33614.06
588.487	33604.34
588.846	34050.21
589.206	33783.09
589.565	33933.15
589.925	34199.36
590.284	34304.21
590.643	34458.56
591.003	34529.06
591.362	34672.56
591.721	34729.74
592.08	34817.42
592.44	34875.27
592.799	35071.42
593.158	35066
593.517	35194.58
593.876	35363.39
594.235	35327.69
594.593	35298.31
594.952	35636.38
595.311	35442.49
595.67	35698.07
596.029	36113.88
596.387	36104.62
596.746	36143.94
597.104	36067.33
597.463	36236.14
597.822	36323.59
598.18	36345.74
598.538	36425.06
598.897	36655.11
599.255	36404.04
599.613	36982.11
599.972	36906.63
600.33	36949.79
600.688	36930.13
601.046	37082.9
601.404	37278.82
601.762	37316.11
602.12	37529.44
602.478	37579.38
602.836	37586.84
603.194	37492.38
603.552	37735.76
603.91	37526.5
604.268	37747.28
604.625	37769.2
604.983	37952.02
605.341	37923.1
605.698	38010.1
606.056	38261.62
606.413	38171.68
606.771	38375.74
607.128	38597.43
607.485	38405.57
607.843	38495.06
608.2	38679.46
608.557	38763.75
608.914	38677.43
609.272	38890.76
609.629	38849.18
609.986	39091.43
610.343	38909.74
610.7	39231.99
611.057	39187.25
611.414	39353.12
611.771	39396.28
612.127	39679.44
612.484	39688.02
612.841	39667.91
613.198	39606.22
613.554	39792.43
613.911	39873.33
614.267	39867.91
614.624	39970.95
614.98	40074.91
615.337	40382.47
615.693	40209.14
616.05	40276.26
616.406	40525.74
616.762	40384.28
617.118	40448.46
617.475	40478.06
617.831	40556.7
618.187	40770.93
618.543	40714.89
618.899	40915.11
619.255	40996.01
619.611	40995.33
619.967	40864.04
620.323	41215.22
620.678	41056.58
621.034	41034.88
621.39	41030.81
621.746	40970.02
622.101	41443.01
622.457	41193.97
622.812	41207.98
623.168	41317.13
623.523	41414.53
623.879	41443.23
624.234	41324.59
624.589	41469.9
624.945	41396.91
625.3	41606.39
625.655	41446.4
626.01	41585.6
626.365	41635.09
626.72	41679.38
627.075	41559.16
627.43	41693.17
627.785	41450.69
628.14	41709.67
628.495	41657.01
628.85	41623.34
629.205	41588.54
629.559	41838.7
629.914	41649.55
630.269	41593.51
630.623	41609.1
630.978	41519.16
631.332	41701.98
631.687	41736.56
632.041	41721.64
632.396	41732.04
632.75	41497.02
633.104	41709.89
633.459	41476
633.813	41515.09
634.167	41534.98
634.521	41505.15
634.875	41582.44
635.229	41511.93
635.583	41394.19
635.937	41306.96
636.291	41369.79
636.645	41346.74
636.999	41261.77
637.352	41336.34
637.706	41277.59
638.06	41372.5
638.413	41152.84
638.767	41088.44
639.121	41263.58
639.474	40939.97
639.828	40941.32
640.181	41061.32
640.534	40981.55
640.888	40903.81
641.241	40788.33
641.594	40975.67
641.947	40990.14
642.301	40933.87
642.654	40828.33
643.007	40898.84
643.36	40844.83
643.713	40849.35
644.066	40838.5
644.419	40709.01
644.771	40480.77
645.124	40025.19
645.477	40023.38
645.83	39921.24
646.182	39506.79
646.535	39624.07
646.888	39650.51
647.24	39471.98
647.593	39597.86
647.945	39513.79
648.298	39212.1
648.65	39442.16
649.002	39317.41
649.355	39322.38
649.707	39399.22
650.059	39463.85
650.411	39726.44
650.763	39970.5
651.115	40440.09
651.467	40143.83
651.819	40189.48
652.171	40190.38
652.523	40141.57
652.875	39958.53
653.227	39954.68
653.578	40138.18
653.93	40093.44
654.282	40034.46
654.633	39902.26
654.985	39958.3
655.337	40001.24
655.688	39913.78
656.039	40108.35
656.391	39738.87
656.742	39781.36
657.094	39909.94
657.445	39914.91
657.796	39778.42
658.147	39698.87
658.498	39786.55
658.849	39824.07
659.2	39708.59
659.551	39638.53
659.902	39811.18
660.253	39622.04
660.604	39705.2
660.955	39584.3
661.306	39792.2
661.656	39600.57
662.007	39695.48
662.358	39595.82
662.708	39687.12
663.059	39604.18
663.409	39331.2
663.76	39681.7
664.11	39543.17
664.461	39635.6
664.811	39498.65
665.161	39538.2
665.511	39427.01
665.862	39563.73
666.212	39584.98
666.562	39627.01
666.912	39565.77
667.262	39381.82
667.612	39492.55
667.962	39591.08
668.312	39444.64
668.662	39661.36
669.011	39483.96
669.361	39483.06
669.711	39481.02
670.06	39345.21
670.41	39362.84
670.76	39284.42
671.109	39627.69
671.459	39375.26
671.808	39258.21
672.157	39359.67
672.507	39065.22
672.856	39154.25
673.205	39079.9
673.554	39281.71
673.904	39111.54
674.253	39306.34
674.602	39130.98
674.951	38564.21
675.3	38469.75
675.649	38992.9
675.998	39034.03
676.346	39036.52
676.695	39074.71
677.044	38818.44
677.393	39053.46
677.741	38927.82
678.09	38977.99
678.438	38819.8
678.787	38955.39
679.135	38856.18
679.484	38661.16
679.832	38681.05
680.181	38493.03
680.529	38666.13
680.877	38558.11
681.225	38551.33
681.573	38846.69
681.922	38435.18
682.27	38173.26
682.618	38518.79
682.966	38353.82
683.314	38293.94
683.661	38240.15
684.009	38083.09
684.357	38028.86
684.705	38004.45
685.053	38127.61
685.4	37971.01
685.748	37830.9
686.095	37731.47
686.443	37702.54
686.79	37586.61
687.138	37841.29
687.485	37644.69
687.832	37465.94
688.18	37649.66
688.527	37375.32
688.874	37233.4
689.221	37168.99
689.568	37081.54
689.915	37060.07
690.262	37047.42
690.609	36849.23
690.956	36724.03
691.303	36766.29
691.65	36523.81
691.997	36721.1
692.344	36448.11
692.69	36426.87
693.037	36480.88
693.383	36115.69
693.73	36289.47
694.077	35979.2
694.423	36124.05
694.769	35973.32
695.116	35843.15
695.462	35821.01
695.808	35761.8
696.155	35801.57
696.501	35486.33
696.847	35402.26
697.193	35290.85
697.539	35301.02
697.885	35157.52
698.231	35100.12
698.577	35063.74
698.923	35100.12
699.269	34835.72
699.614	34831.43
699.96	34643.64
700.306	34578.78
700.651	34496.07
700.997	34364.55
701.342	34197.55
701.688	34265.34
702.033	34147.15
702.379	34272.35
702.724	34087.72
703.069	34084.33
703.415	33649.31
703.76	33741.51
704.105	33689.31
704.45	33711.91
704.795	33531.8
705.14	33357.34
705.485	33364.8
705.83	33316.21
706.175	33218.59
706.52	33003.91
706.865	32994.87
707.209	32890.91
707.554	32714.65
707.899	32972.04
708.243	32716.46
708.588	32672.84
708.932	32550.81
709.277	32462.23
709.621	32501.77
709.966	32217.71
710.31	32356.24
710.654	32118.51
710.998	32161.22
711.342	32113.99
711.687	32024.5
712.031	31998.06
712.375	31793.09
712.719	31907.66
713.063	31780.89
713.407	31850.94
713.75	31683.26
714.094	31706.54
714.438	31553.55
714.782	31579.31
715.125	31408.92
715.469	31477.39
715.812	31347.9
716.156	31160.56
716.499	31130.06
716.843	31296.61
717.186	31057.52
717.53	31148.14
717.873	31134.8
718.216	31027.91
718.559	30954.69
718.902	30694.36
719.246	30855.26
719.589	30705.21
719.932	30534.37
720.275	30511.99
720.617	30482.62
720.96	30410.53
721.303	30396.29
721.646	30413.92
721.989	30269.06
722.331	30396.97
722.674	30252.57
723.016	30214.15
723.359	30114.49
723.701	30164.88
724.044	29892.8
724.386	29776.65
724.729	30013.25
725.071	29870.88
725.413	29896.64
725.755	29812.35
726.097	29682.86
726.439	29541.62
726.782	29505.69
727.124	29665.69
727.465	29446.94
727.807	29488.74
728.149	29328.3
728.491	29302.76
728.833	29418.46
729.175	29178.02
729.516	29214.63
729.858	29117.68
730.199	29190.67
730.541	29038.13
730.882	29059.6
731.224	29109.32
731.565	28785.26
731.906	28878.14
732.248	28888.99
732.589	28951.81
732.93	28819.84
733.271	28808.08
733.612	28787.97
733.953	28851.92
734.294	28730.8
734.635	28622.55
734.976	28693.29
735.317	28480.86
735.658	28459.17
735.999	28430.92
736.339	28408.09
736.68	28457.36
737.021	28471.6
737.361	28306.85
737.702	28406.06
738.042	28237.7
738.383	28184.82
738.723	28228.89
739.063	28119.29
739.404	28213.75
739.744	28005.39
740.084	27988.22
740.424	28002.91
740.764	27936.92
741.104	27976.47
741.444	27697.38
741.784	27653.09
742.124	27728.56
742.464	27663.93
742.804	27687.44
743.143	27542.58
743.483	27618.06
743.823	27482.7
744.162	27403.15
744.502	27496.71
744.841	27371.06
745.181	27425.97
745.52	27348.69
745.86	27462.81
746.199	27291.06
746.538	27285.64
746.877	27318.63
747.216	27209.03
747.556	27146.43
747.895	27106.89
748.234	26985.76
748.573	27035.7
748.911	27014.91
749.25	26998.64
749.589	26793.22
749.928	26902.82
750.267	26735.6
750.605	26703.73
750.944	26697.41
751.283	26581.02
751.621	26674.81
751.96	26479.11
752.298	26549.39
752.636	26370.63
752.975	26296.06
753.313	26285.44
753.651	26363.4
753.989	26181.26
754.327	26202.28
754.666	25993.7
755.004	26083.41
755.342	26075.5
755.679	26078.44
756.017	25767.03
756.355	25943.53
756.693	25840.48
757.031	25800.71
757.368	25609.3
757.706	25591.22
758.044	25560.94
758.381	25623.99
758.719	25414.05
759.056	25437.1
759.394	25254.51
759.731	25168.18
760.068	25295.18
760.405	25148.29
760.743	25021.29
761.08	25038.92
761.417	24924.12
761.754	24947.17
762.091	24810.68
762.428	24707.4
762.765	24497.69
763.102	24631.92
763.438	24560.29
763.775	24360.52
764.112	24410.91
764.449	24420.86
764.785	24242.78
765.122	24088.21
765.458	24013.18
765.795	24030.81
766.131	23986.74
766.467	23824.03
766.804	23845.95
767.14	23593.98
767.476	23677.6
767.812	23471.95
768.148	23584.04
768.485	23346.76
768.821	23255.91
769.157	23259.53
769.492	23219.76
769.828	23113.32
770.164	22951.06
770.5	22933.44
770.836	22801.01
771.171	22682.6
771.507	22772.31
771.842	22572.32
772.178	22639.21
772.513	22460.91
772.849	22425.2
773.184	22163.06
773.519	22293
773.855	22203.51
774.19	22089.84
774.525	21964.65
774.86	21940.24
775.195	21936.4
775.53	21815.05
775.865	21715.62
776.2	21546.13
776.535	21423.65
776.87	21460.71
777.205	21384.55
777.539	21216.87
777.874	21375.06
778.209	21113.6
778.543	21054.84
778.878	21008.52
779.212	20920.61
779.547	20780.05
779.881	20866.82
780.215	20787.96
780.55	20829.09
780.884	20605.36
781.218	20461.64
781.552	20430.23
781.886	20417.8
782.22	20234.75
782.554	20168.76
782.888	20026.17
783.222	20075.88
783.556	19898.94
783.889	19878.83
784.223	19654.2
784.557	19669.79
784.89	19658.04
785.224	19600.19
785.557	19519.29
785.891	19465.96
786.224	19400.65
786.558	19332.4
786.891	19242.46
787.224	19223.7
787.557	19094.89
787.891	19069.58
788.224	19032.07
788.557	18996.14
788.89	18863.94
789.223	18955.91
789.556	18716.82
789.888	18669.59
790.221	18602.25
790.554	18463.5
790.887	18422.59
791.219	18433.44
791.552	18461.46
791.884	18264.86
792.217	18253.33
792.549	18174.69
792.882	17994.58
793.214	17927.69
793.546	17950.52
793.879	17837.53
794.211	17664.42
794.543	17853.8
794.875	17748.49
795.207	17820.35
795.539	17685.44
795.871	17689.73
796.203	17461.26
796.535	17409.97
796.867	17343.75
797.198	17370.42
797.53	17393.24
797.862	17178.11
798.193	17221.04
798.525	17069.64
798.856	17086.81
799.188	16920.71
799.519	16882.52
799.85	16761.4
800.182	16768.4
800.513	16797.55
800.844	16640.49
801.175	16773.6
801.506	16615.86
801.837	16560.5
802.168	16554.17
802.499	16515.3
802.83	16427.84
803.161	16327.28
803.491	16360.5
803.822	16299.49
804.153	16172.48
804.483	16120.73
804.814	16035.31
805.145	16065.37
805.475	15998.48
805.805	15930.46
806.136	15911.93
806.466	15998.93
806.796	15898.82
807.126	15718.94
807.457	15706.73
807.787	15691.37
808.117	15657.24
808.447	15613.4
808.777	15593.74
809.107	15568.88
809.436	15503.12
809.766	15429.91
810.096	15415.89
810.426	15383.58
810.755	15349
811.085	15351.04
811.414	15255.45
811.744	15098.16
812.073	15217.03
812.403	15109.24
812.732	15010.03
813.061	15061.78
813.39	14912.86
813.719	14904.5
814.049	14985.4
814.378	14886.42
814.707	14812.07
815.036	14843.03
815.365	14769.13
815.693	14588.35
816.022	14599.87
816.351	14619.98
816.68	14567.78
817.008	14549.93
817.337	14417.95
817.665	14380.89
817.994	14464.28
818.322	14463.15
818.651	14366.43
818.979	14309.26
819.307	14303.15
819.636	14376.83
819.964	14158.75
820.292	14253.89
820.62	14262.03
820.948	14150.39
821.276	14197.62
821.604	14097.51
821.932	14240.33
822.259	14154.23
822.587	14079.43
822.915	14114.91
823.243	14224.74
823.57	14101.8
823.898	14150.39
824.225	14180.22
824.553	14090.51
824.88	14112.88
825.207	14100.67
825.535	14060.68
825.862	14081.47
826.189	14109.49
826.516	14132.54
826.843	14109.94
827.17	14037.63
827.497	14184.51
827.824	14146.1
828.151	14125.08
828.478	14064.52
828.805	14145.19
829.131	14104.97
829.458	14003.73
829.785	13968.47
830.111	13953.33
830.438	14053.44
830.764	14088.02
831.09	14110.62
831.417	13968.25
831.743	14047.12
832.069	13987.01
832.395	14022.26
832.722	14052.09
833.048	13924.41
833.374	13963.28
833.7	13933.67
834.026	13930.06
834.351	13890.28
834.677	13978.87
835.003	13939.1
835.329	13892.32
835.654	13806.9
835.98	13792.66
836.306	13836.27
836.631	13780.23
836.956	13826.56
837.282	13784.75
837.607	13701.36
837.932	13669.05
838.258	13688.26
838.583	13673.12
838.908	13587.24
839.233	13558.77
839.558	13634.7
839.883	13593.34
840.208	13514.93
840.533	13526.68
840.858	13544.53
841.182	13526.23
841.507	13439
841.832	13345.21
842.156	13313.58
842.481	13317.42
842.805	13323.29
843.13	13269.74
843.454	13206.46
843.778	13202.39
844.103	13196.52
844.427	13150.42
844.751	13163.75
845.075	13065.67
845.399	13072.45
845.723	12954.04
846.047	13071.77
846.371	12922.4
846.695	12896.41
847.019	12796.3
847.343	12759.92
847.666	12706.59
847.99	12622.52
848.313	12620.71
848.637	12574.61
848.96	12546.59
849.284	12494.84
849.607	12393.83
849.931	12370.1
850.254	12267.28
850.577	12168.52
850.9	12139.6
851.223	12124
851.546	12029.54
851.869	12026.15
852.192	12029.32
852.515	11925.36
852.838	11831.58
853.161	11914.97
853.483	11809.89
853.806	11800.17
854.129	11749.55
854.451	11754.07
854.774	11663.45
855.096	11603.56
855.419	11576.22
855.741	11617.8
856.063	11462.78
856.385	11435.89
856.708	11477.24
857.03	11338.26
857.352	11420.97
857.674	11339.62
857.996	11266.62
858.318	11254.87
858.64	11290.8
858.961	11276.57
859.283	11129
859.605	11171.03
859.926	11171.94
860.248	11126.97
860.57	11103.24
860.891	11060.75
861.212	11036.12
861.534	11008.78
861.855	10903.02
862.176	10900.98
862.498	10977.59
862.819	10953.41
863.14	10828.44
863.461	10875.45
863.782	10882
864.103	10843.81
864.424	10820.08
864.745	10838.39
865.065	10698.73
865.386	10723.59
865.707	10711.16
866.027	10706.64
866.348	10686.98
866.668	10649.24
866.989	10684.27
867.309	10550.94
867.63	10580.54
867.95	10560.2
868.27	10468.45
868.59	10526.76
868.91	10504.61
869.23	10490.6
869.55	10414.67
869.87	10432.97
870.19	10410.38
870.51	10469.36
870.83	10430.04
871.15	10413.31
871.469	10316.82
871.789	10417.61
872.109	10310.72
872.428	10310.94
872.748	10283.83
873.067	10309.59
873.386	10318.85
873.706	10275.01
874.025	10217.84
874.344	10222.13
874.663	10186.43
874.982	10207.9
875.301	10127.45
875.62	10122.7
875.939	10144.85
876.258	10117.28
876.577	10100.55
876.896	10087.22
877.214	9986.88
877.533	10054.45
877.852	10045.64
878.17	10011.29
878.489	10042.93
878.807	10009.03
879.125	9985.3
879.444	9947.34
879.762	9963.16
880.08	9939.43
880.398	9880.22
880.716	9856.72
881.034	9830.73
881.352	9834.35
881.67	9828.02
881.988	9800.45
882.306	9832.76
882.624	9797.74
882.941	9733.78
883.259	9726.55
883.577	9713.67
883.894	9695.37
884.212	9639.77
884.529	9549.16
884.846	9626.89
885.164	9561.81
885.481	9520.46
885.798	9458.31
886.115	9528.14
886.432	9498.31
886.75	9446.33
887.067	9423.28
887.383	9353.68
887.7	9374.47
888.017	9310.74
888.334	9374.02
888.651	9315.72
888.967	9299.67
889.284	9256.51
889.6	9195.27
889.917	9213.12
890.233	9198.43
890.55	9147.81
890.866	9167.7
891.182	9140.13
891.498	9159.11
891.815	9045.89
892.131	9025.55
892.447	9058.55
892.763	8967.02
893.079	8997.53
893.395	8962.5
893.71	8876.41
894.026	8905.56
894.342	8871.21
894.657	8873.92
894.973	8808.84
895.289	8847.25
895.604	8731.1
895.92	8668.05
896.235	8676.86
896.55	8702.85
896.865	8637.32
897.181	8660.37
897.496	8552.12
897.811	8580.82
898.126	8538.11
898.441	8446.81
898.756	8459.69
899.071	8410.88
899.386	8401.84
899.7	8433.93
900.015	8333.82
900.33	8251.79
900.644	8287.95
900.959	8304.22
901.273	8238
901.588	8207.5
901.902	8150.32
902.216	8123.66
902.531	8151.68
902.845	8092.24
903.159	8080.72
903.473	8006.37
903.787	7986.71
904.101	7976.09
904.415	7918.24
904.729	7963.66
905.042	7816.55
905.356	7826.26
905.67	7784.68
905.984	7837.79
906.297	7821.97
906.611	7744.01
906.924	7674.18
907.237	7686.15
907.551	7664.01
907.864	7618.58
908.177	7541.75
908.491	7581.75
908.804	7484.35
909.117	7442.54
909.43	7452.71
909.743	7461.3
910.056	7341.3
910.368	7318.03
910.681	7296.79
910.994	7299.05
911.307	7285.26
911.619	7222.44
911.932	7234.64
912.244	7193.29
912.557	7103.12
912.869	7110.8
913.181	7065.83
913.494	7114.42
913.806	7048.43
914.118	7058.6
914.43	6959.39
914.742	6942.22
915.054	6973.63
915.366	6918.72
915.678	6910.58
915.99	6851.15
916.302	6819.96
916.613	6777.25
916.925	6742.9
917.236	6733.41
917.548	6745.61
917.859	6712.39
918.171	6645.5
918.482	6644.15
918.794	6566.41
919.105	6612.96
919.416	6540.42
919.727	6464.94
920.038	6530.93
920.349	6478.5
920.66	6428.33
920.971	6396.7
921.282	6351.5
921.593	6307.66
921.903	6335.23
922.214	6297.26
922.525	6267.89
922.835	6207.77
923.146	6196.7
923.456	6208.23
923.767	6163.71
924.077	6210.71
924.387	6100.21
924.697	6104.05
925.008	6095.01
925.318	6057.95
925.628	6014.33
925.938	6034.67
926.248	5956.26
926.558	5904.73
926.867	5904.28
927.177	5856.15
927.487	5875.58
927.796	5815.47
928.106	5799.65
928.416	5804.17
928.725	5830.84
929.034	5743.15
929.344	5730.95
929.653	5735.47
929.962	5623.16
930.271	5644.63
930.581	5575.25
930.89	5594.91
931.199	5549.71
931.508	5556.94
931.817	5537.06
932.125	5459.55
932.434	5483.95
932.743	5451.41
933.051	5363.5
933.36	5392.2
933.669	5399.89
933.977	5343.39
934.286	5308.59
934.594	5309.95
934.902	5256.84
935.21	5323.28
935.519	5242.83
935.827	5232.43
936.135	5197.63
936.443	5126.67
936.751	5111.53
937.059	5084.19
937.367	5108.82
937.674	5097.07
937.982	5094.13
938.29	5062.27
938.597	5011.87
938.905	4995.38
939.213	5007.58
939.52	4978.2
939.827	4993.12
940.135	4916.06
940.442	4927.36
940.749	4924.87
941.056	4915.61
941.363	4831.09
941.67	4841.71
941.977	4808.26
942.284	4774.37
942.591	4747.93
942.898	4783.18
943.205	4772.78
943.511	4676.74
943.818	4724.42
944.125	4718.32
944.431	4648.04
944.738	4624.54
945.044	4616.86
945.35	4575.95
945.657	4551.55
945.963	4556.29
946.269	4467.93
946.575	4511.55
946.881	4493.7
947.187	4456.63
947.493	4420.7
947.799	4384.09
948.105	4342.06
948.41	4391.78
948.716	4429.06
949.022	4330.08
949.327	4349.97
949.633	4324.66
949.938	4314.72
950.244	4280.82
950.549	4214.61
950.854	4201.27
951.16	4226.13
951.465	4153.59
951.77	4179.58
952.075	4105.91
952.38	4140.71
952.685	4110.2
952.99	4129.19
953.294	4088.28
953.599	4093.71
953.904	4089.41
954.209	4034.27
954.513	4043.09
954.818	4008.74
955.122	3970.55
955.426	3947.27
955.731	3959.02
956.035	3928.74
956.339	3914.05
956.643	3942.07
956.948	3896.87
957.252	3848.74
957.556	3898.23
957.86	3829.53
958.163	3844.9
958.467	3815.97
958.771	3783.43
959.075	3809.87
959.378	3730.33
959.682	3747.5
959.985	3708.41
960.289	3735.3
960.592	3673.6
960.896	3671.57
961.199	3684.9
961.502	3639.03
961.805	3617.11
962.108	3609.42
962.411	3604.91
962.714	3573.04
963.017	3595.64
963.32	3553.61
963.623	3530.56
963.926	3531.91
964.228	3519.94
964.531	3462.08
964.833	3477.22
965.136	3441.75
965.438	3431.35
965.741	3441.97
966.043	3405.81
966.345	3392.26
966.648	3380.96
966.95	3313.84
967.252	3360.17
967.554	3377.34
967.856	3352.93
968.158	3310.9
968.46	3302.31
968.761	3259.6
969.063	3234.97
969.365	3249.89
969.666	3260.73
969.968	3211.92
970.269	3253.28
970.571	3217.12
970.872	3196.55
971.174	3150.45
971.475	3170.57
971.776	3178.7
972.077	3156.1
972.378	3143.45
972.679	3104.35
972.98	3103.45
973.281	3052.6
973.582	3075.88
973.883	3053.96
974.183	3067.97
974.484	3020.74
974.785	2980.29
975.085	2980.74
975.386	3040.17
975.686	2961.76
975.986	2907.52
976.287	2938.03
976.587	2915.66
976.887	2879.27
977.187	2915.88
977.487	2893.51
977.787	2898.71
978.087	2866.85
978.387	2868.88
978.687	2851.25
978.987	2802.67
979.286	2794.76
979.586	2792.05
979.885	2795.43
980.185	2769.67
980.484	2793.85
980.784	2754.31
981.083	2747.53
981.382	2733.06
981.682	2746.62
981.981	2692.84
982.28	2688.77
982.579	2696.45
982.878	2651.71
983.177	2665.72
983.475	2656.91
983.774	2633.63
984.073	2626.85
984.372	2628.21
984.67	2574.2
984.969	2592.73
985.267	2600.19
985.566	2574.88
985.864	2569.45
986.162	2573.07
986.461	2533.75
986.759	2505.5
987.057	2525.61
987.355	2480.42
987.653	2484.93
987.951	2490.13
988.249	2462.79
988.547	2437.03
988.844	2457.82
989.142	2408.1
989.44	2456.01
989.737	2422.11
990.035	2394.32
990.332	2392.28
990.63	2380.08
990.927	2394.32
991.224	2356.8
991.521	2340.98
991.819	2346.18
992.116	2347.76
992.413	2309.8
992.71	2301.44
993.006	2298.72
993.303	2300.31
993.6	2261.21
993.897	2265.28
994.193	2254.66
994.49	2260.53
994.787	2233.64
995.083	2218.73
995.379	2194.55
995.676	2190.25
995.972	2204.72
996.268	2180.31
996.565	2171.5
996.861	2128.33
997.157	2139.63
997.453	2146.41
997.749	2133.98
998.044	2104.61
998.34	2122.23
998.636	2097.6
998.932	2083.59
999.227	2073.65
999.523	2071.61
999.818	2069.58
1000.114	2033.42
1000.409	2023.48
1000.704	2032.07
1001	2018.28
1001.295	2005.4
1001.59	1980.32
1001.885	1970.6
1002.18	1948.9
1002.475	1948.45
1002.77	1964.95
1003.065	1912.52
1003.359	1924.05
1003.654	1910.94
1003.949	1881.33
1004.243	1926.08
1004.538	1893.09
1004.832	1894.89
1005.127	1868.68
1005.421	1855.12
1005.715	1877.27
1006.009	1824.39
1006.304	1816.48
1006.598	1821
1006.892	1817.61
1007.186	1768.57
1007.48	1797.72
1007.773	1803.82
1008.067	1799.08
1008.361	1750.72
1008.655	1740.55
1008.948	1765.18
1009.242	1737.61
1009.535	1719.53
1009.829	1715.24
1010.122	1698.29
1010.415	1704.39
1010.708	1671.62
1011.001	1653.09
1011.295	1666.88
1011.588	1651.06
1011.881	1625.3
1012.173	1624.39
1012.466	1619.87
1012.759	1621
1013.052	1573.09
1013.344	1581
1013.637	1595.47
1013.93	1577.61
1014.222	1569.48
1014.514	1569.93
1014.807	1548.91
1015.099	1524.51
1015.391	1531.29
1015.683	1528.12
1015.976	1505.75
1016.268	1495.36
1016.56	1488.8
1016.851	1470.05
1017.143	1478.18
1017.435	1484.73
1017.727	1457.62
1018.018	1458.75
1018.31	1440.67
1018.602	1434.57
1018.893	1413.32
1019.185	1401.35
1019.476	1387.34
1019.767	1400.67
1020.058	1410.84
1020.35	1405.19
1020.641	1393.66
1020.932	1381.46
1021.223	1353.44
1021.514	1333.1
1021.804	1357.51
1022.095	1337.39
1022.386	1322.71
1022.677	1314.57
1022.967	1303.95
1023.258	1297.17
1023.548	1276.38
1023.839	1303.95
1024.129	1277.51
1024.419	1270.96
1024.709	1249.49
1025	1256.94
1025.29	1262.14
1025.58	1237.06
1025.87	1225.53
1026.16	1246.55
1026.449	1189.15
1026.739	1225.98
1027.029	1175.82
1027.319	1183.73
1027.608	1183.5
1027.898	1194.12
1028.187	1164.29
1028.477	1161.81
1028.766	1144.4
1029.055	1144.4
1029.344	1126.78
1029.634	1128.81
1029.923	1118.87
1030.212	1118.64
1030.501	1106.21
1030.79	1099.66
1031.078	1105.31
1031.367	1093.56
1031.656	1089.49
1031.945	1052.43
1032.233	1046.55
1032.522	1069.15
1032.81	1066.21
1033.099	1047.23
1033.387	1041.13
1033.675	1018.31
1033.963	1044.07
1034.251	1038.87
1034.54	993.9
1034.828	997.97
1035.116	995.26
1035.403	990.74
1035.691	960.23
1035.979	979.21
1036.267	1002.26
1036.554	978.99
1036.842	966.33
1037.129	968.36
1037.417	960.23
1037.704	958.2
1037.992	929.95
1038.279	916.61
1038.566	932.89
1038.853	932.89
1039.14	932.89
