Data from hue_20_FLMS001491_40.txt Node
Date: Mon Feb 06 15:34:00 GMT 2017
User: dcchb
Spectrometer: FLMS00149
Trigger mode: 0
Integration Time (sec): 2.000000E-2
Scans to average: 10
Electric dark correction enabled: true
Nonlinearity correction enabled: false
Boxcar width: 0
XAxis mode: Wavelengths
Number of Pixels in Spectrum: 2048
>>>>>Begin Spectral Data<<<<<
341.393	-8.71
341.776	-8.71
342.16	-8.71
342.543	-56.85
342.927	-64.76
343.31	-69.5
343.693	-58.2
344.077	-68.83
344.46	-63.18
344.843	-48.71
345.226	-62.5
345.61	-53.91
345.993	-13.69
346.376	0.1
346.759	14.56
347.142	19.53
347.525	61.34
347.908	76.93
348.291	71.06
348.674	83.03
349.057	111.96
349.44	135.69
349.823	130.49
350.206	160.09
350.588	185.4
350.971	219.3
351.354	204.16
351.737	221.79
352.119	250.71
352.502	260.21
352.884	271.5
353.267	267.89
353.65	284.61
354.032	278.51
354.414	325.51
354.797	308.79
355.179	318.73
355.562	309.7
355.944	313.31
356.326	328
356.709	337.94
357.091	342.46
357.473	333.2
357.855	343.37
358.238	336.14
358.62	331.84
359.002	352.86
359.384	336.81
359.766	335.91
360.148	349.92
360.53	345.85
360.912	324.38
361.294	340.2
361.676	322.12
362.057	333.42
362.439	337.27
362.821	344.04
363.203	341.33
363.584	320.77
363.966	318.51
364.348	320.77
364.729	328.23
365.111	298.85
365.493	303.37
365.874	315.57
366.256	336.14
366.637	314.44
367.019	309.47
367.4	312.63
367.781	296.59
368.163	308.57
368.544	293.42
368.925	319.41
369.306	320.09
369.688	299.3
370.069	321.9
370.45	303.59
370.831	298.85
371.212	300.2
371.593	302.92
371.974	294.33
372.355	293.88
372.736	310.15
373.117	301.11
373.498	329.13
373.879	311.05
374.26	316.25
374.641	311.5
375.021	289.81
375.402	322.8
375.783	307.66
376.163	311.5
376.544	316.25
376.925	302.92
377.305	322.8
377.686	325.51
378.066	313.99
378.447	318.28
378.827	322.35
379.208	325.74
379.588	326.19
379.968	349.02
380.349	329.81
380.729	351.05
381.109	341.11
381.489	334.78
381.87	314.89
382.25	338.4
382.63	322.35
383.01	358.28
383.39	338.85
383.77	335.01
384.15	338.62
384.53	335.68
384.91	339.98
385.29	326.87
385.67	346.53
386.049	356.25
386.429	348.56
386.809	333.88
387.189	367.32
387.568	349.69
387.948	346.76
388.328	346.08
388.707	346.08
389.087	347.89
389.466	346.76
389.846	364.61
390.225	356.02
390.605	369.13
390.984	373.42
391.363	368.68
391.743	353.31
392.122	355.12
392.501	349.47
392.881	344.72
393.26	371.84
393.639	358.28
394.018	373.65
394.397	379.52
394.776	370.48
395.155	355.12
395.534	373.87
395.913	363.48
396.292	345.85
396.671	372.29
397.05	386.76
397.429	380.2
397.808	361.67
398.186	381.78
398.565	380.88
398.944	388.34
399.323	381.11
399.701	365.06
400.08	380.43
400.458	372.07
400.837	380.2
401.215	380.43
401.594	365.51
401.972	385.63
402.351	358.28
402.729	400.31
403.107	384.5
403.486	403.48
403.864	382.91
404.242	393.31
404.62	402.8
404.999	392.86
405.377	408.68
405.755	406.19
406.133	414.1
406.511	402.12
406.889	401.9
407.267	422.01
407.645	412.29
408.023	390.82
408.401	404.16
408.779	417.49
409.156	396.02
409.534	415.23
409.912	391.95
410.29	420.65
410.667	430.14
411.045	427.43
411.422	417.26
411.8	424.72
412.178	437.6
412.555	433.99
412.933	452.06
413.31	426.08
413.687	447.32
414.065	427.21
414.442	444.15
414.819	461.56
415.197	448.9
415.574	455.68
415.951	462.91
416.328	465.17
416.705	474.21
417.082	471.05
417.46	474.66
417.837	452.97
418.214	440.77
418.591	476.92
418.967	461.33
419.344	456.58
419.721	467.43
420.098	462.69
420.475	478.73
420.852	491.16
421.228	486.87
421.605	471.05
421.982	471.05
422.358	481.22
422.735	492.52
423.111	500.88
423.488	480.31
423.864	505.4
424.241	502.01
424.617	500.2
424.994	508.79
425.37	513.31
425.746	511.95
426.123	503.81
426.499	529.12
426.875	521.89
427.251	523.02
427.627	506.98
428.003	526.86
428.379	523.25
428.756	550.82
429.132	572.74
429.507	546.98
429.883	545.4
430.259	559.18
430.635	551.5
431.011	551.04
431.387	588.78
431.763	572.06
432.138	577.26
432.514	581.78
432.89	570.71
433.265	565.96
433.641	590.14
434.016	589.24
434.392	576.58
434.767	599.63
435.143	590.59
435.518	593.08
435.894	604.6
436.269	632.17
436.644	623.36
437.02	638.95
437.395	626.98
437.77	630.59
438.145	646.64
438.52	633.98
438.895	658.39
439.271	642.34
439.646	661.32
440.021	655
440.395	652.06
440.77	653.64
441.145	666.97
441.52	686.41
441.895	676.24
442.27	681.89
442.645	664.04
443.019	690.48
443.394	682.79
443.769	691.61
444.143	675.56
444.518	673.75
444.892	687.76
445.267	693.64
445.641	691.15
446.016	699.52
446.39	725.28
446.764	700.65
447.139	706.97
447.513	701.1
447.887	702
448.262	725.96
448.636	706.52
449.01	731.61
449.384	748.1
449.758	745.16
450.132	752.4
450.506	742
450.88	752.17
451.254	736.8
451.628	775.9
452.002	750.59
452.376	779.51
452.75	742.45
453.123	759.4
453.497	798.95
453.871	777.48
454.244	821.55
454.618	803.47
454.992	808.89
455.365	823.58
455.739	818.16
456.112	840.53
456.486	831.49
456.859	837.36
457.232	850.25
457.606	869.91
457.979	846.63
458.352	870.36
458.725	894.54
459.099	902.67
459.472	926.18
459.845	922.33
460.218	924.37
460.591	910.81
460.964	948.55
461.337	930.7
461.71	942.67
462.083	971.37
462.456	973.63
462.829	991.49
463.201	969.56
463.574	984.03
463.947	1020.19
464.32	1030.81
464.692	1033.74
465.065	1004.37
465.438	1059.96
465.81	1078.26
466.183	1080.75
466.555	1110.13
466.928	1087.53
467.3	1089.56
467.672	1121.88
468.045	1129.56
468.417	1146.51
468.789	1152.84
469.161	1163.68
469.534	1194.87
469.906	1194.64
470.278	1211.37
470.65	1242.78
471.022	1255.43
471.394	1267.18
471.766	1283.91
472.138	1299.5
472.51	1318.48
472.882	1327.75
473.253	1344.02
473.625	1356.9
473.997	1393.51
474.369	1406.84
474.74	1446.16
475.112	1440.51
475.484	1459.04
475.855	1490.91
476.227	1515.31
476.598	1534.3
476.97	1539.04
477.341	1590.57
477.713	1603.9
478.084	1643.9
478.455	1649.77
478.827	1706.95
479.198	1745.14
479.569	1764.12
479.94	1781.07
480.311	1805.25
480.682	1867.17
481.053	1900.84
481.424	1932.7
481.795	1945.58
482.166	1985.58
482.537	2020.61
482.908	2035.75
483.279	2050.44
483.65	2125.69
484.021	2175.63
484.391	2187.61
484.762	2179.48
485.133	2246.37
485.503	2257.21
485.874	2338.79
486.244	2336.08
486.615	2408.85
486.985	2420.15
487.356	2478
487.726	2525.91
488.097	2568.39
488.467	2621.72
488.837	2656.98
489.207	2689.97
489.578	2699.46
489.948	2712.34
490.318	2776.52
490.688	2794.15
491.058	2836.63
491.428	2890.42
491.798	2888.61
492.168	2966.35
492.538	2983.98
492.908	3014.03
493.278	3049.06
493.648	3095.38
494.017	3125.44
494.387	3133.58
494.757	3148.94
495.126	3203.86
495.496	3279.79
495.866	3263.97
496.235	3327.69
496.605	3351.65
496.974	3383.29
497.344	3376.51
497.713	3451.53
498.082	3432.33
498.452	3432.33
498.821	3472.55
499.19	3530.18
499.559	3555.03
499.928	3581.7
500.298	3584.86
500.667	3622.38
501.036	3610.85
501.405	3638.65
501.774	3661.02
502.143	3672.77
502.512	3720
502.88	3723.39
503.249	3771.3
503.618	3785.31
503.987	3844.07
504.356	3816.72
504.724	3862.37
505.093	3809.04
505.462	3875.48
505.83	3897.62
506.199	3905.53
506.567	3974.23
506.936	3954.8
507.304	4044.74
507.672	3995.47
508.041	4003.16
508.409	4072.99
508.777	4081.57
509.145	4048.81
509.514	4105.08
509.882	4155.47
510.25	4125.41
510.618	4162.93
510.986	4135.81
511.354	4201.34
511.722	4182.59
512.09	4255.13
512.458	4252.64
512.826	4290.61
513.193	4254.9
513.561	4288.12
513.929	4397.05
514.297	4385.52
514.664	4388.68
515.032	4367.44
515.4	4418.74
515.767	4454.9
516.135	4435.91
516.502	4416.25
516.869	4484.95
517.237	4491.96
517.604	4491.51
517.972	4543.26
518.339	4545.06
518.706	4559.3
519.073	4551.84
519.44	4563.37
519.808	4598.4
520.175	4579.19
520.542	4692.86
520.909	4698.51
521.276	4700.54
521.643	4705.96
522.009	4763.82
522.376	4747.32
522.743	4813.53
523.11	4766.98
523.477	4786.41
523.843	4896.24
524.21	4922
524.577	4932.4
524.943	4922.91
525.31	4973.3
525.676	5002
526.043	5092.17
526.409	5029.57
526.776	5021.66
527.142	5128.78
527.508	5128.55
527.874	5162
528.241	5172.84
528.607	5165.61
528.973	5232.96
529.339	5226.18
529.705	5236.8
530.071	5324.7
530.437	5325.16
530.803	5313.63
531.169	5372.39
531.535	5367.64
531.901	5414.87
532.267	5444.7
532.632	5453.29
532.998	5451.03
533.364	5566.05
533.73	5494.87
534.095	5574.64
534.461	5586.39
534.826	5621.19
535.192	5617.35
535.557	5658.48
535.923	5675.88
536.288	5708.42
536.653	5673.4
537.019	5736.67
537.384	5717.69
537.749	5741.42
538.114	5771.47
538.479	5782.77
538.845	5820.74
539.21	5778.93
539.575	5835.65
539.94	5892.15
540.305	5936.44
540.67	5900.51
541.034	5883.11
541.399	5969.66
541.764	6028.64
542.129	6004.01
542.494	6057.57
542.858	6100.73
543.223	6086.27
543.587	6155.87
543.952	6134.85
544.316	6202.87
544.681	6170.11
545.045	6228.64
545.41	6287.39
545.774	6332.59
546.138	6275.41
546.503	6279.93
546.867	6319.03
547.231	6387.28
547.595	6344.56
547.959	6391.12
548.324	6461.4
548.688	6467.27
549.052	6497.33
549.416	6471.34
549.779	6483.09
550.143	6516.09
550.507	6563.99
550.871	6545.01
551.235	6529.87
551.599	6639.02
551.962	6608.74
552.326	6663.2
552.689	6708.62
553.053	6633.14
553.417	6659.58
553.78	6752.92
554.143	6730.32
554.507	6781.84
554.87	6805.57
555.234	6887.6
555.597	6807.38
555.96	6861.39
556.323	6883.31
556.686	6902.06
557.05	6938.9
557.413	6952.46
557.776	6949.75
558.139	7001.95
558.502	7018.9
558.865	7087.14
559.228	7040.37
559.59	7149.06
559.953	7073.59
560.316	7180.25
560.679	7156.29
561.041	7189.74
561.404	7227.25
561.767	7282.85
562.129	7261.15
562.492	7344.54
562.854	7332.79
563.217	7361.04
563.579	7349.51
563.941	7419.11
564.304	7441.26
564.666	7497.75
565.028	7526.68
565.39	7464.08
565.753	7509.51
566.115	7482.39
566.477	7574.36
566.839	7632.67
567.201	7673.8
567.563	7682.38
567.925	7707.69
568.287	7677.64
568.648	7717.18
569.01	7768.26
569.372	7821.14
569.734	7896.16
570.095	7886.67
570.457	7902.26
570.819	7935.71
571.18	7938.2
571.542	8009.61
571.903	8053.45
572.265	8085.31
572.626	8097.29
572.987	8161.92
573.349	8230.39
573.71	8238.3
574.071	8248.7
574.432	8366.21
574.794	8419.31
575.155	8415.24
575.516	8459.31
575.877	8482.81
576.238	8486.66
576.599	8663.6
576.96	8673.09
577.32	8749.7
577.681	8831.73
578.042	8893.65
578.403	8833.76
578.763	8987.43
579.124	9115.11
579.485	9233.3
579.845	9272.62
580.206	9361.21
580.566	9486.63
580.927	9605.95
581.287	9657.02
581.648	9756.45
582.008	9857.24
582.368	9945.6
582.728	10075.31
583.089	10197.8
583.449	10374.74
583.809	10531.35
584.169	10696.54
584.529	10805.01
584.889	10999.36
585.249	11086.14
585.609	11275.06
585.969	11462.62
586.329	11671.43
586.688	11865.55
587.048	12042.49
587.408	12186.67
587.768	12401.81
588.127	12620.78
588.487	12825.52
588.846	13179.41
589.206	13246.76
589.565	13444.94
589.925	13802.45
590.284	13976.68
590.643	14155.21
591.003	14489.21
591.362	14837.22
591.721	15023.21
592.08	15267.95
592.44	15528.96
592.799	15756.07
593.158	16021.15
593.517	16304.08
593.876	16645.76
594.235	16806.21
594.593	17199.19
594.952	17416.82
595.311	17622.01
595.67	17973.86
596.029	18355.77
596.387	18664.92
596.746	18919.83
597.104	19110.78
597.463	19332.02
597.822	19728.85
598.18	20009.74
598.538	20273.46
598.897	20683.85
599.255	20742.83
599.613	21373.55
599.972	21524.73
600.33	21806.53
600.688	22000.88
601.046	22372.84
601.404	22700.74
601.762	22917.91
602.12	23313.16
602.478	23661.4
602.836	23802.64
603.194	23921.5
603.552	24349.52
603.91	24401.72
604.268	24949.5
604.625	24978.2
604.983	25388.36
605.341	25447.79
605.698	25935.91
606.056	26183.59
606.413	26348.11
606.771	26780.64
607.128	26927.53
607.485	27092.95
607.843	27223.79
608.2	27723.21
608.557	27997.33
608.914	28123.65
609.272	28427.37
609.629	28706.46
609.986	28963.86
610.343	29000.01
610.7	29395.94
611.057	29568.36
611.414	29754.8
611.771	29881.8
612.127	30325.18
612.484	30409.02
612.841	30694.66
613.198	30709.35
613.554	30992.05
613.911	31248.54
614.267	31464.36
614.624	31452.61
614.98	31684.01
615.337	31969.65
615.693	32098.69
616.05	32117.67
616.406	32584.33
616.762	32612.35
617.118	32888.5
617.475	32824.32
617.831	33172.79
618.187	33159.23
618.543	33388.15
618.899	33763.73
619.255	33833.11
619.611	33887.8
619.967	34048.47
620.323	34325.98
620.678	34252.31
621.034	34338.41
621.39	34449.14
621.746	34450.27
622.101	34899.52
622.457	34901.1
622.812	34971.83
623.168	35140.64
623.523	35164.37
623.879	35323.92
624.234	35239.62
624.589	35595.1
624.945	35664.7
625.3	35632.83
625.655	35637.35
626.01	35895.88
626.365	35952.15
626.72	35973.84
627.075	36026.95
627.43	36163.22
627.785	36165.7
628.14	36337.22
628.495	36316.43
628.85	36350.78
629.205	36358.92
629.559	36552.13
629.914	36552.36
630.269	36523.21
630.623	36494.73
630.978	36673.94
631.332	36759.36
631.687	36802.97
632.041	36840.03
632.396	36877.55
632.75	36731.11
633.104	36813.82
633.459	36685.69
633.813	36598.46
634.167	36746.25
634.521	36728.17
634.875	36887.94
635.229	36810.66
635.583	36701.05
635.937	36812.24
636.291	36722.98
636.645	36768.85
636.999	36763.65
637.352	36870.54
637.706	36734.73
638.06	36946.02
638.413	36864.89
638.767	36822.41
639.121	36983.99
639.474	36636.2
639.828	36649.98
640.181	36798.23
640.534	37055.62
640.888	36717.55
641.241	36672.13
641.594	36773.37
641.947	36787.83
642.301	36647.04
642.654	36808.17
643.007	36776.98
643.36	36776.76
643.713	36801.84
644.066	36780.37
644.419	36658.34
644.771	36491.34
645.124	36123.89
645.477	36067.4
645.83	35770.01
646.182	35843.22
646.535	35785.15
646.888	35686.17
647.24	35650.01
647.593	35752.83
647.945	35739.05
648.298	35732.72
648.65	35548.54
649.002	35579.5
649.355	35635.32
649.707	35480.75
650.059	35643.46
650.411	36097.45
650.763	36143.1
651.115	36552.13
651.467	36505.13
651.819	36409.99
652.171	36487.5
652.523	36481.17
652.875	36405.47
653.227	36211.12
653.578	36581.51
653.93	36389.88
654.282	36249.09
654.633	36174.06
654.985	36266.26
655.337	36225.59
655.688	36271.01
656.039	36281.4
656.391	36077.57
656.742	36110.11
657.094	36151.92
657.445	36292.7
657.796	36191.24
658.147	36120.28
658.498	36144.23
658.849	36219.26
659.2	36120.51
659.551	36136.1
659.902	36095.65
660.253	36043.22
660.604	36161.63
660.955	35944.92
661.306	36205.47
661.656	36101.75
662.007	35962.32
662.358	36079.6
662.708	36043.9
663.059	36025.59
663.409	35697.24
663.76	36038.93
664.11	35999.15
664.461	35921.19
664.811	35957.57
665.161	36034.18
665.511	35979.27
665.862	36052.26
666.212	36038.02
666.562	36028.3
666.912	36024.46
667.262	36071.69
667.612	36052.03
667.962	36112.82
668.312	35950.34
668.662	36174.51
669.011	36067.17
669.361	35946.72
669.711	35790.34
670.06	35861.75
670.41	35869.21
670.76	35816.78
671.109	35938.81
671.459	35938.81
671.808	35869.44
672.157	35983.33
672.507	35527.98
672.856	35708.54
673.205	35777.24
673.554	35855.88
673.904	35784.92
674.253	35896.56
674.602	35763.23
674.951	35299.51
675.3	35091.61
675.649	35727.52
675.998	35570.69
676.346	35565.94
676.695	35719.61
677.044	35510.8
677.393	35535.21
677.741	35592.84
678.09	35440.97
678.438	35395.78
678.787	35471.26
679.135	35556
679.484	35274.65
679.832	35510.58
680.181	35225.16
680.529	35409.11
680.877	35237.82
681.225	35177.48
681.573	35420.41
681.922	35231.49
682.27	35128.44
682.618	34983.81
682.966	34907.43
683.314	35080.08
683.661	34867.66
684.009	34782.91
684.357	34753.99
684.705	34703.82
685.053	34572.98
685.4	34622.01
685.748	34463.83
686.095	34478.74
686.443	34438.74
686.79	34365.3
687.138	34410.27
687.485	34272.42
687.832	34190.61
688.18	34271.74
688.527	34171.4
688.874	34043.5
689.221	34000.79
689.568	33939.32
689.915	33965.76
690.262	33905.42
690.609	33744.97
690.956	33828.14
691.303	33653.68
691.65	33450.52
691.997	33531.87
692.344	33306.34
692.69	33271.09
693.037	33292.56
693.383	33141.15
693.73	33206.01
694.077	32902.74
694.423	32979.8
694.769	32824.09
695.116	32809.86
695.462	32693.02
695.808	32730.09
696.155	32724.21
696.501	32528.96
696.847	32599.02
697.193	32209.42
697.539	32329.87
697.885	32244.9
698.231	31929.43
698.577	31991.57
698.923	31876.55
699.269	31770.56
699.614	31709.55
699.96	31495.77
700.306	31538.03
700.651	31418.48
700.997	31446.5
701.342	31320.18
701.688	31244.93
702.033	31104.14
702.379	31090.58
702.724	31110.24
703.069	31098.49
703.415	30717.26
703.76	30788.44
704.105	30844.71
704.45	30710.93
704.795	30533.76
705.14	30431.39
705.485	30511.39
705.83	30361.33
706.175	30320.21
706.52	30290.15
706.865	30166.09
707.209	30065.52
707.554	30080.21
707.899	30115.47
708.243	29826.89
708.588	29936.26
708.932	29645.2
709.277	29577.85
709.621	29669.38
709.966	29544.41
710.31	29436.39
710.654	29332.21
710.998	29364.98
711.342	29486.1
711.687	29333.56
712.031	29256.96
712.375	29112.1
712.719	29025.78
713.063	29083.63
713.407	29146.9
713.75	28951.43
714.094	28982.39
714.438	28804.54
714.782	28839.11
715.125	28764.99
715.469	28786.01
715.812	28545.11
716.156	28481.61
716.499	28505.11
716.843	28486.36
717.186	28376.3
717.53	28356.19
717.873	28345.79
718.216	28342.63
718.559	28242.29
718.902	28075.52
719.246	28185.8
719.589	27939.48
719.932	27919.82
720.275	27943.09
720.617	27799.59
720.96	27819.25
721.303	27705.59
721.646	27767.73
721.989	27730.44
722.331	27672.14
722.674	27562.99
723.016	27608.19
723.359	27562.31
723.701	27563.89
724.044	27533.39
724.386	27264.24
724.729	27404.8
725.071	27277.12
725.413	27356.89
725.755	27251.81
726.097	27156.67
726.439	26941.09
726.782	27048.65
727.124	27139.5
727.465	26988.32
727.807	27035.09
728.149	26879.84
728.491	26936.34
728.833	26960.29
729.175	26774.08
729.516	26754.2
729.858	26646.86
730.199	26659.51
730.541	26674.65
730.882	26707.42
731.224	26700.19
731.565	26394.89
731.906	26450.02
732.248	26448.44
732.589	26410.03
732.93	26314.21
733.271	26317.15
733.612	26348.33
733.953	26359.41
734.294	26152.18
734.635	26088.68
734.976	26324.83
735.317	26085.51
735.658	25975.91
735.999	26085.51
736.339	26018.85
736.68	25983.82
737.021	25889.81
737.361	25817.27
737.702	26055.01
738.042	25877.16
738.383	25851.85
738.723	25811.17
739.063	25702.7
739.404	25807.78
739.744	25659.31
740.084	25691.63
740.424	25646.43
740.764	25510.84
741.104	25648.69
741.444	25428.36
741.784	25332.54
742.124	25415.93
742.464	25402.37
742.804	25283.5
743.143	25349.94
743.483	25297.06
743.823	25124.41
744.162	25171.87
744.502	25212.77
744.841	25082.15
745.181	25260.45
745.52	25031.98
745.86	25065.2
746.199	24957.63
746.538	25000.35
746.877	25081.93
747.216	25137.29
747.556	25037.63
747.895	24984.98
748.234	24869.95
748.573	24827.69
748.911	24724.42
749.25	24708.15
749.589	24662.28
749.928	24759.22
750.267	24750.18
750.605	24636.06
750.944	24483.75
751.283	24479.23
751.621	24463.86
751.96	24345.67
752.298	24440.13
752.636	24402.4
752.975	24299.8
753.313	24249.86
753.651	24396.97
753.989	24216.64
754.327	24134.38
754.666	24012.57
755.004	24134.15
755.342	24072.23
755.679	24071.33
756.017	23934.84
756.355	23941.62
756.693	23755.63
757.031	23921.5
757.368	23744.33
757.706	23832.01
758.044	23606.48
758.381	23644.67
758.719	23446.71
759.056	23615.98
759.394	23468.41
759.731	23320.62
760.068	23375.53
760.405	23216.21
760.743	23232.71
761.08	23239.49
761.417	23058.7
761.754	22994.75
762.091	22942.32
762.428	22997.91
762.765	22698.26
763.102	22920.4
763.438	22723.8
763.775	22531.26
764.112	22681.99
764.449	22520.18
764.785	22402.67
765.122	22357.25
765.458	22136.69
765.795	22298.72
766.131	22202.9
766.467	22227.09
766.804	22004.27
767.14	22005.17
767.476	21872.74
767.812	21776.02
768.148	21840.43
768.485	21661.68
768.821	21693.09
769.157	21554.33
769.492	21565.63
769.828	21505.07
770.164	21371.51
770.5	21282.25
770.836	21225.3
771.171	21209.94
771.507	21078.87
771.842	20881.81
772.178	21038.64
772.513	20878.19
772.849	20803.17
773.184	20709.84
773.519	20735.82
773.855	20566.56
774.19	20448.83
774.525	20308.27
774.86	20464.42
775.195	20329.73
775.53	20372.44
775.865	20106.91
776.2	19928.16
776.535	19831.22
776.87	19943.98
777.205	19847.03
777.539	19862.18
777.874	19783.31
778.209	19555.06
778.543	19648.4
778.878	19442.98
779.212	19485.46
779.547	19423.99
779.881	19385.58
780.215	19205.24
780.55	19233.94
780.884	19089.54
781.218	19139.48
781.552	19101.97
781.886	18962.09
782.22	18848.64
782.554	18839.38
782.888	18613.17
783.222	18567.52
783.556	18483.23
783.889	18439.84
784.223	18334.98
784.557	18291.6
784.89	18249.11
785.224	18180.86
785.557	18039.17
785.891	18026.07
786.224	17954.66
786.558	18082.56
786.891	17865.84
787.224	17822.68
787.557	17826.3
787.891	17687.32
788.224	17758.05
788.557	17653.87
788.89	17632.86
789.223	17612.07
789.556	17450.04
789.888	17311.06
790.221	17378.4
790.554	17165.52
790.887	17226.54
791.219	17138.18
791.552	17070.38
791.884	16916.94
792.217	16907
792.549	16917.85
792.882	16796.95
793.214	16685.31
793.546	16700.68
793.879	16563.05
794.211	16492.32
794.543	16670.17
794.875	16505.65
795.207	16609.15
795.539	16424.3
795.871	16380.23
796.203	16326
796.535	16225.89
796.867	16219.11
797.198	16107.47
797.53	16046.46
797.862	15926.91
798.193	16014.37
798.525	16006.01
798.856	15948.61
799.188	15719.23
799.519	15724.88
799.85	15644.89
800.182	15591.55
800.513	15609.63
800.844	15514.27
801.175	15547.26
801.506	15535.28
801.837	15424.78
802.168	15432.24
802.499	15373.71
802.83	15201.28
803.161	15278.79
803.491	15149.98
803.822	15180.94
804.153	15241.28
804.483	15032.92
804.814	14953.15
805.145	14973.72
805.475	14943.21
805.805	14816.88
806.136	14849.2
806.466	14842.42
806.796	14794.51
807.126	14667.06
807.457	14676.78
807.787	14585.25
808.117	14548.64
808.447	14635.42
808.777	14513.16
809.107	14522.88
809.436	14418.7
809.766	14421.87
810.096	14297.58
810.426	14298.48
810.755	14324.47
811.085	14281.08
811.414	14272.04
811.744	14083.57
812.073	14066.85
812.403	14103.46
812.732	14091.03
813.061	14046.28
813.39	13897.59
813.719	13998.15
814.049	14004.7
814.378	13862.56
814.707	13817.14
815.036	13792.5
815.365	13792.05
815.693	13570.82
816.022	13671.6
816.351	13618.95
816.68	13571.27
817.008	13544.38
817.337	13451.95
817.665	13430.93
817.994	13437.49
818.322	13456.02
818.651	13324.95
818.979	13250.6
819.307	13409.69
819.636	13287.66
819.964	13216.47
820.292	13271.16
820.62	13250.37
820.948	13135.57
821.276	13186.87
821.604	13202.92
821.932	13262.58
822.259	13165.85
822.587	13152.52
822.915	13153.88
823.243	13159.98
823.57	13193.65
823.898	13150.71
824.225	13148.68
824.553	13093.99
824.88	13152.3
825.207	13276.59
825.535	13150.26
825.862	13105.74
826.189	13069.13
826.516	13106.65
826.843	13197.94
827.17	13146.42
827.497	13156.82
827.824	13099.42
828.151	13157.94
828.478	13174.44
828.805	13110.49
829.131	13138.06
829.458	13108
829.785	13052.86
830.111	13108
830.438	13082.01
830.764	13063.94
831.09	13115.91
831.417	13023.26
831.743	13128.79
832.069	13023.94
832.395	12972.19
832.722	13046.54
833.048	12962.24
833.374	13028.23
833.7	12925.41
834.026	12971.28
834.351	12955.92
834.677	12908.46
835.003	12966.76
835.329	12973.32
835.654	12937.39
835.98	12897.84
836.306	12805.41
836.631	12875.47
836.956	12900.1
837.282	12821.91
837.607	12727
837.932	12733.78
838.258	12728.8
838.583	12688.35
838.908	12606.32
839.233	12637.51
839.558	12597.96
839.883	12642.25
840.208	12647.45
840.533	12491.75
840.858	12566.77
841.182	12639.54
841.507	12550.96
841.832	12452.65
842.156	12498.08
842.481	12484.74
842.805	12438.87
843.13	12360.45
843.454	12367.68
843.778	12309.61
844.103	12312.77
844.427	12231.64
844.751	12237.52
845.075	12168.59
845.399	12145.09
845.723	12188.7
846.047	12099.44
846.371	12064.64
846.695	12037.52
847.019	11897.19
847.343	11948.94
847.666	11858.09
847.99	11787.59
848.313	11813.57
848.637	11603.64
848.96	11689.74
849.284	11556.63
849.607	11502.62
849.931	11488.61
850.254	11460.14
850.577	11398.44
850.9	11313.02
851.223	11325.9
851.546	11223.98
851.869	11165.91
852.192	11245.23
852.515	11109.86
852.838	11076.64
853.161	11078
853.483	10982.63
853.806	11009.53
854.129	10912.35
854.451	10915.29
854.774	10863.32
855.096	10879.36
855.419	10858.57
855.741	10839.81
856.063	10705.35
856.385	10638.46
856.708	10732.47
857.03	10619.25
857.352	10693.6
857.674	10570.22
857.996	10546.26
858.318	10530.67
858.64	10473.72
858.961	10493.83
859.283	10393.5
859.605	10365.93
859.926	10456.32
860.248	10327.28
860.57	10314.86
860.891	10312.14
861.212	10275.99
861.534	10279.83
861.855	10210.9
862.176	10265.37
862.498	10158.93
862.819	10250.45
863.14	10113.05
863.461	10115.77
863.782	10029.21
864.103	10079.83
864.424	10037.12
864.745	10093.62
865.065	9964.13
865.386	9989.89
865.707	9991.25
866.027	10063.79
866.348	9946.5
866.668	9946.5
866.989	9918.26
867.309	9797.36
867.63	9873.06
867.95	9905.15
868.27	9814.98
868.59	9839.84
868.91	9818.37
869.23	9779.73
869.55	9691.6
869.87	9826.28
870.19	9771.82
870.51	9735.89
870.83	9779.73
871.15	9636.46
871.469	9701.31
871.789	9648.21
872.109	9719.84
872.428	9584.48
872.748	9652.73
873.067	9612.5
873.386	9581.99
873.706	9586.97
874.025	9537.25
874.344	9555.33
874.663	9523.01
874.982	9535.89
875.301	9511.94
875.62	9418.16
875.939	9440.98
876.258	9484.37
876.577	9434.65
876.896	9366.63
877.214	9319.63
877.533	9404.37
877.852	9412.51
878.17	9369.34
878.489	9389.23
878.807	9422.9
879.125	9281.21
879.444	9337.71
879.762	9250.7
880.08	9245.96
880.398	9183.13
880.716	9278.5
881.034	9143.36
881.352	9121.44
881.67	9062.91
881.988	9164.83
882.306	9118.73
882.624	9116.92
882.941	9087.54
883.259	9036.02
883.577	8956.25
883.894	9055.23
884.212	9057.94
884.529	8975
884.846	8968.45
885.164	8954.67
885.481	8943.14
885.798	8897.72
886.115	8839.41
886.432	8903.14
886.75	8816.36
887.067	8842.13
887.383	8775.24
887.7	8799.87
888.017	8747.21
888.334	8752.86
888.651	8741.79
888.967	8676.93
889.284	8619.31
889.6	8610.95
889.917	8581.79
890.233	8564.62
890.55	8534.11
890.866	8560.33
891.182	8511.51
891.498	8535.47
891.815	8490.05
892.131	8445.07
892.447	8429.71
892.763	8393.1
893.079	8339.54
893.395	8348.35
893.71	8307.9
894.026	8341.35
894.342	8278.98
894.657	8239.43
894.973	8205.31
895.289	8181.58
895.604	8222.71
895.92	8088.02
896.235	8091.64
896.55	8118.3
896.865	8076.27
897.181	8021.81
897.496	8065.2
897.811	7981.36
898.126	7965.09
898.441	7916.5
898.756	7925.31
899.071	7886.22
899.386	7850.97
899.7	7801.93
900.015	7811.87
900.33	7791.31
900.644	7750.4
900.959	7715.38
901.273	7685.77
901.588	7668.15
901.902	7621.37
902.216	7613.91
902.531	7551.31
902.845	7505.89
903.159	7523.29
903.473	7460.92
903.787	7469.96
904.101	7338.21
904.415	7414.59
904.729	7369.62
905.042	7326.46
905.356	7334.37
905.67	7264.77
905.984	7308.83
906.297	7257.99
906.611	7216.41
906.924	7184.09
907.237	7139.12
907.551	7121.49
907.864	7077.88
908.177	7074.26
908.491	7077.65
908.804	6995.4
909.117	6970.54
909.43	6940.48
909.743	6928.28
910.056	6910.65
910.368	6877.88
910.681	6859.58
910.994	6842.86
911.307	6752.46
911.619	6716.53
911.932	6779.36
912.244	6634.5
912.557	6711.56
912.869	6652.81
913.181	6647.38
913.494	6606.7
913.806	6624.33
914.118	6561.06
914.43	6443.55
914.742	6525.35
915.054	6465.01
915.366	6437.67
915.678	6464.11
915.99	6414.85
916.302	6307.73
916.613	6331.23
916.925	6328.52
917.236	6258.92
917.548	6252.82
917.859	6226.15
918.171	6168.52
918.482	6153.61
918.794	6157.68
919.105	6180.05
919.416	6071.58
919.727	6100.5
920.038	6095.31
920.349	6000.17
920.66	5978.02
920.971	5984.8
921.282	5980.28
921.593	5946.38
921.903	5845.82
922.214	5874.07
922.525	5825.48
922.835	5796.33
923.146	5775.77
923.456	5804.92
923.767	5761.98
924.077	5751.59
924.387	5725.6
924.697	5708.42
925.008	5624.13
925.318	5651.93
925.628	5681.76
925.938	5615.77
926.248	5535.77
926.558	5580.52
926.867	5508.2
927.177	5485.83
927.487	5458.71
927.796	5448.54
928.106	5458.26
928.416	5430.24
928.725	5406.51
929.034	5327.64
929.344	5382.56
929.653	5346.4
929.962	5292.62
930.271	5314.76
930.581	5197.48
930.89	5241.99
931.199	5206.29
931.508	5174.2
931.817	5183.92
932.125	5133.3
932.434	5119.74
932.743	5112.28
933.051	5089
933.36	5081.77
933.669	5061.89
933.977	5031.38
934.286	4973.08
934.594	4985.96
934.902	4919.97
935.21	4925.39
935.519	4881.55
935.827	4877.03
936.135	4837.03
936.443	4799.75
936.751	4812.18
937.059	4808.79
937.367	4750.26
937.674	4774.89
937.982	4719.75
938.29	4741.67
938.597	4717.26
938.905	4655.8
939.213	4631.39
939.52	4608.79
939.827	4636.14
940.135	4594.55
940.442	4573.09
940.749	4567.66
941.056	4584.39
941.363	4522.69
941.67	4500.32
941.977	4465.52
942.284	4442.69
942.591	4429.59
942.898	4429.36
943.205	4393.43
943.511	4380.55
943.818	4354.79
944.125	4359.76
944.431	4352.53
944.738	4320.21
945.044	4331.06
945.35	4259.42
945.657	4293.32
945.963	4248.8
946.269	4199.99
946.575	4202.93
946.881	4197.5
947.187	4178.29
947.493	4157.28
947.799	4160.89
948.105	4089.93
948.41	4062.14
948.716	4102.82
949.022	4056.26
949.327	4077.73
949.633	4015.59
949.938	4011.07
950.244	4029.37
950.549	3959.09
950.854	3976.04
951.16	3937.85
951.465	3933.1
951.77	3855.36
952.075	3879.09
952.38	3850.39
952.685	3888.13
952.99	3820.56
953.294	3809.04
953.599	3797.06
953.904	3792.32
954.209	3741.24
954.513	3763.39
954.818	3744.63
955.122	3726.1
955.426	3737.4
955.731	3673.22
956.035	3680.91
956.339	3704.63
956.643	3687.01
956.948	3676.61
957.252	3616.95
957.556	3610.4
957.86	3613.11
958.163	3592.77
958.467	3561.36
958.771	3527.46
959.075	3510.74
959.378	3509.61
959.682	3484.75
959.985	3484.3
960.289	3482.49
960.592	3422.83
960.896	3471.87
961.199	3421.93
961.502	3435.04
961.805	3383.06
962.108	3374.02
962.411	3376.06
962.714	3362.95
963.017	3333.8
963.32	3371.76
963.623	3334.7
963.926	3304.19
964.228	3259.67
964.531	3280.01
964.833	3316.62
965.136	3265.1
965.438	3228.49
965.741	3205.89
966.043	3228.49
966.345	3207.25
966.648	3155.27
966.95	3154.14
967.252	3157.3
967.554	3148.49
967.856	3133.35
968.158	3070.98
968.46	3082.96
968.761	3073.69
969.063	3032.34
969.365	3054.03
969.666	3008.61
969.968	3011.55
970.269	3025.1
970.571	2978.55
970.872	2984.65
971.174	2972
971.475	2955.5
971.776	2962.96
972.077	2905.11
972.378	2886.12
972.679	2894.71
972.98	2866.69
973.281	2878.44
973.582	2852
973.883	2846.13
974.183	2846.8
974.484	2838.22
974.785	2801.16
975.085	2796.18
975.386	2827.37
975.686	2786.01
975.986	2754.6
976.287	2768.16
976.587	2710.76
976.887	2751.89
977.187	2695.17
977.487	2702.4
977.787	2699.24
978.087	2692.68
978.387	2655.17
978.687	2632.12
978.987	2679.35
979.286	2611.33
979.586	2640.26
979.885	2609.52
980.185	2620.14
980.484	2592.57
980.784	2585.12
981.083	2572.69
981.382	2557.77
981.682	2552.57
981.981	2566.13
982.28	2508.51
982.579	2469.41
982.878	2496.53
983.177	2505.8
983.475	2505.12
983.774	2469.64
984.073	2476.42
984.372	2469.19
984.67	2449.75
984.969	2432.58
985.267	2441.62
985.566	2453.37
985.864	2400.71
986.162	2421.5
986.461	2344.44
986.759	2337.66
987.057	2339.92
987.355	2340.6
987.653	2365.91
987.951	2340.6
988.249	2319.36
988.547	2302.41
988.844	2320.72
989.142	2280.04
989.44	2247.5
989.737	2269.19
990.035	2269.19
990.332	2272.58
990.63	2218.57
990.927	2226.93
991.224	2233.49
991.521	2195.97
991.819	2186.93
992.116	2186.03
992.413	2175.86
992.71	2148.74
993.006	2137.22
993.303	2120.27
993.6	2128.4
993.897	2143.32
994.193	2135.64
994.49	2088.18
994.787	2073.49
995.083	2102.19
995.379	2076.65
995.676	2060.84
995.972	2066.94
996.268	2020.16
996.565	2026.94
996.861	1998.24
997.157	2030.1
997.453	1992.81
997.749	2018.58
998.044	1972.25
998.34	1962.99
998.636	1965.92
998.932	1963.44
999.227	1977.9
999.523	1965.47
999.818	1915.3
1000.114	1918.01
1000.409	1918.24
1000.704	1904.46
1001	1900.39
1001.295	1886.15
1001.59	1901.74
1001.885	1842.31
1002.18	1839.37
1002.475	1853.38
1002.77	1831.24
1003.065	1792.82
1003.359	1801.41
1003.654	1793.27
1003.949	1788.53
1004.243	1797.79
1004.538	1772.48
1004.832	1764.8
1005.127	1776.32
1005.421	1737
1005.715	1748.98
1006.009	1742.65
1006.304	1719.83
1006.598	1728.87
1006.892	1709.43
1007.186	1672.15
1007.48	1679.38
1007.773	1665.37
1008.067	1655.42
1008.361	1667.85
1008.655	1654.74
1008.948	1621.07
1009.242	1655.65
1009.535	1632.82
1009.829	1610.68
1010.122	1614.29
1010.415	1595.09
1010.708	1566.39
1011.001	1567.29
1011.295	1551.7
1011.588	1549.44
1011.881	1530.91
1012.173	1553.28
1012.466	1543.56
1012.759	1523
1013.052	1485.71
1013.344	1486.16
1013.637	1508.76
1013.93	1467.63
1014.222	1489.78
1014.514	1481.42
1014.807	1478.03
1015.099	1434.64
1015.391	1478.7
1015.683	1432.6
1015.976	1458.59
1016.268	1401.42
1016.56	1417.01
1016.851	1385.83
1017.143	1386.5
1017.435	1385.6
1017.727	1356.67
1018.018	1383.11
1018.31	1361.42
1018.602	1356.45
1018.893	1338.59
1019.185	1337.92
1019.476	1331.59
1019.767	1327.3
1020.058	1343.79
1020.35	1301.99
1020.641	1307.86
1020.932	1261.99
1021.223	1267.64
1021.514	1281.65
1021.804	1266.28
1022.095	1213.63
1022.386	1240.97
1022.677	1259.95
1022.967	1237.58
1023.258	1226.06
1023.548	1231.03
1023.839	1191.03
1024.129	1222.67
1024.419	1190.12
1024.709	1192.84
1025	1180.18
1025.29	1180.18
1025.58	1150.58
1025.87	1158.71
1026.16	1136.11
1026.449	1146.51
1026.739	1115.1
1027.029	1135.66
1027.319	1116.68
1027.608	1121.2
1027.898	1113.97
1028.187	1121.88
1028.477	1109.22
1028.766	1115.78
1029.055	1077.36
1029.344	1047.53
1029.634	1066.96
1029.923	1054.76
1030.212	1056.57
1030.501	1042.78
1030.79	1039.62
1031.078	1049.34
1031.367	1001.88
1031.656	1038.94
1031.945	1024.25
1032.233	986.29
1032.522	985.38
1032.81	1012.28
1033.099	996.68
1033.387	1013.18
1033.675	978.83
1033.963	944.71
1034.251	1007.3
1034.54	969.56
1034.828	943.8
1035.116	962.56
1035.403	937.48
1035.691	940.64
1035.979	935.44
1036.267	918.72
1036.554	909.68
1036.842	935.67
1037.129	911.26
1037.417	916.91
1037.704	891.37
1037.992	887.31
1038.279	873.3
1038.566	902.22
1038.853	902.22
1039.14	902.22
