Data from hue_210_FLMS001491_00027.txt Node
Date: Tue Feb 07 16:40:58 GMT 2017
User: dcchb
Spectrometer: FLMS00149
Trigger mode: 0
Integration Time (sec): 2.000000E-2
Scans to average: 10
Electric dark correction enabled: true
Nonlinearity correction enabled: false
Boxcar width: 0
XAxis mode: Wavelengths
Number of Pixels in Spectrum: 2048
>>>>>Begin Spectral Data<<<<<
341.393	-43.42
341.776	-43.42
342.16	-43.42
342.543	-62.17
342.927	-81.38
343.31	-85
343.693	-80.93
344.077	-45.45
344.46	-61.04
344.843	-50.87
345.226	-49.97
345.61	-35.28
345.993	-7.71
346.376	-5.45
346.759	20.08
347.142	22.12
347.525	35.45
347.908	73.19
348.291	77.48
348.674	73.42
349.057	119.97
349.44	124.26
349.823	131.04
350.206	163.58
350.588	175.33
350.971	190.93
351.354	225.73
351.737	217.82
352.119	248.33
352.502	273.64
352.884	245.84
353.267	274.09
353.65	291.49
354.032	273.41
354.414	294.88
354.797	308.44
355.179	312.96
355.562	317.25
355.944	317.93
356.326	308.89
356.709	334.65
357.091	319.96
357.473	345.05
357.855	322
358.238	346.86
358.62	338.27
359.002	346.63
359.384	332.84
359.766	339.17
360.148	343.47
360.53	361.09
360.912	322.68
361.294	331.71
361.676	340.3
362.057	333.3
362.439	330.81
362.821	329.91
363.203	314.77
363.584	324.26
363.966	326.52
364.348	321.77
364.729	333.97
365.111	312.05
365.493	303.47
365.874	321.77
366.256	302.79
366.637	297.59
367.019	317.7
367.4	298.49
367.781	318.61
368.163	317.25
368.544	314.54
368.925	311.15
369.306	331.94
369.688	312.73
370.069	316.35
370.45	332.39
370.831	311.83
371.212	314.54
371.593	303.24
371.974	310.25
372.355	321.55
372.736	329.68
373.117	313.86
373.498	319.51
373.879	309.79
374.26	325.39
374.641	322.45
375.021	298.27
375.402	323.58
375.783	301.66
376.163	348.66
376.544	320.42
376.925	314.77
377.305	331.49
377.686	299.85
378.066	332.17
378.447	333.3
378.827	323.13
379.208	329
379.588	333.97
379.968	326.97
380.349	329.23
380.729	337.82
381.109	326.97
381.489	345.27
381.87	312.96
382.25	319.06
382.63	336.91
383.01	325.61
383.39	345.5
383.77	332.62
384.15	338.95
384.53	326.97
384.91	352.05
385.29	346.63
385.67	330.36
386.049	336.91
386.429	327.42
386.809	322.68
387.189	344.6
387.568	338.04
387.948	351.83
388.328	356.35
388.707	359.06
389.087	358.61
389.466	345.27
389.846	367.65
390.225	366.52
390.605	370.36
390.984	352.28
391.363	351.6
391.743	373.97
392.122	380.75
392.501	383.01
392.881	372.84
393.26	374.2
393.639	377.36
394.018	354.09
394.397	379.85
394.776	390.24
395.155	382.79
395.534	380.98
395.913	382.56
396.292	378.04
396.671	386.4
397.05	380.3
397.429	390.02
397.808	378.49
398.186	384.14
398.565	389.34
398.944	398.38
399.323	404.93
399.701	422.11
400.08	424.37
400.458	411.26
400.837	407.42
401.215	412.39
401.594	426.4
401.972	422.79
402.351	443.58
402.729	423.24
403.107	430.92
403.486	431.82
403.864	430.47
404.242	438.38
404.62	445.38
404.999	448.77
405.377	441.09
405.755	451.71
406.133	453.97
406.511	458.49
406.889	458.94
407.267	471.82
407.645	447.87
408.023	494.2
408.401	475.67
408.779	465.04
409.156	510.47
409.534	494.65
409.912	510.47
410.29	527.87
410.667	516.57
411.045	535.55
411.422	541.43
411.8	538.26
412.178	574.87
412.555	553.4
412.933	583.46
413.31	572.84
413.687	601.99
414.065	588.43
414.442	599.05
414.819	600.41
415.197	624.14
415.574	646.96
415.951	653.74
416.328	626.85
416.705	650.12
417.082	653.51
417.46	683.34
417.837	671.14
418.214	700.29
418.591	688.99
418.967	701.65
419.344	714.76
419.721	725.38
420.098	722.21
420.475	762.89
420.852	746.84
421.228	768.31
421.605	787.97
421.982	799.72
422.358	765.6
422.735	826.16
423.111	826.39
423.488	854.64
423.864	834.75
424.241	876.33
424.617	894.41
424.994	901.19
425.37	880.17
425.746	937.35
426.123	923.11
426.499	944.35
426.875	921.76
427.251	960.62
427.627	996.1
428.003	999.04
428.379	1000.4
428.756	1009.44
429.132	1032.49
429.507	1056.22
429.883	1083.56
430.259	1114.52
430.635	1107.74
431.011	1102.09
431.387	1133.5
431.763	1141.18
432.138	1126.72
432.514	1179.83
432.89	1184.12
433.265	1205.36
433.641	1234.52
434.016	1259.6
434.392	1272.03
434.767	1323.33
435.143	1295.08
435.518	1344.57
435.894	1375.08
436.269	1390.22
436.644	1403.78
437.02	1433.38
437.395	1436.77
437.77	1445.13
438.145	1491.46
438.52	1510.67
438.895	1525.36
439.271	1543.89
439.646	1588.63
440.021	1606.71
440.395	1650.32
440.77	1608.29
441.145	1667.72
441.52	1697.55
441.895	1663.66
442.27	1716.54
442.645	1755.18
443.019	1733.49
443.394	1759.7
443.769	1774.61
444.143	1785.91
444.518	1841.96
444.892	1818.68
445.267	1886.02
445.641	1858
446.016	1873.14
446.39	1898
446.764	1935.06
447.139	1927.38
447.513	1938.45
447.887	1968.06
448.262	1969.19
448.636	1966.25
449.01	1981.16
449.384	1997.21
449.758	2045.34
450.132	2043.08
450.506	2079.01
450.88	2096.41
451.254	2099.58
451.628	2133.93
452.002	2135.51
452.376	2137.32
452.75	2186.58
453.123	2189.97
453.497	2204.43
453.871	2217.54
454.244	2279.91
454.618	2283.08
454.992	2342.74
455.365	2344.77
455.739	2402.39
456.112	2409.85
456.486	2425.44
456.859	2443.07
457.232	2481.71
457.606	2505.22
457.979	2493.47
458.352	2588.83
458.725	2580.24
459.099	2593.8
459.472	2643.97
459.845	2693.91
460.218	2677.64
460.591	2688.49
460.964	2717.41
461.337	2793.34
461.71	2848.94
462.083	2865.66
462.456	2887.13
462.829	2902.04
463.201	2924.64
463.574	2908.6
463.947	2939.56
464.32	3049.61
464.692	3062.72
465.065	3042.15
465.438	3125.31
465.81	3157.63
466.183	3213.22
466.555	3263.61
466.928	3240.56
467.3	3276.27
467.672	3311.98
468.045	3390.39
468.417	3413.44
468.789	3437.4
469.161	3486.43
469.534	3522.14
469.906	3624.28
470.278	3607.56
470.65	3625.87
471.022	3721.68
471.394	3777.73
471.766	3785.86
472.138	3866.54
472.51	3925.97
472.882	3908.57
473.253	4010.71
473.625	4011.84
473.997	4084.38
474.369	4194.44
474.74	4186.53
475.112	4237.37
475.484	4331.38
475.855	4381.33
476.227	4429.01
476.598	4524.82
476.97	4542
477.341	4649.12
477.713	4713.75
478.084	4777.93
478.455	4835.1
478.827	4893.18
479.198	5008.43
479.569	5019.27
479.94	5155.09
480.311	5115.09
480.682	5253.17
481.053	5332.94
481.424	5449.32
481.795	5489.54
482.166	5560.5
482.537	5596.43
482.908	5732.93
483.279	5761.85
483.65	5866.94
484.021	5913.49
484.391	5975.41
484.762	6063.09
485.133	6080.94
485.503	6169.75
485.874	6267.83
486.244	6375.85
486.615	6480.48
486.985	6513.7
487.356	6605
487.726	6612
488.097	6754.37
488.467	6751.88
488.837	6904.87
489.207	6953.24
489.578	7039.11
489.948	7044.76
490.318	7150.29
490.688	7168.37
491.058	7263.28
491.428	7301.25
491.798	7407.46
492.168	7548.93
492.538	7495.59
492.908	7566.33
493.278	7697.62
493.648	7755.25
494.017	7816.26
494.387	7869.82
494.757	7868.01
495.126	7978.07
495.496	7992.98
495.866	7980.78
496.235	8049.7
496.605	8143.03
496.974	8215.35
497.344	8239.76
497.713	8192.07
498.082	8310.94
498.452	8382.12
498.821	8421.45
499.19	8386.42
499.559	8507.32
499.928	8475.23
500.298	8562.91
500.667	8590.03
501.036	8566.75
501.405	8665.51
501.774	8653.08
502.143	8674.09
502.512	8671.38
502.88	8804.49
503.249	8738.73
503.618	8776.92
503.987	8778.72
504.356	8843.36
504.724	8874.31
505.093	8907.76
505.462	8923.8
505.83	8949.57
506.199	8999.28
506.567	9106.62
506.936	9028.66
507.304	9103.91
507.672	9115.66
508.041	9148.66
508.409	9182.33
508.777	9250.35
509.145	9307.52
509.514	9245.38
509.882	9286.73
510.25	9273.63
510.618	9288.77
510.986	9290.57
511.354	9383.68
511.722	9447.63
512.09	9462.77
512.458	9430.46
512.826	9472.04
513.193	9493.73
513.561	9458.71
513.929	9514.07
514.297	9546.61
514.664	9569.66
515.032	9584.8
515.4	9649.66
515.767	9623.22
516.135	9606.27
516.502	9577.8
516.869	9659.38
517.237	9645.59
517.604	9531.7
517.972	9611.24
518.339	9713.16
518.706	9660.28
519.073	9699.38
519.44	9642.88
519.808	9736.89
520.175	9754.74
520.542	9738.25
520.909	9730.79
521.276	9667.74
521.643	9750.9
522.009	9792.71
522.376	9820.28
522.743	9777.12
523.11	9788.87
523.477	9874.97
523.843	9930.78
524.21	9875.19
524.577	9915.64
524.943	9926.94
525.31	9879.49
525.676	9988.86
526.043	9919.48
526.409	9937.56
526.776	10012.14
527.142	9980.27
527.508	10022.99
527.874	10021.18
528.241	10005.81
528.607	9989.77
528.973	10068.63
529.339	9966.94
529.705	10083.77
530.071	10038.58
530.437	10086.26
530.803	10073.38
531.169	10041.52
531.535	10014.17
531.901	10035.41
532.267	9932.82
532.632	9978.47
532.998	9944.8
533.364	9979.14
533.73	9979.82
534.095	9984.57
534.461	9916.77
534.826	9961.97
535.192	9928.52
535.557	9957.68
535.923	9854.63
536.288	9828.19
536.653	9879.26
537.019	9823.89
537.384	9749.32
537.749	9762.43
538.114	9736.89
538.479	9667.97
538.845	9829.32
539.21	9657.8
539.575	9696.21
539.94	9594.3
540.305	9604.46
540.67	9599.72
541.034	9613.96
541.399	9548.42
541.764	9512.04
542.129	9545.48
542.494	9489.44
542.858	9481.53
543.223	9466.39
543.587	9352.27
543.952	9386.62
544.316	9394.53
544.681	9321.99
545.045	9339.39
545.41	9316.11
545.774	9320.18
546.138	9211.25
546.503	9187.53
546.867	9182.56
547.231	9191.14
547.595	9209.9
547.959	9149.56
548.324	9040.19
548.688	9077.93
549.052	9063.01
549.416	9044.25
549.779	8979.62
550.143	8943.69
550.507	8950.47
550.871	8907.08
551.235	8888.78
551.599	8928.78
551.962	8879.74
552.326	8854.43
552.689	8820.53
553.053	8757.93
553.417	8751.61
553.78	8746.41
554.143	8748.89
554.507	8696.92
554.87	8737.6
555.234	8757.93
555.597	8692.4
555.96	8618.5
556.323	8647.88
556.686	8623.47
557.05	8677.94
557.413	8654.66
557.776	8638.16
558.139	8627.99
558.502	8590.25
558.865	8541.89
559.228	8548.22
559.59	8585.06
559.953	8556.81
560.316	8611.27
560.679	8603.81
561.041	8637.26
561.404	8545.51
561.767	8607.2
562.129	8519.97
562.492	8535.34
562.854	8547.77
563.217	8558.39
563.579	8501.44
563.941	8566.3
564.304	8611.95
564.666	8606.07
565.028	8597.94
565.39	8608.11
565.753	8616.92
566.115	8608.78
566.477	8610.14
566.839	8636.58
567.201	8634.55
567.563	8585.73
567.925	8674.09
568.287	8665.73
568.648	8594.77
569.01	8675.45
569.372	8734.88
569.734	8699.63
570.095	8673.42
570.457	8726.75
570.819	8729.46
571.18	8757.71
571.542	8713.87
571.903	8778.95
572.265	8760.19
572.626	8791.38
572.987	8728.33
573.349	8734.43
573.71	8813.75
574.071	8774.43
574.432	8800.87
574.794	8920.19
575.155	8840.87
575.516	8801.1
575.877	8872.05
576.238	8785.73
576.599	8843.58
576.96	8809.68
577.32	8837.71
577.681	8910.02
578.042	8905.27
578.403	8876.12
578.763	8919.96
579.124	8925.16
579.485	8947.76
579.845	8960.41
580.206	8935.56
580.566	8987.53
580.927	8982.33
581.287	9035.21
581.648	8980.3
582.008	9084.48
582.368	9063.69
582.728	9027.31
583.089	9049.23
583.449	9032.73
583.809	9065.27
584.169	9131.03
584.529	9089.45
584.889	9158.6
585.249	9041.54
585.609	9082.67
585.969	9092.84
586.329	9056.46
586.688	9083.12
587.048	9067.3
587.408	9054.42
587.768	9120.41
588.127	9096.68
588.487	9096.68
588.846	9190.46
589.206	9100.52
589.565	9157.7
589.925	9160.86
590.284	9096.23
590.643	9143.23
591.003	9159.05
591.362	9213.97
591.721	9131.94
592.08	9190.24
592.44	9218.03
592.799	9220.75
593.158	9192.95
593.517	9176.68
593.876	9176
594.235	9156.79
594.593	9132.39
594.952	9230.24
595.311	9173.74
595.67	9204.93
596.029	9237.24
596.387	9214.87
596.746	9252.16
597.104	9162.89
597.463	9170.35
597.822	9197.24
598.18	9226.17
598.538	9187.53
598.897	9180.75
599.255	9194.53
599.613	9253.51
599.972	9266.17
600.33	9250.35
600.688	9262.33
601.046	9279.73
601.404	9257.36
601.762	9286.96
602.12	9303.68
602.478	9296.9
602.836	9300.97
603.194	9200.41
603.552	9243.34
603.91	9227.98
604.268	9263.46
604.625	9223.01
604.983	9307.52
605.341	9250.58
605.698	9330.57
606.056	9269.33
606.413	9248.09
606.771	9299.84
607.128	9332.16
607.485	9234.98
607.843	9289.22
608.2	9345.04
608.557	9341.87
608.914	9315.43
609.272	9400.18
609.629	9347.75
609.986	9321.76
610.343	9329.67
610.7	9455.09
611.057	9433.62
611.414	9401.08
611.771	9377.13
612.127	9451.25
612.484	9434.3
612.841	9476.78
613.198	9432.72
613.554	9434.3
613.911	9403.34
614.267	9486.5
614.624	9440.63
614.98	9483.11
615.337	9496.67
615.693	9492.38
616.05	9513.17
616.406	9500.51
616.762	9532.83
617.118	9512.49
617.475	9514.3
617.831	9528.31
618.187	9505.26
618.543	9522.66
618.899	9591.81
619.255	9575.31
619.611	9512.72
619.967	9608.76
620.323	9553.39
620.678	9578.25
621.034	9529.21
621.39	9504.81
621.746	9596.78
622.101	9643.56
622.457	9563.56
622.812	9559.72
623.168	9607.63
623.523	9561.98
623.879	9627.06
624.234	9588.19
624.589	9616.67
624.945	9624.8
625.3	9543.45
625.655	9512.49
626.01	9621.41
626.365	9551.13
626.72	9537.12
627.075	9562.66
627.43	9574.86
627.785	9593.62
628.14	9531.25
628.495	9576.67
628.85	9578.02
629.205	9528.53
629.559	9593.84
629.914	9514.75
630.269	9534.64
630.623	9418.93
630.978	9487.41
631.332	9441.76
631.687	9524.69
632.041	9345.71
632.396	9484.02
632.75	9451.02
633.104	9459.16
633.459	9353.62
633.813	9354.53
634.167	9432.94
634.521	9356.34
634.875	9361.99
635.229	9450.8
635.583	9339.39
635.937	9356.79
636.291	9348.88
636.645	9300.29
636.999	9355.66
637.352	9350.23
637.706	9201.99
638.06	9301.2
638.413	9291.48
638.767	9240.18
639.121	9195.89
639.474	9197.92
639.828	9153.86
640.181	9217.58
640.534	9179.39
640.888	9204.7
641.241	9104.14
641.594	9133.97
641.947	9175.32
642.301	9174.87
642.654	9150.24
643.007	9145.72
643.36	9166.96
643.713	9086.96
644.066	9094.2
644.419	9124.93
644.771	9089.68
645.124	9021.66
645.477	9009.23
645.83	8940.08
646.182	8884.26
646.535	8819.85
646.888	8873.86
647.24	8786.63
647.593	8797.03
647.945	8844.94
648.298	8771.27
648.65	8742.11
649.002	8737.82
649.355	8827.08
649.707	8823.24
650.059	8790.48
650.411	8933.97
650.763	8933.75
651.115	9004.71
651.467	9034.76
651.819	9005.84
652.171	9017.14
652.523	8949.34
652.875	8993.86
653.227	8934.88
653.578	8995.44
653.93	8999.51
654.282	8994.54
654.633	8929.68
654.985	9065.95
655.337	9011.49
655.688	9030.69
656.039	9046.97
656.391	8955.44
656.742	8994.54
657.094	9034.54
657.445	9072.05
657.796	9006.51
658.147	8996.57
658.498	9072.5
658.849	8968.32
659.2	9055.1
659.551	8990.7
659.902	9066.63
660.253	9103.91
660.604	9092.84
660.955	8999.51
661.306	9064.59
661.656	9080.18
662.007	9122.9
662.358	9051.26
662.708	9024.37
663.059	9092.39
663.409	9008.32
663.76	9076.8
664.11	9066.85
664.461	9121.54
664.811	9118.6
665.161	9050.58
665.511	9081.09
665.862	9114.31
666.212	9153.18
666.562	9120.41
666.912	9072.05
667.262	9089.9
667.612	9093.74
667.962	9081.31
668.312	9056
668.662	9103.69
669.011	9074.08
669.361	9063.69
669.711	9074.54
670.06	9087.42
670.41	9055.33
670.76	8997.93
671.109	9051.03
671.459	8978.72
671.808	9064.82
672.157	9030.47
672.507	9020.98
672.856	8993.18
673.205	9063.91
673.554	9035.44
673.904	8990.47
674.253	9014.42
674.602	8959.06
674.951	8863.92
675.3	8839.51
675.649	8964.93
675.998	8919.06
676.346	8941.66
676.695	8967.87
677.044	8899.62
677.393	8940.53
677.741	8956.35
678.09	8922.45
678.438	8890.81
678.787	8867.31
679.135	8886.74
679.484	8828.67
679.832	8787.76
680.181	8746.63
680.529	8819.85
680.877	8769.91
681.225	8747.76
681.573	8803.81
681.922	8707.77
682.27	8656.92
682.618	8727.88
682.966	8686.3
683.314	8712.51
683.661	8669.12
684.009	8660.53
684.357	8572.63
684.705	8578.73
685.053	8631.38
685.4	8644.94
685.748	8526.08
686.095	8526.75
686.443	8517.71
686.79	8477.49
687.138	8504.38
687.485	8501.9
687.832	8378.96
688.18	8446.08
688.527	8395.01
688.874	8355.68
689.221	8353.88
689.568	8329.02
689.915	8284.05
690.262	8331.5
690.609	8257.61
690.956	8266.87
691.303	8162.47
691.65	8166.99
691.997	8113.43
692.344	8130.38
692.69	8084.5
693.037	8070.72
693.383	8066.88
693.73	8099.42
694.077	7982.36
694.423	7998.18
694.769	7934
695.116	7942.81
695.462	7928.35
695.808	7822.14
696.155	7835.47
696.501	7847.22
696.847	7776.49
697.193	7739.43
697.539	7745.53
697.885	7697.17
698.231	7683.84
698.577	7625.08
698.923	7601.58
699.269	7596.38
699.614	7536.27
699.96	7498.08
700.306	7505.99
700.651	7442.26
700.997	7449.95
701.342	7450.17
701.688	7422.38
702.033	7426.22
702.379	7369.27
702.724	7364.52
703.069	7323.4
703.415	7278.2
703.76	7292.21
704.105	7253.34
704.45	7251.76
704.795	7132.67
705.14	7178.99
705.485	7122.27
705.83	7169.5
706.175	7152.55
706.52	7012.44
706.865	7057.64
707.209	7002.95
707.554	7015.38
707.899	7063.29
708.243	6969.73
708.588	6970.41
708.932	6918.43
709.277	6906.91
709.621	6870.98
709.966	6889.73
710.31	6884.31
710.654	6753.01
710.998	6781.94
711.342	6806.57
711.687	6744.65
712.031	6711.43
712.375	6689.97
712.719	6709.17
713.063	6701.04
713.407	6708.72
713.75	6686.12
714.094	6706.24
714.438	6615.17
714.782	6582.85
715.125	6625.11
715.469	6609.29
715.812	6600.25
716.156	6567.71
716.499	6557.77
716.843	6526.35
717.186	6535.85
717.53	6579.46
717.873	6582.85
718.216	6533.13
718.559	6540.14
718.902	6529.52
719.246	6512.12
719.589	6527.26
719.932	6485.68
720.275	6473.7
720.617	6463.98
720.96	6466.47
721.303	6485.68
721.646	6423.98
721.989	6426.02
722.331	6442.51
722.674	6447.49
723.016	6381.72
723.359	6422.63
723.701	6440.48
724.044	6414.72
724.386	6379.24
724.729	6405.91
725.071	6387.15
725.413	6425.11
725.755	6323.87
726.097	6375.4
726.439	6322.52
726.782	6299.69
727.124	6387.83
727.465	6361.84
727.807	6336.08
728.149	6317.09
728.491	6373.82
728.833	6360.71
729.175	6344.44
729.516	6328.62
729.858	6348.05
730.199	6367.26
730.541	6313.93
730.882	6330.2
731.224	6339.47
731.565	6239.81
731.906	6333.82
732.248	6356.64
732.589	6328.39
732.93	6308.28
733.271	6296.53
733.612	6258.79
733.953	6288.62
734.294	6292.91
734.635	6339.01
734.976	6312.12
735.317	6283.42
735.658	6243.65
735.999	6297.89
736.339	6254.95
736.68	6341.73
737.021	6339.24
737.361	6344.66
737.702	6362.97
738.042	6367.49
738.383	6343.99
738.723	6369.3
739.063	6314.83
739.404	6431.89
739.744	6351.44
740.084	6415.62
740.424	6384.21
740.764	6407.94
741.104	6403.87
741.444	6458.78
741.784	6411.1
742.124	6460.14
742.464	6470.76
742.804	6483.42
743.143	6568.84
743.483	6528.84
743.823	6535.85
744.162	6596.41
744.502	6612
744.841	6654.49
745.181	6689.06
745.52	6701.04
745.86	6698.78
746.199	6740.13
746.538	6763.86
746.877	6843.86
747.216	6857.87
747.556	6904.65
747.895	6882.28
748.234	6947.59
748.573	7018.54
748.911	7060.58
749.25	7116.62
749.589	7132.67
749.928	7277.75
750.267	7261.7
750.605	7346.45
750.944	7378.53
751.283	7515.25
751.621	7585.76
751.96	7630.96
752.298	7617.62
752.636	7808.13
752.975	7843.38
753.313	7950.95
753.651	8054.9
753.989	8139.42
754.327	8220.77
754.666	8308.68
755.004	8473.65
755.342	8576.47
755.679	8659.41
756.017	8797.48
756.355	9036.8
756.693	9065.04
757.031	9219.84
757.368	9308.43
757.706	9454.64
758.044	9629.1
758.381	9765.14
758.719	9909.77
759.056	10050.1
759.394	10148.63
759.731	10255.75
760.068	10474.27
760.405	10627.49
760.743	10764.21
761.08	10991.32
761.417	11044.2
761.754	11219.56
762.091	11412.33
762.428	11589.95
762.765	11635.37
763.102	12024.06
763.438	12073.55
763.775	12156.71
764.112	12423.37
764.449	12593.31
764.785	12802.35
765.122	12893.19
765.458	13018.61
765.795	13172.28
766.131	13323.01
766.467	13472.84
766.804	13580.41
767.14	13730.46
767.476	13913.5
767.812	14000.73
768.148	14243.67
768.485	14367.5
768.821	14467.84
769.157	14547.16
769.492	14728.4
769.828	14810.66
770.164	14835.29
770.5	15027.6
770.836	15193.7
771.171	15251.77
771.507	15410.87
771.842	15402.5
772.178	15592.1
772.513	15636.4
772.849	15742.83
773.184	15756.17
773.519	15887.01
773.855	16033.45
774.19	15932.66
774.525	16170.17
774.86	16178.08
775.195	16289.71
775.53	16290.84
775.865	16331.97
776.2	16325.19
776.535	16372.2
776.87	16465.3
777.205	16482.93
777.539	16553.89
777.874	16652.64
778.209	16624.39
778.543	16608.12
778.878	16639.08
779.212	16796.37
779.547	16758.4
779.881	16855.57
780.215	16840.66
780.55	16885.86
780.884	16930.37
781.218	16947.32
781.552	17013.54
781.886	16955.23
782.22	16929.24
782.554	16981.67
782.888	16870.04
783.222	16869.36
783.556	16886.08
783.889	16964.05
784.223	16856.03
784.557	16861
784.89	16929.7
785.224	16914.1
785.557	16771.51
785.891	16908.45
786.224	16848.34
786.558	16887.44
786.891	16827.78
787.224	16776.03
787.557	16801.79
787.891	16810.83
788.224	16811.51
788.557	16812.19
788.89	16706.65
789.223	16794.11
789.556	16726.76
789.888	16731.06
790.221	16750.49
790.554	16590.95
790.887	16709.36
791.219	16590.27
791.552	16495.13
791.884	16612.64
792.217	16507.11
792.549	16547.56
792.882	16395.92
793.214	16418.07
793.546	16538.97
793.879	16264.18
794.211	16272.31
794.543	16410.84
794.875	16352.31
795.207	16375.81
795.539	16310.73
795.871	16294.68
796.203	16090.62
796.535	16101.92
796.867	16089.94
797.198	16065.99
797.53	16077.06
797.862	16016.05
798.193	16042.49
798.525	15921.14
798.856	15981.47
799.188	15885.66
799.519	15650.63
799.85	15705.77
800.182	15691.08
800.513	15678.66
800.844	15561.14
801.175	15663.51
801.506	15706.9
801.837	15674.36
802.168	15577.42
802.499	15606.79
802.83	15581.71
803.161	15466.01
803.491	15473.46
803.822	15522.28
804.153	15412.9
804.483	15326.8
804.814	15302.62
805.145	15262.17
805.475	15299.91
805.805	15240.7
806.136	15235.96
806.466	15270.08
806.796	15165
807.126	15069.86
807.457	14981.95
807.787	14986.7
808.117	14988.5
808.447	14932.46
808.777	15037.99
809.107	14913.7
809.436	14879.35
809.766	14876.19
810.096	14917.55
810.426	14743.76
810.755	14765.69
811.085	14765.46
811.414	14710.77
811.744	14605.01
812.073	14618.34
812.403	14567.05
812.732	14534.05
813.061	14503.55
813.39	14493.6
813.719	14386.49
814.049	14534.5
814.378	14439.59
814.707	14326.6
815.036	14424.23
815.365	14333.15
815.693	14188.75
816.022	14340.61
816.351	14203.67
816.68	14149.43
817.008	14201.63
817.337	14102.88
817.665	14090.45
817.994	14082.09
818.322	14111.92
818.651	13976.55
818.979	13942.43
819.307	14114.18
819.636	13981.98
819.964	13917.8
820.292	13912.37
820.62	13952.37
820.948	13928.42
821.276	13974.52
821.604	13819.04
821.932	13923.9
822.259	13907.85
822.587	13899.04
822.915	13832.83
823.243	13935.88
823.57	13852.94
823.898	13894.3
824.225	13886.39
824.553	13957.57
824.88	13927.06
825.207	13916.22
825.535	13919.61
825.862	13941.75
826.189	13868.53
826.516	13906.5
826.843	14021.75
827.17	13952.83
827.497	13994.41
827.824	13903.56
828.151	13897.69
828.478	13891.81
828.805	14047.06
829.131	13925.48
829.458	13963.67
829.785	13913.73
830.111	13983.11
830.438	13958.47
830.764	13946.72
831.09	13913.73
831.417	13861.08
831.743	13877.8
832.069	13974.52
832.395	13963.9
832.722	13937.23
833.048	13887.74
833.374	13932.94
833.7	13821.53
834.026	13880.28
834.351	13917.57
834.677	13857.01
835.003	13848.87
835.329	13796.67
835.654	13792.15
835.98	13765.26
836.306	13805.94
836.631	13757.8
836.956	13781.3
837.282	13720.51
837.607	13692.49
837.932	13707.18
838.258	13659.5
838.583	13672.61
838.908	13554.64
839.233	13615.21
839.558	13617.92
839.883	13541.54
840.208	13450.47
840.533	13508.09
840.858	13493.85
841.182	13417.25
841.507	13445.95
841.832	13355.33
842.156	13395.55
842.481	13361.65
842.805	13252.73
843.13	13265.61
843.454	13231.04
843.778	13276.91
844.103	13207.53
844.427	13216.35
844.751	13079.63
845.075	13109.23
845.399	13036.92
845.723	13076.24
846.047	13033.53
846.371	12897.26
846.695	12965.96
847.019	12854.32
847.343	12789.01
847.666	12752.18
847.99	12724.38
848.313	12680.99
848.637	12577.95
848.96	12584.27
849.284	12550.6
849.607	12375.47
849.931	12434
850.254	12318.07
850.577	12286.2
850.9	12219.09
851.223	12208.24
851.546	12158.97
851.869	12045.98
852.192	12143.16
852.515	11993.33
852.838	11963.27
853.161	11936.16
853.483	11883.05
853.806	11916.04
854.129	11833.11
854.451	11740.91
854.774	11735.71
855.096	11711.53
855.419	11696.84
855.741	11590.4
856.063	11595.6
856.385	11564.19
856.708	11545.88
857.03	11473.79
857.352	11439.44
857.674	11351.31
857.996	11346.34
858.318	11380.46
858.64	11256.85
858.961	11300.01
859.283	11333.01
859.605	11115.39
859.926	11279.22
860.248	11218.66
860.57	11064.54
860.891	11111.32
861.212	11130.98
861.534	11082.84
861.855	11047.36
862.176	10991.77
862.498	10968.04
862.819	11018.21
863.14	10943.19
863.461	10912
863.782	10921.94
864.103	10886.69
864.424	10857.54
864.745	10808.05
865.065	10812.79
865.386	10756.07
865.707	10817.31
866.027	10838.33
866.348	10791.1
866.668	10716.07
866.989	10670.43
867.309	10677.21
867.63	10695.06
867.95	10633.14
868.27	10609.86
868.59	10617.77
868.91	10593.37
869.23	10536.64
869.55	10549.75
869.87	10566.7
870.19	10523.31
870.51	10535.29
870.83	10525.8
871.15	10421.84
871.469	10416.65
871.789	10496.42
872.109	10429.3
872.428	10379.59
872.748	10416.65
873.067	10443.76
873.386	10398.12
873.706	10304.79
874.025	10266.14
874.344	10240.15
874.663	10238.12
874.982	10269.76
875.301	10270.89
875.62	10249.19
875.939	10216.2
876.258	10185.01
876.577	10188.4
876.896	10194.51
877.214	10121.51
877.533	10164.22
877.852	10144.11
878.17	10168.97
878.489	10162.19
878.807	10160.61
879.125	10060.95
879.444	10020.05
879.762	9996.77
880.08	9985.25
880.398	9942.31
880.716	9967.39
881.034	9949.99
881.352	9959.26
881.67	9900.95
881.988	9858.24
882.306	9857.34
882.624	9835.87
882.941	9854.4
883.259	9780.05
883.577	9732.82
883.894	9742.09
884.212	9748.64
884.529	9785.25
884.846	9696.21
885.164	9672.94
885.481	9650.57
885.798	9623.9
886.115	9518.82
886.432	9551.13
886.75	9518.14
887.067	9570.12
887.383	9470.01
887.7	9516.11
888.017	9478.14
888.334	9392.95
888.651	9427.97
888.967	9452.38
889.284	9379.39
889.6	9352.49
889.917	9266.85
890.233	9291.93
890.55	9266.62
890.866	9298.94
891.182	9180.52
891.498	9159.5
891.815	9119.05
892.131	9098.72
892.447	9093.97
892.763	9056
893.079	9044.25
893.395	8957.48
893.71	9036.12
894.026	8999.28
894.342	8918.38
894.657	8865.5
894.973	8849.68
895.289	8842.45
895.604	8812.4
895.92	8786.18
896.235	8694.43
896.55	8724.26
896.865	8697.37
897.181	8641.33
897.496	8664.15
897.811	8624.38
898.126	8601.55
898.441	8605.85
898.756	8554.78
899.071	8486.53
899.386	8463.03
899.7	8373.31
900.015	8384.16
900.33	8326.98
900.644	8286.31
900.959	8311.39
901.273	8248.57
901.588	8210.15
901.902	8210.38
902.216	8212.64
902.531	8243.14
902.845	8186.65
903.159	8100.78
903.473	8011.96
903.787	8031.17
904.101	7934.45
904.415	8009.25
904.729	7886.54
905.042	7873.66
905.356	7809.03
905.67	7868.69
905.984	7836.38
906.297	7819.88
906.611	7741.92
906.924	7760.45
907.237	7723.16
907.551	7725.19
907.864	7656.27
908.177	7586.44
908.491	7527.68
908.804	7493.79
909.117	7541.69
909.43	7470.06
909.743	7421.92
910.056	7397.97
910.368	7425.54
910.681	7322.72
910.994	7262.15
911.307	7319.55
911.619	7235.94
911.932	7305.77
912.244	7230.52
912.557	7223.06
912.869	7123.63
913.181	7143.74
913.494	7081.59
913.806	7093.12
914.118	7047.47
914.43	6925.89
914.742	7014.7
915.054	6882.28
915.366	6905.55
915.678	6864.2
915.99	6834.14
916.302	6776.52
916.613	6764.09
916.925	6751.43
917.236	6727.25
917.548	6748.04
917.859	6715.5
918.171	6663.98
918.482	6635.73
918.794	6654.94
919.105	6590.53
919.416	6557.77
919.727	6547.6
920.038	6478.45
920.349	6455.85
920.66	6421.72
920.971	6440.03
921.282	6388.28
921.593	6390.54
921.903	6287.04
922.214	6279.58
922.525	6284.1
922.835	6263.08
923.146	6225.57
923.456	6258.11
923.767	6185.12
924.077	6141.28
924.387	6112.58
924.697	6114.39
925.008	6086.14
925.318	6071.45
925.628	6030.1
925.938	6001.85
926.248	5992.81
926.558	5929.08
926.867	5885.47
927.177	5943.54
927.487	5881.63
927.796	5834.85
928.106	5896.99
928.416	5791.91
928.725	5821.51
929.034	5790.33
929.344	5783.1
929.653	5768.86
929.962	5717.56
930.271	5712.14
930.581	5666.49
930.89	5661.97
931.199	5635.08
931.508	5600.05
931.817	5588.53
932.125	5541.97
932.434	5540.84
932.743	5481.64
933.051	5458.81
933.36	5462.65
933.669	5455.87
933.977	5398.25
934.286	5448.42
934.594	5379.27
934.902	5340.85
935.21	5314.41
935.519	5274.18
935.827	5289.78
936.135	5258.36
936.443	5211.81
936.751	5204.81
937.059	5209.33
937.367	5177.46
937.674	5130.68
937.982	5153.51
938.29	5136.11
938.597	5100.63
938.905	5034.42
939.213	4998.26
939.52	4990.35
939.827	5054.3
940.135	5013.17
940.442	4993.74
940.749	4959.84
941.056	4958.26
941.363	4873.74
941.67	4899.28
941.977	4887.3
942.284	4765.27
942.591	4785.83
942.898	4793.07
943.205	4777.25
943.511	4779.96
943.818	4771.6
944.125	4726.18
944.431	4685.5
944.738	4697.93
945.044	4622
945.35	4636.91
945.657	4641.43
945.963	4606.4
946.269	4563.92
946.575	4604.6
946.881	4529.12
947.187	4518.5
947.493	4563.47
947.799	4498.16
948.105	4456.13
948.41	4406.18
948.716	4398.05
949.022	4410.25
949.327	4409.8
949.633	4371.16
949.938	4363.92
950.244	4350.14
950.549	4295.23
950.854	4288.22
951.16	4288.67
951.465	4272.4
951.77	4246.41
952.075	4226.08
952.38	4190.14
952.685	4181.78
952.99	4163.25
953.294	4170.48
953.599	4118.28
953.904	4122.58
954.209	4079.41
954.513	4084.61
954.818	4084.38
955.122	4038.28
955.426	4066.08
955.731	4024.05
956.035	3998.06
956.339	3955.8
956.643	3978.85
956.948	3939.3
957.252	3942.47
957.556	3897.95
957.86	3928.46
958.163	3874.45
958.467	3914.22
958.771	3842.36
959.075	3817.27
959.378	3808.69
959.682	3820.44
959.985	3769.59
960.289	3779.53
960.592	3734.56
960.896	3730.27
961.199	3719.42
961.502	3695.02
961.805	3733.21
962.108	3649.59
962.411	3643.49
962.714	3656.37
963.017	3612.53
963.32	3618.41
963.623	3562.36
963.926	3560.78
964.228	3551.97
964.531	3522.59
964.833	3544.51
965.136	3500.9
965.438	3500.67
965.741	3524.17
966.043	3463.16
966.345	3463.16
966.648	3450.95
966.95	3420.22
967.252	3404.18
967.554	3359.43
967.856	3344.52
968.158	3344.29
968.46	3344.29
968.761	3318.08
969.063	3314.23
969.365	3330.96
969.666	3283.05
969.968	3278.3
970.269	3254.12
970.571	3209.6
970.872	3243.73
971.174	3222.03
971.475	3185.88
971.776	3242.37
972.077	3142.26
972.378	3199.44
972.679	3146.78
972.98	3157.4
973.281	3131.19
973.582	3115.37
973.883	3122.38
974.183	3078.08
974.484	3064.52
974.785	3055.48
975.085	3062.72
975.386	3066.78
975.686	3018.88
975.986	3013
976.287	3025.2
976.587	2971.87
976.887	2945.88
977.187	2960.12
977.487	2991.76
977.787	2913.34
978.087	2941.14
978.387	2903.85
978.687	2906.34
978.987	2860.01
979.286	2854.36
979.586	2871.08
979.885	2849.16
980.185	2854.36
980.484	2791.54
980.784	2802.84
981.083	2798.32
981.382	2754.25
981.682	2800.35
981.981	2710.86
982.28	2729.39
982.579	2721.71
982.878	2734.36
983.177	2737.53
983.475	2706.57
983.774	2655.72
984.073	2668.38
984.372	2664.76
984.67	2690.97
984.969	2637.87
985.267	2620.24
985.566	2589.51
985.864	2599
986.162	2579.34
986.461	2589.73
986.759	2556.74
987.057	2502.5
987.355	2532.56
987.653	2513.35
987.951	2538.44
988.249	2491.43
988.547	2530.75
988.844	2493.92
989.142	2466.35
989.44	2453.24
989.737	2444.2
990.035	2454.37
990.332	2424.31
990.63	2386.35
990.927	2384.32
991.224	2382.28
991.521	2398.33
991.819	2381.15
992.116	2338.22
992.413	2344.77
992.71	2354.94
993.006	2332.79
993.303	2300.7
993.6	2312.68
993.897	2325.11
994.193	2259.35
994.49	2280.36
994.787	2259.8
995.083	2250.08
995.379	2252.79
995.676	2251.44
995.972	2232.46
996.268	2217.77
996.565	2211.21
996.861	2192
997.157	2161.27
997.453	2162.17
997.749	2145
998.044	2112.68
998.34	2117.43
998.636	2143.42
998.932	2092.35
999.227	2094.38
999.523	2066.36
999.818	2085.11
1000.114	2046.25
1000.409	2032.46
1000.704	2037.21
1001	2039.47
1001.295	2030.88
1001.59	2034.04
1001.885	2013.03
1002.18	1987.04
1002.475	1975.96
1002.77	1941.39
1003.065	1974.61
1003.359	1940.03
1003.654	1966.93
1003.949	1898
1004.243	1931.67
1004.538	1898
1004.832	1893.71
1005.127	1870.88
1005.421	1890.54
1005.715	1874.27
1006.009	1907.94
1006.304	1821.84
1006.598	1817.1
1006.892	1812.81
1007.186	1813.71
1007.48	1783.88
1007.773	1752.47
1008.067	1778.91
1008.361	1778.68
1008.655	1789.3
1008.948	1740.72
1009.242	1752.02
1009.535	1738.91
1009.829	1745.24
1010.122	1717.21
1010.415	1668.85
1010.708	1686.03
1011.001	1695.97
1011.295	1677.44
1011.588	1662.07
1011.881	1648.97
1012.173	1656.43
1012.466	1618.46
1012.759	1630.21
1013.052	1634.05
1013.344	1620.04
1013.637	1573.72
1013.93	1564
1014.222	1578.01
1014.514	1578.69
1014.807	1561.29
1015.099	1542.3
1015.391	1564
1015.683	1544.79
1015.976	1521.06
1016.268	1520.84
1016.56	1499.14
1016.851	1457.56
1017.143	1492.81
1017.435	1508.63
1017.727	1440.39
1018.018	1448.97
1018.31	1446.71
1018.602	1433.38
1018.893	1442.87
1019.185	1441.06
1019.476	1401.29
1019.767	1415.75
1020.058	1408.75
1020.35	1393.38
1020.641	1393.38
1020.932	1371.69
1021.223	1374.4
1021.514	1351.8
1021.804	1355.19
1022.095	1315.87
1022.386	1318.36
1022.677	1338.92
1022.967	1327.85
1023.258	1300.05
1023.548	1290.79
1023.839	1297.11
1024.129	1279.49
1024.419	1269.99
1024.709	1256.89
1025	1243.55
1025.29	1235.42
1025.58	1272.48
1025.87	1244.68
1026.16	1240.62
1026.449	1229.09
1026.739	1184.8
1027.029	1192.48
1027.319	1194.06
1027.608	1185.03
1027.898	1175.53
1028.187	1144.12
1028.477	1189.32
1028.766	1165.14
1029.055	1131.69
1029.344	1136.89
1029.634	1135.99
1029.923	1156.33
1030.212	1138.02
1030.501	1120.17
1030.79	1081.53
1031.078	1079.72
1031.367	1080.85
1031.656	1076.33
1031.945	1095.31
1032.233	1079.04
1032.522	1067.29
1032.81	1047.63
1033.099	1045.59
1033.387	1071.81
1033.675	1058.7
1033.963	1043.79
1034.251	1027.52
1034.54	1037.01
1034.828	1008.98
1035.116	1022.77
1035.403	1022.09
1035.691	973.05
1035.979	982.77
1036.267	971.47
1036.554	980.51
1036.842	977.57
1037.129	955.65
1037.417	971.7
1037.704	971.7
1037.992	938.03
1038.279	937.57
1038.566	939.16
1038.853	939.16
1039.14	939.16
