Data from hue_26_FLMS001491_00055.txt Node
Date: Tue Feb 07 17:14:12 GMT 2017
User: dcchb
Spectrometer: FLMS00149
Trigger mode: 0
Integration Time (sec): 2.000000E-2
Scans to average: 10
Electric dark correction enabled: true
Nonlinearity correction enabled: false
Boxcar width: 0
XAxis mode: Wavelengths
Number of Pixels in Spectrum: 2048
>>>>>Begin Spectral Data<<<<<
341.393	-18.59
341.776	-18.59
342.16	-18.59
342.543	-61.52
342.927	-66.27
343.31	-77.34
343.693	-82.31
344.077	-46.61
344.46	-52.48
344.843	-41.86
345.226	-42.09
345.61	-26.95
345.993	-15.88
346.376	2.2
346.759	-2.54
347.142	17.8
347.525	44.46
347.908	48.98
348.291	62.31
348.674	91.24
349.057	121.07
349.44	128.75
349.823	116.78
350.206	153.84
350.588	204.23
350.971	199.03
351.354	248.98
351.737	229.09
352.119	276.77
352.502	251.69
352.884	292.59
353.267	273.38
353.65	296.66
354.032	294.63
354.414	295.08
354.797	302.99
355.179	292.14
355.562	323.55
355.944	329.88
356.326	348.18
356.709	328.07
357.091	325.36
357.473	345.7
357.855	360.84
358.238	339.82
358.62	328.52
359.002	338.69
359.384	334.17
359.766	335.3
360.148	351.35
360.53	351.35
360.912	319.71
361.294	341.18
361.676	327.62
362.057	335.75
362.439	327.62
362.821	331.01
363.203	317.9
363.584	290.56
363.966	320.61
364.348	340.27
364.729	341.4
365.111	333.72
365.493	321.97
365.874	356.54
366.256	318.58
366.637	302.53
367.019	328.3
367.4	313.83
367.781	316.32
368.163	319.26
368.544	325.58
368.925	322.87
369.306	309.09
369.688	324.91
370.069	338.92
370.45	335.3
370.831	315.19
371.212	331.69
371.593	325.36
371.974	322.42
372.355	328.75
372.736	324
373.117	305.02
373.498	315.19
373.879	335.3
374.26	299.6
374.641	317.68
375.021	321.07
375.402	316.77
375.783	317.68
376.163	352.48
376.544	325.58
376.925	336.88
377.305	338.92
377.686	334.4
378.066	342.53
378.447	332.59
378.827	323.32
379.208	333.95
379.588	319.26
379.968	338.24
380.349	323.32
380.729	354.74
381.109	336.43
381.489	344.34
381.87	338.24
382.25	350.44
382.63	338.69
383.01	350.22
383.39	340.27
383.77	357.67
384.15	356.32
384.53	341.63
384.91	341.18
385.29	339.82
385.67	336.43
386.049	356.09
386.429	338.01
386.809	349.09
387.189	357
387.568	367.62
387.948	369.2
388.328	359.03
388.707	357.45
389.087	373.72
389.466	367.62
389.846	347.5
390.225	360.61
390.605	373.49
390.984	381.4
391.363	352.93
391.743	362.87
392.122	386.15
392.501	388.18
392.881	372.59
393.26	369.2
393.639	381.4
394.018	368.3
394.397	361.29
394.776	384.79
395.155	395.64
395.534	384.34
395.913	387.28
396.292	388.18
396.671	400.38
397.05	367.84
397.429	382.08
397.808	387.5
398.186	392.48
398.565	397.9
398.944	387.96
399.323	376.2
399.701	411.91
400.08	394.51
400.458	408.07
400.837	382.08
401.215	418.46
401.594	418.92
401.972	414.62
402.351	399.93
402.729	405.81
403.107	419.82
403.486	404.45
403.864	410.55
404.242	424.79
404.62	409.88
404.999	428.41
405.377	415.98
405.755	426.6
406.133	432.02
406.511	427.95
406.889	421.4
407.267	417.33
407.645	422.31
408.023	453.94
408.401	439.71
408.779	439.71
409.156	456.2
409.534	455.3
409.912	458.01
410.29	443.55
410.667	481.96
411.045	469.31
411.422	478.57
411.8	494.17
412.178	459.14
412.555	472.02
412.933	492.81
413.31	485.81
413.687	503.89
414.065	508.63
414.442	487.84
414.819	478.57
415.197	469.54
415.574	479.93
415.951	488.52
416.328	490.55
416.705	507.5
417.082	476.77
417.46	507.27
417.837	523.77
418.214	524.68
418.591	518.12
418.967	519.03
419.344	510.44
419.721	541.85
420.098	525.81
420.475	518.8
420.852	535.52
421.228	532.58
421.605	548.4
421.982	543.21
422.358	526.26
422.735	545.92
423.111	540.72
423.488	552.7
423.864	568.52
424.241	563.32
424.617	562.64
424.994	580.95
425.37	547.5
425.746	566.03
426.123	571.91
426.499	561.96
426.875	577.33
427.251	594.28
427.627	596.09
428.003	605.13
428.379	607.61
428.756	576.65
429.132	591.79
429.507	635.63
429.883	660.72
430.259	622.07
430.635	636.08
431.011	618.68
431.387	657.1
431.763	649.87
432.138	645.58
432.514	651.9
432.89	657.78
433.265	681.51
433.641	674.95
434.016	665.69
434.392	674.05
434.767	674.5
435.143	689.87
435.518	695.97
435.894	713.6
436.269	693.26
436.644	728.96
437.02	728.74
437.395	714.95
437.77	719.25
438.145	712.92
438.52	747.27
438.895	754.95
439.271	752.69
439.646	774.16
440.021	773.26
440.395	769.64
440.77	795.85
441.145	763.77
441.52	789.08
441.895	792.47
442.27	771.45
442.645	798.11
443.019	811.9
443.394	803.99
443.769	802.18
444.143	795.4
444.518	837.44
444.892	820.49
445.267	798.57
445.641	811.45
446.016	828.4
446.39	816.42
446.764	842.86
447.139	836.31
447.513	823.65
447.887	840.15
448.262	832.01
448.636	872.24
449.01	867.04
449.384	862.52
449.758	874.27
450.132	902.07
450.506	883.76
450.88	912.69
451.254	877.43
451.628	887.38
452.002	905.46
452.376	889.41
452.75	922.63
453.123	934.61
453.497	911.78
453.871	927.83
454.244	963.99
454.618	971.67
454.992	978
455.365	1006.47
455.739	980.93
456.112	1030.2
456.486	1005.57
456.859	1030.88
457.232	1031.78
457.606	1024.55
457.979	1038.56
458.352	1053.48
458.725	1070.42
459.099	1094.38
459.472	1084.21
459.845	1102.51
460.218	1092.12
460.591	1133.47
460.964	1130.99
461.337	1137.54
461.71	1152
462.083	1161.49
462.456	1152.23
462.829	1182.29
463.201	1201.95
463.574	1190.65
463.947	1239.23
464.32	1243.3
464.692	1262.06
465.065	1256.86
465.438	1271.77
465.81	1292.34
466.183	1298.21
466.555	1321.26
466.928	1335.05
467.3	1336.41
467.672	1371.88
468.045	1399
468.417	1401.71
468.789	1414.37
469.161	1433.8
469.534	1455.72
469.906	1455.5
470.278	1475.16
470.65	1500.02
471.022	1554.93
471.394	1546.12
471.766	1547.7
472.138	1569.39
472.51	1626.57
472.882	1665.21
473.253	1660.69
473.625	1671.99
473.997	1750.18
474.369	1737.3
474.74	1750.86
475.112	1785.21
475.484	1853.91
475.855	1878.54
476.227	1866.56
476.598	1910.4
476.97	1935.49
477.341	1988.82
477.713	2037.4
478.084	2058.42
478.455	2104.29
478.827	2126.67
479.198	2171.41
479.569	2198.98
479.94	2267.45
480.311	2287.12
480.682	2340.9
481.053	2393.33
481.424	2431.74
481.795	2446.43
482.166	2531.18
482.537	2536.83
482.908	2615.92
483.279	2625.41
483.65	2697.95
484.021	2761.9
484.391	2750.83
484.762	2832.19
485.133	2846.65
485.503	2859.98
485.874	2953.31
486.244	2970.94
486.615	3074.21
486.985	3082.8
487.356	3183.36
487.726	3201.22
488.097	3255.9
488.467	3299.97
488.837	3388.1
489.207	3447.99
489.578	3456.8
489.948	3514.88
490.318	3560.3
490.688	3595.33
491.058	3706.74
491.428	3751.71
491.798	3806.85
492.168	3870.35
492.538	3895.89
492.908	3908.32
493.278	4015.21
493.648	4027.86
494.017	4058.82
494.387	4091.81
494.757	4177.69
495.126	4233.5
495.496	4272.6
495.866	4263.56
496.235	4284.35
496.605	4386.04
496.974	4380.39
497.344	4423.56
497.713	4498.58
498.082	4529.54
498.452	4560.28
498.821	4619.03
499.19	4595.98
499.559	4641.63
499.928	4727.73
500.298	4786.94
500.667	4766.15
501.036	4720.72
501.405	4824.68
501.774	4831.68
502.143	4885.46
502.512	4898.35
502.88	4937.21
503.249	4944.45
503.618	4962.3
503.987	5040.49
504.356	5105.8
504.724	5108.74
505.093	5090.43
505.462	5116.87
505.83	5185.57
506.199	5232.12
506.567	5301.95
506.936	5282.06
507.304	5313.93
507.672	5375.85
508.041	5399.58
508.409	5386.02
508.777	5448.84
509.145	5428.5
509.514	5517.54
509.882	5500.59
510.25	5517.09
510.618	5554.37
510.986	5572.68
511.354	5583.98
511.722	5726.35
512.09	5718.21
512.458	5652.45
512.826	5715.27
513.193	5777.87
513.561	5780.58
513.929	5854.93
514.297	5856.96
514.664	5880.92
515.032	5885.89
515.4	5933.57
515.767	5940.13
516.135	5959.33
516.502	5973.12
516.869	6050.86
517.237	6060.12
517.604	6004.53
517.972	6118.2
518.339	6159.56
518.706	6122.27
519.073	6124.08
519.44	6164.08
519.808	6244.75
520.175	6245.88
520.542	6334.24
520.909	6305.77
521.276	6314.13
521.643	6350.51
522.009	6377.4
522.376	6470.51
522.743	6497.17
523.11	6536.27
523.477	6598.64
523.843	6619.2
524.21	6677.73
524.577	6753.21
524.943	6746.21
525.31	6763.83
525.676	6756.83
526.043	6832.53
526.409	6859.65
526.776	6962.02
527.142	6939.2
527.508	6995.24
527.874	7043.6
528.241	7070.49
528.607	7054.67
528.973	7166.53
529.339	7149.81
529.705	7178.29
530.071	7290.6
530.437	7263.26
530.803	7251.28
531.169	7375.57
531.535	7373.31
531.901	7408.34
532.267	7372.63
532.632	7492.85
532.998	7498.28
533.364	7524.27
533.73	7523.59
534.095	7566.52
534.461	7622.57
534.826	7679.06
535.192	7696.69
535.557	7802.9
535.923	7813.07
536.288	7815.33
536.653	7817.59
537.019	7827.76
537.384	7879.51
537.749	7963.12
538.114	7949.56
538.479	7988.66
538.845	7975.78
539.21	7990.92
539.575	8016
539.94	8067.98
540.305	8170.58
540.67	8137.13
541.034	8197.47
541.399	8236.56
541.764	8269.33
542.129	8301.42
542.494	8246.51
542.858	8325.37
543.223	8286.51
543.587	8433.85
543.952	8444.47
544.316	8453.96
544.681	8502.77
545.045	8570.11
545.41	8528.31
545.774	8613.73
546.138	8651.47
546.503	8709.77
546.867	8726.27
547.231	8811.46
547.595	8720.17
547.959	8722.2
548.324	8792.93
548.688	8873.16
549.052	8904.12
549.416	8929.2
549.779	8906.83
550.143	8929.2
550.507	9009.65
550.871	9025.02
551.235	9078.35
551.599	9146.37
551.962	9074.06
552.326	9163.09
552.689	9178.46
553.053	9135.75
553.417	9196.99
553.78	9261.62
554.143	9258.68
554.507	9300.94
554.87	9305.69
555.234	9490.54
555.597	9461.16
555.96	9406.02
556.323	9456.19
556.686	9490.32
557.05	9627.71
557.413	9581.61
557.776	9588.39
558.139	9664.32
558.502	9674.94
558.865	9713.59
559.228	9750.87
559.59	9677.88
559.953	9742.96
560.316	9888.95
560.679	9844.88
561.041	9957.2
561.404	9881.04
561.767	10017.08
562.129	10031.09
562.492	10097.08
562.854	10142.05
563.217	10103.41
563.579	10126.68
563.941	10207.36
564.304	10175.72
564.666	10280.8
565.028	10255.49
565.39	10339.56
565.753	10330.29
566.115	10468.59
566.477	10496.39
566.839	10463.17
567.201	10588.14
567.563	10556.05
567.925	10626.78
568.287	10695.26
568.648	10677.63
569.01	10762.82
569.372	10861.13
569.734	10835.14
570.095	10849.38
570.457	10888.02
570.819	10952.88
571.18	10868.13
571.542	11068.13
571.903	11046.88
572.265	11147.45
572.626	11141.12
572.987	11179.76
573.349	11236.71
573.71	11369.14
574.071	11487.55
574.432	11430.38
574.794	11548.79
575.155	11584.27
575.516	11516.7
575.877	11716.47
576.238	11739.97
576.599	11862
576.96	11895.9
577.32	12014.32
577.681	12033.98
578.042	12230.13
578.403	12290.24
578.763	12325.95
579.124	12433.51
579.485	12559.61
579.845	12746.5
580.206	12806.61
580.566	12795.54
580.927	13043.44
581.287	13172.93
581.648	13260.16
582.008	13494.05
582.368	13624.9
582.728	13748.73
583.089	13741.73
583.449	13991.21
583.809	14244.77
584.169	14459.22
584.529	14569.73
584.889	14855.37
585.249	14859.89
585.609	15042.71
585.969	15391.18
586.329	15547.11
586.688	15713.2
587.048	15890.83
587.408	16119.52
587.768	16356.58
588.127	16556.34
588.487	16891.93
588.846	17192.03
589.206	17278.59
589.565	17560.84
589.925	17964.44
590.284	18082.41
590.643	18365.34
591.003	18706.12
591.362	18949.05
591.721	19331.86
592.08	19451.18
592.44	19846.88
592.799	20109.92
593.158	20387.2
593.517	20549.01
593.876	21011.82
594.235	21275.77
594.593	21565.03
594.952	21921.18
595.311	22057.67
595.67	22434.16
596.029	22813.81
596.387	23163.4
596.746	23481.36
597.104	23633.45
597.463	23947.56
597.822	24389.58
598.18	24594.55
598.538	24902.11
598.897	25247.87
599.255	25271.6
599.613	26033.61
599.972	26178.69
600.33	26524.44
600.688	26564.67
601.046	27006.92
601.404	27336.63
601.762	27646.67
602.12	27997.63
602.478	28303.61
602.836	28565.29
603.194	28736.14
603.552	29038.95
603.91	29098.16
604.268	29567.08
604.625	29691.14
604.983	30066.05
605.341	30223.56
605.698	30672.58
606.056	30881.84
606.413	31069.18
606.771	31349.4
607.128	31654.48
607.485	31760.92
607.843	31987.8
608.2	32405.19
608.557	32787.56
608.914	32753.88
609.272	33208.34
609.629	33408.56
609.986	33709.57
610.343	33637.48
610.7	34085.83
611.057	34068.88
611.414	34364.01
611.771	34650.56
612.127	34967.16
612.484	35025.69
612.841	35319.24
613.198	35371.67
613.554	35504.55
613.911	35937.3
614.267	36076.51
614.624	36109.73
614.98	36418.42
615.337	36705.87
615.693	36605.99
616.05	36856.15
616.406	37356.7
616.762	37230.83
617.118	37351.96
617.475	37442.8
617.831	37820.42
618.187	37886.86
618.543	38054.08
618.899	38360.74
619.255	38289.11
619.611	38551.25
619.967	38697.68
620.323	38803.22
620.678	38762.31
621.034	38865.14
621.39	38853.61
621.746	39014.51
622.101	39558.68
622.457	39346.03
622.812	39542.41
623.168	39848.84
623.523	39770.88
623.879	40033.69
624.234	39675.96
624.589	40104.2
624.945	40129.28
625.3	40176.97
625.655	40142.62
626.01	40403.4
626.365	40463.96
626.72	40402.95
627.075	40417.64
627.43	40550.06
627.785	40482.95
628.14	40602.27
628.495	40749.83
628.85	40729.72
629.205	40727.91
629.559	41048.58
629.914	40854.91
630.269	40959.32
630.623	40922.48
630.978	40898.53
631.332	41149.82
631.687	41264.17
632.041	41087.68
632.396	41167.22
632.75	41176.71
633.104	41316.37
633.459	41058.52
633.813	41090.84
634.167	41051.29
634.521	41155.7
634.875	41140.1
635.229	41175.81
635.583	41080.22
635.937	41154.12
636.291	41087.45
636.645	41199.54
636.999	41093.78
637.352	41263.72
637.706	40987.57
638.06	41145.75
638.413	41028.24
638.767	41193.89
639.121	41090.39
639.474	40943.27
639.828	41100.33
640.181	41075.02
640.534	41099.88
640.888	40987.57
641.241	40957.06
641.594	41011.07
641.947	41154.57
642.301	41019.2
642.654	41010.62
643.007	41084.06
643.36	40999.32
643.713	40974.91
644.066	41137.84
644.419	40791.41
644.771	40572.44
645.124	40408.6
645.477	40172.22
645.83	39996.41
646.182	39864.88
646.535	39726.81
646.888	39844.32
647.24	39684.1
647.593	39946.69
647.945	39846.35
648.298	39742.63
648.65	39644.1
649.002	39482.07
649.355	39649.52
649.707	39688.84
650.059	40011.55
650.411	40377.41
650.763	40470.07
651.115	40776.05
651.467	40627.8
651.819	40553.23
652.171	40498.09
652.523	40527.24
652.875	40433.68
653.227	40357.98
653.578	40652.89
653.93	40461.93
654.282	40219.45
654.633	40277.3
654.985	40345.78
655.337	40309.84
655.688	40380.35
656.039	40551.19
656.391	40078.89
656.742	40179.9
657.094	40239.11
657.445	40495.38
657.796	40305.78
658.147	40177.87
658.498	40278.66
658.849	40384.87
659.2	40301.48
659.551	40110.75
659.902	40335.83
660.253	40148.49
660.604	40316.17
660.955	40067.36
661.306	40264.87
661.656	40119.57
662.007	40234.37
662.358	40202.5
662.708	40256.74
663.059	40183.97
663.409	40031.66
663.76	40213.12
664.11	40078.21
664.461	40134.93
664.811	40194.14
665.161	40175.16
665.511	40143.52
665.862	40133.13
666.212	40093.35
666.562	40231.43
666.912	40088.38
667.262	40114.14
667.612	40099.23
667.962	40148.49
668.312	39995.28
668.662	40230.07
669.011	40249.28
669.361	40004.54
669.711	40044.99
670.06	39978.78
670.41	39941.04
670.76	39913.92
671.109	40032.56
671.459	39996.18
671.808	39873.02
672.157	39986.69
672.507	39627.15
672.856	39713.7
673.205	39904.66
673.554	39955.73
673.904	39710.76
674.253	40095.61
674.602	39859.46
674.951	39419.7
675.3	39199.36
675.649	39765
675.998	39675.06
676.346	39648.17
676.695	39904.21
677.044	39556.42
677.393	39638.22
677.741	39756.64
678.09	39478.23
678.438	39538.11
678.787	39456.76
679.135	39566.59
679.484	39298.8
679.832	39507.15
680.181	39382.86
680.529	39449.3
680.877	39182.64
681.225	39215.86
681.573	39555.06
681.922	39155.98
682.27	39038.24
682.618	39038.24
682.966	38947.39
683.314	39013.38
683.661	38819.04
684.009	38744.46
684.357	38773.84
684.705	38663.33
685.053	38679.83
685.4	38586.95
685.748	38410.91
686.095	38525.03
686.443	38217.24
686.79	38285.04
687.138	38370.91
687.485	38354.64
687.832	38046.85
688.18	38116.68
688.527	38029.45
688.874	37932.51
689.221	38032.16
689.568	37930.92
689.915	37775.9
690.262	37667.65
690.609	37675.34
690.956	37552.18
691.303	37586.53
691.65	37379.98
691.997	37277.38
692.344	37123.94
692.69	37014.34
693.037	37066.09
693.383	36830.16
693.73	36954.9
694.077	36820.9
694.423	36723.05
694.769	36583.61
695.116	36534.8
695.462	36447.12
695.808	36386.33
696.155	36496.61
696.501	36109.95
696.847	36173.23
697.193	35821.15
697.539	36093.46
697.885	35822.73
698.231	35640.14
698.577	35572.57
698.923	35537.99
699.269	35489.63
699.614	35266.13
699.96	35295.29
700.306	35335.74
700.651	35071.11
700.997	35079.47
701.342	34935.97
701.688	34845.58
702.033	34815.07
702.379	34728.52
702.724	34595.42
703.069	34731.23
703.415	34398.59
703.76	34420.73
704.105	34364.92
704.45	34357.46
704.795	34056
705.14	34041.99
705.485	33902.33
705.83	33871.6
706.175	33880.63
706.52	33798.15
706.865	33641.77
707.209	33514.77
707.554	33587.99
707.899	33751.82
708.243	33399.74
708.588	33424.6
708.932	33145.74
709.277	33197.49
709.621	33224.61
709.966	32995.01
710.31	32961.34
710.654	32777.39
710.998	32835.46
711.342	32786.43
711.687	32757.05
712.031	32606.77
712.375	32499.2
712.719	32583.49
713.063	32499.65
713.407	32590.05
713.75	32299.89
714.094	32295.14
714.438	32254.01
714.782	32174.92
715.125	32089.72
715.469	32069.16
715.812	31948.48
716.156	31673.23
716.499	31763.85
716.843	31843.63
717.186	31585.1
717.53	31872.55
717.873	31740.13
718.216	31743.74
718.559	31578.1
718.902	31299.69
719.246	31363.41
719.589	31358.44
719.932	31109.18
720.275	31191.21
720.617	31015.85
720.96	31114.83
721.303	31118.22
721.646	31040.03
721.989	30885.01
722.331	31011.11
722.674	30837.55
723.016	30871.67
723.359	30939.47
723.701	30908.06
724.044	30551.46
724.386	30581.06
724.729	30626.71
725.071	30478.69
725.413	30508.75
725.755	30501.51
726.097	30425.81
726.439	30191.24
726.782	30273.05
727.124	30378.58
727.465	30139.26
727.807	30305.36
728.149	30008.87
728.491	30031.24
728.833	30001.87
729.175	29943.56
729.516	29835.09
729.858	29961.42
730.199	29818.59
730.541	29815.66
730.882	29694.98
731.224	29756.22
731.565	29668.32
731.906	29611.14
732.248	29626.28
732.589	29369.79
732.93	29492.73
733.271	29327.31
733.612	29362.11
733.953	29533.63
734.294	29322.56
734.635	29356.01
734.976	29396.91
735.317	29141.78
735.658	29198.5
735.999	29239.63
736.339	29095.68
736.68	29252.51
737.021	29062
737.361	28960.99
737.702	29003.47
738.042	28993.76
738.383	28883.7
738.723	28934.1
739.063	28798.06
739.404	28874.66
739.744	28768
740.084	28663.6
740.424	28757.38
740.764	28597.61
741.104	28794.89
741.444	28501.34
741.784	28466.09
742.124	28576.37
742.464	28518.97
742.804	28442.36
743.143	28377.95
743.483	28368.24
743.823	28181.12
744.162	28165.08
744.502	28249.37
744.841	28123.27
745.181	28323.04
745.52	28113.78
745.86	28138.64
746.199	28004.63
746.538	27917.18
746.877	28083.95
747.216	28130.28
747.556	27926.89
747.895	27918.31
748.234	27797.4
748.573	27812.55
748.911	27856.39
749.25	27834.92
749.589	27570.74
749.928	27758.99
750.267	27754.69
750.605	27615.26
750.944	27560.8
751.283	27406.91
751.621	27493.68
751.96	27379.79
752.298	27424.53
752.636	27445.55
752.975	27253.24
753.313	27187.25
753.651	27342.5
753.989	27158.78
754.327	27229.28
754.666	27027.26
755.004	27072.68
755.342	27084.43
755.679	26911.33
756.017	26783.65
756.355	26804.89
756.693	26721.73
757.031	26751.1
757.368	26678.11
757.706	26529.87
758.044	26611.67
758.381	26561.5
758.719	26449.87
759.056	26554.05
759.394	26420.49
759.731	26203.77
760.068	26251.91
760.405	26030.67
760.743	26024.8
761.08	25999.49
761.417	25908.19
761.754	25828.64
762.091	25747.97
762.428	25663
762.765	25591.14
763.102	25615.54
763.438	25509.78
763.775	25404.93
764.112	25416.68
764.449	25428.65
764.785	25314.53
765.122	25135.55
765.458	25082.22
765.795	24980.76
766.131	25048.55
766.467	24836.35
766.804	24932.85
767.14	24773.98
767.476	24634.78
767.812	24505.51
768.148	24631.84
768.485	24421.45
768.821	24351.62
769.157	24253.09
769.492	24215.35
769.828	24159.31
770.164	23991.63
770.5	23946.21
770.836	23909.15
771.171	23655.14
771.507	23732.43
771.842	23518.42
772.178	23530.4
772.513	23548.93
772.849	23426.67
773.184	23239.56
773.519	23288.37
773.855	23197.75
774.19	23068.04
774.525	23031.2
774.86	22987.59
775.195	22898.32
775.53	22858.55
775.865	22591.21
776.2	22550.76
776.535	22407.72
776.87	22413.59
777.205	22198.68
777.539	22212.24
777.874	22299.47
778.209	22078.91
778.543	22059.48
778.878	21788.07
779.212	21907.62
779.547	21717.11
779.881	21908.29
780.215	21677.34
780.55	21675.76
780.884	21519.83
781.218	21450.23
781.552	21342.21
781.886	21307.18
782.22	21214.53
782.554	21170.01
782.888	20931.14
783.222	20940.64
783.556	20848.43
783.889	20685.5
784.223	20527.09
784.557	20659.97
784.89	20685.95
785.224	20576.13
785.557	20398.28
785.891	20328.22
786.224	20293.65
786.558	20237.83
786.891	20078.51
787.224	20001.9
787.557	19944.28
787.891	19995.35
788.224	19932.07
788.557	19916.26
788.89	19815.24
789.223	19760.78
789.556	19650.05
789.888	19468.58
790.221	19394.46
790.554	19328.47
790.887	19351.75
791.219	19297.52
791.552	19164.41
791.884	19115.15
792.217	19052.32
792.549	18974.81
792.882	18892.33
793.214	18897.53
793.546	18835.83
793.879	18665.89
794.211	18679.23
794.543	18699.56
794.875	18604.65
795.207	18624.76
795.539	18487.14
795.871	18497.31
796.203	18251.67
796.535	18340.03
796.867	18227.49
797.198	18118.11
797.53	18105.23
797.862	17952.47
798.193	18059.58
798.525	17926.7
798.856	17996.08
799.188	17842.64
799.519	17737.78
799.85	17634.28
800.182	17683.77
800.513	17646.49
800.844	17502.76
801.175	17613.72
801.506	17492.59
801.837	17296.66
802.168	17316.1
802.499	17318.36
802.83	17259.83
803.161	17082.88
803.491	16992.49
803.822	17136.22
804.153	16968.31
804.483	16939.16
804.814	16872.27
805.145	16845.6
805.475	16816.68
805.805	16726.06
806.136	16714.53
806.466	16629.34
806.796	16669.56
807.126	16521.09
807.457	16497.59
807.787	16452.17
808.117	16383.92
808.447	16374.88
808.777	16351.6
809.107	16270.48
809.436	16225.96
809.766	16291.04
810.096	16169.91
810.426	16091.05
810.755	16043.59
811.085	16006.75
811.414	15925.85
811.744	15891.28
812.073	15875.46
812.403	15865.29
812.732	15734.45
813.061	15773.54
813.39	15691.96
813.719	15611.28
814.049	15709.13
814.378	15548.24
814.707	15584.62
815.036	15500.33
815.365	15431.85
815.693	15296.72
816.022	15412.42
816.351	15327.22
816.68	15247.45
817.008	15230.96
817.337	15174.23
817.665	15140.79
817.994	15169.71
818.322	15227.79
818.651	15058.98
818.979	14962.04
819.307	15072.99
819.636	14975.59
819.964	14943.96
820.292	14984.41
820.62	14945.99
820.948	14850.63
821.276	14871.42
821.604	14847.24
821.932	14865.77
822.259	14872.09
822.587	14862.83
822.915	14789.84
823.243	14901.25
823.57	14893.56
823.898	14867.58
824.225	14765.66
824.553	14808.59
824.88	14791.64
825.207	14777.86
825.535	14755.26
825.862	14800.68
826.189	14734.47
826.516	14786.9
826.843	14911.19
827.17	14914.13
827.497	14870.74
827.824	14847.46
828.151	14823.06
828.478	14836.84
828.805	14878.65
829.131	14800.91
829.458	14730.86
829.785	14710.07
830.111	14714.36
830.438	14763.85
830.764	14761.82
831.09	14815.6
831.417	14676.85
831.743	14798.88
832.069	14677.3
832.395	14630.75
832.722	14694.47
833.048	14620.8
833.374	14750.52
833.7	14542.16
834.026	14606.11
834.351	14630.07
834.677	14598.43
835.003	14535.38
835.329	14576.74
835.654	14598.66
835.98	14481.6
836.306	14502.84
836.631	14410.41
836.956	14490.18
837.282	14513.01
837.607	14489.28
837.932	14455.16
838.258	14412.45
838.583	14363.86
838.908	14306.23
839.233	14317.08
839.558	14259.68
839.883	14242.51
840.208	14224.43
840.533	14279.57
840.858	14196.41
841.182	14171.77
841.507	14212
841.832	14011.33
842.156	14094.04
842.481	14118.67
842.805	14028.95
843.13	13960.48
843.454	14016.3
843.778	13906.47
844.103	13884.1
844.427	13795.29
844.751	13721.16
845.075	13819.69
845.399	13708.96
845.723	13713.48
846.047	13730.2
846.371	13539.25
846.695	13624.9
847.019	13445.69
847.343	13383.77
847.666	13273.94
847.99	13325.47
848.313	13281.4
848.637	13143.1
848.96	13206.38
849.284	13099.03
849.607	12970.45
849.931	12988.3
850.254	12974.52
850.577	12894.07
850.9	12712.15
851.223	12733.85
851.546	12677.35
851.869	12605.94
852.192	12692.94
852.515	12528.2
852.838	12523.23
853.161	12530.46
853.483	12453.85
853.806	12400.3
854.129	12324.14
854.451	12348.77
854.774	12230.58
855.096	12261.54
855.419	12228.77
855.741	12183.13
856.063	12123.92
856.385	12099.96
856.708	12115.56
857.03	12047.54
857.352	12056.12
857.674	11910.82
857.996	11916.24
858.318	11829.24
858.64	11855.45
858.961	11871.5
859.283	11638.96
859.605	11747.21
859.926	11739.97
860.248	11684.61
860.57	11665.63
860.891	11646.87
861.212	11530.04
861.534	11558.96
861.855	11554.89
862.176	11545.85
862.498	11549.47
862.819	11474.67
863.14	11373.2
863.461	11390.6
863.782	11328.46
864.103	11403.26
864.424	11402.36
864.745	11405.07
865.065	11261.12
865.386	11231.06
865.707	11180.21
866.027	11174.56
866.348	11118.52
866.668	11132.76
866.989	11102.7
867.309	11096.83
867.63	11162.14
867.95	11097.73
868.27	11000.11
868.59	11043.49
868.91	10976.38
869.23	11048.01
869.55	10860.9
869.87	11033.33
870.19	11006.43
870.51	10975.47
870.83	10977.28
871.15	10906.78
871.469	10977.51
871.789	10947
872.109	10858.42
872.428	10846.89
872.748	10920.79
873.067	10833.1
873.386	10862.26
873.706	10828.81
874.025	10739.32
874.344	10748.81
874.663	10792.65
874.982	10689.61
875.301	10743.84
875.62	10725.09
875.939	10648.25
876.258	10657.97
876.577	10617.29
876.896	10623.17
877.214	10605.54
877.533	10514.47
877.852	10540.01
878.17	10537.52
878.489	10552.89
878.807	10483.06
879.125	10491.19
879.444	10464.08
879.762	10417.07
880.08	10412.55
880.398	10401.7
880.716	10388.82
881.034	10342.27
881.352	10320.35
881.67	10284.64
881.988	10308.15
882.306	10283.29
882.624	10268.15
882.941	10194.03
883.259	10195.16
883.577	10140.69
883.894	10199
884.212	10142.28
884.529	10072
884.846	10075.84
885.164	10049.4
885.481	10105.67
885.798	10063.63
886.115	10031.77
886.432	9942.28
886.75	9966.01
887.067	9945.22
887.383	9979.57
887.7	9879.91
888.017	9787.26
888.334	9853.02
888.651	9787.26
888.967	9870.87
889.284	9782.06
889.6	9728.05
889.917	9698.22
890.233	9745.45
890.55	9667.26
890.866	9675.85
891.182	9614.83
891.498	9624.78
891.815	9526.47
892.131	9514.72
892.447	9440.6
892.763	9469.3
893.079	9386.59
893.395	9382.3
893.71	9381.62
894.026	9340.26
894.342	9327.61
894.657	9212.81
894.973	9187.5
895.289	9267.27
895.604	9237.44
895.92	9128.97
896.235	9111.34
896.55	9109.08
896.865	9118.12
897.181	9067.95
897.496	9031.12
897.811	9081.74
898.126	9005.58
898.441	8912.93
898.756	8898.24
899.071	8823.21
899.386	8864.34
899.7	8779.37
900.015	8810.11
900.33	8728.98
900.644	8648.08
900.959	8697.12
901.273	8674.29
901.588	8574.18
901.902	8587.51
902.216	8604.46
902.531	8506.84
902.845	8502.77
903.159	8474.52
903.473	8440.63
903.787	8384.58
904.101	8337.13
904.415	8383.45
904.729	8354.98
905.042	8230.01
905.356	8277.24
905.67	8156.34
905.984	8185.94
906.297	8122.67
906.611	8089
906.924	8091.26
907.237	8078.38
907.551	8051.26
907.864	7979.17
908.177	8062.78
908.491	7974.88
908.804	7926.97
909.117	7879.51
909.43	7891.49
909.743	7789.57
910.056	7750.25
910.368	7735.33
910.681	7678.39
910.994	7657.37
911.307	7668.89
911.619	7567.2
911.932	7599.97
912.244	7540.76
912.557	7516.13
912.869	7521.55
913.181	7545.73
913.494	7483.81
913.806	7374.66
914.118	7391.61
914.43	7328.56
914.742	7299.86
915.054	7283.37
915.366	7213.09
915.678	7249.47
915.99	7206.08
916.302	7135.12
916.613	7118.17
916.925	7104.62
917.236	7068.68
917.548	7043.15
917.859	7093.99
918.171	7005.18
918.482	6942.36
918.794	6900.33
919.105	6899.2
919.416	6866.43
919.727	6869.82
920.038	6882.7
920.349	6775.81
920.66	6774.23
920.971	6699.2
921.282	6718.41
921.593	6607.68
921.903	6597.74
922.214	6601.35
922.525	6607.23
922.835	6512.99
923.146	6499.21
923.456	6530.85
923.767	6463.5
924.077	6421.24
924.387	6440.23
924.697	6371.75
925.008	6378.98
925.318	6337.63
925.628	6331.98
925.938	6320.23
926.248	6184.41
926.558	6280
926.867	6188.71
927.177	6156.62
927.487	6173.79
927.796	6126.11
928.106	6118.88
928.416	6047.69
928.725	6036.85
929.034	6001.37
929.344	6010.41
929.653	6009.28
929.962	5928.15
930.271	5883.4
930.581	5881.37
930.89	5906.68
931.199	5846.57
931.508	5795.27
931.817	5794.14
932.125	5732
932.434	5771.77
932.743	5716.18
933.051	5645.22
933.36	5615.84
933.669	5643.86
933.977	5576.29
934.286	5566.12
934.594	5567.71
934.902	5539.23
935.21	5527.26
935.519	5470.53
935.827	5468.5
936.135	5458.33
936.443	5425.11
936.751	5361.38
937.059	5365.45
937.367	5384.43
937.674	5365.23
937.982	5305.11
938.29	5309.18
938.597	5296.3
938.905	5261.27
939.213	5226.25
939.52	5163.65
939.827	5190.09
940.135	5205
940.442	5121.84
940.749	5108.96
941.056	5102.86
941.363	5060.6
941.67	5063.54
941.977	5004.78
942.284	5001.17
942.591	5019.02
942.898	5003.65
943.205	4957.1
943.511	4919.36
943.818	4953.94
944.125	4875.97
944.431	4845.92
944.738	4841.85
945.044	4821.96
945.35	4815.18
945.657	4801.4
945.963	4740.61
946.269	4798.01
946.575	4728.41
946.881	4633.27
947.187	4720.72
947.493	4614.51
947.799	4641.86
948.105	4623.1
948.41	4593.72
948.716	4574.96
949.022	4522.76
949.327	4543.1
949.633	4516.43
949.938	4487.06
950.244	4477.11
950.549	4442.99
950.854	4445.48
951.16	4402.54
951.465	4417.68
951.77	4361.41
952.075	4335.42
952.38	4334.74
952.685	4369.77
952.99	4294.29
953.294	4280.06
953.599	4249.32
953.904	4265.37
954.209	4224.69
954.513	4193.51
954.818	4191.25
955.122	4189.44
955.426	4137.46
955.731	4148.31
956.035	4083.68
956.339	4078.48
956.643	4076.45
956.948	4046.62
957.252	4018.82
957.556	4035.77
957.86	4025.37
958.163	3986.96
958.467	4001.87
958.771	3956.9
959.075	3977.24
959.378	3920.74
959.682	3934.98
959.985	3880.75
960.289	3890.46
960.592	3873.06
960.896	3837.58
961.199	3822.67
961.502	3831.93
961.805	3811.14
962.108	3772.27
962.411	3742.9
962.714	3744.25
963.017	3705.16
963.32	3732.5
963.623	3705.83
963.926	3683.69
964.228	3699.96
964.531	3646.63
964.833	3636.01
965.136	3605.95
965.438	3531.15
965.741	3568.66
966.043	3581.77
966.345	3565.05
966.648	3551.49
966.95	3507.42
967.252	3497.93
967.554	3486.41
967.856	3492.96
968.158	3482.56
968.46	3467.87
968.761	3437.14
969.063	3420.19
969.365	3379.06
969.666	3447.54
969.968	3365.5
970.269	3361.44
970.571	3352.62
970.872	3353.75
971.174	3315.34
971.475	3297.94
971.776	3295.45
972.077	3280.31
972.378	3236.69
972.679	3258.61
972.98	3258.39
973.281	3226.3
973.582	3218.84
973.883	3216.58
974.183	3183.36
974.484	3176.13
974.785	3149.92
975.085	3182.91
975.386	3151.95
975.686	3097.04
975.986	3085.96
976.287	3123.7
976.587	3074.89
976.887	3049.13
977.187	3037.83
977.487	3038.28
977.787	3005.29
978.087	2993.09
978.387	2979.98
978.687	2968
978.987	2948.57
979.286	2935.46
979.586	2977.94
979.885	2953.31
980.185	2904.05
980.484	2906.08
980.784	2900.43
981.083	2883.48
981.382	2846.42
981.682	2853.43
981.981	2835.58
982.28	2781.57
982.579	2803.03
982.878	2834.67
983.177	2785.18
983.475	2761.9
983.774	2738.18
984.073	2764.84
984.372	2739.08
984.67	2690.27
984.969	2744.5
985.267	2713.54
985.566	2708.57
985.864	2669.25
986.162	2637.84
986.461	2634.45
986.759	2665.18
987.057	2603.94
987.355	2629.7
987.653	2619.99
987.951	2594.9
988.249	2573.21
988.547	2593.1
988.844	2548.58
989.142	2558.52
989.44	2533.44
989.737	2537.05
990.035	2514
990.332	2486.66
990.63	2499.99
990.927	2498.41
991.224	2477.84
991.521	2452.99
991.819	2476.71
992.116	2455.92
992.413	2418.41
992.71	2416.6
993.006	2405.98
993.303	2405.53
993.6	2394.68
993.897	2365.08
994.193	2330.05
994.49	2368.02
994.787	2340.45
995.083	2311.3
995.379	2304.97
995.676	2317.17
995.972	2319.66
996.268	2285.99
996.565	2259.32
996.861	2271.52
997.157	2245.99
997.453	2251.18
997.749	2202.37
998.044	2190.39
998.34	2208.47
998.636	2191.52
998.932	2187
999.227	2163.73
999.523	2159.43
999.818	2136.38
1000.114	2139.1
1000.409	2117.4
1000.704	2085.09
1001	2086.89
1001.295	2082.6
1001.59	2086.22
1001.885	2060
1002.18	2041.47
1002.475	2045.54
1002.77	2027.69
1003.065	2013.68
1003.359	2016.16
1003.654	1998.99
1003.949	2000.12
1004.243	1973.45
1004.538	1966.67
1004.832	1944.75
1005.127	1998.31
1005.421	1931.64
1005.715	1897.07
1006.009	1886.67
1006.304	1893
1006.598	1897.29
1006.892	1896.62
1007.186	1834.92
1007.48	1828.14
1007.773	1888.03
1008.067	1848.93
1008.361	1839.9
1008.655	1784.53
1008.948	1803.96
1009.242	1808.26
1009.535	1788.82
1009.829	1796.28
1010.122	1771.65
1010.415	1749.28
1010.708	1729.62
1011.001	1743.63
1011.295	1753.57
1011.588	1720.35
1011.881	1699.33
1012.173	1703.4
1012.466	1658.88
1012.759	1700.69
1013.052	1666.79
1013.344	1690.52
1013.637	1651.43
1013.93	1642.16
1014.222	1591.54
1014.514	1621.82
1014.807	1620.01
1015.099	1619.11
1015.391	1614.36
1015.683	1579.34
1015.976	1566
1016.268	1572.11
1016.56	1546.8
1016.851	1549.28
1017.143	1560.58
1017.435	1535.04
1017.727	1511.32
1018.018	1530.3
1018.31	1487.59
1018.602	1492.56
1018.893	1476.29
1019.185	1450.98
1019.476	1450.53
1019.767	1456.85
1020.058	1434.26
1020.35	1443.52
1020.641	1396.74
1020.932	1406.91
1021.223	1384.54
1021.514	1410.3
1021.804	1388.38
1022.095	1384.09
1022.386	1387.03
1022.677	1348.16
1022.967	1360.59
1023.258	1328.5
1023.548	1349.06
1023.839	1312.23
1024.129	1315.39
1024.419	1304.09
1024.709	1311.77
1025	1280.81
1025.29	1288.05
1025.58	1278.33
1025.87	1253.47
1026.16	1269.29
1026.449	1243.07
1026.739	1243.3
1027.029	1252.57
1027.319	1232
1027.608	1201.72
1027.898	1185.22
1028.187	1206.92
1028.477	1202.85
1028.766	1189.97
1029.055	1174.83
1029.344	1157.2
1029.634	1168.27
1029.923	1157.2
1030.212	1132.8
1030.501	1170.76
1030.79	1141.61
1031.078	1130.08
1031.367	1133.02
1031.656	1098.22
1031.945	1116.07
1032.233	1070.2
1032.522	1100.03
1032.81	1097.09
1033.099	1067.03
1033.387	1074.04
1033.675	1054.38
1033.963	1060.48
1034.251	1071.78
1034.54	1056.64
1034.828	1064.32
1035.116	1042.63
1035.403	1039.24
1035.691	1023.42
1035.979	1018.9
1036.267	1007.15
1036.554	1013.02
1036.842	996.53
1037.129	987.04
1037.417	980.03
1037.704	973.48
1037.992	970.54
1038.279	968.73
1038.566	936.64
1038.853	936.64
1039.14	936.64
