Data from hue_240_FLMS001491_00068.txt Node
Date: Tue Feb 07 16:35:48 GMT 2017
User: dcchb
Spectrometer: FLMS00149
Trigger mode: 0
Integration Time (sec): 2.000000E-2
Scans to average: 10
Electric dark correction enabled: true
Nonlinearity correction enabled: false
Boxcar width: 0
XAxis mode: Wavelengths
Number of Pixels in Spectrum: 2048
>>>>>Begin Spectral Data<<<<<
341.393	-9.76
341.776	-9.76
342.16	-9.76
342.543	-71.45
342.927	-78.68
343.31	-62.64
343.693	-84.79
344.077	-63.09
344.46	-77.55
344.843	-67.39
345.226	-54.28
345.61	-45.46
345.993	4.93
346.376	-5.69
346.759	19.39
347.142	30.01
347.525	55.78
347.908	71.14
348.291	71.59
348.674	85.38
349.057	122.67
349.44	109.33
349.823	135.1
350.206	157.69
350.588	171.03
350.971	198.37
351.354	200.4
351.737	225.94
352.119	237.24
352.502	255.32
352.884	289.89
353.267	277.46
353.65	283.79
354.032	290.8
354.414	311.14
354.797	306.39
355.179	325.37
355.562	295.54
355.944	318.82
356.326	342.1
356.709	313.4
357.091	319.5
357.473	351.81
357.855	317.24
358.238	322.44
358.62	342.1
359.002	328.99
359.384	307.97
359.766	333.06
360.148	333.06
360.53	321.53
360.912	318.59
361.294	332.15
361.676	337.35
362.057	320.63
362.439	301.19
362.821	305.94
363.203	326.95
363.584	305.03
363.966	324.92
364.348	324.47
364.729	317.01
365.111	301.42
365.493	327.63
365.874	313.17
366.256	310.91
366.637	291.48
367.019	312.27
367.4	309.33
367.781	293.51
368.163	296.67
368.544	306.62
368.925	321.53
369.306	295.32
369.688	317.92
370.069	311.59
370.45	300.06
370.831	291.02
371.212	318.14
371.593	289.44
371.974	304.13
372.355	303.9
372.736	302.32
373.117	311.36
373.498	299.84
373.879	314.3
374.26	291.93
374.641	303
375.021	305.71
375.402	305.26
375.783	327.18
376.163	321.31
376.544	302.77
376.925	321.53
377.305	328.31
377.686	325.15
378.066	324.69
378.447	309.33
378.827	311.81
379.208	304.58
379.588	317.69
379.968	325.82
380.349	321.53
380.729	329.44
381.109	333.51
381.489	334.64
381.87	333.28
382.25	330.34
382.63	344.58
383.01	336.9
383.39	340.06
383.77	345.26
384.15	345.26
384.53	350.23
384.91	353.85
385.29	342.55
385.67	350.68
386.049	336.22
386.429	331.93
386.809	339.16
387.189	344.81
387.568	354.3
387.948	340.74
388.328	325.15
388.707	353.39
389.087	351.36
389.466	350.91
389.846	379.38
390.225	351.13
390.605	372.15
390.984	350
391.363	369.89
391.743	374.64
392.122	355.65
392.501	368.76
392.881	363.34
393.26	379.38
393.639	368.08
394.018	382.09
394.397	372.6
394.776	354.3
395.155	357.46
395.534	389.78
395.913	388.2
396.292	397.69
396.671	388.65
397.05	392.04
397.429	365.15
397.808	377.57
398.186	391.81
398.565	382.32
398.944	383
399.323	406.5
399.701	383.22
400.08	404.47
400.458	393.17
400.837	419.83
401.215	406.95
401.594	400.4
401.972	383.22
402.351	393.62
402.729	409.21
403.107	412.15
403.486	416.22
403.864	431.36
404.242	430.45
404.62	430.45
404.999	434.3
405.377	429.78
405.755	433.62
406.133	471.36
406.511	448.31
406.889	457.57
407.267	466.16
407.645	455.09
408.023	448.53
408.401	467.74
408.779	457.8
409.156	483.79
409.534	489.89
409.912	487.4
410.29	487.85
410.667	488.98
411.045	491.7
411.422	505.48
411.8	503.67
412.178	499.61
412.555	541.86
412.933	532.82
413.31	537.34
413.687	531.92
414.065	557.46
414.442	544.8
414.819	552.03
415.197	580.51
415.574	574.86
415.951	573.73
416.328	573.28
416.705	567.17
417.082	611.69
417.46	593.16
417.837	604.91
418.214	630
418.591	611.24
418.967	617.12
419.344	639.49
419.721	631.58
420.098	633.61
420.475	669.77
420.852	669.77
421.228	654.86
421.605	656.66
421.982	709.32
422.358	701.41
422.735	705.48
423.111	710.9
423.488	698.92
423.864	727.17
424.241	733.72
424.617	723.78
424.994	725.14
425.37	770.33
425.746	759.03
426.123	794.06
426.499	796.77
426.875	776.66
427.251	795.64
427.627	809.65
428.003	805.59
428.379	837.9
428.756	816.43
429.132	827.05
429.507	862.99
429.883	856.66
430.259	884
430.635	878.8
431.011	871.12
431.387	914.28
431.763	900.72
432.138	926.71
432.514	935.98
432.89	942.98
433.265	951.35
433.641	988.18
434.016	974.17
434.392	1001.06
434.767	1029.54
435.143	1016.65
435.518	1077.44
435.894	1069.76
436.269	1092.13
436.644	1099.59
437.02	1119.7
437.395	1114.96
437.77	1122.19
438.145	1123.32
438.52	1179.36
438.895	1174.39
439.271	1174.84
439.646	1184.79
440.021	1190.43
440.395	1220.94
440.77	1225.91
441.145	1236.54
441.52	1280.83
441.895	1278.57
442.27	1290.55
442.645	1287.83
443.019	1286.7
443.394	1299.13
443.769	1314.5
444.143	1305.91
444.518	1335.74
444.892	1363.76
445.267	1360.37
445.641	1361.73
446.016	1397.66
446.39	1383.2
446.764	1385.23
447.139	1378.9
447.513	1418.9
447.887	1409.86
448.262	1444.44
448.636	1427.04
449.01	1456.87
449.384	1447.38
449.758	1485.57
450.132	1481.05
450.506	1488.73
450.88	1500.03
451.254	1506.13
451.628	1526.92
452.002	1561.27
452.376	1571.89
452.75	1546.81
453.123	1577.54
453.497	1618.9
453.871	1609.86
454.244	1637.2
454.618	1664.09
454.992	1672.46
455.365	1688.05
455.739	1713.13
456.112	1721.95
456.486	1733.02
456.859	1741.15
457.232	1796.75
457.606	1770.31
457.979	1809.18
458.352	1823.19
458.725	1837.2
459.099	1855.95
459.472	1875.16
459.845	1933.01
460.218	1931.66
460.591	1936.18
460.964	1978.44
461.337	1980.7
461.71	2002.84
462.083	2015.72
462.456	2059.34
462.829	2030.86
463.201	2088.04
463.574	2115.16
463.947	2127.36
464.32	2143.18
464.692	2158.54
465.065	2178.66
465.438	2222.27
465.81	2248.03
466.183	2257.53
466.555	2322.16
466.928	2308.37
467.3	2316.73
467.672	2354.47
468.045	2391.99
468.417	2408.03
468.789	2396.96
469.161	2451.87
469.534	2493
469.906	2544.98
470.278	2540
470.65	2563.73
471.022	2608.93
471.394	2656.38
471.766	2679.21
472.138	2671.53
472.51	2738.19
472.882	2799.21
473.253	2812.99
473.625	2807.34
473.997	2883.72
474.369	2901.58
474.74	2913.55
475.112	2991.97
475.484	3008.01
475.855	3019.99
476.227	3084.4
476.598	3126.43
476.97	3163.04
477.341	3218.4
477.713	3279.19
478.084	3281.23
478.455	3398.06
478.827	3416.36
479.198	3502.24
479.569	3500.43
479.94	3572.29
480.311	3574.55
480.682	3693.65
481.053	3769.8
481.424	3776.81
481.795	3821.55
482.166	3893.41
482.537	3939.52
482.908	4015.9
483.279	4015.67
483.65	4070.36
484.021	4144.48
484.391	4220.41
484.762	4238.72
485.133	4242.56
485.503	4252.05
485.874	4424.47
486.244	4401.2
486.615	4436
486.985	4491.59
487.356	4586.28
487.726	4578.37
488.097	4688.42
488.467	4754.41
488.837	4803
489.207	4849.77
489.578	4946.27
489.948	4949.21
490.318	5055.64
490.688	5033.27
491.058	5052.71
491.428	5130.22
491.798	5183.1
492.168	5245.02
492.538	5281.4
492.908	5351.68
493.278	5382.19
493.648	5451.34
494.017	5470.32
494.387	5485.69
494.757	5577.44
495.126	5580.83
495.496	5552.81
495.866	5629.41
496.235	5700.15
496.605	5712.58
496.974	5747.83
497.344	5769.07
497.713	5822.63
498.082	5802.29
498.452	5894.94
498.821	5920.25
499.19	5870.76
499.559	6013.58
499.928	5997.99
500.298	6019.69
500.667	6057.65
501.036	6078.22
501.405	6086.58
501.774	6150.53
502.143	6191.43
502.512	6154.6
502.88	6236.86
503.249	6245.22
503.618	6285.44
503.987	6241.83
504.356	6320.47
504.724	6366.34
505.093	6324.09
505.462	6342.39
505.83	6420.58
506.199	6412.44
506.567	6501.48
506.936	6460.58
507.304	6547.58
507.672	6582.84
508.041	6616.05
508.409	6609.95
508.777	6617.64
509.145	6689.5
509.514	6652.66
509.882	6651.99
510.25	6692.66
510.618	6762.27
510.986	6744.87
511.354	6808.59
511.722	6873.45
512.09	6789.16
512.458	6867.12
512.826	6894.92
513.193	6878.19
513.561	6943.96
513.929	6938.31
514.297	6984.18
514.664	7075.7
515.032	7017.63
515.4	7029.15
515.767	7086.55
516.135	7137.62
516.502	6979.89
516.869	7123.16
517.237	7096.27
517.604	7136.04
517.972	7151.63
518.339	7140.79
518.706	7186.66
519.073	7163.61
519.44	7230.95
519.808	7231.18
520.175	7254.68
520.542	7274.79
520.909	7306.43
521.276	7294
521.643	7335.13
522.009	7329.26
522.376	7374.68
522.743	7429.37
523.11	7479.99
523.477	7476.82
523.843	7537.16
524.21	7576.71
524.577	7549.82
524.943	7594.11
525.31	7595.69
525.676	7612.86
526.043	7689.47
526.409	7686.99
526.776	7685.86
527.142	7724.95
527.508	7741.22
527.874	7699.19
528.241	7809.02
528.607	7780.32
528.973	7865.97
529.339	7777.61
529.705	7898.06
530.071	7884.5
530.437	7860.99
530.803	7912.97
531.169	7908
531.535	7874.78
531.901	7892.63
532.267	7840.43
532.632	7884.5
532.998	7849.02
533.364	7947.09
533.73	7957.71
534.095	8061.44
534.461	7952.97
534.826	8011.5
535.192	7948.68
535.557	7983.25
535.923	8006.53
536.288	7976.02
536.653	8011.5
537.019	7975.12
537.384	7940.09
537.749	7960.88
538.114	7986.41
538.479	7952.29
538.845	8048.33
539.21	7874.33
539.575	7942.8
539.94	7943.48
540.305	7972.18
540.67	7926.98
541.034	7936.02
541.399	7904.61
541.764	7928.11
542.129	7913.2
542.494	7924.5
542.858	7920.88
543.223	7865.51
543.587	7971.95
543.952	7931.27
544.316	7879.98
544.681	7872.29
545.045	7889.47
545.41	7917.94
545.774	7863.48
546.138	7868
546.503	7867.55
546.867	7898.51
547.231	7910.03
547.595	7878.39
547.959	7896.93
548.324	7887.66
548.688	7878.39
549.052	7847.43
549.416	7910.71
549.779	7853.76
550.143	7821.22
550.507	7866.19
550.871	7853.08
551.235	7820.77
551.599	7847.21
551.962	7860.32
552.326	7873.87
552.689	7842.46
553.053	7790.94
553.417	7799.75
553.78	7910.71
554.143	7817.61
554.507	7855.12
554.87	7875.46
555.234	7919.07
555.597	7852.18
555.96	7874.55
556.323	7887.66
556.686	7835.91
557.05	7894.89
557.413	7884.27
557.776	7923.37
558.139	7980.09
558.502	7906.19
558.865	7926.08
559.228	7946.64
559.59	7970.14
559.953	7954.32
560.316	7986.19
560.679	8047.66
561.041	8053.98
561.404	8045.62
561.767	8076.36
562.129	8021.67
562.492	8083.81
562.854	8085.39
563.217	8020.99
563.579	8094.66
563.941	8160.42
564.304	8189.12
564.666	8221.44
565.028	8167.65
565.39	8216.24
565.753	8196.35
566.115	8260.08
566.477	8282.68
566.839	8277.93
567.201	8372.39
567.563	8343.24
567.925	8406.52
568.287	8371.26
568.648	8383.92
569.01	8443.13
569.372	8429.11
569.734	8458.04
570.095	8417.82
570.457	8521.32
570.819	8452.84
571.18	8527.64
571.542	8548.21
571.903	8565.38
572.265	8575.33
572.626	8588.66
572.987	8642.67
573.349	8633.63
573.71	8713.4
574.071	8709.33
574.432	8666.62
574.794	8753.17
575.155	8723.8
575.516	8734.87
575.877	8786.62
576.238	8771.7
576.599	8797.69
576.96	8792.72
577.32	8788.65
577.681	8833.85
578.042	8879.05
578.403	8907.97
578.763	8881.98
579.124	8940.51
579.485	8884.24
579.845	8918.37
580.206	8944.81
580.566	8943.9
580.927	8960.4
581.287	8963.56
581.648	8962.21
582.008	8973.73
582.368	9010.12
582.728	9021.42
583.089	9008.31
583.449	9089.66
583.809	9013.73
584.169	9069.78
584.529	9044.47
584.889	9141.41
585.249	9029.32
585.609	9079.72
585.969	9126.72
586.329	9025.03
586.688	9120.17
587.048	9080.17
587.408	9126.5
587.768	9177.57
588.127	9097.12
588.487	9147.06
588.846	9213.5
589.206	9143.22
589.565	9165.37
589.925	9194.29
590.284	9178.25
590.643	9194.07
591.003	9210.11
591.362	9266.83
591.721	9247.4
592.08	9222.99
592.44	9196.78
592.799	9258.47
593.158	9262.54
593.517	9245.59
593.876	9329.43
594.235	9262.54
594.593	9339.83
594.952	9247.85
595.311	9210.56
595.67	9276.32
596.029	9336.66
596.387	9347.51
596.746	9338.92
597.104	9332.37
597.463	9314.97
597.822	9340.73
598.18	9312.26
598.538	9336.21
598.897	9455.75
599.255	9336.89
599.613	9406.94
599.972	9384.12
600.33	9448.97
600.688	9395.87
601.046	9449.2
601.404	9394.74
601.762	9403.78
602.12	9497.34
602.478	9436.09
602.836	9429.77
603.194	9416.43
603.552	9446.49
603.91	9479.48
604.268	9546.15
604.625	9379.6
604.983	9441.52
605.341	9479.71
605.698	9446.71
606.056	9569.88
606.413	9447.17
606.771	9467.28
607.128	9509.31
607.485	9485.81
607.843	9408.98
608.2	9542.08
608.557	9571.23
608.914	9539.82
609.272	9537.56
609.629	9538.69
609.986	9600.61
610.343	9512.02
610.7	9673.38
611.057	9574.17
611.414	9579.14
611.771	9655.97
612.127	9613.49
612.484	9637.44
612.841	9636.99
613.198	9674.96
613.554	9622.76
613.911	9731.45
614.267	9667.73
614.624	9676.09
614.98	9654.17
615.337	9702.75
615.693	9743.66
616.05	9693.71
616.406	9771.68
616.762	9705.47
617.118	9655.07
617.475	9752.7
617.831	9728.52
618.187	9709.08
618.543	9823.2
618.899	9797.21
619.255	9817.1
619.611	9766.03
619.967	9762.64
620.323	9860.72
620.678	9785.69
621.034	9758.57
621.39	9763.77
621.746	9771.68
622.101	9968.74
622.457	9812.35
622.812	9796.08
623.168	9810.32
623.523	9861.39
623.879	9820.26
624.234	9773.71
624.589	9774.16
624.945	9770.1
625.3	9888.74
625.655	9758.12
626.01	9799.47
626.365	9804.67
626.72	9779.81
627.075	9802.41
627.43	9748.85
627.785	9775.97
628.14	9812.13
628.495	9806.25
628.85	9785.24
629.205	9788.17
629.559	9719.25
629.914	9746.37
630.269	9747.95
630.623	9742.3
630.978	9691.91
631.332	9754.28
631.687	9749.76
632.041	9684
632.396	9725.13
632.75	9689.42
633.104	9727.16
633.459	9684.22
633.813	9607.61
634.167	9609.87
634.521	9588.63
634.875	9667.05
635.229	9575.3
635.583	9614.62
635.937	9593.83
636.291	9501.4
636.645	9559.93
636.999	9505.02
637.352	9575.3
637.706	9496.88
638.06	9506.83
638.413	9545.7
638.767	9428.41
639.121	9497.79
639.474	9414.85
639.828	9389.09
640.181	9432.03
640.534	9445.58
640.888	9393.16
641.241	9357
641.594	9414.17
641.947	9407.62
642.301	9394.51
642.654	9414.4
643.007	9419.82
643.36	9381.86
643.713	9399.26
644.066	9407.62
644.419	9417.34
644.771	9282.88
645.124	9182.99
645.477	9156.78
645.83	9063.45
646.182	9059.61
646.535	9065.03
646.888	9078.36
647.24	8980.06
647.593	9014.18
647.945	9065.93
648.298	9007.86
648.65	9038.14
649.002	9004.69
649.355	9029.78
649.707	8999.72
650.059	9052.6
650.411	9168.08
650.763	9106.38
651.115	9276.78
651.467	9231.35
651.819	9213.05
652.171	9203.33
652.523	9201.07
652.875	9208.98
653.227	9154.07
653.578	9189.77
653.93	9169.21
654.282	9173.73
654.633	9092.83
654.985	9127.63
655.337	9216.44
655.688	9110.68
656.039	9145.48
656.391	9121.75
656.742	9167.17
657.094	9208.3
657.445	9177.8
657.796	9132.15
658.147	9101.87
658.498	9132.15
658.849	9138.93
659.2	9165.14
659.551	9118.59
659.902	9166.27
660.253	9194.07
660.604	9228.42
660.955	9072.49
661.306	9160.62
661.656	9093.73
662.007	9229.09
662.358	9148.64
662.708	9193.61
663.059	9128.76
663.409	9085.37
663.76	9180.73
664.11	9164.46
664.461	9127.63
664.811	9133.5
665.161	9198.59
665.511	9154.97
665.862	9098.48
666.212	9173.73
666.562	9170.56
666.912	9124.92
667.262	9099.61
667.612	9170.34
667.962	9155.65
668.312	9162.88
668.662	9159.49
669.011	9131.24
669.361	9119.49
669.711	9146.38
670.06	9097.57
670.41	9120.85
670.76	9172.37
671.109	9085.59
671.459	9089.89
671.808	9064.35
672.157	9152.71
672.507	9016.67
672.856	9052.83
673.205	9048.31
673.554	9124.24
673.904	9128.98
674.253	9131.92
674.602	9114.29
674.951	8941.42
675.3	8930.34
675.649	8993.39
675.998	9033.17
676.346	8995.65
676.695	9005.14
677.044	8960.4
677.393	9050.79
677.741	9042.43
678.09	8992.04
678.438	8998.59
678.787	8977.8
679.135	8966.5
679.484	8861.87
679.832	8935.32
680.181	8904.81
680.529	8917.24
680.877	8882.66
681.225	8920.18
681.573	8856.67
681.922	8795.88
682.27	8770.12
682.618	8727.64
682.966	8737.58
683.314	8776.22
683.661	8755.21
684.009	8648.77
684.357	8671.14
684.705	8695.1
685.053	8690.12
685.4	8678.6
685.748	8633.63
686.095	8608.09
686.443	8574.42
686.79	8563.8
687.138	8570.13
687.485	8547.76
687.832	8472.96
688.18	8547.53
688.527	8493.75
688.874	8425.27
689.221	8432.5
689.568	8445.61
689.915	8359.29
690.262	8370.81
690.609	8326.29
690.956	8386.18
691.303	8291.04
691.65	8300.3
691.997	8244.26
692.344	8240.42
692.69	8265.5
693.037	8180.99
693.383	8127.88
693.73	8190.93
694.077	8082.46
694.423	8063.47
694.769	8087.2
695.116	8070.48
695.462	8042.01
695.808	7966.08
696.155	8040.88
696.501	7950.94
696.847	7880.88
697.193	7908.9
697.539	7925.85
697.885	7857.38
698.231	7847.66
698.577	7796.36
698.923	7739.42
699.269	7719.08
699.614	7664.61
699.96	7664.16
700.306	7681.34
700.651	7612.19
700.997	7648.8
701.342	7649.25
701.688	7585.97
702.033	7572.64
702.379	7564.5
702.724	7572.19
703.069	7493.55
703.415	7452.64
703.76	7452.87
704.105	7377.84
704.45	7403.15
704.795	7363.15
705.14	7341.23
705.485	7340.1
705.83	7269.82
706.175	7263.95
706.52	7275.02
706.865	7204.74
707.209	7244.51
707.554	7205.64
707.899	7192.54
708.243	7139.43
708.588	7145.31
708.932	7131.75
709.277	7128.58
709.621	7087.68
709.966	7012.65
710.31	7114.8
710.654	7025.54
710.998	7037.96
711.342	6998.42
711.687	6962.71
712.031	6934.46
712.375	6929.04
712.719	6965.42
713.063	6935.82
713.407	6931.3
713.75	6890.4
714.094	6870.06
714.438	6882.71
714.782	6897.18
715.125	6824.18
715.469	6869.61
715.812	6830.96
716.156	6768.59
716.499	6788.93
716.843	6786.9
717.186	6792.1
717.53	6802.04
717.873	6830.51
718.216	6803.39
718.559	6742.61
718.902	6710.74
719.246	6747.12
719.589	6674.36
719.932	6616.28
720.275	6610.18
720.617	6668.48
720.96	6630.97
721.303	6645.88
721.646	6699.89
721.989	6593.68
722.331	6664.42
722.674	6612.67
723.016	6593.91
723.359	6675.49
723.701	6613.8
724.044	6573.34
724.386	6524.53
724.729	6552.78
725.071	6504.42
725.413	6513.23
725.755	6513.91
726.097	6524.53
726.439	6539.67
726.782	6533.12
727.124	6553.23
727.465	6528.83
727.807	6501.71
728.149	6475.04
728.491	6558.88
728.833	6494.93
729.175	6452.22
729.516	6496.06
729.858	6536.96
730.199	6440.69
730.541	6531.31
730.882	6427.81
731.224	6472.1
731.565	6421.03
731.906	6442.5
732.248	6462.39
732.589	6388.94
732.93	6406.79
733.271	6416.29
733.612	6414.7
733.953	6389.39
734.294	6389.39
734.635	6404.76
734.976	6401.82
735.317	6365.44
735.658	6373.35
735.999	6442.73
736.339	6387.36
736.68	6399.79
737.021	6427.13
737.361	6396.85
737.702	6387.13
738.042	6355.72
738.383	6453.57
738.723	6441.82
739.063	6409.05
739.404	6413.8
739.744	6444.53
740.084	6441.6
740.424	6425.33
740.764	6420.81
741.104	6410.86
741.444	6415.16
741.784	6440.01
742.124	6475.95
742.464	6471.65
742.804	6515.27
743.143	6484.31
743.483	6494.25
743.823	6487.02
744.162	6483.4
744.502	6539.9
744.841	6542.84
745.181	6570.41
745.52	6529.73
745.86	6562.95
746.199	6631.42
746.538	6586.68
746.877	6656.73
747.216	6701.02
747.556	6669.39
747.895	6730.18
748.234	6730.63
748.573	6776.05
748.911	6823.73
749.25	6863.51
749.589	6899.89
749.928	6848.82
750.267	6970.17
750.605	6957.51
750.944	7032.32
751.283	7110.73
751.621	7133.56
751.96	7118.19
752.298	7166.77
752.636	7273.89
752.975	7310.05
753.313	7321.8
753.651	7459.87
753.989	7422.81
754.327	7392.76
754.666	7558.4
755.004	7677.27
755.342	7710.49
755.679	7850.6
756.017	7816.93
756.355	8013.08
756.693	7983.7
757.031	8081.33
757.368	8094.21
757.706	8176.24
758.044	8268.21
758.381	8452.84
758.719	8507.08
759.056	8610.35
759.394	8698.71
759.731	8747.07
760.068	8806.51
760.405	8870.23
760.743	9009.66
761.08	9125.14
761.417	9208.76
761.754	9252.37
762.091	9319.26
762.428	9429.09
762.765	9463.89
763.102	9701.85
763.438	9684.45
763.775	9761.96
764.112	9886.7
764.449	9993.59
764.785	10015.06
765.122	10037.43
765.458	10154.27
765.795	10209.41
766.131	10309.97
766.467	10321.27
766.804	10457.76
767.14	10471.32
767.476	10523.75
767.812	10691.2
768.148	10698.66
768.485	10771.88
768.821	10755.16
769.157	10847.36
769.492	10912.67
769.828	10980.46
770.164	10903.4
770.5	11020.68
770.836	11093.68
771.171	11111.53
771.507	11110.4
771.842	11143.39
772.178	11199.89
772.513	11277.4
772.849	11282.82
773.184	11302.03
773.519	11376.61
773.855	11296.84
774.19	11343.39
774.525	11377.06
774.86	11404.18
775.195	11492.08
775.53	11506.77
775.865	11470.16
776.2	11447.79
776.535	11441.24
776.87	11425.19
777.205	11544.96
777.539	11440.33
777.874	11597.62
778.209	11573.89
778.543	11564.4
778.878	11493.44
779.212	11498.64
779.547	11544.51
779.881	11579.31
780.215	11540.45
780.55	11615.7
780.884	11515.14
781.218	11524.85
781.552	11566.21
781.886	11519.43
782.22	11435.14
782.554	11410.51
782.888	11407.79
783.222	11380.22
783.556	11413.67
783.889	11368.47
784.223	11393.1
784.557	11406.44
784.89	11371.64
785.224	11381.35
785.557	11292.09
785.891	11285.99
786.224	11263.84
786.558	11266.55
786.891	11202.15
787.224	11181.36
787.557	11171.64
787.891	11219.55
788.224	11145.2
788.557	11143.17
788.89	11160.79
789.223	11189.72
789.556	11074.02
789.888	11084.41
790.221	11022.72
790.554	10994.92
790.887	10998.76
791.219	10954.92
791.552	10964.19
791.884	10844.64
792.217	10887.13
792.549	10905.21
792.882	10804.42
793.214	10783.4
793.546	10789.05
793.879	10699.79
794.211	10704.76
794.543	10723.74
794.875	10731.65
795.207	10716.06
795.539	10651.2
795.871	10619.11
796.203	10536.4
796.535	10554.71
796.867	10537.76
797.198	10472.68
797.53	10557.87
797.862	10459.57
798.193	10420.02
798.525	10388.16
798.856	10469.06
799.188	10265.68
799.519	10332.12
799.85	10256.86
800.182	10230.42
800.513	10297.54
800.844	10207.37
801.175	10267.71
801.506	10211.89
801.837	10206.69
802.168	10161.5
802.499	10116.53
802.83	10091.9
803.161	10087.15
803.491	10089.18
803.822	10075.62
804.153	10022.07
804.483	9964.67
804.814	9931.22
805.145	9859.81
805.475	9944.1
805.805	9883.99
806.136	9798.34
806.466	9874.5
806.796	9815.52
807.126	9819.81
807.457	9717.89
807.787	9761.06
808.117	9697.78
808.447	9747.95
808.777	9773.26
809.107	9690.55
809.436	9660.95
809.766	9685.35
810.096	9602.64
810.426	9640.83
810.755	9490.78
811.085	9582.3
811.414	9547.96
811.744	9506.15
812.073	9469.09
812.403	9514.06
812.732	9435.64
813.061	9442.42
813.39	9393.83
813.719	9368.07
814.049	9447.84
814.378	9384.12
814.707	9259.83
815.036	9342.99
815.365	9238.36
815.693	9172.6
816.022	9181.86
816.351	9110
816.68	9154.52
817.008	9169.43
817.337	9105.25
817.665	9090.79
817.994	9149.55
818.322	9095.99
818.651	8954.3
818.979	8971.25
819.307	9112.49
819.636	8976.22
819.964	8988.42
820.292	9025.48
820.62	8983.9
820.948	9006.73
821.276	9011.92
821.604	8982.32
821.932	8977.8
822.259	8940.97
822.587	9003.56
822.915	8989.33
823.243	8987.29
823.57	8924.24
823.898	8962.66
824.225	8953.39
824.553	8894.64
824.88	8934.19
825.207	8963.11
825.535	8930.34
825.862	8991.59
826.189	8891.48
826.516	8985.94
826.843	8994.52
827.17	8956.33
827.497	8988.65
827.824	8945.03
828.151	8996.78
828.478	8939.61
828.805	9050.12
829.131	8967.63
829.458	8926.95
829.785	8971.7
830.111	9008.08
830.438	9008.08
830.764	8945.26
831.09	8967.18
831.417	8921.98
831.743	8961.98
832.069	8978.48
832.395	8914.53
832.722	8955.43
833.048	8941.87
833.374	8952.49
833.7	8879.5
834.026	8892.83
834.351	8919.95
834.677	8920.63
835.003	8931.25
835.329	8899.16
835.654	8938.03
835.98	8819.61
836.306	8868.88
836.631	8855.54
836.956	8839.95
837.282	8928.54
837.607	8807.86
837.932	8824.13
838.258	8825.94
838.583	8788.43
838.908	8791.82
839.233	8765.15
839.558	8742.33
839.883	8748.2
840.208	8733.51
840.533	8768.77
840.858	8724.02
841.182	8702.1
841.507	8698.71
841.832	8671.59
842.156	8697.36
842.481	8635.89
842.805	8574.2
843.13	8575.78
843.454	8606.51
843.778	8569.22
844.103	8532.39
844.427	8517.47
844.751	8479.73
845.075	8414.43
845.399	8463.69
845.723	8475.89
846.047	8372.17
846.371	8322.9
846.695	8361.09
847.019	8280.42
847.343	8267.08
847.666	8188.67
847.99	8226.63
848.313	8186.41
848.637	8197.03
848.96	8107.09
849.284	8122.23
849.607	8023.48
849.931	8021.44
850.254	8084.49
850.577	8013.53
850.9	7838.17
851.223	7931.73
851.546	7873.42
851.869	7792.52
852.192	7833.65
852.515	7763.14
852.838	7762.92
853.161	7780.54
853.483	7696.48
853.806	7644.73
854.129	7684.5
854.451	7652.64
854.774	7623.26
855.096	7580.1
855.419	7512.53
855.741	7541.45
856.063	7481.79
856.385	7493.77
856.708	7438.18
857.03	7415.36
857.352	7443.38
857.674	7374.9
857.996	7390.5
858.318	7352.31
858.64	7368.58
858.961	7299.43
859.283	7285.42
859.605	7261.01
859.926	7283.83
860.248	7234.57
860.57	7219.65
860.891	7245.87
861.212	7197.96
861.534	7129.49
861.855	7156.38
862.176	7116.83
862.498	7129.94
862.819	7129.04
863.14	7133.33
863.461	7141.46
863.782	7061.47
864.103	7103.27
864.424	7023.05
864.745	7044.52
865.065	7000.23
865.386	6987.8
865.707	6989.38
866.027	7011.75
866.348	6998.87
866.668	6964.97
866.989	6892.43
867.309	6914.58
867.63	6897.4
867.95	6889.49
868.27	6820.34
868.59	6869.38
868.91	6894.01
869.23	6851.3
869.55	6899.44
869.87	6911.87
870.19	6868.93
870.51	6844.52
870.83	6881.13
871.15	6836.84
871.469	6823.06
871.789	6869.38
872.109	6760.23
872.428	6736.28
872.748	6837.52
873.067	6729.27
873.386	6762.27
873.706	6736.28
874.025	6667.58
874.344	6703.51
874.663	6692.66
874.982	6716.17
875.301	6705.77
875.62	6672.1
875.939	6676.17
876.258	6649.73
876.577	6624.87
876.896	6601.82
877.214	6606.11
877.533	6606.79
877.852	6551.42
878.17	6597.98
878.489	6585.55
878.807	6593.46
879.125	6541.25
879.444	6580.35
879.762	6600.91
880.08	6570.63
880.398	6512.33
880.716	6554.14
881.034	6482.95
881.352	6486.79
881.67	6515.94
881.988	6433.69
882.306	6402.73
882.624	6450.41
882.941	6379
883.259	6367.02
883.577	6365.89
883.894	6360.92
884.212	6341.94
884.529	6328.6
884.846	6349.62
885.164	6320.92
885.481	6295.61
885.798	6344.88
886.115	6333.35
886.432	6316.18
886.75	6256.06
887.067	6221.04
887.383	6239.34
887.7	6223.97
888.017	6238.66
888.334	6192.34
888.651	6159.8
888.967	6104.88
889.284	6107.14
889.6	6108.05
889.917	6090.87
890.233	6056.07
890.55	6046.58
890.866	6063.3
891.182	6051.32
891.498	5988.95
891.815	5999.12
892.131	6007.03
892.447	6028.5
892.763	5983.53
893.079	5930.2
893.395	5908.5
893.71	5901.72
894.026	5923.42
894.342	5872.57
894.657	5834.61
894.973	5827.38
895.289	5814.72
895.604	5796.64
895.92	5747.38
896.235	5699.69
896.55	5755.29
896.865	5728.85
897.181	5709.41
897.496	5723.87
897.811	5697.21
898.126	5661.28
898.441	5669.41
898.756	5612.24
899.071	5570.21
899.386	5624.67
899.7	5520.26
900.015	5570.21
900.33	5495.86
900.644	5469.42
900.959	5492.02
901.273	5436.65
901.588	5407.27
901.902	5378.8
902.216	5405.24
902.531	5335.18
902.845	5369.99
903.159	5336.31
903.473	5311
903.787	5286.37
904.101	5278.91
904.415	5214.74
904.729	5272.81
905.042	5222.87
905.356	5249.54
905.67	5212.7
905.984	5173.15
906.297	5186.49
906.611	5127.05
906.924	5129.54
907.237	5106.49
907.551	5088.19
907.864	5087.51
908.177	5012.48
908.491	5043.44
908.804	5017.23
909.117	4970.67
909.43	4946.72
909.743	4913.27
910.056	4945.82
910.368	4886.16
910.681	4885.93
910.994	4892.71
911.307	4878.7
911.619	4818.14
911.932	4842.54
912.244	4785.59
912.557	4762.54
912.869	4774.3
913.181	4718.48
913.494	4706.73
913.806	4669.67
914.118	4681.64
914.43	4667.63
914.742	4652.26
915.054	4613.4
915.366	4601.64
915.678	4605.49
915.99	4595.99
916.302	4564.13
916.613	4548.76
916.925	4535.66
917.236	4501.31
917.548	4494.75
917.859	4501.53
918.171	4461.76
918.482	4434.87
918.794	4438.48
919.105	4419.5
919.416	4410.46
919.727	4346.74
920.038	4391.25
920.349	4344.7
920.66	4335.21
920.971	4346.96
921.282	4323.91
921.593	4323.01
921.903	4241.88
922.214	4211.6
922.525	4242.56
922.835	4176.57
923.146	4159.62
923.456	4144.93
923.767	4165.72
924.077	4145.16
924.387	4122.79
924.697	4117.82
925.008	4049.12
925.318	4089.79
925.628	4069.91
925.938	4074.88
926.248	4005.95
926.558	3972.06
926.867	3989.01
927.177	3953.3
927.487	3937.93
927.796	3937.71
928.106	3887.09
928.416	3914.66
928.725	3936.13
929.034	3900.42
929.344	3827.88
929.653	3842.12
929.962	3779.52
930.271	3779.52
930.581	3784.04
930.89	3784.04
931.199	3775.45
931.508	3759.63
931.817	3764.38
932.125	3745.62
932.434	3722.12
932.743	3712.63
933.051	3705.62
933.36	3672.63
933.669	3701.78
933.977	3631.95
934.286	3617.94
934.594	3618.39
934.902	3584.04
935.21	3613.87
935.519	3573.2
935.827	3581.78
936.135	3555.8
936.443	3536.81
936.751	3523.03
937.059	3497.94
937.367	3504.95
937.674	3488.91
937.982	3476.7
938.29	3437.83
938.597	3424.95
938.905	3424.27
939.213	3391.73
939.52	3372.07
939.827	3399.64
940.135	3377.95
940.442	3343.82
940.749	3377.72
941.056	3348.34
941.363	3303.83
941.67	3317.61
941.977	3277.39
942.284	3274.22
942.591	3252.08
942.898	3258.18
943.205	3250.49
943.511	3218.63
943.818	3205.52
944.125	3181.34
944.431	3187.67
944.738	3183.83
945.044	3136.6
945.35	3113.55
945.657	3125.98
945.963	3105.64
946.269	3071.29
946.575	3079.65
946.881	3089.14
947.187	3082.81
947.493	3075.58
947.799	3062.93
948.105	3012.31
948.41	3021.57
948.716	3034.68
949.022	2979.77
949.327	2934.34
949.633	2959.43
949.938	2977.51
950.244	2974.57
950.549	2927.79
950.854	2911.29
951.16	2931.86
951.465	2882.37
951.77	2875.14
952.075	2843.95
952.38	2860.67
952.685	2874.01
952.99	2823.39
953.294	2797.17
953.599	2841.92
953.904	2789.94
954.209	2790.17
954.513	2772.99
954.818	2731.86
955.122	2786.33
955.426	2760.11
955.731	2731.86
956.035	2698.87
956.339	2712.2
956.643	2661.36
956.948	2659.1
957.252	2659.1
957.556	2662.49
957.86	2673.79
958.163	2653
958.467	2653.22
958.771	2654.35
959.075	2611.64
959.378	2569.83
959.682	2586.56
959.985	2587.91
960.289	2578.65
960.592	2570.06
960.896	2538.2
961.199	2537.74
961.502	2540.46
961.805	2501.59
962.108	2472.66
962.411	2519.89
962.714	2498.87
963.017	2430.4
963.32	2453.45
963.623	2459.78
963.926	2471.76
964.228	2408.03
964.531	2445.09
964.833	2419.33
965.136	2370.97
965.438	2379.33
965.741	2392.21
966.043	2390.86
966.345	2392.44
966.648	2371.42
966.95	2342.04
967.252	2337.07
967.554	2277.19
967.856	2324.87
968.158	2299.56
968.46	2310.18
968.761	2325.55
969.063	2291.42
969.365	2308.82
969.666	2294.13
969.968	2256.4
970.269	2249.39
970.571	2229.96
970.872	2227.24
971.174	2242.61
971.475	2231.99
971.776	2200.35
972.077	2203.74
972.378	2189.5
972.679	2163.29
972.98	2159.22
973.281	2147.92
973.582	2197.19
973.883	2169.84
974.183	2133.69
974.484	2113.57
974.785	2102.73
975.085	2118.55
975.386	2108.38
975.686	2090.52
975.986	2066.12
976.287	2064.08
976.587	2056.85
976.887	2066.8
977.187	2064.31
977.487	2048.27
977.787	1999.23
978.087	2025.67
978.387	2039.23
978.687	2020.47
978.987	2005.55
979.286	1952.22
979.586	2028.38
979.885	1969.85
980.185	1940.92
980.484	1986.35
980.784	1930.3
981.083	1916.97
981.382	1969.17
981.682	1919.46
981.981	1922.62
982.28	1919.68
982.579	1910.19
982.878	1894.37
983.177	1882.85
983.475	1875.16
983.774	1883.3
984.073	1876.74
984.372	1866.58
984.67	1864.77
984.969	1842.85
985.267	1851.43
985.566	1823.64
985.864	1816.41
986.162	1828.16
986.461	1793.13
986.759	1795.39
987.057	1780.02
987.355	1776.18
987.653	1790.42
987.951	1772.34
988.249	1771.89
988.547	1768.5
988.844	1781.15
989.142	1738.22
989.44	1745
989.737	1702.96
990.035	1707.03
990.332	1730.08
990.63	1718.78
990.927	1693.7
991.224	1691.89
991.521	1681.04
991.819	1674.49
992.116	1641.72
992.413	1629.29
992.71	1642.4
993.006	1652.8
993.303	1613.02
993.6	1624.32
993.897	1606.7
994.193	1648.95
994.49	1618.22
994.787	1583.19
995.083	1586.36
995.379	1594.94
995.676	1584.1
995.972	1569.86
996.268	1571.22
996.565	1565.34
996.861	1529.63
997.157	1551.78
997.453	1517.21
997.749	1554.27
998.044	1502.74
998.34	1519.47
998.636	1523.76
998.932	1495.96
999.227	1497.55
999.523	1478.34
999.818	1498.9
1000.114	1486.25
1000.409	1450.54
1000.704	1438.11
1001	1434.95
1001.295	1421.16
1001.59	1435.85
1001.885	1424.1
1002.18	1436.53
1002.475	1408.73
1002.77	1410.09
1003.065	1380.26
1003.359	1408.96
1003.654	1402.63
1003.949	1391.11
1004.243	1372.58
1004.538	1347.72
1004.832	1342.97
1005.127	1355.85
1005.421	1334.39
1005.715	1328.74
1006.009	1324.67
1006.304	1346.36
1006.598	1275.18
1006.892	1327.83
1007.186	1325.57
1007.48	1297.55
1007.773	1304.1
1008.067	1311.34
1008.361	1275.63
1008.655	1263.88
1008.948	1289.64
1009.242	1274.73
1009.535	1306.14
1009.829	1255.07
1010.122	1238.34
1010.415	1237.67
1010.708	1237.44
1011.001	1200.38
1011.295	1193.6
1011.588	1220.94
1011.881	1195.86
1012.173	1223.43
1012.466	1195.63
1012.759	1188.63
1013.052	1185.92
1013.344	1137.33
1013.637	1171.23
1013.93	1131.23
1014.222	1147.5
1014.514	1154.73
1014.807	1136.2
1015.099	1135.07
1015.391	1161.73
1015.683	1110.66
1015.976	1135.3
1016.268	1100.95
1016.56	1136.2
1016.851	1085.13
1017.143	1094.39
1017.435	1087.61
1017.727	1078.8
1018.018	1090.1
1018.31	1057.78
1018.602	1074.05
1018.893	1042.87
1019.185	1040.16
1019.476	1041.96
1019.767	1020.27
1020.058	1034.51
1020.35	1021.17
1020.641	1026.82
1020.932	1037.67
1021.223	1018.91
1021.514	981.63
1021.804	999.71
1022.095	990.67
1022.386	997.45
1022.677	998.35
1022.967	987.95
1023.258	973.27
1023.548	947.28
1023.839	944.11
1024.129	947.96
1024.419	939.59
1024.709	928.97
1025	954.51
1025.29	946.37
1025.58	918.13
1025.87	908.63
1026.16	900.5
1026.449	949.54
1026.739	905.47
1027.029	898.47
1027.319	887.39
1027.608	895.08
1027.898	861.18
1028.187	853.95
1028.477	893.95
1028.766	874.74
1029.055	872.93
1029.344	856.21
1029.634	864.12
1029.923	855.75
1030.212	857.11
1030.501	850.33
1030.79	838.13
1031.078	833.38
1031.367	821.63
1031.656	847.62
1031.945	839.03
1032.233	849.65
1032.522	786.83
1032.81	782.31
1033.099	802.87
1033.387	791.8
1033.675	787.28
1033.963	785.7
1034.251	776.89
1034.54	782.54
1034.828	773.27
1035.116	771.69
1035.403	784.8
1035.691	770.11
1035.979	779.6
1036.267	774.4
1036.554	742.31
1036.842	734.85
1037.129	750.45
1037.417	730.79
1037.704	739.37
1037.992	749.09
1038.279	740.28
1038.566	717.9
1038.853	717.9
1039.14	717.9
