Data from hue_22_FLMS001491_00037.txt Node
Date: Tue Feb 07 17:10:02 GMT 2017
User: dcchb
Spectrometer: FLMS00149
Trigger mode: 0
Integration Time (sec): 2.000000E-2
Scans to average: 10
Electric dark correction enabled: true
Nonlinearity correction enabled: false
Boxcar width: 0
XAxis mode: Wavelengths
Number of Pixels in Spectrum: 2048
>>>>>Begin Spectral Data<<<<<
341.393	-24.35
341.776	-24.35
342.16	-24.35
342.543	-51.47
342.927	-62.54
343.31	-70
343.693	-80.62
344.077	-60.96
344.46	-60.05
344.843	-55.99
345.226	-61.41
345.61	-26.61
345.993	-26.61
346.376	-6.72
346.759	15.88
347.142	20.39
347.525	38.25
347.908	81.18
348.291	77.12
348.674	88.64
349.057	127.51
349.44	127.51
349.823	152.82
350.206	182.65
350.588	204.8
350.971	206.15
351.354	231.91
351.737	248.41
352.119	265.59
352.502	272.82
352.884	284.34
353.267	286.83
353.65	306.04
354.032	315.53
354.414	301.07
354.797	335.41
355.179	333.61
355.562	331.8
355.944	314.85
356.326	331.57
356.709	349.65
357.091	336.54
357.473	353.72
357.855	333.83
358.238	334.96
358.62	335.87
359.002	354.4
359.384	350.33
359.766	344.45
360.148	347.39
360.53	340.61
360.912	317.56
361.294	342.87
361.676	340.84
362.057	335.64
362.439	318.24
362.821	334.74
363.203	327.28
363.584	337.22
363.966	332.25
364.348	322.99
364.729	340.61
365.111	313.04
365.493	317.34
365.874	341.29
366.256	328.64
366.637	327.96
367.019	316.21
367.4	298.58
367.781	311.46
368.163	328.64
368.544	327.51
368.925	316.66
369.306	311.23
369.688	301.97
370.069	314.4
370.45	330.44
370.831	324.34
371.212	308.07
371.593	302.2
371.974	320.5
372.355	301.29
372.736	336.09
373.117	337.45
373.498	332.93
373.879	332.03
374.26	330.22
374.641	326.15
375.021	321.63
375.402	320.27
375.783	303.55
376.163	319.37
376.544	344.23
376.925	336.32
377.305	327.05
377.686	333.38
378.066	341.52
378.447	348.07
378.827	346.04
379.208	335.64
379.588	335.87
379.968	324.79
380.349	325.25
380.729	347.62
381.109	353.49
381.489	315.75
381.87	320.5
382.25	349.43
382.63	351.23
383.01	354.4
383.39	357.11
383.77	352.59
384.15	347.62
384.53	351.23
384.91	362.53
385.29	363.66
385.67	344.91
386.049	372.48
386.429	361.4
386.809	351.91
387.189	358.47
387.568	346.71
387.948	376.54
388.328	352.59
388.707	382.87
389.087	350.33
389.466	365.47
389.846	340.39
390.225	365.24
390.605	377
390.984	365.92
391.363	358.47
391.743	362.98
392.122	391.46
392.501	382.42
392.881	392.36
393.26	382.87
393.639	400.27
394.018	363.89
394.397	377.9
394.776	397.33
395.155	401.18
395.534	418.58
395.913	402.08
396.292	373.15
396.671	404.11
397.05	405.02
397.429	403.66
397.808	395.75
398.186	384.23
398.565	411.35
398.944	389.88
399.323	405.7
399.701	388.29
400.08	406.83
400.458	392.14
400.837	401.4
401.215	394.62
401.594	402.76
401.972	408.86
402.351	408.63
402.729	409.99
403.107	430.1
403.486	432.36
403.864	418.58
404.242	450.44
404.62	423.55
404.999	425.81
405.377	421.51
405.755	425.58
406.133	450.89
406.511	452.93
406.889	456.09
407.267	434.4
407.645	449.99
408.023	476.88
408.401	437.33
408.779	460.16
409.156	463.77
409.534	461.97
409.912	468.07
410.29	457.67
410.667	474.62
411.045	447.95
411.422	470.1
411.8	475.75
412.178	480.04
412.555	485.47
412.933	469.42
413.31	481.85
413.687	506.26
414.065	499.25
414.442	494.28
414.819	488.86
415.197	500.61
415.574	515.52
415.951	497.44
416.328	523.88
416.705	517.33
417.082	516.88
417.46	494.51
417.837	520.49
418.214	509.65
418.591	543.09
418.967	526.6
419.344	518.69
419.721	518.69
420.098	523.21
420.475	536.09
420.852	555.97
421.228	544.67
421.605	564.56
421.982	554.17
422.358	545.58
422.735	538.57
423.111	567.5
423.488	589.42
423.864	590.78
424.241	579.48
424.617	569.31
424.994	575.41
425.37	565.01
425.746	593.04
426.123	562.75
426.499	588.52
426.875	586.03
427.251	605.92
427.627	598.91
428.003	607.95
428.379	609.53
428.756	616.31
429.132	613.15
429.507	631.23
429.883	623.77
430.259	617.89
430.635	652.69
431.011	657.89
431.387	655.63
431.763	641.85
432.138	659.7
432.514	686.37
432.89	647.05
433.265	690.66
433.641	711
434.016	659.25
434.392	719.59
434.767	699.25
435.143	679.13
435.518	709.87
435.894	715.97
436.269	722.07
436.644	753.48
437.02	752.81
437.395	744.22
437.77	746.25
438.145	768.62
438.52	769.08
438.895	768.62
439.271	757.32
439.646	782.18
440.021	765.69
440.395	805.46
440.77	781.5
441.145	776.31
441.52	810.2
441.895	770.88
442.27	808.17
442.645	788.28
443.019	809.07
443.394	816.31
443.769	818.34
444.143	822.18
444.518	827.61
444.892	827.83
445.267	816.53
445.641	831.67
446.016	844.78
446.39	866.02
446.764	842.52
447.139	866.7
447.513	902.18
447.887	883.2
448.262	868.06
448.636	880.71
449.01	895.17
449.384	897.89
449.758	912.35
450.132	897.43
450.506	907.83
450.88	904.67
451.254	910.09
451.628	920.71
452.002	944.89
452.376	976.3
452.75	952.8
453.123	954.61
453.497	976.98
453.871	960.48
454.244	974.72
454.618	993.25
454.992	995.28
455.365	1001.84
455.739	1043.64
456.112	1041.84
456.486	1044.1
456.859	1045.68
457.232	1070.08
457.606	1061.27
457.979	1068.5
458.352	1099.24
458.725	1111.89
459.099	1109.18
459.472	1126.81
459.845	1109.41
460.218	1159.8
460.591	1149.18
460.964	1153.02
461.337	1194.83
461.71	1193.02
462.083	1178.78
462.456	1221.49
462.829	1204.54
463.201	1245.67
463.574	1259.23
463.947	1255.39
464.32	1268.27
464.692	1325.9
465.065	1337.2
465.438	1315.95
465.81	1318.89
466.183	1326.35
466.555	1402.73
466.928	1385.33
467.3	1402.05
467.672	1426.91
468.045	1434.37
468.417	1452.22
468.789	1432.56
469.161	1467.36
469.534	1503.52
469.906	1502.39
470.278	1528.15
470.65	1536.29
471.022	1603.86
471.394	1632.1
471.766	1635.95
472.138	1659
472.51	1667.36
472.882	1690.63
473.253	1731.99
473.625	1758.43
473.997	1812.66
474.369	1811.53
474.74	1802.04
475.112	1830.97
475.484	1880.91
475.855	1925.2
476.227	1936.95
476.598	1977.86
476.97	2010.63
477.341	2052.43
477.713	2070.74
478.084	2072.09
478.455	2146.21
478.827	2177.4
479.198	2249.71
479.569	2263.05
479.94	2305.31
480.311	2320
480.682	2364.29
481.053	2429.37
481.424	2486.54
481.795	2538.97
482.166	2557.28
482.537	2592.08
482.908	2654.68
483.279	2653.32
483.65	2735.13
484.021	2769.48
484.391	2807.89
484.762	2853.99
485.133	2902.13
485.503	2984.16
485.874	3004.95
486.244	3019.19
486.615	3077.26
486.985	3128.11
487.356	3204.04
487.726	3214.66
488.097	3332.85
488.467	3316.81
488.837	3404.71
489.207	3479.06
489.578	3503.47
489.948	3553.64
490.318	3615.33
490.688	3624.59
491.058	3706.63
491.428	3749.34
491.798	3739.85
492.168	3837.24
492.538	3856.23
492.908	3904.13
493.278	3950.46
493.648	3979.61
494.017	4043.34
494.387	4107.07
494.757	4141.87
495.126	4161.53
495.496	4241.75
495.866	4208.76
496.235	4286.5
496.605	4304.8
496.974	4322.43
497.344	4382.09
497.713	4436.1
498.082	4454.85
498.452	4496.89
498.821	4529.2
499.19	4555.19
499.559	4569.2
499.928	4610.56
500.298	4639.48
500.667	4677.67
501.036	4684
501.405	4778.01
501.774	4728.07
502.143	4819.36
502.512	4885.58
502.88	4869.53
503.249	4880.61
503.618	4916.54
503.987	4918.35
504.356	4939.36
504.724	5006.25
505.093	5029.3
505.462	5015.74
505.83	5031.56
506.199	5149.3
506.567	5127.61
506.936	5153.37
507.304	5218
507.672	5210.31
508.041	5269.07
508.409	5306.36
508.777	5290.76
509.145	5323.98
509.514	5334.83
509.882	5388.16
510.25	5402.63
510.618	5428.61
510.986	5442.63
511.354	5497.09
511.722	5486.24
512.09	5556.07
512.458	5542.06
512.826	5611.43
513.193	5617.76
513.561	5672.22
513.929	5731.88
514.297	5690.98
514.664	5694.6
515.032	5805.78
515.4	5805.55
515.767	5857.98
516.135	5899.11
516.502	5836.97
516.869	5953.35
517.237	5954.48
517.604	5932.1
517.972	5990.63
518.339	5999.9
518.706	6026.34
519.073	6021.82
519.44	6060.91
519.808	6090.07
520.175	6123.74
520.542	6214.36
520.909	6217.75
521.276	6247.35
521.643	6224.07
522.009	6309.72
522.376	6338.87
522.743	6345.88
523.11	6409.61
523.477	6429.49
523.843	6454.35
524.21	6523.95
524.577	6567.34
524.943	6605.08
525.31	6610.28
525.676	6687.56
526.043	6710.61
526.409	6747.22
526.776	6765.3
527.142	6795.36
527.508	6829.26
527.874	6904.28
528.241	6890.04
528.607	6988.12
528.973	6991.29
529.339	7000.78
529.705	7070.38
530.071	7127.78
530.437	7147.21
530.803	7153.09
531.169	7231.5
531.535	7191.51
531.901	7232.41
532.267	7273.09
532.632	7340.43
532.998	7349.69
533.364	7421.78
533.73	7416.36
534.095	7525.06
534.461	7522.57
534.826	7532.06
535.192	7575.68
535.557	7582.46
535.923	7670.59
536.288	7683.7
536.653	7686.86
537.019	7714.43
537.384	7731.38
537.749	7726.41
538.114	7825.39
538.479	7835.33
538.845	7872.84
539.21	7884.37
539.575	7869.68
539.94	7874.88
540.305	7962.33
540.67	8058.38
541.034	8044.36
541.399	8048.21
541.764	8113.29
542.129	8144.93
542.494	8152.61
542.858	8200.07
543.223	8191.93
543.587	8265.83
543.952	8264.47
544.316	8238.94
544.681	8313.96
545.045	8418.82
545.41	8359.38
545.774	8373.4
546.138	8488.19
546.503	8443.68
546.867	8558.93
547.231	8539.72
547.595	8581.07
547.959	8572.26
548.324	8601.19
548.688	8621.98
549.052	8685.03
549.416	8671.01
549.779	8709.66
550.143	8751.24
550.507	8831.46
550.871	8791.69
551.235	8873.95
551.599	8915.3
551.962	8924.34
552.326	8991.01
552.689	9068.52
553.053	8992.59
553.417	9007.5
553.78	9115.07
554.143	9135.41
554.507	9137.67
554.87	9165.24
555.234	9142.41
555.597	9157.33
555.96	9211.79
556.323	9314.16
556.686	9309.42
557.05	9338.79
557.413	9315.29
557.776	9369.3
558.139	9439.58
558.502	9426.7
558.865	9467.15
559.228	9534.04
559.59	9554.38
559.953	9546.7
560.316	9673.02
560.679	9747.14
561.041	9771.55
561.404	9809.29
561.767	9850.19
562.129	9829.4
562.492	9867.37
562.854	9872.34
563.217	9909.63
563.579	9914.15
563.941	9936.07
564.304	10012.9
564.666	10108.49
565.028	10084.31
565.39	10193.46
565.753	10181.71
566.115	10207.25
566.477	10192.56
566.839	10259
567.201	10334.25
567.563	10338.09
567.925	10409.27
568.287	10419.44
568.648	10441.14
569.01	10466.45
569.372	10573.56
569.734	10578.31
570.095	10643.84
570.457	10727.23
570.819	10650.62
571.18	10743.95
571.542	10795.93
571.903	10850.39
572.265	10895.36
572.626	10954.34
572.987	10965.19
573.349	11041.35
573.71	11092.19
574.071	11112.98
574.432	11175.81
574.794	11319.53
575.155	11325.41
575.516	11315.01
575.877	11454.9
576.238	11482.01
576.599	11620.54
576.96	11592.29
577.32	11682.91
577.681	11846.75
578.042	11872.06
578.403	11889.46
578.763	11998.84
579.124	12101.66
579.485	12138.04
579.845	12311.6
580.206	12380.3
580.566	12482.67
580.927	12659.61
581.287	12776.22
581.648	12727.41
582.008	13041.97
582.368	13091.01
582.728	13287.84
583.089	13313.6
583.449	13482.19
583.809	13681.73
584.169	13854.83
584.529	13983.42
584.889	14219.34
585.249	14368.27
585.609	14421.6
585.969	14675.38
586.329	14775.71
586.688	15098.64
587.048	15311.29
587.408	15563.04
587.768	15770.04
588.127	15916.25
588.487	16309.01
588.846	16485.5
589.206	16607.08
589.565	16871.25
589.925	17205.48
590.284	17437.11
590.643	17654.73
591.003	17940.83
591.362	18263.76
591.721	18567.93
592.08	18841.82
592.44	19186.9
592.799	19486.32
593.158	19697.17
593.517	19905.3
593.876	20199.3
594.235	20581.44
594.593	20823.46
594.952	21205.83
595.311	21333.28
595.67	21739.37
596.029	22151.56
596.387	22414.16
596.746	22645.34
597.104	22848.04
597.463	23203.97
597.822	23612.54
598.18	23773.67
598.538	24167.33
598.897	24546.76
599.255	24662.01
599.613	25356.9
599.972	25449.1
600.33	25784.01
600.688	26010.67
601.046	26388.29
601.404	26747.15
601.762	27010.65
602.12	27429.17
602.478	27802.04
602.836	27920.68
603.194	28127.45
603.552	28583.49
603.91	28621
604.268	29168.33
604.625	29226.18
604.983	29705.49
605.341	29854.86
605.698	30158.81
606.056	30617.56
606.413	30841.51
606.771	31042.86
607.128	31373.02
607.485	31572.56
607.843	31829.5
608.2	32197.4
608.557	32457.28
608.914	32633.77
609.272	32913.99
609.629	33244.61
609.986	33644.82
610.343	33633.52
610.7	34159.38
611.057	34141.53
611.414	34314.18
611.771	34647.06
612.127	34951.91
612.484	35063.54
612.841	35403.19
613.198	35434.15
613.554	35696.52
613.911	36002.27
614.267	36165.89
614.624	36274.36
614.98	36526.33
615.337	36786.66
615.693	36921.8
616.05	37175.12
616.406	37628.22
616.762	37502.57
617.118	37620.08
617.475	37858.95
617.831	38023.92
618.187	38235.89
618.543	38316.34
618.899	38625.48
619.255	38891.24
619.611	38733.05
619.967	39014.17
620.323	39329.19
620.678	39255.52
621.034	39339.59
621.39	39566.25
621.746	39399.02
622.101	40226.8
622.457	39842.4
622.812	40086.91
623.168	40293.46
623.523	40305.21
623.879	40572.77
624.234	40359.67
624.589	40524.64
624.945	40683.51
625.3	40781.13
625.655	40815.93
626.01	40904.07
626.365	41049.37
626.72	41069.26
627.075	41075.13
627.43	41166.88
627.785	41107.22
628.14	41321.46
628.495	41505.41
628.85	41480.1
629.205	41525.07
629.559	41735.68
629.914	41713.76
630.269	41632.86
630.623	41746.76
630.978	41714.44
631.332	41785.17
631.687	41997.6
632.041	41777.72
632.396	41912.4
632.75	41771.16
633.104	41945.39
633.459	41889.8
633.813	42017.93
634.167	41934.55
634.521	41950.82
634.875	42094.99
635.229	41930.71
635.583	41898.62
635.937	42000.31
636.291	41973.64
636.645	41963.7
636.999	41995.11
637.352	42125.73
637.706	41944.72
638.06	42070.14
638.413	42007.77
638.767	41979.29
639.121	42064.49
639.474	41885.51
639.828	41909.01
640.181	42012.74
640.534	41979.52
640.888	41986.3
641.241	41750.82
641.594	41847.09
641.947	42015.22
642.301	41980.42
642.654	41902.46
643.007	42013.64
643.36	41979.29
643.713	41861.33
644.066	42176.57
644.419	41870.59
644.771	41591.05
645.124	41280.55
645.477	41189.03
645.83	41027.68
646.182	40883.05
646.535	40841.24
646.888	40990.39
647.24	40604.41
647.593	41016.61
647.945	40882.82
648.298	40559.89
648.65	40596.96
649.002	40553.34
649.355	40756.95
649.707	40608.25
650.059	40891.18
650.411	41281.46
650.763	41314.9
651.115	41697.27
651.467	41674.89
651.819	41495.24
652.171	41488.01
652.523	41551.96
652.875	41425.18
653.227	41259.08
653.578	41672.86
653.93	41460.89
654.282	41390.38
654.633	41306.77
654.985	41321.23
655.337	41490.49
655.688	41315.58
656.039	41477.61
656.391	41182.02
656.742	41289.37
657.094	41247.79
657.445	41506.76
657.796	41321.68
658.147	41222.25
658.498	41187
658.849	41350.61
659.2	41211.4
659.551	41314.22
659.902	41272.19
660.253	41144.29
660.604	41385.18
660.955	41005.76
661.306	41177.05
661.656	41280.33
662.007	41248.92
662.358	41154.68
662.708	41167.34
663.059	41243.94
663.409	41029.26
663.76	41316.03
664.11	41163.04
664.461	41317.39
664.811	41329.37
665.161	41125.08
665.511	41209.14
665.862	41245.75
666.212	41231.74
666.562	41184.06
666.912	41131.18
667.262	41106.09
667.612	41176.15
667.962	41197.84
668.312	40996.49
668.662	41289.14
669.011	41111.97
669.361	41000.11
669.711	40987
670.06	41131.86
670.41	41050.28
670.76	41122.59
671.109	41074.46
671.459	40984.74
671.808	40914.23
672.157	40989.49
672.507	40852.99
672.856	40974.35
673.205	40890.51
673.554	41092.31
673.904	40774.58
674.253	41135.47
674.602	40945.19
674.951	40332.56
675.3	40173.24
675.649	40774.35
675.998	40683.96
676.346	40790.85
676.695	40719.89
677.044	40464.08
677.393	40697.07
677.741	40879.89
678.09	40724.41
678.438	40704.07
678.787	40740.23
679.135	40634.02
679.484	40483.96
679.832	40586.11
680.181	40288.94
680.529	40447.35
680.877	40385.89
681.225	40223.86
681.573	40427.47
681.922	40236.74
682.27	40048.95
682.618	40190.19
682.966	40036.07
683.314	40043.3
683.661	39967.14
684.009	39773.7
684.357	39729.41
684.705	39682.4
685.053	39722.18
685.4	39745.45
685.748	39434.05
686.095	39680.14
686.443	39315.63
686.79	39356.76
687.138	39470.21
687.485	39413.71
687.832	39251.23
688.18	39266.82
688.527	39059.37
688.874	39140.72
689.221	38865.93
689.568	38819.83
689.915	38862.76
690.262	38803.1
690.609	38619.61
690.956	38637.46
691.303	38636.55
691.65	38392.49
691.997	38359.95
692.344	38248.99
692.69	38169.9
693.037	38177.81
693.383	37957.25
693.73	38001.77
694.077	37776.24
694.423	37750.93
694.769	37639.97
695.116	37519.97
695.462	37591.16
695.808	37473.42
696.155	37566.53
696.501	37191.17
696.847	37209.02
697.193	36847
697.539	37121.79
697.885	36894.45
698.231	36721.8
698.577	36710.73
698.923	36772.65
699.269	36598.64
699.614	36339.89
699.96	36192.78
700.306	36375.82
700.651	36170.86
700.997	35995.27
701.342	36003.18
701.688	35942.39
702.033	35795.05
702.379	35728.61
702.724	35642.06
703.069	35702.85
703.415	35273.48
703.76	35586.01
704.105	35319.81
704.45	35267.38
704.795	35185.57
705.14	35166.36
705.485	34974.05
705.83	34936.54
706.175	35102.64
706.52	34779.48
706.865	34690.44
707.209	34665.59
707.554	34565.02
707.899	34602.99
708.243	34234.18
708.588	34323.67
708.932	34250.68
709.277	34063.12
709.621	34087.3
709.966	33898.6
710.31	34002.55
710.654	33709.45
710.998	33716.23
711.342	33709
711.687	33698.83
712.031	33582.68
712.375	33274.21
712.719	33502.68
713.063	33310.82
713.407	33439.18
713.75	33287.77
714.094	33243.25
714.438	33095.46
714.782	33206.87
715.125	32961.22
715.469	33113.99
715.812	32948.12
716.156	32715.58
716.499	32680.55
716.843	32812.08
717.186	32547.9
717.53	32850.27
717.873	32630.61
718.216	32521.69
718.559	32456.83
718.902	32293.67
719.246	32518.3
719.589	32130.51
719.932	32034.02
720.275	32136.61
720.617	32164.41
720.96	31969.39
721.303	32069.5
721.646	32109.27
721.989	31862.5
722.331	31898.43
722.674	31836.06
723.016	31828.37
723.359	31689.84
723.701	31783.4
724.044	31554.48
724.386	31478.55
724.729	31592.9
725.071	31359.91
725.413	31450.75
725.755	31326.24
726.097	31230.65
726.439	31123.98
726.782	31154.72
727.124	31267.48
727.465	31092.8
727.807	30926.47
728.149	31023.42
728.491	30831.79
728.833	30940.49
729.175	30784.78
729.516	30789.53
729.858	30800.83
730.199	30750.66
730.541	30599.25
730.882	30675.18
731.224	30676.99
731.565	30599.48
731.906	30586.14
732.248	30622.75
732.589	30410.33
732.93	30258.47
733.271	30307.06
733.612	30345.02
733.953	30374.4
734.294	30209.66
734.635	30139.15
734.976	30215.76
735.317	30044.46
735.658	29956.78
735.999	30011.24
736.339	29944.58
736.68	30047.63
737.021	29888.31
737.361	29752.49
737.702	30082.66
738.042	29788.2
738.383	29859.16
738.723	29730.8
739.063	29701.2
739.404	29663.46
739.744	29644.02
740.084	29611.26
740.424	29622.78
740.764	29524.03
741.104	29590.46
741.444	29389.34
741.784	29345.95
742.124	29433.18
742.464	29292.85
742.804	29317.03
743.143	29203.58
743.483	29290.81
743.823	29115.22
744.162	29125.62
744.502	29145.5
744.841	29090.37
745.181	29193.19
745.52	28954.55
745.86	28963.81
746.199	28952.74
746.538	28921.56
746.877	28945.28
747.216	28857.6
747.556	28798.85
747.895	28772.18
748.234	28705.97
748.573	28594.11
748.911	28415.81
749.25	28616.25
749.589	28493.32
749.928	28524.28
750.267	28561.57
750.605	28345.07
750.944	28381.91
751.283	28348.01
751.621	28403.6
751.96	28228.24
752.298	28093.78
752.636	28151.41
752.975	27991.86
753.313	27903.96
753.651	28063.05
753.989	27892.2
754.327	27876.84
754.666	27671.87
755.004	27772.66
755.342	27739.44
755.679	27700.8
756.017	27593
756.355	27623.51
756.693	27591.87
757.031	27496.73
757.368	27399.56
757.706	27275.27
758.044	27279.34
758.381	27245.44
758.719	27206.8
759.056	27141.72
759.394	27103.07
759.731	26891.33
760.068	26973.81
760.405	26819.69
760.743	26777.21
761.08	26736.75
761.417	26616.08
761.754	26557.1
762.091	26521.17
762.428	26396.42
762.765	26296.31
763.102	26410.66
763.438	26305.58
763.775	26099.03
764.112	26153.49
764.449	26221.74
764.785	25998.24
765.122	25812.03
765.458	25693.39
765.795	25712.37
766.131	25602.77
766.467	25603.68
766.804	25367.07
767.14	25323.23
767.476	25393.97
767.812	25197.59
768.148	25218.6
768.485	25073.52
768.821	24869.69
769.157	25008.21
769.492	24948.55
769.828	24902.9
770.164	24732.06
770.5	24636.02
770.836	24671.05
771.171	24472.86
771.507	24417.04
771.842	24185.86
772.178	24266.54
772.513	24091.4
772.849	24080.78
773.184	24065.64
773.519	23978.18
773.855	23831.97
774.19	23739.55
774.525	23719.43
774.86	23629.72
775.195	23489.61
775.53	23403.96
775.865	23261.82
776.2	23138.21
776.535	23116.51
776.87	23086.23
777.205	23052.33
777.539	22939.11
777.874	22877.42
778.209	22686.47
778.543	22823.64
778.878	22555.17
779.212	22480.14
779.547	22342.75
779.881	22436.75
780.215	22162.86
780.55	22304.33
780.884	22118.57
781.218	22100.94
781.552	22042.19
781.886	21964
782.22	21889.88
782.554	21828.18
782.888	21509.1
783.222	21476.55
783.556	21366.95
783.889	21328.31
784.223	21170.8
784.557	21171.03
784.89	21094.87
785.224	21040.86
785.557	20938.49
785.891	20914.53
786.224	20875.89
786.558	20797.02
786.891	20629.12
787.224	20646.75
787.557	20503.02
787.891	20549.57
788.224	20411.72
788.557	20361.1
788.89	20348.9
789.223	20317.26
789.556	20205.63
789.888	20130.83
790.221	20076.14
790.554	19930.15
790.887	19924.73
791.219	19839.99
791.552	19861
791.884	19689.26
792.217	19598.86
792.549	19492.65
792.882	19470.5
793.214	19377.17
793.546	19416.04
793.879	19279.1
794.211	19188.03
794.543	19236.16
794.875	19113.9
795.207	19238.87
795.539	18923.4
795.871	19020.57
796.203	18881.82
796.535	18734.48
796.867	18724.54
797.198	18649.28
797.53	18675.05
797.862	18535.84
798.193	18517.54
798.525	18401.61
798.856	18456.97
799.188	18175.85
799.519	18118.68
799.85	18089.07
800.182	18104.89
800.513	18139.92
800.844	17866.48
801.175	17963.65
801.506	17972.69
801.837	17816.99
802.168	17819.02
802.499	17789.19
802.83	17669.65
803.161	17614.28
803.491	17630.78
803.822	17614.06
804.153	17539.03
804.483	17295.65
804.814	17374.29
805.145	17380.62
805.475	17298.81
805.805	17174.75
806.136	17162.32
806.466	17130.45
806.796	17239.83
807.126	17076.67
807.457	16925.26
807.787	16960.97
808.117	16892.95
808.447	16941.76
808.777	16816.79
809.107	16762.33
809.436	16659.05
809.766	16610.24
810.096	16609.79
810.426	16493.18
810.755	16592.39
811.085	16489.57
811.414	16521.88
811.744	16353.75
812.073	16334.77
812.403	16301.32
812.732	16175
813.061	16148.11
813.39	16135.23
813.719	16119.18
814.049	16167.77
814.378	16074.44
814.707	16000.54
815.036	15986.98
815.365	15943.37
815.693	15800.09
816.022	15804.39
816.351	15759.19
816.68	15626.99
817.008	15678.29
817.337	15574.11
817.665	15515.58
817.994	15567.78
818.322	15548.12
818.651	15441.68
818.979	15514.68
819.307	15434
819.636	15469.48
819.964	15317.39
820.292	15357.84
820.62	15380.22
820.948	15299.77
821.276	15293.44
821.604	15307.9
821.932	15357.17
822.259	15299.09
822.587	15216.38
822.915	15183.61
823.243	15250.28
823.57	15280.78
823.898	15250.28
824.225	15156.27
824.553	15274.01
824.88	15194.46
825.207	15188.58
825.535	15177.74
825.862	15306.55
826.189	15158.3
826.516	15249.6
826.843	15228.36
827.17	15208.02
827.497	15254.57
827.824	15183.16
828.151	15328.02
828.478	15208.47
828.805	15268.81
829.131	15115.59
829.458	15093.67
829.785	15098.19
830.111	15145.42
830.438	15191.97
830.764	15175.48
831.09	15156.49
831.417	15030.62
831.743	15212.76
832.069	15146.55
832.395	15093.22
832.722	15026.1
833.048	14981.36
833.374	14990.4
833.7	14925.77
834.026	15030.62
834.351	14986.78
834.677	14996.72
835.003	15081.24
835.329	14922.38
835.654	14964.18
835.98	14966.22
836.306	14933.9
836.631	14902.26
836.956	14873.11
837.282	14904.07
837.607	14772.32
837.932	14746.34
838.258	14768.26
838.583	14784.75
838.908	14666.11
839.233	14654.59
839.558	14669.73
839.883	14599.9
840.208	14619.56
840.533	14507.02
840.858	14569.16
841.182	14607.13
841.507	14542.95
841.832	14396.06
842.156	14391.99
842.481	14434.25
842.805	14422.28
843.13	14309.96
843.454	14347.93
843.778	14209.85
844.103	14150.64
844.427	14199.01
844.751	14076.3
845.075	14117.43
845.399	14048.27
845.723	14059.57
846.047	14019.8
846.371	13934.83
846.695	13955.62
847.019	13848.51
847.343	13759.47
847.666	13716.76
847.99	13692.8
848.313	13652.8
848.637	13448.52
848.96	13521.96
849.284	13434.28
849.607	13384.34
849.931	13385.02
850.254	13249.65
850.577	13188.41
850.9	13154.96
851.223	13045.82
851.546	12953.16
851.869	12973.95
852.192	12966.72
852.515	12854.63
852.838	12867.51
853.161	12842.66
853.483	12755.88
853.806	12690.8
854.129	12718.37
854.451	12624.36
854.774	12559.05
855.096	12510.24
855.419	12574.19
855.741	12484.47
856.063	12469.79
856.385	12428.88
856.708	12469.33
857.03	12255.55
857.352	12349.79
857.674	12199.74
857.996	12233.41
858.318	12078.83
858.64	12184.37
858.961	12145.5
859.283	12138.04
859.605	11933.75
859.926	11995
860.248	12012.62
860.57	11897.37
860.891	11961.78
861.212	11883.13
861.534	11822.57
861.855	11814.66
862.176	11762.69
862.498	11752.52
862.819	11739.86
863.14	11666.87
863.461	11654.67
863.782	11650.15
864.103	11677.94
864.424	11685.62
864.745	11691.73
865.065	11550.49
865.386	11549.36
865.707	11517.49
866.027	11584.16
866.348	11421.23
866.668	11527.66
866.989	11531.5
867.309	11343.26
867.63	11459.42
867.95	11398.85
868.27	11316.6
868.59	11358.63
868.91	11328.8
869.23	11335.58
869.55	11258.97
869.87	11322.92
870.19	11321.79
870.51	11230.27
870.83	11311.62
871.15	11183.72
871.469	11235.69
871.789	11232.3
872.109	11169.48
872.428	11069.37
872.748	11134.9
873.067	11076.6
873.386	11072.99
873.706	10977.62
874.025	11000.67
874.344	10926.55
874.663	10956.15
874.982	10940.56
875.301	10904.18
875.62	10911.41
875.939	10820.56
876.258	10929.94
876.577	10898.98
876.896	10847.68
877.214	10849.26
877.533	10808.13
877.852	10792.54
878.17	10806.78
878.489	10799.77
878.807	10778.3
879.125	10717.74
879.444	10741.92
879.762	10686.56
880.08	10735.82
880.398	10655.14
880.716	10709.83
881.034	10661.02
881.352	10570.63
881.67	10605.65
881.988	10548.03
882.306	10532.43
882.624	10487.92
882.941	10503.51
883.259	10409.73
883.577	10485.88
883.894	10421.48
884.212	10393.23
884.529	10430.97
884.846	10362.27
885.164	10267.36
885.481	10314.59
885.798	10352.55
886.115	10257.41
886.432	10225.78
886.75	10144.42
887.067	10209.96
887.383	10057.19
887.7	10126.12
888.017	10121.6
888.334	10097.42
888.651	10050.64
888.967	10051.32
889.284	9981.04
889.6	9964.77
889.917	9880.25
890.233	9885.22
890.55	9891.1
890.866	9883.86
891.182	9802.96
891.498	9761.83
891.815	9710.08
892.131	9705.79
892.447	9698.11
892.763	9701.27
893.079	9633.7
893.395	9629.86
893.71	9652.01
894.026	9645.45
894.342	9550.09
894.657	9519.13
894.973	9542.63
895.289	9462.86
895.604	9497.21
895.92	9375.86
896.235	9306.7
896.55	9367.49
896.865	9334.27
897.181	9364.33
897.496	9291.56
897.811	9227.38
898.126	9144.67
898.441	9179.93
898.756	9136.77
899.071	9139.25
899.386	9070.55
899.7	8955.98
900.015	8943.32
900.33	8837.34
900.644	8884.79
900.959	8960.72
901.273	8857.9
901.588	8826.04
901.902	8777.9
902.216	8758.24
902.531	8725.48
902.845	8733.39
903.159	8666.27
903.473	8644.8
903.787	8601.41
904.101	8502.21
904.415	8628.08
904.729	8551.02
905.042	8418.82
905.356	8445.94
905.67	8451.59
905.984	8449.1
906.297	8392.15
906.611	8344.24
906.924	8299.73
907.237	8281.42
907.551	8197.58
907.864	8263.12
908.177	8197.58
908.491	8168.43
908.804	8073.74
909.117	8094.98
909.43	8015.44
909.743	7988.32
910.056	7944.93
910.368	7919.62
910.681	7902.22
910.994	7885.95
911.307	7862.9
911.619	7765.95
911.932	7775.9
912.244	7759.4
912.557	7697.03
912.869	7687.09
913.181	7669.46
913.494	7631.72
913.806	7569.8
914.118	7504.94
914.43	7519.63
914.742	7516.24
915.054	7491.16
915.366	7449.58
915.678	7379.3
915.99	7344.5
916.302	7335.68
916.613	7253.65
916.925	7311.05
917.236	7261.33
917.548	7251.17
917.859	7187.44
918.171	7143.15
918.482	7130.04
918.794	7087.1
919.105	7043.04
919.416	7027.44
919.727	7029.25
920.038	6958.52
920.349	6939.76
920.66	6881.01
920.971	6920.55
921.282	6921.46
921.593	6869.71
921.903	6748.13
922.214	6801.23
922.525	6754.68
922.835	6664.51
923.146	6610.05
923.456	6640.33
923.767	6633.1
924.077	6590.39
924.387	6556.04
924.697	6511.3
925.008	6491.86
925.318	6498.87
925.628	6483.05
925.938	6485.99
926.248	6421.13
926.558	6385.43
926.867	6363.28
927.177	6280.12
927.487	6283.28
927.796	6241.25
928.106	6273.56
928.416	6207.8
928.725	6222.94
929.034	6157.63
929.344	6211.19
929.653	6112.44
929.962	6117.41
930.271	6032.44
930.581	6053.91
930.89	6007.36
931.199	5977.53
931.508	5965.78
931.817	5945.21
932.125	5869.05
932.434	5874.93
932.743	5857.98
933.051	5791.09
933.36	5817.3
933.669	5785.44
933.977	5793.8
934.286	5744.99
934.594	5698.89
934.902	5673.81
935.21	5643.3
935.519	5629.06
935.827	5634.03
936.135	5573.02
936.443	5527.82
936.751	5533.47
937.059	5549.06
937.367	5480.36
937.674	5505.67
937.982	5485.34
938.29	5402.85
938.597	5421.61
938.905	5374.38
939.213	5332.8
939.52	5318.79
939.827	5354.72
940.135	5234.04
940.442	5290.99
940.749	5246.92
941.056	5271.33
941.363	5191.56
941.67	5213.25
941.977	5147.04
942.284	5110.2
942.591	5138
942.898	5054.16
943.205	5091
943.511	5038.34
943.818	5041.73
944.125	4988.4
944.431	4980.94
944.738	4995.18
945.044	4943.43
945.35	4917.89
945.657	4905.01
945.963	4888.97
946.269	4860.72
946.575	4898.68
946.881	4823.66
947.187	4830.44
947.493	4757.67
947.799	4777.56
948.105	4694.62
948.41	4688.52
948.716	4680.16
949.022	4712.7
949.327	4651.01
949.633	4627.05
949.938	4593.16
950.244	4637.9
950.549	4588.64
950.854	4524.23
951.16	4531.91
951.465	4476.32
951.77	4467.96
952.075	4437.23
952.38	4486.04
952.685	4402.43
952.99	4391.13
953.294	4391.81
953.599	4349.09
953.904	4373.73
954.209	4332.15
954.513	4303.22
954.818	4288.98
955.122	4255.31
955.426	4255.99
955.731	4269.32
956.035	4220.51
956.339	4202.21
956.643	4204.01
956.948	4142.32
957.252	4140.96
957.556	4161.08
957.86	4120.4
958.163	4077.01
958.467	4053.96
958.771	4075.2
959.075	4063
959.378	4011.7
959.682	4009.44
959.985	3993.85
960.289	3961.08
960.592	3946.39
960.896	3992.27
961.199	3906.62
961.502	3945.94
961.805	3914.98
962.108	3840.18
962.411	3856.9
962.714	3828.66
963.017	3818.26
963.32	3764.25
963.623	3797.02
963.926	3771.48
964.228	3792.5
964.531	3735.33
964.833	3714.99
965.136	3684.93
965.438	3682.22
965.741	3669.56
966.043	3685.61
966.345	3606.97
966.648	3618.94
966.95	3630.7
967.252	3586.63
967.554	3594.31
967.856	3533.3
968.158	3547.53
968.46	3523.58
968.761	3503.69
969.063	3477.48
969.365	3475.67
969.666	3469.57
969.968	3479.29
970.269	3458.04
970.571	3442.45
970.872	3404.94
971.174	3387.31
971.475	3347.31
971.776	3333.3
972.077	3340.31
972.378	3334.88
972.679	3309.57
972.98	3296.92
973.281	3285.85
973.582	3329.91
973.883	3247.88
974.183	3258.05
974.484	3241.33
974.785	3223.25
975.085	3174.89
975.386	3187.09
975.686	3180.99
975.986	3161.1
976.287	3133.31
976.587	3112.29
976.887	3108.22
977.187	3121.33
977.487	3101.22
977.787	3076.81
978.087	3068.68
978.387	3037.04
978.687	3078.85
978.987	3027.55
979.286	3009.47
979.586	3004.27
979.885	2970.15
980.185	3005.18
980.484	2980.09
980.784	2976.93
981.083	2925.63
981.382	2954.33
981.682	2902.58
981.981	2908
982.28	2889.25
982.579	2813.32
982.878	2898.51
983.177	2880.43
983.475	2856.03
983.774	2825.52
984.073	2806.99
984.372	2784.84
984.67	2804.28
984.969	2783.71
985.267	2745.52
985.566	2750.72
985.864	2731.28
986.162	2723.6
986.461	2687.44
986.759	2675.01
987.057	2652.42
987.355	2676.14
987.653	2626.88
987.951	2623.26
988.249	2614
988.547	2652.19
988.844	2612.87
989.142	2618.97
989.44	2566.32
989.737	2560.22
990.035	2538.52
990.332	2562.02
990.63	2538.52
990.927	2516.37
991.224	2498.07
991.521	2512.76
991.819	2495.81
992.116	2490.61
992.413	2465.53
992.71	2452.65
993.006	2471.4
993.303	2406.55
993.6	2450.39
993.897	2416.72
994.193	2413.33
994.49	2420.11
994.787	2408.35
995.083	2371.97
995.379	2356.6
995.676	2351.63
995.972	2322.26
996.268	2353.67
996.565	2310.05
996.861	2329.26
997.157	2314.12
997.453	2249.49
997.749	2272.31
998.044	2259.43
998.34	2261.92
998.636	2243.84
998.932	2236.61
999.227	2216.72
999.523	2204.97
999.818	2194.12
1000.114	2187.57
1000.409	2157.74
1000.704	2180.34
1001	2139.66
1001.295	2128.14
1001.59	2114.58
1001.885	2122.26
1002.18	2092.88
1002.475	2116.61
1002.77	2052.66
1003.065	2053.34
1003.359	2021.92
1003.654	2044.52
1003.949	2054.69
1004.243	2035.26
1004.538	2053.79
1004.832	2008.82
1005.127	1991.87
1005.421	2000.23
1005.715	1990.06
1006.009	1930.4
1006.304	1912.32
1006.598	1951.87
1006.892	1904.87
1007.186	1922.94
1007.48	1915.49
1007.773	1862.83
1008.067	1891.31
1008.361	1892.21
1008.655	1862.61
1008.948	1847.01
1009.242	1840.91
1009.535	1823.96
1009.829	1805.43
1010.122	1818.77
1010.415	1784.87
1010.708	1755.72
1011.001	1769.28
1011.295	1768.82
1011.588	1775.38
1011.881	1729.05
1012.173	1729.5
1012.466	1740.12
1012.759	1720.01
1013.052	1696.96
1013.344	1714.14
1013.637	1717.75
1013.93	1666.23
1014.222	1639.34
1014.514	1666.45
1014.807	1649.05
1015.099	1623.29
1015.391	1631.2
1015.683	1641.37
1015.976	1617.42
1016.268	1627.58
1016.56	1570.18
1016.851	1583.52
1017.143	1590.52
1017.435	1592.56
1017.727	1534.71
1018.018	1555.95
1018.31	1530.41
1018.602	1515.5
1018.893	1498.32
1019.185	1508.27
1019.476	1483.86
1019.767	1486.35
1020.058	1464.88
1020.35	1485.67
1020.641	1437.98
1020.932	1442.96
1021.223	1423.3
1021.514	1407.7
1021.804	1410.64
1022.095	1402.05
1022.386	1415.16
1022.677	1360.47
1022.967	1388.72
1023.258	1394.37
1023.548	1364.99
1023.839	1352.56
1024.129	1355.5
1024.419	1356.18
1024.709	1348.04
1025	1329.06
1025.29	1321.38
1025.58	1308.5
1025.87	1290.87
1026.16	1273.02
1026.449	1274.15
1026.739	1280.02
1027.029	1270.53
1027.319	1257.2
1027.608	1267.37
1027.898	1251.55
1028.187	1237.31
1028.477	1214.04
1028.766	1185.79
1029.055	1210.42
1029.344	1184.88
1029.634	1183.3
1029.923	1185.56
1030.212	1181.49
1030.501	1145.79
1030.79	1165.45
1031.078	1173.81
1031.367	1144.66
1031.656	1148.95
1031.945	1143.76
1032.233	1112.12
1032.522	1148.5
1032.81	1093.36
1033.099	1111.89
1033.387	1097.65
1033.675	1110.31
1033.963	1085.23
1034.251	1064.44
1034.54	1085.68
1034.828	1035.51
1035.116	1081.38
1035.403	1049.29
1035.691	1029.86
1035.979	1036.19
1036.267	1022.4
1036.554	1018.11
1036.842	1023.31
1037.129	1005.45
1037.417	979.01
1037.704	989.18
1037.992	996.41
1038.279	989.63
1038.566	987.15
1038.853	987.15
1039.14	987.15
