Data from hue_200_FLMS001491_00040.txt Node
Date: Tue Feb 07 16:43:12 GMT 2017
User: dcchb
Spectrometer: FLMS00149
Trigger mode: 0
Integration Time (sec): 2.000000E-2
Scans to average: 10
Electric dark correction enabled: true
Nonlinearity correction enabled: false
Boxcar width: 0
XAxis mode: Wavelengths
Number of Pixels in Spectrum: 2048
>>>>>Begin Spectral Data<<<<<
341.393	-32.2
341.776	-32.2
342.16	-32.2
342.543	-59.32
342.927	-41.69
343.31	-76.5
343.693	-65.42
344.077	-65.42
344.46	-62.94
344.843	-54.57
345.226	-41.69
345.61	-47.34
345.993	-19.1
346.376	4.41
346.759	-4.63
347.142	25.88
347.525	54.12
347.908	60.68
348.291	85.76
348.674	99.55
349.057	107.23
349.44	114.46
349.823	144.06
350.206	159.66
350.588	188.81
350.971	222.71
351.354	235.81
351.737	239.88
352.119	264.51
352.502	252.31
352.884	265.19
353.267	289.6
353.65	311.97
354.032	305.64
354.414	308.81
354.797	307.68
355.179	318.3
355.562	325.53
355.944	323.49
356.326	339.09
356.709	328.24
357.091	339.54
357.473	344.74
357.855	354
358.238	338.64
358.62	326.21
359.002	356.26
359.384	334.79
359.766	326.88
360.148	339.77
360.53	354
360.912	325.53
361.294	342.93
361.676	340.89
362.057	320.33
362.439	311.07
362.821	335.02
363.203	347.67
363.584	322.14
363.966	339.77
364.348	332.08
364.729	334.34
365.111	345.19
365.493	331.86
365.874	315.13
366.256	315.36
366.637	315.36
367.019	304.96
367.4	322.59
367.781	323.27
368.163	332.76
368.544	317.84
368.925	304.29
369.306	318.07
369.688	299.99
370.069	340.22
370.45	317.39
370.831	319.2
371.212	326.21
371.593	309.26
371.974	329.14
372.355	315.58
372.736	318.75
373.117	334.34
373.498	319.88
373.879	330.5
374.26	302.03
374.641	340.67
375.021	342.25
375.402	299.77
375.783	333.89
376.163	344.51
376.544	326.88
376.925	317.39
377.305	320.78
377.686	324.62
378.066	329.6
378.447	328.69
378.827	337.73
379.208	316.04
379.588	346.09
379.968	327.11
380.349	343.38
380.729	328.24
381.109	334.79
381.489	322.36
381.87	350.84
382.25	325.75
382.63	338.64
383.01	342.02
383.39	351.97
383.77	354.68
384.15	337.05
384.53	355.58
384.91	357.39
385.29	360.78
385.67	349.93
386.049	347.9
386.429	353.32
386.809	353.55
387.189	390.39
387.568	366.43
387.948	359.88
388.328	363.04
388.707	383.83
389.087	375.7
389.466	372.31
389.846	361.69
390.225	381.8
390.605	358.3
390.984	360.56
391.363	378.41
391.743	384.96
392.122	382.93
392.501	376.37
392.881	389.03
393.26	399.42
393.639	393.77
394.018	389.26
394.397	410.27
394.776	408.24
395.155	392.19
395.534	396.26
395.913	394
396.292	417.5
396.671	404.62
397.05	391.97
397.429	399.42
397.808	406.43
398.186	429.71
398.565	434
398.944	424.28
399.323	458.41
399.701	415.47
400.08	420.21
400.458	429.93
400.837	452.08
401.215	441.01
401.594	452.53
401.972	432.19
402.351	438.07
402.729	469.93
403.107	458.63
403.486	460.67
403.864	468.58
404.242	469.71
404.62	483.04
404.999	475.13
405.377	477.84
405.755	475.35
406.133	488.01
406.511	499.08
406.889	505.86
407.267	499.08
407.645	497.28
408.023	509.25
408.401	522.81
408.779	518.74
409.156	563.94
409.534	534.11
409.912	567.1
410.29	572.53
410.667	562.36
411.045	581.34
411.422	613.43
411.8	599.19
412.178	607.33
412.555	623.83
412.933	637.38
413.31	621.57
413.687	680.1
414.065	671.96
414.442	653.66
414.819	676.03
415.197	688.91
415.574	682.13
415.951	701.79
416.328	727.78
416.705	722.35
417.082	745.4
417.46	760.54
417.837	754.67
418.214	772.75
418.591	790.83
418.967	791.96
419.344	807.78
419.721	795.12
420.098	834.89
420.475	830.83
420.852	810.71
421.228	868.79
421.605	892.29
421.982	887.77
422.358	919.41
422.735	918.28
423.111	939.07
423.488	962.8
423.864	980.65
424.241	1028.56
424.617	1015.45
424.994	1027.2
425.37	1051.84
425.746	1053.19
426.123	1063.59
426.499	1095.23
426.875	1094.55
427.251	1102.91
427.627	1165.73
428.003	1189.23
428.379	1163.25
428.756	1175.45
429.132	1212.28
429.507	1245.05
429.883	1263.58
430.259	1256.13
430.635	1269.91
431.011	1253.41
431.387	1300.42
431.763	1341.77
432.138	1351.72
432.514	1358.04
432.89	1393.52
433.265	1414.99
433.641	1444.59
434.016	1476.68
434.392	1478.94
434.767	1518.04
435.143	1561.65
435.518	1554.65
435.894	1599.39
436.269	1614.99
436.644	1646.62
437.02	1681.88
437.395	1692.05
437.77	1724.59
438.145	1774.76
438.52	1812.27
438.895	1812.72
439.271	1855.88
439.646	1905.83
440.021	1934.3
440.395	1907.86
440.77	1908.31
441.145	1970.68
441.52	2018.82
441.895	2022.66
442.27	2054.52
442.645	2054.3
443.019	2087.74
443.394	2159.83
443.769	2138.36
444.143	2137.23
444.518	2233.5
444.892	2242.31
445.267	2222.43
445.641	2276.66
446.016	2285.25
446.39	2272.6
446.764	2314.85
447.139	2290.45
447.513	2339.94
447.887	2343.78
448.262	2357.79
448.636	2397.56
449.01	2425.36
449.384	2431.69
449.758	2472.82
450.132	2501.97
450.506	2523.44
450.88	2522.53
451.254	2564.79
451.628	2542.19
452.002	2586.03
452.376	2631.46
452.75	2658.35
453.123	2634.39
453.497	2710.55
453.871	2745.8
454.244	2803.88
454.618	2782.64
454.992	2872.35
455.365	2849.76
455.739	2891.11
456.112	2973.37
456.486	2962.07
456.859	3021.95
457.232	3034.61
457.606	3055.4
457.979	3108.28
458.352	3164.32
458.725	3194.83
459.099	3232.34
459.472	3256.3
459.845	3305.79
460.218	3317.09
460.591	3364.09
460.964	3376.52
461.337	3472.79
461.71	3507.59
462.083	3535.84
462.456	3591.21
462.829	3562.05
463.201	3645.89
463.574	3647.47
463.947	3711.43
464.32	3811.54
464.692	3844.08
465.065	3867.58
465.438	3906
465.81	3988.71
466.183	4030.06
466.555	4120.46
466.928	4077.75
467.3	4109.84
467.672	4172.66
468.045	4249.04
468.417	4305.54
468.789	4322.26
469.161	4376.04
469.534	4423.5
469.906	4562.7
470.278	4544.63
470.65	4590.5
471.022	4713.66
471.394	4778.74
471.766	4839.31
472.138	4846.09
472.51	4938.74
472.882	5086.31
473.253	5091.96
473.625	5151.39
473.997	5244.95
474.369	5293.08
474.74	5341.89
475.112	5437.94
475.484	5532.17
475.855	5605.39
476.227	5645.39
476.598	5845.16
476.97	5837.93
477.341	5932.84
477.713	6034.53
478.084	6053.97
478.455	6236.11
478.827	6281.98
479.198	6453.05
479.569	6472.03
479.94	6682.88
480.311	6681.75
480.682	6843.1
481.053	7034.05
481.424	7051.9
481.795	7123.54
482.166	7216.87
482.537	7324.89
482.908	7404.21
483.279	7497.99
483.65	7647.6
484.021	7800.36
484.391	7893.92
484.762	7932.56
485.133	7955.16
485.503	8095.04
485.874	8180.01
486.244	8335.94
486.615	8443.96
486.985	8581.13
487.356	8683.95
487.726	8729.15
488.097	8885.98
488.467	8918.07
488.837	9139.53
489.207	9169.82
489.578	9287.33
489.948	9395.57
490.318	9498.17
490.688	9493.87
491.058	9664.72
491.428	9776.35
491.798	9807.09
492.168	9997.14
492.538	10095.89
492.908	10118.72
493.278	10238.04
493.648	10231.48
494.017	10357.81
494.387	10468.09
494.757	10483.23
495.126	10640.74
495.496	10541.08
495.866	10725.48
496.235	10818.81
496.605	10960.5
496.974	10916.66
497.344	10989.43
497.713	11097.45
498.082	11089.99
498.452	11180.84
498.821	11206.82
499.19	11222.87
499.559	11349.87
499.928	11392.13
500.298	11417.21
500.667	11580.15
501.036	11480.49
501.405	11528.17
501.774	11498.79
502.143	11628.06
502.512	11654.27
502.88	11703.08
503.249	11712.57
503.618	11783.76
503.987	11802.06
504.356	11876.64
504.724	11896.07
505.093	11897.43
505.462	11958.22
505.83	12083.64
506.199	12067.14
506.567	12252.9
506.936	12166.8
507.304	12217.42
507.672	12240.92
508.041	12182.62
508.409	12360.24
508.777	12352.78
509.145	12429.16
509.514	12427.36
509.882	12451.54
510.25	12508.71
510.618	12505.32
510.986	12558.65
511.354	12609.27
511.722	12670.97
512.09	12679.33
512.458	12680.68
512.826	12730.63
513.193	12772.43
513.561	12710.74
513.929	12833.45
514.297	12851.3
514.664	12872.32
515.032	12874.12
515.4	12948.02
515.767	12948.02
516.135	12948.7
516.502	12821.7
516.869	13067.79
517.237	13119.32
517.604	13034.35
517.972	13050.17
518.339	13161.12
518.706	13061.92
519.073	13106.89
519.44	13080
519.808	13175.81
520.175	13200.44
520.542	13215.81
520.909	13244.28
521.276	13218.52
521.643	13172.2
522.009	13239.09
522.376	13308.69
522.743	13258.97
523.11	13393.43
523.477	13431.85
523.843	13428.91
524.21	13510.94
524.577	13547.78
524.943	13469.36
525.31	13589.36
525.676	13588
526.043	13645.63
526.409	13568.12
526.776	13661.45
527.142	13575.35
527.508	13613.31
527.874	13610.83
528.241	13709.81
528.607	13633.65
528.973	13635.01
529.339	13605.86
529.705	13629.13
530.071	13702.35
530.437	13616.93
530.803	13662.35
531.169	13718.17
531.535	13618.29
531.901	13557.04
532.267	13544.84
532.632	13637.27
532.998	13534.22
533.364	13605.63
533.73	13424.17
534.095	13593.65
534.461	13628.46
534.826	13408.12
535.192	13471.4
535.557	13456.26
535.923	13349.59
536.288	13416.71
536.653	13383.94
537.019	13318.18
537.384	13239.76
537.749	13295.81
538.114	13270.05
538.479	13221.46
538.845	13161.8
539.21	13152.54
539.575	13099.66
539.94	13043.61
540.305	13117.51
540.67	12935.59
541.034	12945.31
541.399	12967.46
541.764	12914.58
542.129	12864.41
542.494	12823.28
542.858	12869.83
543.223	12738.76
543.587	12763.85
543.952	12665.99
544.316	12672.55
544.681	12538.77
545.045	12505.55
545.41	12559.33
545.774	12525.66
546.138	12473.46
546.503	12490.63
546.867	12355.95
547.231	12434.81
547.595	12363.63
547.959	12331.99
548.324	12237.08
548.688	12179.91
549.052	12156.18
549.416	12150.98
549.779	12079.34
550.143	12044.77
550.507	12012.68
550.871	12047.93
551.235	11912.79
551.599	11918.9
551.962	11884.77
552.326	11906.69
552.689	11818.79
553.053	11703.08
553.417	11707.83
553.78	11781.72
554.143	11692.23
554.507	11720.71
554.87	11634.16
555.234	11667.6
555.597	11631.67
555.96	11619.47
556.323	11608.85
556.686	11479.13
557.05	11591.9
557.413	11545.57
557.776	11542.86
558.139	11569.07
558.502	11487.95
558.865	11419.47
559.228	11486.59
559.59	11433.03
559.953	11441.85
560.316	11452.02
560.679	11427.16
561.041	11494.27
561.404	11439.13
561.767	11487.04
562.129	11349.65
562.492	11433.48
562.854	11416.76
563.217	11389.64
563.579	11307.16
563.941	11469.64
564.304	11445.46
564.666	11412.69
565.028	11425.12
565.39	11402.98
565.753	11416.99
566.115	11509.41
566.477	11408.17
566.839	11470.77
567.201	11416.31
567.563	11505.35
567.925	11545.57
568.287	11471.9
568.648	11469.42
569.01	11510.54
569.372	11552.35
569.734	11533.37
570.095	11569.75
570.457	11598
570.819	11609.75
571.18	11475.07
571.542	11630.99
571.903	11600.94
572.265	11554.16
572.626	11561.84
572.987	11605.23
573.349	11563.42
573.71	11621.05
574.071	11576.31
574.432	11638.68
574.794	11708.96
575.155	11658.79
575.516	11575.63
575.877	11668.96
576.238	11629.41
576.599	11716.87
576.96	11672.57
577.32	11650.2
577.681	11741.73
578.042	11718.9
578.403	11722.52
578.763	11745.11
579.124	11741.73
579.485	11710.31
579.845	11737.66
580.206	11755.06
580.566	11736.08
580.927	11776.98
581.287	11866.02
581.648	11720.71
582.008	11738.79
582.368	11676.64
582.728	11758.45
583.089	11713.25
583.449	11678.9
583.809	11732.69
584.169	11727.94
584.529	11640.94
584.889	11694.49
585.249	11623.54
585.609	11675.06
585.969	11664.89
586.329	11647.49
586.688	11662.18
587.048	11691.56
587.408	11720.26
587.768	11630.54
588.127	11615.17
588.487	11602.75
588.846	11678.68
589.206	11582.63
589.565	11593.71
589.925	11632.35
590.284	11588.73
590.643	11665.79
591.003	11611.11
591.362	11653.82
591.721	11546.7
592.08	11598.45
592.44	11543.54
592.799	11598.45
593.158	11530.43
593.517	11568.62
593.876	11579.47
594.235	11552.58
594.593	11475.97
594.952	11573.37
595.311	11489.3
595.67	11541.73
596.029	11593.71
596.387	11541.73
596.746	11555.06
597.104	11474.39
597.463	11519.58
597.822	11525.23
598.18	11463.77
598.538	11447.5
598.897	11525.01
599.255	11478.46
599.613	11574.5
599.972	11561.16
600.33	11582.86
600.688	11481.84
601.046	11473.26
601.404	11532.01
601.762	11550.77
602.12	11640.26
602.478	11539.92
602.836	11509.41
603.194	11513.71
603.552	11534.72
603.91	11501.51
604.268	11558
604.625	11487.27
604.983	11549.87
605.341	11486.59
605.698	11497.89
606.056	11553.26
606.413	11490.43
606.771	11546.02
607.128	11499.02
607.485	11550.77
607.843	11510.54
608.2	11477.55
608.557	11501.96
608.914	11558.23
609.272	11574.5
609.629	11588.06
609.986	11611.11
610.343	11551.45
610.7	11597.55
611.057	11634.84
611.414	11670.31
611.771	11638.68
612.127	11651.11
612.484	11643.42
612.841	11714.38
613.198	11607.72
613.554	11645
613.911	11696.98
614.267	11665.79
614.624	11696.08
614.98	11633.03
615.337	11740.82
615.693	11714.61
616.05	11701.95
616.406	11834.6
616.762	11690.65
617.118	11725.45
617.475	11750.76
617.831	11724.78
618.187	11721.16
618.543	11771.78
618.899	11768.84
619.255	11824.66
619.611	11731.1
619.967	11888.39
620.323	11853.81
620.678	11852
621.034	11793.48
621.39	11779.69
621.746	11812.23
622.101	11894.94
622.457	11769.97
622.812	11799.58
623.168	11770.88
623.523	11835.06
623.879	11851.1
624.234	11786.47
624.589	11800.71
624.945	11769.07
625.3	11824.43
625.655	11769.75
626.01	11795.06
626.365	11783.76
626.72	11796.41
627.075	11762.74
627.43	11756.41
627.785	11670.31
628.14	11733.14
628.495	11782.4
628.85	11718.45
629.205	11712.12
629.559	11732.46
629.914	11655.4
630.269	11708.73
630.623	11677.77
630.978	11680.26
631.332	11666.47
631.687	11661.95
632.041	11624.21
632.396	11592.35
632.75	11558.68
633.104	11665.12
633.459	11588.51
633.813	11535.63
634.167	11556.19
634.521	11537.66
634.875	11574.5
635.229	11471.9
635.583	11453.15
635.937	11483.2
636.291	11398.23
636.645	11459.7
636.999	11384.22
637.352	11396.88
637.706	11448.4
638.06	11383.77
638.413	11379.02
638.767	11360.04
639.121	11410.89
639.474	11273.71
639.828	11252.47
640.181	11337.44
640.534	11256.77
640.888	11241.85
641.241	11226.48
641.594	11307.16
641.947	11213.6
642.301	11204.34
642.654	11266.03
643.007	11257.67
643.36	11263.77
643.713	11158.46
644.066	11271.91
644.419	11139.71
644.771	11101.06
645.124	11028.3
645.477	10969.99
645.83	10929.32
646.182	10915.98
646.535	10906.04
646.888	10883.67
647.24	10810
647.593	10790.11
647.945	10836.89
648.298	10699.94
648.65	10758.7
649.002	10680.06
649.355	10793.95
649.707	10803.44
650.059	10860.62
650.411	11005.7
650.763	11006.83
651.115	11073.72
651.467	11091.12
651.819	11069.2
652.171	11014.51
652.523	11054.06
652.875	11039.6
653.227	10975.64
653.578	11019.26
653.93	10944.46
654.282	10964.34
654.633	11008.86
654.985	11004.57
655.337	10945.81
655.688	11039.82
656.039	11092.25
656.391	10925.93
656.742	10978.13
657.094	11038.69
657.445	11023.78
657.796	10997.34
658.147	10985.13
658.498	10999.37
658.849	10984.23
659.2	11066.71
659.551	10976.77
659.902	11006.15
660.253	11124.11
660.604	10982.42
660.955	10924.35
661.306	11011.12
661.656	11050.22
662.007	11005.25
662.358	11038.69
662.708	11063.1
663.059	11059.48
663.409	10962.08
663.76	11048.18
664.11	11067.62
664.461	11061.07
664.811	11054.74
665.161	11073.72
665.511	11061.07
665.862	11078.69
666.212	11114.17
666.562	11087.51
666.912	11056.55
667.262	11115.07
667.612	11033.5
667.962	11062.65
668.312	11094.51
668.662	11112.82
669.011	11062.2
669.361	11026.49
669.711	11091.12
670.06	11017.45
670.41	11007.73
670.76	11022.42
671.109	11036.21
671.459	11028.75
671.808	10928.41
672.157	10974.06
672.507	10934.51
672.856	10973.84
673.205	10987.17
673.554	10936.1
673.904	10918.7
674.253	10909.2
674.602	10955.53
674.951	10755.76
675.3	10784.01
675.649	10914.63
675.998	10875.31
676.346	10862.65
676.695	10867.85
677.044	10745.14
677.393	10865.14
677.741	10806.38
678.09	10831.47
678.438	10764.8
678.787	10792.15
679.135	10819.26
679.484	10707.4
679.832	10788.98
680.181	10673.28
680.529	10686.39
680.877	10655.43
681.225	10704.46
681.573	10696.1
681.922	10660.62
682.27	10567.29
682.618	10630.79
682.966	10536.11
683.314	10609.55
683.661	10531.81
684.009	10518.03
684.357	10472.15
684.705	10504.47
685.053	10460.4
685.4	10466.96
685.748	10373.4
686.095	10418.14
686.443	10368.2
686.79	10304.7
687.138	10374.3
687.485	10341.31
687.832	10272.61
688.18	10257.47
688.527	10170.69
688.874	10197.58
689.221	10189.22
689.568	10163.46
689.915	10130.92
690.262	10092.05
690.609	10074.88
690.956	10023.8
691.303	9955.33
691.65	9976.57
691.997	9913.3
692.344	9869.23
692.69	9859.29
693.037	9853.41
693.383	9715.79
693.73	9805.05
694.077	9744.04
694.423	9700.87
694.769	9723.47
695.116	9617.04
695.462	9583.82
695.808	9576.36
696.155	9504.95
696.501	9462.69
696.847	9462.24
697.193	9368.23
697.539	9408.68
697.885	9345.18
698.231	9316.25
698.577	9315.35
698.923	9312.86
699.269	9208.91
699.614	9156.03
699.96	9158.74
700.306	9204.84
700.651	9088.24
700.997	9099.53
701.342	9050.04
701.688	9045.52
702.033	9023.38
702.379	9004.62
702.724	8951.52
703.069	8907.22
703.415	8820.22
703.76	8905.42
704.105	8854.34
704.45	8795.36
704.795	8809.37
705.14	8705.42
705.485	8730.5
705.83	8612.09
706.175	8636.27
706.52	8547.23
706.865	8560.34
707.209	8557.63
707.554	8565.54
707.899	8559.66
708.243	8497.29
708.588	8458.87
708.932	8436.95
709.277	8400.34
709.621	8420.68
709.966	8361.93
710.31	8425.43
710.654	8229.73
710.998	8280.35
711.342	8293.45
711.687	8233.34
712.031	8257.75
712.375	8220.01
712.719	8221.37
713.063	8170.75
713.407	8212.78
713.75	8175.94
714.094	8116.96
714.438	8108.83
714.782	8087.81
715.125	8087.13
715.469	8089.39
715.812	7996.74
716.156	7996.06
716.499	8019.34
716.843	8028.83
717.186	7923.97
717.53	7973.46
717.873	8031.09
718.216	7975.5
718.559	7916.29
718.902	7891.2
719.246	7900.7
719.589	7848.72
719.932	7839
720.275	7857.99
720.617	7817.76
720.96	7844.2
721.303	7802.85
721.646	7790.87
721.989	7769.63
722.331	7837.87
722.674	7845.56
723.016	7781.38
723.359	7750.42
723.701	7835.39
724.044	7715.84
724.386	7720.81
724.729	7702.51
725.071	7776.18
725.413	7702.28
725.755	7739.8
726.097	7695.28
726.439	7665.9
726.782	7747.25
727.124	7682.62
727.465	7744.99
727.807	7660.93
728.149	7687.14
728.491	7678.56
728.833	7647.6
729.175	7625.22
729.516	7675.62
729.858	7665.9
730.199	7718.1
730.541	7614.15
730.882	7628.84
731.224	7687.14
731.565	7612.79
731.906	7640.14
732.248	7669.74
732.589	7623.87
732.93	7641.72
733.271	7595.85
733.612	7627.26
733.953	7642.4
734.294	7604.88
734.635	7622.74
734.976	7646.69
735.317	7585.68
735.658	7607.37
735.999	7638.1
736.339	7601.27
736.68	7705
737.021	7715.16
737.361	7558.33
737.702	7667.26
738.042	7688.27
738.383	7639.46
738.723	7763.07
739.063	7698.22
739.404	7698.22
739.744	7709.29
740.084	7614.83
740.424	7669.52
740.764	7664.54
741.104	7729.18
741.444	7736.41
741.784	7691.44
742.124	7761.94
742.464	7777.99
742.804	7744.09
743.143	7850.98
743.483	7855.05
743.823	7865.22
744.162	7873.58
744.502	7882.84
744.841	7872.67
745.181	7938.89
745.52	7958.32
745.86	8017.98
746.199	8050.3
746.538	8062.95
746.877	8151.54
747.216	8211.65
747.556	8216.39
747.895	8287.8
748.234	8316.05
748.573	8349.95
748.911	8425.43
749.25	8445.54
749.589	8443.28
749.928	8593.11
750.267	8587.91
750.605	8709.71
750.944	8816.6
751.283	8875.13
751.621	8953.32
751.96	9021.8
752.298	9121.23
752.636	9267.21
752.975	9275.12
753.313	9380.66
753.651	9498.62
753.989	9622.46
754.327	9667.2
754.666	9800.76
755.004	9984.48
755.342	10155.33
755.679	10209.34
756.017	10326.17
756.355	10482.55
756.693	10627.63
757.031	10818.36
757.368	10910.33
757.706	11090.67
758.044	11227.39
758.381	11370.66
758.719	11565.46
759.056	11717.09
759.394	11932.23
759.731	12003.87
760.068	12199.11
760.405	12379
760.743	12494.47
761.08	12703.73
761.417	12928.59
761.754	13093.33
762.091	13265.3
762.428	13446.31
762.765	13472.53
763.102	13855.34
763.438	13985.51
763.775	14139.63
764.112	14334.2
764.449	14686.51
764.785	14639.73
765.122	14788.88
765.458	14963.56
765.795	15137.79
766.131	15351.57
766.467	15510.21
766.804	15631.34
767.14	15745.91
767.476	16002.4
767.812	16138.9
768.148	16380.7
768.485	16417.76
768.821	16526.46
769.157	16690.52
769.492	16850.74
769.828	17081.25
770.164	17083.73
770.5	17189.27
770.836	17434.91
771.171	17445.3
771.507	17619.99
771.842	17592.19
772.178	17715.81
772.513	17915.35
772.849	17998.96
773.184	18062.69
773.519	18231.27
773.855	18152.4
774.19	18290.93
774.525	18348.56
774.86	18544.48
775.195	18581.09
775.53	18659.06
775.865	18691.37
776.2	18732.73
776.535	18771.14
776.87	18753.29
777.205	18857.02
777.539	18890.24
777.874	19088.65
778.209	18906.73
778.543	19005.49
778.878	19007.75
779.212	19121.64
779.547	19103.79
779.881	19355.54
780.215	19093.17
780.55	19323.45
780.884	19253.62
781.218	19256.1
781.552	19374.29
781.886	19369.1
782.22	19320.73
782.554	19234.18
782.888	19308.76
783.222	19245.03
783.556	19173.85
783.889	19230.57
784.223	19246.84
784.557	19184.47
784.89	19202.77
785.224	19166.84
785.557	19188.08
785.891	19149.67
786.224	19214.75
786.558	19103.34
786.891	19071.7
787.224	19077.13
787.557	19079.16
787.891	19165.48
788.224	19191.47
788.557	19210.91
788.89	19070.35
789.223	19098.82
789.556	19071.02
789.888	18965.26
790.221	18954.64
790.554	18828.54
790.887	18872.84
791.219	18824.25
791.552	18761.88
791.884	18770.24
792.217	18769.79
792.549	18770.92
792.882	18746.96
793.214	18661.32
793.546	18616.35
793.879	18735.44
794.211	18520.3
794.543	18659.51
794.875	18500.87
795.207	18678.04
795.539	18492.51
795.871	18493.64
796.203	18320.08
796.535	18261.1
796.867	18297.03
797.198	18231.95
797.53	18282.8
797.862	18088.68
798.193	18145.62
798.525	18090.03
798.856	18109.92
799.188	17942.92
799.519	17973.43
799.85	17791.51
800.182	17849.14
800.513	17931.62
800.844	17843.03
801.175	17809.81
801.506	17807.33
801.837	17738.4
802.168	17814.56
802.499	17684.85
802.83	17667.9
803.161	17622.93
803.491	17510.84
803.822	17655.02
804.153	17467.9
804.483	17319.21
804.814	17340.45
805.145	17363.05
805.475	17377.96
805.805	17318.08
806.136	17251.86
806.466	17258.87
806.796	17161.02
807.126	17116.5
807.457	16992.21
807.787	16999.89
808.117	16978.42
808.447	16900.69
808.777	16974.81
809.107	16904.98
809.436	16848.94
809.766	16836.05
810.096	16776.85
810.426	16752.44
810.755	16745.66
811.085	16745.89
811.414	16743.85
811.744	16516.51
812.073	16642.16
812.403	16559.45
812.732	16599.68
813.061	16448.04
813.39	16330.76
813.719	16422.73
814.049	16455.27
814.378	16420.47
814.707	16322.62
815.036	16285.79
815.365	16233.36
815.693	16081.95
816.022	16163.3
816.351	16057.54
816.68	16026.81
817.008	16049.18
817.337	15948.62
817.665	15864.55
817.994	15971.44
818.322	15988.85
818.651	15800.6
818.979	15768.96
819.307	15828.85
819.636	15793.37
819.964	15755.86
820.292	15803.54
820.62	15852.58
820.948	15795.86
821.276	15712.47
821.604	15770.09
821.932	15786.82
822.259	15766.7
822.587	15740.94
822.915	15638.57
823.243	15760.83
823.57	15654.16
823.898	15718.34
824.225	15629.98
824.553	15717.44
824.88	15689.87
825.207	15789.3
825.535	15678.57
825.862	15741.17
826.189	15635.63
826.516	15716.99
826.843	15788.4
827.17	15779.36
827.497	15805.57
827.824	15748.17
828.151	15806.7
828.478	15696.42
828.805	15802.64
829.131	15854.84
829.458	15822.3
829.785	15708.17
830.111	15684.9
830.438	15866.14
830.764	15862.07
831.09	15741.62
831.417	15706.37
831.743	15849.87
832.069	15843.99
832.395	15698.23
832.722	15773.48
833.048	15624.56
833.374	15762.18
833.7	15656.88
834.026	15637.67
834.351	15712.02
834.677	15712.47
835.003	15723.77
835.329	15612.81
835.654	15625.01
835.98	15607.84
836.306	15592.92
836.631	15511.12
836.956	15565.58
837.282	15491.46
837.607	15495.52
837.932	15445.58
838.258	15555.86
838.583	15432.02
838.908	15377.11
839.233	15384.12
839.558	15357.22
839.883	15374.85
840.208	15281.52
840.533	15300.05
840.858	15254.63
841.182	15277.68
841.507	15235.64
841.832	15178.24
842.156	15123.78
842.481	15047.4
842.805	15140.05
843.13	15093.05
843.454	14992.04
843.778	14940.96
844.103	14980.51
844.427	14910
844.751	14861.64
845.075	14784.81
845.399	14819.61
845.723	14701.65
846.047	14752.72
846.371	14639.5
846.695	14675.89
847.019	14503.91
847.343	14429.34
847.666	14395.21
847.99	14374.2
848.313	14389.34
848.637	14225.73
848.96	14303.24
849.284	14207.2
849.607	14085.17
849.931	13998.84
850.254	13926.3
850.577	13899.41
850.9	13833.87
851.223	13810.6
851.546	13786.42
851.869	13644.05
852.192	13678.17
852.515	13656.48
852.838	13508.23
853.161	13527.21
853.483	13444.28
853.806	13415.13
854.129	13338.07
854.451	13341.01
854.774	13268.69
855.096	13249.71
855.419	13246.32
855.741	13118.64
856.063	13085.19
856.385	13025.99
856.708	12992.99
857.03	12922.71
857.352	12930.39
857.674	12867.8
857.996	12865.99
858.318	12849.72
858.64	12834.8
858.961	12684.3
859.283	12725.88
859.605	12668.71
859.926	12740.57
860.248	12661.7
860.57	12530.86
860.891	12630.06
861.212	12612.21
861.534	12517.3
861.855	12423.97
862.176	12482.04
862.498	12434.59
862.819	12426.23
863.14	12407.7
863.461	12341.94
863.782	12386.45
864.103	12352.78
864.424	12307.13
864.745	12314.14
865.065	12284.08
865.386	12124.09
865.707	12158.66
866.027	12189.85
866.348	12177.19
866.668	12137.19
866.989	12046.35
867.309	12028.5
867.63	12059.23
867.95	11972.68
868.27	12020.59
868.59	11975.17
868.91	12000.02
869.23	11949.4
869.55	11909.63
869.87	11979.23
870.19	11872.8
870.51	11933.13
870.83	11926.81
871.15	11805.9
871.469	11901.95
871.789	11862.63
872.109	11756.41
872.428	11752.8
872.748	11763.19
873.067	11787.83
873.386	11780.14
873.706	11696.53
874.025	11610.2
874.344	11575.63
874.663	11663.54
874.982	11630.77
875.301	11616.08
875.62	11576.98
875.939	11553.26
876.258	11585.35
876.577	11485.69
876.896	11552.58
877.214	11381.96
877.533	11472.58
877.852	11409.76
878.17	11429.64
878.489	11424.67
878.807	11332.92
879.125	11294.73
879.444	11372.24
879.762	11356.88
880.08	11338.12
880.398	11298.8
880.716	11254.05
881.034	11240.27
881.352	11270.33
881.67	11186.94
881.988	11213.83
882.306	11207.05
882.624	11087.28
882.941	11106.71
883.259	11051.35
883.577	11041.4
883.894	10991.46
884.212	10977.68
884.529	10982.65
884.846	10881.41
885.164	10921.86
885.481	10951.46
885.798	10902.65
886.115	10801.64
886.432	10762.99
886.75	10804.12
887.067	10802.31
887.383	10704.46
887.7	10820.62
888.017	10676.89
888.334	10644.58
888.651	10680.06
888.967	10636.22
889.284	10533.4
889.6	10541.3
889.917	10472.83
890.233	10499.72
890.55	10334.3
890.866	10419.05
891.182	10381.08
891.498	10373.4
891.815	10334.76
892.131	10273.29
892.447	10256.34
892.763	10228.77
893.079	10256.34
893.395	10184.48
893.71	10203.01
894.026	10152.16
894.342	10092.5
894.657	10019.28
894.973	10022.9
895.289	9999.85
895.604	10030.36
895.92	9925.05
896.235	9908.78
896.55	9885.28
896.865	9871.49
897.181	9829.01
897.496	9783.13
897.811	9739.29
898.126	9774.77
898.441	9707.88
898.756	9650.48
899.071	9602.12
899.386	9551.27
899.7	9497.72
900.015	9503.59
900.33	9372.3
900.644	9426.98
900.959	9405.97
901.273	9388.34
901.588	9256.82
901.902	9178.85
902.216	9173.43
902.531	9208.91
902.845	9203.94
903.159	9105.86
903.473	9114.68
903.787	9038.07
904.101	8999.65
904.415	8934.34
904.729	8940.89
905.042	8854.8
905.356	8882.59
905.67	8814.8
905.984	8815.02
906.297	8789.49
906.611	8729.6
906.924	8820.45
907.237	8681.69
907.551	8686.89
907.864	8592.66
908.177	8579.32
908.491	8504.75
908.804	8497.52
909.117	8452.32
909.43	8398.76
909.743	8431.08
910.056	8364.19
910.368	8335.26
910.681	8297.97
910.994	8266.34
911.307	8222.95
911.619	8194.93
911.932	8206.45
912.244	8102.05
912.557	8114.48
912.869	7996.51
913.181	8015.5
913.494	7953.8
913.806	7915.61
914.118	7914.03
914.43	7848.04
914.742	7845.56
915.054	7809.17
915.366	7738.44
915.678	7740.02
915.99	7713.58
916.302	7633.81
916.613	7624.09
916.925	7676.07
917.236	7651.89
917.548	7562.85
917.859	7519.46
918.171	7515.4
918.482	7486.7
918.794	7448.96
919.105	7450.31
919.416	7369.18
919.727	7364.89
920.038	7334.61
920.349	7299.36
920.66	7282.41
920.971	7227.04
921.282	7246.7
921.593	7204.22
921.903	7107.04
922.214	7156.53
922.525	7114.95
922.835	7095.52
923.146	7028.18
923.456	7037.22
923.767	7007.16
924.077	6973.71
924.387	6914.28
924.697	6896.2
925.008	6852.14
925.318	6824.79
925.628	6786.15
925.938	6813.72
926.248	6764.45
926.558	6716.55
926.867	6716.09
927.177	6684.23
927.487	6671.12
927.796	6622.09
928.106	6554.97
928.416	6557.91
928.725	6579.83
929.034	6529.66
929.344	6521.98
929.653	6457.34
929.962	6424.58
930.271	6416.44
930.581	6358.36
930.89	6324.47
931.199	6332.83
931.508	6269.78
931.817	6276.78
932.125	6279.04
932.434	6229.1
932.743	6206.73
933.051	6150.46
933.36	6171.02
933.669	6129.44
933.977	6081.31
934.286	6067.75
934.594	6045.83
934.902	6036.79
935.21	5968.32
935.519	5959.28
935.827	5910.69
936.135	5889.68
936.443	5898.04
936.751	5849.45
937.059	5867.08
937.367	5772.39
937.674	5776.23
937.982	5794.08
938.29	5724.03
938.597	5755.44
938.905	5713.18
939.213	5609.23
939.52	5621.43
939.827	5622.56
940.135	5614.43
940.442	5600.19
940.749	5557.26
941.056	5548.89
941.363	5503.92
941.67	5507.31
941.977	5511.61
942.284	5401.1
942.591	5447.88
942.898	5407.2
943.205	5381.67
943.511	5347.77
943.818	5313.19
944.125	5309.58
944.431	5308.22
944.738	5248.34
945.044	5235.91
945.35	5201.11
945.657	5180.77
945.963	5145.06
946.269	5170.15
946.575	5091.05
946.881	5081.11
947.187	5108.45
947.493	5063.93
947.799	5092.18
948.105	5074.1
948.41	4971.28
948.716	4989.36
949.022	4934.67
949.327	4922.47
949.633	4923.6
949.938	4872.98
950.244	4864.17
950.549	4845.86
950.854	4834.34
951.16	4771.06
951.465	4771.96
951.77	4747.33
952.075	4695.36
952.38	4756.6
952.685	4704.4
952.99	4702.36
953.294	4646.77
953.599	4587.56
953.904	4580.78
954.209	4601.35
954.513	4582.59
954.818	4554.8
955.122	4532.2
955.426	4521.12
955.731	4514.8
956.035	4454.46
956.339	4475.48
956.643	4465.08
956.948	4401.13
957.252	4413.33
957.556	4398.64
957.86	4343.73
958.163	4359.77
958.467	4324.97
958.771	4308.25
959.075	4292.66
959.378	4261.92
959.682	4242.26
959.985	4208.14
960.289	4206.1
960.592	4224.41
960.896	4212.43
961.199	4160.68
961.502	4180.34
961.805	4147.12
962.108	4087.01
962.411	4056.5
962.714	4052.21
963.017	4058.09
963.32	4054.47
963.623	4034.13
963.926	4009.5
964.228	3969.05
964.531	3977.18
964.833	3989.16
965.136	3940.12
965.438	3918.2
965.741	3906.45
966.043	3887.47
966.345	3838.43
966.648	3857.86
966.95	3850.41
967.252	3778.09
967.554	3821.03
967.856	3772.22
968.158	3776.28
968.46	3759.56
968.761	3722.73
969.063	3715.5
969.365	3688.38
969.666	3671.65
969.968	3677.3
970.269	3669.85
970.571	3617.19
970.872	3593.01
971.174	3584.43
971.475	3585.33
971.776	3546.01
972.077	3594.14
972.378	3566.8
972.679	3550.3
972.98	3536.29
973.281	3471.21
973.582	3466.01
973.883	3468.5
974.183	3448.61
974.484	3486.8
974.785	3461.04
975.085	3420.36
975.386	3401.61
975.686	3367.71
975.986	3365
976.287	3366.58
976.587	3318.9
976.887	3336.3
977.187	3320.25
977.487	3285.9
977.787	3252.68
978.087	3277.77
978.387	3230.54
978.687	3278.67
978.987	3184.89
979.286	3177.43
979.586	3151.89
979.885	3186.02
980.185	3162.52
980.484	3135.17
980.784	3139.24
981.083	3132.46
981.382	3104.66
981.682	3087.49
981.981	3062.63
982.28	3039.13
982.579	3026.47
982.878	3059.47
983.177	3009.53
983.475	2995.29
983.774	2984.89
984.073	3001.84
984.372	2981.5
984.67	2948.06
984.969	2925.23
985.267	2929.3
985.566	2923.88
985.864	2897.21
986.162	2900.38
986.461	2889.53
986.759	2890.66
987.057	2799.36
987.355	2809.98
987.653	2824.45
987.951	2825.8
988.249	2786.93
988.547	2767.5
988.844	2750.55
989.142	2736.09
989.44	2751
989.737	2734.96
990.035	2706.71
990.332	2711.68
990.63	2653.38
990.927	2673.94
991.224	2631.91
991.521	2659.93
991.819	2648.18
992.116	2638.69
992.413	2605.92
992.71	2598.24
993.006	2592.81
993.303	2534.74
993.6	2580.84
993.897	2548.52
994.193	2558.69
994.49	2526.15
994.787	2557.11
995.083	2516.88
995.379	2494.96
995.676	2486.83
995.972	2466.04
996.268	2450.22
996.565	2457.68
996.861	2427.85
997.157	2416.77
997.453	2407.73
997.749	2429.88
998.044	2387.39
998.34	2391.24
998.636	2355.08
998.932	2350.33
999.227	2311.92
999.523	2348.07
999.818	2331.8
1000.114	2293.84
1000.409	2300.84
1000.704	2266.49
1001	2248.42
1001.295	2247.06
1001.59	2251.81
1001.885	2213.16
1002.18	2208.87
1002.475	2193.5
1002.77	2167.06
1003.065	2161.86
1003.359	2198.02
1003.654	2157.12
1003.949	2145.59
1004.243	2114.41
1004.538	2122.77
1004.832	2126.61
1005.127	2089.1
1005.421	2054.52
1005.715	2075.99
1006.009	2056.56
1006.304	2058.14
1006.598	2047.74
1006.892	2023.56
1007.186	2042.09
1007.48	1992.38
1007.773	1984.47
1008.067	1971.59
1008.361	1970.91
1008.655	1941.76
1008.948	1921.19
1009.242	1911.7
1009.535	1920.74
1009.829	1900.85
1010.122	1907.18
1010.415	1894.98
1010.708	1883.68
1011.001	1838.03
1011.295	1853.4
1011.588	1841.19
1011.881	1818.6
1012.173	1819.95
1012.466	1791.03
1012.759	1764.81
1013.052	1780.41
1013.344	1766.62
1013.637	1728.88
1013.93	1737.92
1014.222	1756.9
1014.514	1725.04
1014.807	1728.88
1015.099	1737.02
1015.391	1713.97
1015.683	1685.72
1015.976	1654.76
1016.268	1683.91
1016.56	1655.44
1016.851	1633.74
1017.143	1658.15
1017.435	1618.83
1017.727	1630.13
1018.018	1618.38
1018.31	1588.55
1018.602	1587.64
1018.893	1574.53
1019.185	1589.45
1019.476	1575.66
1019.767	1558.26
1020.058	1548.09
1020.35	1519.4
1020.641	1547.19
1020.932	1511.03
1021.223	1486.4
1021.514	1486.85
1021.804	1482.56
1022.095	1476.23
1022.386	1418.15
1022.677	1439.62
1022.967	1401.43
1023.258	1454.54
1023.548	1424.48
1023.839	1411.38
1024.129	1417.7
1024.419	1384.71
1024.709	1405.05
1025	1363.02
1025.29	1347.2
1025.58	1363.47
1025.87	1341.55
1026.16	1334.99
1026.449	1345.16
1026.739	1327.08
1027.029	1324.82
1027.319	1299.29
1027.608	1252.74
1027.898	1274.66
1028.187	1268.55
1028.477	1270.59
1028.766	1277.59
1029.055	1255.9
1029.344	1254.77
1029.634	1235.79
1029.923	1238.95
1030.212	1221.1
1030.501	1238.05
1030.79	1193.53
1031.078	1210.7
1031.367	1190.36
1031.656	1186.75
1031.945	1191.27
1032.233	1168.9
1032.522	1164.15
1032.81	1137.26
1033.099	1133.87
1033.387	1137.71
1033.675	1109.69
1033.963	1100.65
1034.251	1131.16
1034.54	1095.45
1034.828	1107.43
1035.116	1094.32
1035.403	1095.45
1035.691	1073.31
1035.979	1049.12
1036.267	1069.92
1036.554	1050.48
1036.842	1069.24
1037.129	1052.74
1037.417	1027.2
1037.704	1013.42
1037.992	1036.7
1038.279	1019.97
1038.566	986.75
1038.853	986.75
1039.14	986.75
