Data from hue_30_FLMS001491_97.txt Node
Date: Mon Feb 06 15:06:25 GMT 2017
User: dcchb
Spectrometer: FLMS00149
Trigger mode: 0
Integration Time (sec): 2.000000E-2
Scans to average: 10
Electric dark correction enabled: true
Nonlinearity correction enabled: false
Boxcar width: 0
XAxis mode: Wavelengths
Number of Pixels in Spectrum: 2048
>>>>>Begin Spectral Data<<<<<
341.393	-16.65
341.776	-16.65
342.16	-16.65
342.543	-66.37
342.927	-67.05
343.31	-59.81
343.693	-82.19
344.077	-48.74
344.46	-51.91
344.843	-64.33
345.226	-53.04
345.61	-30.66
345.993	-44.22
346.376	-2.19
346.759	21.76
347.142	14.99
347.525	57.24
347.908	72.16
348.291	82.1
348.674	90.92
349.057	97.92
349.44	129.56
349.823	129.11
350.206	153.74
350.588	190.57
350.971	203.68
351.354	211.82
351.737	219.05
352.119	227.18
352.502	248.2
352.884	265.37
353.267	281.19
353.65	296.56
354.032	294.53
354.414	310.57
354.797	316.45
355.179	304.47
355.562	313.51
355.944	325.03
356.326	339.5
356.709	330.46
357.091	331.81
357.473	343.79
357.855	351.93
358.238	339.95
358.62	309.22
359.002	326.16
359.384	311.7
359.766	344.02
360.148	348.76
360.53	356.45
360.912	344.47
361.294	321.42
361.676	350.8
362.057	321.19
362.439	336.33
362.821	327.97
363.203	326.16
363.584	331.59
363.966	313.73
364.348	304.47
364.729	313.73
365.111	298.82
365.493	313.06
365.874	331.36
366.256	315.09
366.637	314.86
367.019	296.11
367.4	313.51
367.781	274.87
368.163	317.12
368.544	307.63
368.925	318.03
369.306	301.31
369.688	329.55
370.069	308.31
370.45	297.46
370.831	306.73
371.212	299.72
371.593	313.96
371.974	313.73
372.355	281.65
372.736	304.02
373.117	295.66
373.498	309.89
373.879	312.15
374.26	317.12
374.641	327.07
375.021	315.32
375.402	332.04
375.783	320.97
376.163	299.27
376.544	332.72
376.925	319.84
377.305	313.28
377.686	304.47
378.066	311.93
378.447	325.49
378.827	319.16
379.208	330.46
379.588	319.38
379.968	347.63
380.349	335.43
380.729	335.66
381.109	346.05
381.489	325.26
381.87	334.07
382.25	354.19
382.63	344.92
383.01	323.9
383.39	334.3
383.77	350.12
384.15	339.5
384.53	342.66
384.91	343.56
385.29	362.09
385.67	350.57
386.049	353.96
386.429	342.66
386.809	348.76
387.189	361.64
387.568	355.09
387.948	357.12
388.328	341.53
388.707	348.31
389.087	340.63
389.466	364.81
389.846	359.84
390.225	327.29
390.605	338.82
390.984	330.91
391.363	359.84
391.743	376.78
392.122	376.56
392.501	372.49
392.881	334.07
393.26	360.74
393.639	362.32
394.018	363.9
394.397	371.81
394.776	347.86
395.155	375.43
395.534	374.52
395.913	372.94
396.292	383.34
396.671	370.23
397.05	385.82
397.429	361.64
397.808	388.31
398.186	390.57
398.565	373.85
398.944	390.57
399.323	392.15
399.701	368.2
400.08	379.04
400.458	364.58
400.837	402.09
401.215	387.86
401.594	374.07
401.972	370.23
402.351	376.78
402.729	386.95
403.107	374.07
403.486	387.86
403.864	381.3
404.242	395.54
404.62	388.76
404.999	367.07
405.377	416.78
405.755	393.05
406.133	412.04
406.511	389.66
406.889	415.65
407.267	404.81
407.645	408.65
408.023	412.26
408.401	400.51
408.779	409.33
409.156	434.64
409.534	414.07
409.912	436.44
410.29	430.34
410.667	419.95
411.045	419.49
411.422	438.03
411.8	435.77
412.178	435.77
412.555	434.41
412.933	446.39
413.31	442.09
413.687	454.52
414.065	464.24
414.442	455.2
414.819	437.8
415.197	455.88
415.574	463.11
415.951	477.57
416.328	470.57
416.705	476.44
417.082	459.27
417.46	482.32
417.837	471.24
418.214	446.84
418.591	488.65
418.967	468.53
419.344	466.95
419.721	487.06
420.098	505.59
420.475	474.41
420.852	493.84
421.228	500.85
421.605	495.2
421.982	479.61
422.358	485.48
422.735	521.41
423.111	498.81
423.488	515.76
423.864	527.97
424.241	506.5
424.617	522.54
424.994	500.4
425.37	547.85
425.746	519.15
426.123	517.57
426.499	517.12
426.875	546.27
427.251	549.43
427.627	509.89
428.003	566.38
428.379	552.15
428.756	553.73
429.132	576.1
429.507	570
429.883	565.25
430.259	560.96
430.635	595.54
431.011	578.36
431.387	609.77
431.763	595.08
432.138	607.06
432.514	605.48
432.89	589.66
433.265	606.38
433.641	628.75
434.016	631.01
434.392	612.26
434.767	629.88
435.143	621.75
435.518	631.92
435.894	617.23
436.269	612.94
436.644	630.79
437.02	634.4
437.395	644.12
437.77	650
438.145	668.98
438.52	661.3
438.895	662.65
439.271	678.7
439.646	691.35
440.021	658.81
440.395	692.03
440.77	700.62
441.145	680.5
441.52	726.83
441.895	697.91
442.27	708.75
442.645	714.85
443.019	722.31
443.394	706.04
443.769	726.38
444.143	705.36
444.518	741.29
444.892	715.08
445.267	732.93
445.641	728.41
446.016	727.28
446.39	735.42
446.764	738.81
447.139	716.66
447.513	762.99
447.887	737.23
448.262	749.88
448.636	757.11
449.01	781.52
449.384	764.12
449.758	762.31
450.132	770.9
450.506	796.89
450.88	787.85
451.254	775.42
451.628	805.25
452.002	786.04
452.376	812.7
452.75	806.15
453.123	826.49
453.497	825.59
453.871	863.78
454.244	851.8
454.618	849.31
454.992	837.79
455.365	847.96
455.739	876.21
456.112	855.64
456.486	888.63
456.859	896.09
457.232	905.58
457.606	894.51
457.979	902.65
458.352	911.69
458.725	926.15
459.099	940.16
459.472	966.6
459.845	936.09
460.218	982.42
460.591	969.08
460.964	983.77
461.337	1005.69
461.71	1014.73
462.083	1017.44
462.456	1039.37
462.829	1013.83
463.201	1053.15
463.574	1033.26
463.947	1069.42
464.32	1064.45
464.692	1093.6
465.065	1104
465.438	1107.84
465.81	1118.46
466.183	1162.53
466.555	1131.34
466.928	1155.07
467.3	1168.18
467.672	1162.98
468.045	1212.02
468.417	1212.24
468.789	1221.73
469.161	1213.6
469.534	1251.56
469.906	1283.43
470.278	1313.48
470.65	1301.73
471.022	1319.13
471.394	1379.7
471.766	1357.78
472.138	1370.66
472.51	1392.35
472.882	1454.5
473.253	1449.07
473.625	1489.97
473.997	1511.67
474.369	1521.84
474.74	1552.35
475.112	1537.43
475.484	1597.32
475.855	1628.73
476.227	1618.33
476.598	1685
476.97	1680.7
477.341	1755.96
477.713	1780.59
478.084	1780.81
478.455	1878.21
478.827	1882.73
479.198	1927.93
479.569	1939.91
479.94	2011.54
480.311	2030.98
480.682	2080.69
481.053	2110.52
481.424	2171.76
481.795	2230.75
482.166	2237.75
482.537	2309.84
482.908	2339.22
483.279	2420.57
483.65	2435.49
484.021	2520.46
484.391	2543.05
484.762	2590.96
485.133	2601.36
485.503	2666.22
485.874	2734.01
486.244	2766.55
486.615	2837.06
486.985	2869.83
487.356	2932.87
487.726	2961.8
488.097	3067.79
488.467	3112.08
488.837	3142.13
489.207	3212.87
489.578	3287.67
489.948	3331.73
490.318	3412.86
490.688	3410.6
491.058	3487.66
491.428	3553.42
491.798	3611.5
492.168	3705.96
492.538	3735.79
492.908	3782.8
493.278	3847.43
493.648	3845.85
494.017	3934.43
494.387	3977.37
494.757	3991.15
495.126	4093.07
495.496	4078.83
495.866	4149.34
496.235	4251.94
496.605	4278.83
496.974	4340.97
497.344	4330.58
497.713	4401.31
498.082	4445.6
498.452	4539.16
498.821	4585.94
499.19	4575.54
499.559	4624.36
499.928	4653.96
500.298	4725.6
500.667	4735.31
501.036	4704.81
501.405	4833.16
501.774	4856.89
502.143	4874.52
502.512	4942.77
502.88	4989.77
503.249	5012.59
503.618	5028.19
503.987	5038.36
504.356	5067.96
504.724	5133.95
505.093	5178.47
505.462	5162.19
505.83	5199.26
506.199	5289.42
506.567	5353.15
506.936	5324.68
507.304	5409.19
507.672	5452.13
508.041	5477.44
508.409	5507.5
508.777	5472.02
509.145	5583.65
509.514	5590.66
509.882	5582.07
510.25	5673.59
510.618	5716.98
510.986	5743.42
511.354	5704.78
511.722	5755.63
512.09	5887.83
512.458	5816.41
512.826	5857.32
513.193	5935.51
513.561	5915.4
513.929	5924.89
514.297	5989.52
514.664	6029.74
515.032	6045.11
515.4	6098.67
515.767	6117.65
516.135	6136.63
516.502	6112.45
516.869	6227.93
517.237	6227.48
517.604	6178.21
517.972	6261.15
518.339	6262.28
518.706	6262.96
519.073	6306.57
519.44	6336.85
519.808	6436.06
520.175	6427.02
520.542	6477.41
520.909	6468.38
521.276	6491.2
521.643	6529.84
522.009	6573.01
522.376	6642.61
522.743	6637.41
523.11	6734.58
523.477	6749.27
523.843	6789.5
524.21	6807.12
524.577	6839.21
524.943	6900.45
525.31	6940.68
525.676	6937.74
526.043	6996.5
526.409	6985.88
526.776	7080.56
527.142	7138.87
527.508	7197.4
527.874	7194.23
528.241	7208.02
528.607	7262.93
528.973	7368.92
529.339	7283.72
529.705	7407.11
530.071	7431.29
530.437	7468.57
530.803	7486.65
531.169	7554.67
531.535	7536.37
531.901	7600.77
532.267	7608.91
532.632	7717.61
532.998	7730.04
533.364	7752.18
533.73	7736.14
534.095	7829.47
534.461	7903.37
534.826	7860.43
535.192	7961.67
535.557	7975.23
535.923	7994.89
536.288	8049.35
536.653	8021.33
537.019	8061.33
537.384	8103.36
537.749	8157.82
538.114	8174.54
538.479	8174.09
538.845	8246.41
539.21	8207.09
539.575	8270.81
539.94	8271.04
540.305	8353.52
540.67	8321.89
541.034	8339.96
541.399	8374.31
541.764	8440.75
542.129	8466.97
542.494	8532.73
542.858	8541.54
543.223	8597.36
543.587	8594.42
543.952	8666.06
544.316	8716.9
544.681	8691.59
545.045	8842.55
545.41	8839.61
545.774	8871.93
546.138	8924.13
546.503	8896.11
546.867	8928.88
547.231	8994.41
547.595	8998.03
547.959	8984.69
548.324	9040.51
548.688	9143.11
549.052	9079.15
549.416	9162.54
549.779	9123.67
550.143	9195.54
550.507	9295.19
550.871	9280.05
551.235	9302.42
551.599	9374.29
551.962	9383.78
552.326	9334.51
552.689	9391.69
553.053	9395.98
553.417	9432.14
553.78	9604.56
554.143	9530.22
554.507	9633.49
554.87	9558.01
555.234	9693.38
555.597	9672.13
555.96	9673.94
556.323	9684.11
556.686	9730.21
557.05	9819.25
557.413	9849.98
557.776	9838.23
558.139	9925.69
558.502	9991.22
558.865	9863.54
559.228	9977.66
559.59	10040.71
559.953	10118.22
560.316	10084.1
560.679	10099.24
561.041	10207.94
561.404	10188.5
561.767	10305.56
562.129	10292.46
562.492	10360.02
562.854	10387.37
563.217	10351.21
563.579	10332
563.941	10398.89
564.304	10449.97
564.666	10571.09
565.028	10562.96
565.39	10615.61
565.753	10620.58
566.115	10614.48
566.477	10681.37
566.839	10677.53
567.201	10742.61
567.563	10721.6
567.925	10880.24
568.287	10915.94
568.648	10954.81
569.01	10999.56
569.372	11050.4
569.734	11052.44
570.095	11128.14
570.457	11178.99
570.819	11143.96
571.18	11288.59
571.542	11286.33
571.903	11272.99
572.265	11373.78
572.626	11398.41
572.987	11485.64
573.349	11558.18
573.71	11538.3
574.071	11618.07
574.432	11696.49
574.794	11801.57
575.155	11847.89
575.516	11865.75
575.877	11846.99
576.238	12103.26
576.599	12163.14
576.96	12172.63
577.32	12332.85
577.681	12426.18
578.042	12563.36
578.403	12649.23
578.763	12703.01
579.124	12858.26
579.485	13003.12
579.845	13015.32
580.206	13157.69
580.566	13340.96
580.927	13420.73
581.287	13520.85
581.648	13626.38
582.008	13843.55
582.368	13957.44
582.728	14065.24
583.089	14292.58
583.449	14369.41
583.809	14554.26
584.169	14714.49
584.529	14969.39
584.889	15193.34
585.249	15199.9
585.609	15400.12
585.969	15718.08
586.329	15885.98
586.688	16135.24
587.048	16243.71
587.408	16488.45
587.768	16676.47
588.127	16926.63
588.487	17157.13
588.846	17532.49
589.206	17559.83
589.565	17852.71
589.925	18134.28
590.284	18318.91
590.643	18631.22
591.003	18827.15
591.362	19087.48
591.721	19339
592.08	19666.45
592.44	19830.06
592.799	20183.72
593.158	20313.43
593.517	20665.52
593.876	20977.37
594.235	21137.37
594.593	21425.04
594.952	21775.09
595.311	21897.12
595.67	22121.97
596.029	22575.52
596.387	22709.98
596.746	22956.08
597.104	23246.24
597.463	23451.88
597.822	23741.82
598.18	23996.28
598.538	24163.96
598.897	24484.17
599.255	24559.42
599.613	25229.92
599.972	25275.11
600.33	25450.02
600.688	25611.37
601.046	25972.27
601.404	26294.52
601.762	26429.88
602.12	26735.86
602.478	26985.12
602.836	27319.35
603.194	27202.75
603.552	27666.91
603.91	27669.63
604.268	28031.88
604.625	28039.11
604.983	28506.21
605.341	28520
605.698	28739.65
606.056	29043.83
606.413	29252.63
606.771	29447.43
607.128	29632.51
607.485	29694.21
607.843	29957.93
608.2	30221.2
608.557	30425.26
608.914	30512.71
609.272	30801.97
609.629	30939.14
609.986	31243.09
610.343	31229.76
610.7	31605.34
611.057	31677.2
611.414	31798.56
611.771	31974.15
612.127	32239.22
612.484	32350.86
612.841	32442.38
613.198	32453.68
613.554	32660.68
613.911	32857.06
614.267	33033.55
614.624	33206.66
614.98	33351.51
615.337	33504.5
615.693	33568.45
616.05	33633.08
616.406	34096.8
616.762	33928.67
617.118	33999.85
617.475	34228.1
617.831	34320.3
618.187	34529.33
618.543	34606.84
618.899	34895.42
619.255	34785.6
619.611	34883.9
619.967	35185.59
620.323	35311.91
620.678	35319.59
621.034	35247.05
621.39	35364.56
621.746	35379.48
622.101	35788.28
622.457	35558.68
622.812	35752.12
623.168	35888.17
623.523	35817.89
623.879	36085.22
624.234	35830.09
624.589	35978.56
624.945	36155.96
625.3	36199.8
625.655	36274.82
626.01	36477.3
626.365	36419.68
626.72	36338.1
627.075	36406.12
627.43	36506.91
627.785	36539.45
628.14	36628.26
628.495	36819.67
628.85	36671.42
629.205	36682.04
629.559	36918.42
629.914	36811.76
630.269	36810.85
630.623	36838.88
630.978	36597.75
631.332	36986.22
631.687	36956.16
632.041	36788.71
632.396	36943.73
632.75	36905.77
633.104	36969.27
633.459	36781.93
633.813	36682.72
634.167	36872.77
634.521	36750.97
634.875	36946.44
635.229	36730.18
635.583	36706
635.937	36832.55
636.291	36835.49
636.645	36896.05
636.999	36879.33
637.352	36968.59
637.706	36710.52
638.06	36895.15
638.413	36735.6
638.767	36772.44
639.121	36905.09
639.474	36569.05
639.828	36644.08
640.181	36770.4
640.534	36809.95
640.888	36671.65
641.241	36572.89
641.594	36600.24
641.947	36782.83
642.301	36524.76
642.654	36611.99
643.007	36593.01
643.36	36414.93
643.713	36561.6
644.066	36664.19
644.419	36337.19
644.771	36172.23
645.124	35874.38
645.477	35807.04
645.83	35560.49
646.182	35548.97
646.535	35372.47
646.888	35581.73
647.24	35351.01
647.593	35632.81
647.945	35492.24
648.298	35344.45
648.65	35192.59
649.002	35249.54
649.355	35526.14
649.707	35310.1
650.059	35379.93
650.411	35930.2
650.763	35913.93
651.115	36259.68
651.467	36140.59
651.819	36105.79
652.171	36243.86
652.523	35964.32
652.875	36199.34
653.227	35855.63
653.578	36042.96
653.93	35930.65
654.282	35873.93
654.633	35715.52
654.985	35898.11
655.337	35911.22
655.688	35905.79
656.039	36072.34
656.391	35652.24
656.742	35730.43
657.094	35829.86
657.445	35941.95
657.796	35769.98
658.147	35729.53
658.498	35821.28
658.849	35844.55
659.2	35697.66
659.551	35685.46
659.902	35821.28
660.253	35743.99
660.604	35716.87
660.955	35561.85
661.306	35640.04
661.656	35670.55
662.007	35709.87
662.358	35715.74
662.708	35611.11
663.059	35840.48
663.409	35402.76
663.76	35666.93
664.11	35742.63
664.461	35763.88
664.811	35683.65
665.161	35690.21
665.511	35567.95
665.862	35828.06
666.212	35767.49
666.562	35883.65
666.912	35794.38
667.262	35691.34
667.612	35676.42
667.962	35716.19
668.312	35590.1
668.662	35766.14
669.011	35680.26
669.361	35478.91
669.711	35479.82
670.06	35461.74
670.41	35332.47
670.76	35469.65
671.109	35617.21
671.459	35360.04
671.808	35482.08
672.157	35494.96
672.507	35259.48
672.856	35189.43
673.205	35352.81
673.554	35407.5
673.904	35290.22
674.253	35533.6
674.602	35301.74
674.951	34823.11
675.3	34673.96
675.649	35245.47
675.998	35120.28
676.346	35057.23
676.695	35202.31
677.044	35052.93
677.393	35140.39
677.741	35102.42
678.09	35047.96
678.438	34933.39
678.787	34976.55
679.135	35092.26
679.484	34913.95
679.832	35022.88
680.181	34766.61
680.529	34947.85
680.877	34935.65
681.225	34817.69
681.573	34970.22
681.922	34555.32
682.27	34627.18
682.618	34574.98
682.966	34529.56
683.314	34613.4
683.661	34404.14
684.009	34340.18
684.357	34389.22
684.705	34167.08
685.053	34202.34
685.4	34170.25
685.748	34131.38
686.095	34073.52
686.443	33986.97
686.79	33880.99
687.138	33925.28
687.485	33783.59
687.832	33814.32
688.18	33769.8
688.527	33709.24
688.874	33751.73
689.221	33537.72
689.568	33427.44
689.915	33336.14
690.262	33359.19
690.609	33243.26
690.956	33181.12
691.303	33132.98
691.65	32980.22
691.997	32987.9
692.344	32836.27
692.69	32855.93
693.037	32780.23
693.383	32590.17
693.73	32642.6
694.077	32481.48
694.423	32564.41
694.769	32417.52
695.116	32303.18
695.462	32221.6
695.808	32125.55
696.155	32311.99
696.501	32077.42
696.847	31968.5
697.193	31734.83
697.539	31804.43
697.885	31576.87
698.231	31546.81
698.577	31528.06
698.923	31427.04
699.269	31341.85
699.614	31276.08
699.96	31122.87
700.306	31232.92
700.651	30968.3
700.997	30996.77
701.342	30856.43
701.688	30828.86
702.033	30735.76
702.379	30690.56
702.724	30607.18
703.069	30719.26
703.415	30261.2
703.76	30363.11
704.105	30367.86
704.45	30256.9
704.795	30195.21
705.14	30036.57
705.485	29986.63
705.83	29820.98
706.175	29903.92
706.52	29818.5
706.865	29702.34
707.209	29742.11
707.554	29537.15
707.899	29645.62
708.243	29507.32
708.588	29331.95
708.932	29158.4
709.277	29236.36
709.621	29293.76
709.966	29097.84
710.31	29197.04
710.654	28979.65
710.998	28980.33
711.342	29040.44
711.687	28875.24
712.031	28771.74
712.375	28587.34
712.719	28797.28
713.063	28702.37
713.407	28577.17
713.75	28468.47
714.094	28414.01
714.438	28292.21
714.782	28339.89
715.125	28163.4
715.469	28208.59
715.812	28089.73
716.156	27999.11
716.499	27951.65
716.843	27939.67
717.186	27789.62
717.53	27923.63
717.873	27891.09
718.216	27866.23
718.559	27706.23
718.902	27626.01
719.246	27622.17
719.589	27539.69
719.932	27409.97
720.275	27494.49
720.617	27451.1
720.96	27422.63
721.303	27444.32
721.646	27378.56
721.989	27177.21
722.331	27267.15
722.674	27252.24
723.016	27176.08
723.359	27158.23
723.701	27137.89
724.044	27028.51
724.386	26871.45
724.729	27070.55
725.071	26927.5
725.413	26724.79
725.755	26827.39
726.097	26680.27
726.439	26586.04
726.782	26610.22
727.124	26679.14
727.465	26599.82
727.807	26505.59
728.149	26569.99
728.491	26547.85
728.833	26475.53
729.175	26427.85
729.516	26319.15
729.858	26329.55
730.199	26290.45
730.541	26352.82
730.882	26278.48
731.224	26376.55
731.565	26058.14
731.906	26047.3
732.248	26069.22
732.589	25941.54
732.93	25944.7
733.271	25787.64
733.612	26006.84
733.953	25947.64
734.294	25759.39
734.635	25777.02
734.976	25740.41
735.317	25685.72
735.658	25684.37
735.999	25652.05
736.339	25644.59
736.68	25612.05
737.021	25466.29
737.361	25349.69
737.702	25569.79
738.042	25517.59
738.383	25424.71
738.723	25466.52
739.063	25392.62
739.404	25457.93
739.744	25265.17
740.084	25178.84
740.424	25276.47
740.764	25199.18
741.104	25238.28
741.444	25112.18
741.784	24972.97
742.124	25001
742.464	25001.9
742.804	25009.81
743.143	24846.65
743.483	24911.51
743.823	24800.55
744.162	24784.28
744.502	24821.79
744.841	24760.55
745.181	24744.28
745.52	24661.12
745.86	24773.88
746.199	24662.47
746.538	24441.91
746.877	24632.19
747.216	24667.44
747.556	24632.42
747.895	24551.29
748.234	24433.55
748.573	24340.22
748.911	24414.34
749.25	24399.43
749.589	24252.31
749.928	24351.29
750.267	24210.51
750.605	24214.12
750.944	24125.31
751.283	24058.87
751.621	24123.5
751.96	24009.38
752.298	24104.3
752.636	24066.33
752.975	24019.33
753.313	23933.9
753.651	23945.43
753.989	23816.62
754.327	23719.67
754.666	23646.23
755.004	23694.36
755.342	23760.12
755.679	23655.04
756.017	23527.59
756.355	23544.54
756.693	23426.35
757.031	23386.12
757.368	23314.26
757.706	23320.81
758.044	23237.88
758.381	23301.83
758.719	23174.6
759.056	23217.54
759.394	23174.6
759.731	22947.26
760.068	22933.25
760.405	22885.57
760.743	22817.78
761.08	22780.49
761.417	22668.4
761.754	22581.4
762.091	22645.12
762.428	22536.88
762.765	22381.4
763.102	22377.34
763.438	22399.71
763.775	22327.85
764.112	22349.09
764.449	22307.05
764.785	22210.56
765.122	22017.57
765.458	21843.34
765.795	21900.51
766.131	21799.72
766.467	21698.26
766.804	21790.23
767.14	21615.55
767.476	21558.6
767.812	21469.79
768.148	21595.89
768.485	21322.22
768.821	21193.64
769.157	21152.73
769.492	21130.81
769.828	21144.15
770.164	21032.74
770.5	20871.84
770.836	20951.38
771.171	20822.12
771.507	20738.96
771.842	20625.74
772.178	20539.19
772.513	20601.11
772.849	20517.27
773.184	20312.08
773.519	20374.45
773.855	20321.57
774.19	20222.59
774.525	20166.77
774.86	20119.99
775.195	20088.36
775.53	19970.17
775.865	19912.99
776.2	19683.39
776.535	19702.6
776.87	19594.58
777.205	19515.04
777.539	19512.78
777.874	19484.08
778.209	19280.92
778.543	19292.44
778.878	19294.7
779.212	19188.72
779.547	19116.18
779.881	19144.65
780.215	18940.82
780.55	19035.5
780.884	18895.39
781.218	18771.78
781.552	18739.69
781.886	18665.79
782.22	18628.06
782.554	18510.54
782.888	18371.79
783.222	18282.75
783.556	18220.38
783.889	18158.92
784.223	18104
784.557	18040.27
784.89	18070.33
785.224	17970.22
785.557	17815.42
785.891	17881.18
786.224	17830.79
786.558	17827.17
786.891	17642.32
787.224	17536.11
787.557	17484.81
787.891	17387.18
788.224	17478.48
788.557	17393.29
788.89	17280.52
789.223	17288.88
789.556	17155.55
789.888	17132.05
790.221	16984.03
790.554	16932.28
790.887	16858.16
791.219	16810.7
791.552	16793.3
791.884	16796.01
792.217	16644.38
792.549	16590.59
792.882	16549.24
793.214	16464.72
793.546	16407.77
793.879	16218.63
794.211	16308.79
794.543	16339.75
794.875	16268.12
795.207	16245.97
795.539	16108.12
795.871	16142.47
796.203	16014.34
796.535	15917.39
796.867	15903.16
797.198	15910.16
797.53	15759.2
797.862	15747.68
798.193	15756.27
798.525	15657.96
798.856	15607.8
799.188	15496.16
799.519	15487.8
799.85	15332.1
800.182	15422.72
800.513	15408.48
800.844	15162.61
801.175	15318.54
801.506	15287.13
801.837	15183.4
802.168	15206.9
802.499	15106.34
802.83	15085.78
803.161	14906.12
803.491	14902.28
803.822	14964.42
804.153	14801.49
804.483	14796.97
804.814	14739.8
805.145	14678.78
805.475	14680.81
805.805	14577.54
806.136	14618.44
806.466	14532.12
806.796	14557.88
807.126	14432.91
807.457	14383.42
807.787	14382.97
808.117	14409.41
808.447	14389.3
808.777	14328.73
809.107	14229.98
809.436	14247.61
809.766	14169.87
810.096	14088.97
810.426	14036.76
810.755	14166.93
811.085	14133.94
811.414	14025.92
811.744	13969.65
812.073	13889.65
812.403	13873.15
812.732	13894.62
813.061	13857.11
813.39	13745.25
813.719	13737.34
814.049	13776.88
814.378	13667.51
814.707	13655.08
815.036	13634.29
815.365	13564.23
815.693	13412.83
816.022	13479.72
816.351	13407.85
816.68	13357.46
817.008	13435.65
817.337	13241.53
817.665	13179.84
817.994	13189.78
818.322	13245.82
818.651	13120.86
818.979	13154.08
819.307	13140.06
819.636	13180.06
819.964	12978.94
820.292	13114.98
820.62	13057.58
820.948	12975.77
821.276	13043.8
821.604	13019.62
821.932	13001.54
822.259	12971.03
822.587	12984.14
822.915	12990.69
823.243	13011.03
823.57	12955.44
823.898	12897.81
824.225	12979.16
824.553	12916.57
824.88	12933.29
825.207	12990.24
825.535	12909.56
825.862	12936.23
826.189	12868.21
826.516	12975.32
826.843	12982.55
827.17	12960.63
827.497	12952.95
827.824	13015.55
828.151	13021.42
828.478	12924.02
828.805	12888.55
829.131	12933.74
829.458	12868.21
829.785	12783.01
830.111	12860.52
830.438	12949.79
830.764	12906.4
831.09	12851.26
831.417	12805.61
831.743	12908.88
832.069	12863.46
832.395	12783.92
832.722	12886.96
833.048	12727.42
833.374	12804.93
833.7	12740.07
834.026	12764.48
834.351	12765.38
834.677	12740.53
835.003	12832.05
835.329	12776.23
835.654	12689.23
835.98	12598.84
836.306	12623.24
836.631	12544.37
836.956	12603.58
837.282	12659.85
837.607	12618.04
837.932	12618.72
838.258	12565.62
838.583	12521.55
838.908	12464.38
839.233	12482.68
839.558	12417.6
839.883	12339.63
840.208	12366.98
840.533	12393.87
840.858	12450.59
841.182	12425.28
841.507	12409.24
841.832	12300.54
842.156	12228.45
842.481	12343.93
842.805	12236.59
843.13	12183.93
843.454	12200.88
843.778	12119.98
844.103	12039.98
844.427	12032.52
844.751	12033.43
845.075	11982.58
845.399	12023.26
845.723	11974.9
846.047	11919.76
846.371	11802.7
846.695	11855.8
847.019	11767.22
847.343	11661.91
847.666	11552.31
847.99	11531.97
848.313	11543.5
848.637	11422.37
848.96	11519.09
849.284	11450.17
849.607	11353.44
849.931	11338.53
850.254	11302.37
850.577	11247.68
850.9	11126.33
851.223	11061.47
851.546	11065.09
851.869	11076.84
852.192	11057.18
852.515	10906
852.838	10951.65
853.161	10936.96
853.483	10848.82
853.806	10779
854.129	10755.49
854.451	10762.27
854.774	10665.55
855.096	10669.62
855.419	10584.43
855.741	10631.66
856.063	10573.8
856.385	10526.35
856.708	10467.14
857.03	10424.66
857.352	10490.87
857.674	10425.33
857.996	10378.55
858.318	10332.68
858.64	10341.72
858.961	10237.54
859.283	10200.48
859.605	10206.58
859.926	10257.2
860.248	10151.44
860.57	10123.19
860.891	10123.42
861.212	10048.17
861.534	10148.5
861.855	10071.44
862.176	10042.52
862.498	10093.36
862.819	10060.15
863.14	10001.39
863.461	9948.74
863.782	9917.78
864.103	9996.42
864.424	9903.99
864.745	9958.68
865.065	9840.49
865.386	9834.16
865.707	9822.86
866.027	9820.15
866.348	9774.73
866.668	9740.15
866.989	9803.2
867.309	9691.57
867.63	9721.4
867.95	9717.56
868.27	9672.58
868.59	9645.24
868.91	9618.57
869.23	9681.17
869.55	9567.95
869.87	9660.16
870.19	9637.56
870.51	9606.37
870.83	9619.93
871.15	9532.25
871.469	9534.96
871.789	9537.9
872.109	9582.87
872.428	9488.18
872.748	9495.87
873.067	9486.15
873.386	9494.51
873.706	9470.78
874.025	9401.41
874.344	9371.35
874.663	9428.07
874.982	9349.88
875.301	9317.57
875.62	9257.68
875.939	9297.68
876.258	9296.78
876.577	9241.64
876.896	9252.93
877.214	9242.31
877.533	9214.52
877.852	9215.42
878.17	9187.85
878.489	9175.2
878.807	9162.32
879.125	9177.46
879.444	9144.69
879.762	9165.25
880.08	9144.91
880.398	9101.07
880.716	9141.98
881.034	9021.3
881.352	9042.54
881.67	9010
881.988	9003.9
882.306	8979.95
882.624	8984.47
882.941	8941.3
883.259	8968.65
883.577	8859.05
883.894	8924.36
884.212	8808.43
884.529	8878.71
884.846	8874.19
885.164	8826.05
885.481	8792.38
885.798	8774.53
886.115	8669.45
886.432	8675.55
886.75	8675.55
887.067	8683.46
887.383	8664.25
887.7	8637.58
888.017	8538.15
888.334	8596
888.651	8516.68
888.967	8510.13
889.284	8565.72
889.6	8456.35
889.917	8497.47
890.233	8440.75
890.55	8426.52
890.866	8434.65
891.182	8423.35
891.498	8396.69
891.815	8306.52
892.131	8351.72
892.447	8353.52
892.763	8299.97
893.079	8285.05
893.395	8241.66
893.71	8203.47
894.026	8130.7
894.342	8193.08
894.657	8082.34
894.973	8109.69
895.289	8093.64
895.604	8031.05
895.92	8017.26
896.235	7948.56
896.55	7985.85
896.865	7933.65
897.181	7927.55
897.496	7916.02
897.811	7833.31
898.126	7797.83
898.441	7786.31
898.756	7819.07
899.071	7711.05
899.386	7727.33
899.7	7713.77
900.015	7650.94
900.33	7623.37
900.644	7552.87
900.959	7638.29
901.273	7556.48
901.588	7518.29
901.902	7466.09
902.216	7485.75
902.531	7486.43
902.845	7413.66
903.159	7390.38
903.473	7339.31
903.787	7309.03
904.101	7303.83
904.415	7337.28
904.729	7270.61
905.042	7276.49
905.356	7192.42
905.67	7176.38
905.984	7171.18
906.297	7100.45
906.611	7064.07
906.924	7083.95
907.237	7046.44
907.551	7001.24
907.864	6969.6
908.177	6961.92
908.491	6940
908.804	6909.04
909.117	6815.26
909.43	6792.66
909.743	6821.81
910.056	6786.56
910.368	6753.79
910.681	6688.71
910.994	6725.77
911.307	6683.28
911.619	6648.26
911.932	6621.37
912.244	6572.55
912.557	6586.11
912.869	6557.41
913.181	6483.97
913.494	6460.47
913.806	6486.91
914.118	6478.09
914.43	6399.22
914.742	6457.53
915.054	6395.16
915.366	6366.91
915.678	6304.31
915.99	6323.52
916.302	6288.49
916.613	6252.79
916.925	6184.31
917.236	6183.18
917.548	6108.84
917.859	6183.86
918.171	6079.23
918.482	6110.64
918.794	6074.26
919.105	6087.82
919.416	5997.65
919.727	6010.31
920.038	6004.21
920.349	5970.76
920.66	5976.18
920.971	5902.51
921.282	5896.86
921.593	5813.03
921.903	5845.79
922.214	5869.75
922.525	5763.31
922.835	5738.68
923.146	5695.29
923.456	5709.07
923.767	5636.31
924.077	5605.57
924.387	5644.67
924.697	5589.75
925.008	5531.45
925.318	5560.38
925.628	5572.35
925.938	5510.21
926.248	5504.78
926.558	5414.62
926.867	5429.31
927.177	5391.57
927.487	5404.22
927.796	5336.65
928.106	5342.75
928.416	5280.16
928.725	5329.2
929.034	5303.21
929.344	5295.52
929.653	5236.32
929.962	5212.81
930.271	5172.14
930.581	5208.07
930.89	5166.94
931.199	5159.71
931.508	5092.14
931.817	5071.8
932.125	5062.99
932.434	5007.4
932.743	4980.05
933.051	4995.87
933.36	4969.21
933.669	4909.09
933.977	4932.82
934.286	4928.53
934.594	4865.25
934.902	4849.89
935.21	4887.63
935.519	4821.64
935.827	4860.96
936.135	4741.87
936.443	4718.14
936.751	4762.66
937.059	4733.28
937.367	4705.03
937.674	4723.56
937.982	4667.07
938.29	4660.29
938.597	4676.11
938.905	4576.9
939.213	4622.32
939.52	4580.06
939.827	4544.13
940.135	4552.72
940.442	4519.5
940.749	4515.21
941.056	4523.57
941.363	4458.48
941.67	4440.18
941.977	4383.23
942.284	4381.42
942.591	4385.49
942.898	4342.1
943.205	4358.15
943.511	4272.5
943.818	4295.78
944.125	4284.03
944.431	4249.45
944.738	4227.76
945.044	4256
945.35	4225.72
945.657	4171.71
945.963	4169.68
946.269	4157.25
946.575	4150.47
946.881	4152.5
947.187	4119.06
947.493	4039.96
947.799	4067.31
948.105	4082.9
948.41	4034.09
948.716	3997.71
949.022	4049.68
949.327	3990.25
949.633	3945.96
949.938	3972.4
950.244	3920.19
950.549	3900.53
950.854	3906.63
951.16	3875
951.465	3854.43
951.77	3878.16
952.075	3825.05
952.38	3811.27
952.685	3799.52
952.99	3773.08
953.294	3780.08
953.599	3716.81
953.904	3742.35
954.209	3714.32
954.513	3694.44
954.818	3692.85
955.122	3681.1
955.426	3669.8
955.731	3654.21
956.035	3594.33
956.339	3622.57
956.643	3605.17
956.948	3562.69
957.252	3609.02
957.556	3537.6
957.86	3532.86
958.163	3507.1
958.467	3519.3
958.771	3492.86
959.075	3500.54
959.378	3460.09
959.682	3439.3
959.985	3470.94
960.289	3411.28
960.592	3373.77
960.896	3408.34
961.199	3363.6
961.502	3365.41
961.805	3335.12
962.108	3318.4
962.411	3351.39
962.714	3275.69
963.017	3311.17
963.32	3261.91
963.623	3221.91
963.926	3240.44
964.228	3188.24
964.531	3203.38
964.833	3223.49
965.136	3189.14
965.438	3171.96
965.741	3149.82
966.043	3144.62
966.345	3128.58
966.648	3115.02
966.95	3126.09
967.252	3059.2
967.554	3065.3
967.856	3085.64
968.158	3026.88
968.46	3088.58
968.761	3022.59
969.063	3029.82
969.365	3014.23
969.666	3006.32
969.968	2938.98
970.269	2979.2
970.571	2940.11
970.872	2952.54
971.174	2907.79
971.475	2943.27
971.776	2910.05
972.077	2889.03
972.378	2871.63
972.679	2851.52
972.98	2870.73
973.281	2831.86
973.582	2830.05
973.883	2812.2
974.183	2816.95
974.484	2800.45
974.785	2814.91
975.085	2741.24
975.386	2784.63
975.686	2742.15
975.986	2742.6
976.287	2746.89
976.587	2691.75
976.887	2684.29
977.187	2666.22
977.487	2687.23
977.787	2681.81
978.087	2645.65
978.387	2664.18
978.687	2655.37
978.987	2593.45
979.286	2616.95
979.586	2583.51
979.885	2548.03
980.185	2554.58
980.484	2507.58
980.784	2546.22
981.083	2531.08
981.382	2531.3
981.682	2528.82
981.981	2485.2
982.28	2515.03
982.579	2477.52
982.878	2473.68
983.177	2431.19
983.475	2480.68
983.774	2405.43
984.073	2430.97
984.372	2433
984.67	2433
984.969	2399.33
985.267	2373.34
985.566	2400.01
985.864	2352.55
986.162	2350.52
986.461	2355.26
986.759	2338.31
987.057	2308.48
987.355	2310.74
987.653	2308.48
987.951	2288.37
988.249	2290.63
988.547	2287.92
988.844	2250.63
989.142	2278.43
989.44	2273.91
989.737	2251.31
990.035	2237.98
990.332	2233.46
990.63	2188.49
990.927	2221.93
991.224	2168.38
991.521	2171.09
991.819	2178.77
992.116	2143.07
992.413	2148.26
992.71	2148.26
993.006	2130.41
993.303	2141.48
993.6	2099.22
993.897	2090.86
994.193	2067.59
994.49	2071.43
994.787	2094.03
995.083	2057.42
995.379	2054.71
995.676	2022.39
995.972	2030.53
996.268	1999.11
996.565	2024.88
996.861	1992.79
997.157	2002.5
997.453	1987.36
997.749	1966.8
998.044	1965.22
998.34	1949.4
998.636	1952.34
998.932	1936.29
999.227	1912.34
999.523	1906.24
999.818	1907.14
1000.114	1851.77
1000.409	1880.25
1000.704	1878.89
1001	1884.31
1001.295	1836.63
1001.59	1824.66
1001.885	1848.84
1002.18	1827.37
1002.475	1804.77
1002.77	1809.06
1003.065	1782.17
1003.359	1778.55
1003.654	1782.17
1003.949	1777.88
1004.243	1750.08
1004.538	1758.22
1004.832	1729.06
1005.127	1759.8
1005.421	1718.22
1005.715	1714.6
1006.009	1697.88
1006.304	1704.43
1006.598	1702.4
1006.892	1665.56
1007.186	1688.61
1007.48	1677.09
1007.773	1665.11
1008.067	1616.53
1008.361	1638.9
1008.655	1627.6
1008.948	1594.83
1009.242	1633.7
1009.535	1613.36
1009.829	1614.72
1010.122	1581.95
1010.415	1558.9
1010.708	1563.65
1011.001	1574.04
1011.295	1549.63
1011.588	1564.32
1011.881	1511.9
1012.173	1512.57
1012.466	1532.01
1012.759	1506.47
1013.052	1499.01
1013.344	1492.46
1013.637	1469.64
1013.93	1474.16
1014.222	1480.03
1014.514	1479.35
1014.807	1442.29
1015.099	1444.33
1015.391	1427.15
1015.683	1453.59
1015.976	1440.03
1016.268	1402.75
1016.56	1378.57
1016.851	1399.36
1017.143	1393.25
1017.435	1378.57
1017.727	1389.86
1018.018	1369.53
1018.31	1367.72
1018.602	1361.62
1018.893	1346.02
1019.185	1334.5
1019.476	1328.62
1019.767	1314.84
1020.058	1299.92
1020.35	1296.53
1020.641	1300.38
1020.932	1282.75
1021.223	1273.71
1021.514	1247.72
1021.804	1223.09
1022.095	1226.03
1022.386	1219.93
1022.677	1213.37
1022.967	1227.38
1023.258	1208.4
1023.548	1211.56
1023.839	1206.59
1024.129	1212.92
1024.419	1168.85
1024.709	1183.09
1025	1157.55
1025.29	1163.2
1025.58	1134.05
1025.87	1140.15
1026.16	1132.47
1026.449	1139.48
1026.739	1122.98
1027.029	1127.5
1027.319	1106.71
1027.608	1107.84
1027.898	1105.58
1028.187	1101.28
1028.477	1087.05
1028.766	1067.61
1029.055	1071.68
1029.344	1057.44
1029.634	1040.5
1029.923	1042.98
1030.212	1043.88
1030.501	1056.99
1030.79	1049.53
1031.078	1048.4
1031.367	1033.72
1031.656	1007.05
1031.945	1013.38
1032.233	1013.83
1032.522	1016.32
1032.81	990.1
1033.099	972.93
1033.387	972.02
1033.675	963.21
1033.963	950.55
1034.251	956.43
1034.54	958.92
1034.828	942.19
1035.116	948.07
1035.403	918.92
1035.691	924.34
1035.979	933.15
1036.267	947.39
1036.554	894.28
1036.842	920.72
1037.129	891.8
1037.417	895.19
1037.704	861.52
1037.992	893.38
1038.279	870.56
1038.566	857.22
1038.853	857.22
1039.14	857.22
