Data from hue_230_FLMS001491_00024.txt Node
Date: Tue Feb 07 16:37:00 GMT 2017
User: dcchb
Spectrometer: FLMS00149
Trigger mode: 0
Integration Time (sec): 2.000000E-2
Scans to average: 10
Electric dark correction enabled: true
Nonlinearity correction enabled: false
Boxcar width: 0
XAxis mode: Wavelengths
Number of Pixels in Spectrum: 2048
>>>>>Begin Spectral Data<<<<<
341.393	-26.07
341.776	-26.07
342.16	-26.07
342.543	-55.45
342.927	-72.63
343.31	-69.46
343.693	-77.37
344.077	-72.17
344.46	-55.45
344.843	-40.76
345.226	-41.67
345.61	-34.21
345.993	-22.68
346.376	-13.64
346.759	13.25
347.142	30.87
347.525	57.31
347.908	43.76
348.291	81.5
348.674	101.38
349.057	99.35
349.44	115.84
349.823	137.09
350.206	173.7
350.588	195.16
350.971	191.1
351.354	214.15
351.737	251.66
352.119	250.53
352.502	272.9
352.884	279.68
353.267	286.01
353.65	275.39
354.032	309.06
354.414	291.88
354.797	328.49
355.179	317.65
355.562	311.09
355.944	311.32
356.326	326.46
356.709	323.52
357.091	334.14
357.473	304.99
357.855	335.73
358.238	342.05
358.62	340.92
359.002	335.5
359.384	335.5
359.766	326.01
360.148	333.47
360.53	321.49
360.912	324.43
361.294	325.78
361.676	320.13
362.057	355.84
362.439	333.92
362.821	326.69
363.203	310.19
363.584	329.4
363.966	330.98
364.348	318.55
364.729	321.49
365.111	317.42
365.493	316.52
365.874	327.82
366.256	321.26
366.637	310.64
367.019	297.08
367.4	314.26
367.781	319.68
368.163	304.09
368.544	305.22
368.925	305.44
369.306	322.39
369.688	301.38
370.069	293.24
370.45	308.38
370.831	291.88
371.212	306.57
371.593	318.55
371.974	298.66
372.355	292.56
372.736	315.61
373.117	323.3
373.498	314.94
373.879	308.83
374.26	297.76
374.641	314.26
375.021	308.16
375.402	323.97
375.783	320.13
376.163	321.26
376.544	323.75
376.925	317.2
377.305	334.14
377.686	320.13
378.066	323.75
378.447	315.84
378.827	345.67
379.208	328.95
379.588	326.91
379.968	319.23
380.349	343.41
380.729	359.68
381.109	325.1
381.489	363.52
381.87	338.21
382.25	345.22
382.63	344.09
383.01	336.4
383.39	345.89
383.77	356.06
384.15	352.45
384.53	339.79
384.91	347.7
385.29	351.77
385.67	346.35
386.049	347.02
386.429	349.51
386.809	357.65
387.189	345.44
387.568	361.71
387.948	363.52
388.328	370.75
388.707	363.75
389.087	352.22
389.466	356.52
389.846	344.99
390.225	379.79
390.605	359.45
390.984	347.48
391.363	361.94
391.743	371.2
392.122	366.23
392.501	369.4
392.881	376.18
393.26	369.85
393.639	387.93
394.018	380.24
394.397	367.59
394.776	371.43
395.155	387.25
395.534	394.71
395.913	372.33
396.292	401.26
396.671	382.73
397.05	382.5
397.429	378.66
397.808	401.49
398.186	420.47
398.565	391.77
398.944	379.34
399.323	406.46
399.701	399.23
400.08	400.81
400.458	401.94
400.837	425.89
401.215	416.18
401.594	420.24
401.972	411.2
402.351	425.67
402.729	429.73
403.107	422.73
403.486	439.9
403.864	430.64
404.242	451.43
404.62	421.6
404.999	443.07
405.377	443.97
405.755	450.52
406.133	442.62
406.511	456.85
406.889	461.37
407.267	453.69
407.645	483.52
408.023	447.59
408.401	485.55
408.779	466.8
409.156	487.59
409.534	444.2
409.912	492.78
410.29	495.5
410.667	513.35
411.045	516.96
411.422	538.43
411.8	527.13
412.178	488.94
412.555	526.23
412.933	551.99
413.31	539.79
413.687	538.88
414.065	540.92
414.442	599.67
414.819	580.92
415.197	565.78
415.574	597.64
415.951	601.03
416.328	617.07
416.705	599.45
417.082	608.26
417.46	608.94
417.837	625.21
418.214	601.71
418.591	625.66
418.967	623.18
419.344	653.68
419.721	635.38
420.098	646
420.475	656.62
420.852	657.07
421.228	656.17
421.605	684.87
421.982	734.36
422.358	703.4
422.735	720.57
423.111	745.66
423.488	756.51
423.864	750.4
424.241	756.73
424.617	767.13
424.994	786.34
425.37	795.37
425.746	772.32
426.123	811.65
426.499	817.29
426.875	831.98
427.251	845.32
427.627	846.9
428.003	878.76
428.379	864.75
428.756	885.54
429.132	861.36
429.507	886.9
429.883	895.03
430.259	926.9
430.635	947.46
431.011	933.22
431.387	938.2
431.763	957.86
432.138	981.58
432.514	1007.12
432.89	998.99
433.265	1028.81
433.641	1030.17
434.016	1046.44
434.392	1066.1
434.767	1050.06
435.143	1073.79
435.518	1097.51
435.894	1107
436.269	1110.17
436.644	1134.35
437.02	1163.05
437.395	1177.06
437.77	1228.81
438.145	1232.43
438.52	1258.19
438.895	1239.2
439.271	1284.18
439.646	1307.9
440.021	1283.95
440.395	1302.48
440.77	1322.59
441.145	1337.73
441.52	1358.75
441.895	1353.55
442.27	1385.19
442.645	1378.18
443.019	1372.99
443.394	1389.94
443.769	1410.73
444.143	1413.21
444.518	1458.63
444.892	1454.11
445.267	1467.45
445.641	1475.58
446.016	1497.28
446.39	1481.68
446.764	1536.37
447.139	1503.15
447.513	1502.02
447.887	1511.29
448.262	1519.42
448.636	1542.7
449.01	1574.34
449.384	1554.68
449.758	1595.13
450.132	1628.57
450.506	1636.48
450.88	1638.74
451.254	1645.52
451.628	1650.27
452.002	1654.11
452.376	1666.31
452.75	1688.01
453.123	1710.15
453.497	1753.09
453.871	1769.13
454.244	1774.56
454.618	1814.33
454.992	1812.07
455.365	1779.76
455.739	1876.02
456.112	1864.05
456.486	1900.88
456.859	1898.17
457.232	1889.36
457.606	1932.07
457.979	1950.15
458.352	1966.42
458.725	2002.12
459.099	2002.8
459.472	2046.19
459.845	2075.11
460.218	2057.71
460.591	2095.68
460.964	2081.44
461.337	2144.49
461.71	2135
462.083	2195.79
462.456	2208.9
462.829	2228.78
463.201	2221.78
463.574	2258.61
463.947	2246.86
464.32	2307.2
464.692	2338.38
465.065	2317.59
465.438	2349.68
465.81	2421.55
466.183	2430.13
466.555	2468.78
466.928	2495.22
467.3	2495.44
467.672	2536.57
468.045	2566.4
468.417	2590.81
468.789	2626.51
469.161	2593.75
469.534	2670.13
469.906	2690.47
470.278	2772.27
470.65	2735.89
471.022	2784.7
471.394	2810.46
471.766	2869.9
472.138	2916.45
472.51	2990.12
472.882	2978.14
473.253	3051.36
473.625	3054.75
473.997	3118.48
474.369	3130.23
474.74	3157.12
475.112	3202.54
475.484	3251.58
475.855	3276.21
476.227	3350.56
476.598	3431.24
476.97	3396.44
477.341	3464.91
477.713	3544.45
478.084	3530.9
478.455	3636.88
478.827	3635.3
479.198	3724.34
479.569	3737.9
479.94	3832.36
480.311	3853.6
480.682	3939.47
481.053	4004.56
481.424	3991.9
481.795	4109.19
482.166	4137.89
482.537	4150.99
482.908	4244.1
483.279	4302.18
483.65	4349.41
484.021	4408.16
484.391	4457.43
484.762	4485.9
485.133	4512.79
485.503	4608.61
485.874	4622.39
486.244	4701.03
486.615	4781.48
486.985	4813.35
487.356	4893.35
487.726	4967.24
488.097	5023.96
488.467	4982.84
488.837	5106.22
489.207	5103.51
489.578	5192.55
489.948	5242.49
490.318	5305.09
490.688	5307.35
491.058	5402.03
491.428	5457.62
491.798	5499.88
492.168	5553.67
492.538	5624.4
492.908	5643.16
493.278	5664.17
493.648	5741.01
494.017	5768.35
494.387	5807.9
494.757	5828.24
495.126	5927.22
495.496	5875.24
495.866	5904.84
496.235	5947.78
496.605	6000.21
496.974	6107.55
497.344	6130.38
497.713	6102.81
498.082	6152.3
498.452	6226.19
498.821	6200.88
499.19	6261.45
499.559	6306.87
499.928	6291.28
500.298	6334.89
500.667	6393.87
501.036	6345.51
501.405	6470.03
501.774	6388.9
502.143	6477.49
502.512	6480.2
502.88	6539.4
503.249	6513.42
503.618	6557.48
503.987	6617.37
504.356	6567.2
504.724	6619.18
505.093	6597.93
505.462	6626.63
505.83	6691.26
506.199	6745.05
506.567	6741.88
506.936	6826.4
507.304	6874.99
507.672	6815.33
508.041	6815.1
508.409	6869.57
508.777	6933.29
509.145	6989.56
509.514	6915.89
509.882	6987.3
510.25	6910.02
510.618	6973.52
510.986	6978.71
511.354	7058.03
511.722	7038.83
512.09	7104.14
512.458	7068.66
512.826	7136.68
513.193	7126.51
513.561	7139.39
513.929	7162.44
514.297	7238.82
514.664	7241.76
515.032	7200.18
515.4	7265.49
515.767	7241.98
516.135	7240.4
516.502	7252.15
516.869	7300.97
517.237	7323.11
517.604	7284.02
517.972	7288.99
518.339	7397.69
518.706	7335.54
519.073	7344.35
519.44	7355.43
519.808	7381.64
520.175	7380.29
520.542	7460.74
520.909	7465.71
521.276	7418.25
521.643	7504.12
522.009	7545.93
522.376	7545.25
522.743	7556.1
523.11	7557.91
523.477	7648.08
523.843	7616.66
524.21	7627.74
524.577	7720.62
524.943	7748.19
525.31	7641.3
525.676	7713.84
526.043	7726.94
526.409	7701.41
526.776	7779.15
527.142	7797.9
527.508	7773.04
527.874	7801.29
528.241	7783.89
528.607	7815.3
528.973	7874.51
529.339	7804.91
529.705	7812.59
530.071	7864.79
530.437	7835.19
530.803	7897.56
531.169	7961.97
531.535	7868.86
531.901	7878.58
532.267	7869.31
532.632	7900.5
532.998	7860.5
533.364	7931.01
533.73	7884.45
534.095	7907.96
534.461	7883.1
534.826	7961.97
535.192	7869.99
535.557	7966.49
535.923	7936.88
536.288	7913.83
536.653	7897.33
537.019	7902.98
537.384	7875.64
537.749	7900.27
538.114	7850.33
538.479	7851.46
538.845	7875.87
539.21	7811.69
539.575	7812.82
539.94	7837.9
540.305	7808.52
540.67	7824.34
541.034	7800.84
541.399	7791.12
541.764	7766.72
542.129	7827.05
542.494	7796.32
542.858	7769.43
543.223	7791.35
543.587	7755.87
543.952	7737.34
544.316	7744.34
544.681	7741.63
545.045	7718.58
545.41	7743.21
545.774	7775.76
546.138	7693.95
546.503	7707.06
546.867	7724.01
547.231	7702.54
547.595	7720.16
547.959	7694.18
548.324	7698.24
548.688	7630.22
549.052	7620.51
549.416	7682.65
549.779	7631.58
550.143	7603.78
550.507	7723.33
550.871	7616.44
551.235	7664.8
551.599	7663.67
551.962	7628.19
552.326	7603.33
552.689	7583.22
553.053	7588.19
553.417	7603.11
553.78	7663.22
554.143	7538.02
554.507	7590.22
554.87	7581.41
555.234	7646.72
555.597	7550.45
555.96	7624.12
556.323	7549.32
556.686	7529.66
557.05	7595.65
557.413	7664.12
557.776	7577.12
558.139	7616.44
558.502	7641.75
558.865	7618.92
559.228	7597.91
559.59	7566.72
559.953	7607.85
560.316	7713.16
560.679	7673.39
561.041	7718.36
561.404	7708.87
561.767	7729.43
562.129	7765.13
562.492	7764.46
562.854	7760.16
563.217	7659.15
563.579	7773.27
563.941	7788.86
564.304	7799.26
564.666	7840.61
565.028	7822.53
565.39	7818.92
565.753	7874.51
566.115	7887.62
566.477	7868.41
566.839	7961.51
567.201	7953.6
567.563	7925.58
567.925	7983.21
568.287	7968.97
568.648	7996.09
569.01	8084
569.372	8070.89
569.734	8049.42
570.095	8097.56
570.457	8078.8
570.819	8148.85
571.18	8073.15
571.542	8152.7
571.903	8129.19
572.265	8184.56
572.626	8156.54
572.987	8186.59
573.349	8248.06
573.71	8226.59
574.071	8271.79
574.432	8226.82
574.794	8325.8
575.155	8336.87
575.516	8362.41
575.877	8342.29
576.238	8306.59
576.599	8354.95
576.96	8354.95
577.32	8412.58
577.681	8408.28
578.042	8448.51
578.403	8405.8
578.763	8444.44
579.124	8476.08
579.485	8526.02
579.845	8494.38
580.206	8510.65
580.566	8498.45
580.927	8564.66
581.287	8587.49
581.648	8602.17
582.008	8540.48
582.368	8572.8
582.728	8623.64
583.089	8636.52
583.449	8643.76
583.809	8631.33
584.169	8668.61
584.529	8667.48
584.889	8703.42
585.249	8681.95
585.609	8657.31
585.969	8752.68
586.329	8785.22
586.688	8764.43
587.048	8751.32
587.408	8761.27
587.768	8798.55
588.127	8748.39
588.487	8731.44
588.846	8849.63
589.206	8813.69
589.565	8757.88
589.925	8851.43
590.284	8850.08
590.643	8861.38
591.003	8849.63
591.362	8884.2
591.721	8917.65
592.08	8880.13
592.44	8940.92
592.799	8940.47
593.158	8926.91
593.517	8935.95
593.876	8930.75
594.235	8897.08
594.593	9010.3
594.952	8976.85
595.311	8977.31
595.67	8950.87
596.029	9039.45
596.387	9056.4
596.746	9027.47
597.104	9046.23
597.463	8987.93
597.822	9046.91
598.18	9070.64
598.538	9003.52
598.897	9069.51
599.255	9050.75
599.613	9124.87
599.972	9073.35
600.33	9101.37
600.688	9056.17
601.046	9160.58
601.404	9101.6
601.762	9095.5
602.12	9208.26
602.478	9119
602.836	9131.88
603.194	9090.07
603.552	9159.22
603.91	9151.54
604.268	9216.85
604.625	9162.39
604.983	9192.44
605.341	9122.16
605.698	9163.52
606.056	9159
606.413	9199.9
606.771	9255.72
607.128	9218.2
607.485	9196.74
607.843	9239.67
608.2	9274.25
608.557	9285.09
608.914	9253.91
609.272	9333.23
609.629	9320.35
609.986	9334.13
610.343	9289.39
610.7	9314.25
611.057	9332.78
611.414	9281.03
611.771	9309.27
612.127	9335.04
612.484	9344.75
612.841	9439.89
613.198	9366.22
613.554	9400.57
613.911	9356.96
614.267	9433.79
614.624	9427.46
614.98	9403.51
615.337	9367.35
615.693	9476.95
616.05	9451.87
616.406	9459.78
616.762	9392.44
617.118	9429.5
617.475	9446.9
617.831	9428.14
618.187	9437.41
618.543	9454.81
618.899	9487.12
619.255	9510.85
619.611	9507.46
619.967	9462.27
620.323	9561.7
620.678	9541.81
621.034	9537.74
621.39	9435.83
621.746	9421.36
622.101	9631.07
622.457	9518.99
622.812	9499.33
623.168	9530.06
623.523	9604.86
623.879	9573.9
624.234	9551.98
624.589	9539.55
624.945	9557.4
625.3	9496.84
625.655	9504.3
626.01	9531.64
626.365	9562.83
626.72	9454.36
627.075	9537.52
627.43	9574.58
627.785	9463.62
628.14	9556.5
628.495	9597.4
628.85	9511.53
629.205	9492.32
629.559	9482.83
629.914	9459.78
630.269	9472.66
630.623	9381.14
630.978	9434.02
631.332	9476.28
631.687	9499.33
632.041	9375.26
632.396	9481.02
632.75	9373
633.104	9448.71
633.459	9373.68
633.813	9306.34
634.167	9390.4
634.521	9303.4
634.875	9357.41
635.229	9316.28
635.583	9311.99
635.937	9322.61
636.291	9277.19
636.645	9341.59
636.999	9326.68
637.352	9305.21
637.706	9254.14
638.06	9236.06
638.413	9286.9
638.767	9114.7
639.121	9184.76
639.474	9154.7
639.828	9130.97
640.181	9184.08
640.534	9186.79
640.888	9187.7
641.241	9099.11
641.594	9190.86
641.947	9171.65
642.301	9165.1
642.654	9119.68
643.007	9156.74
643.36	9152.22
643.713	9102.95
644.066	9102.27
644.419	9005.1
644.771	8984.09
645.124	8941.6
645.477	8926.01
645.83	8812.11
646.182	8850.98
646.535	8837.42
646.888	8824.77
647.24	8812.56
647.593	8849.4
647.945	8733.92
648.298	8717.43
648.65	8738.44
649.002	8746.35
649.355	8810.08
649.707	8757.43
650.059	8802.85
650.411	8871.77
650.763	8885.56
651.115	8974.82
651.467	8983.63
651.819	9002.84
652.171	8930.08
652.523	8935.27
652.875	8959.45
653.227	8899.57
653.578	9010.53
653.93	8985.22
654.282	8869.29
654.633	8878.78
654.985	8855.73
655.337	8893.47
655.688	8933.01
656.039	8980.7
656.391	8910.19
656.742	8850.08
657.094	8952.9
657.445	8965.56
657.796	8955.61
658.147	8895.27
658.498	8898.89
658.849	8914.71
659.2	8879.91
659.551	8930.53
659.902	8910.42
660.253	8834.94
660.604	8929.85
660.955	8803.53
661.306	8961.71
661.656	8976.4
662.007	8959.68
662.358	8917.42
662.708	8912.45
663.059	8921.04
663.409	8808.27
663.76	8991.09
664.11	8918.55
664.461	8918.32
664.811	8926.01
665.161	8955.84
665.511	8921.04
665.862	8897.53
666.212	8990.64
666.562	8877.2
666.912	8909.51
667.262	8935.27
667.612	8871.77
667.962	8898.44
668.312	8892.11
668.662	8932.79
669.011	8942.28
669.361	8914.03
669.711	8943.18
670.06	8881.94
670.41	8857.31
670.76	8886.24
671.109	8903.86
671.459	8864.77
671.808	8870.87
672.157	8888.04
672.507	8848.5
672.856	8846.91
673.205	8844.88
673.554	8828.61
673.904	8815.5
674.253	8914.48
674.602	8878.1
674.951	8648.95
675.3	8688.95
675.649	8832
675.998	8798.55
676.346	8804.2
676.695	8825.9
677.044	8706.8
677.393	8792
677.741	8760.59
678.09	8718.56
678.438	8699.8
678.787	8724.43
679.135	8743.41
679.484	8684.88
679.832	8731.44
680.181	8628.84
680.529	8688.05
680.877	8646.69
681.225	8610.31
681.573	8689.18
681.922	8580.48
682.27	8618.67
682.618	8549.97
682.966	8565.11
683.314	8610.76
683.661	8530.31
684.009	8535.74
684.357	8481.73
684.705	8494.61
685.053	8526.7
685.4	8459.58
685.748	8354.95
686.095	8434.5
686.443	8392.01
686.79	8354.5
687.138	8385.68
687.485	8362.41
687.832	8348.85
688.18	8306.59
688.527	8283.31
688.874	8257.78
689.221	8248.06
689.568	8241.73
689.915	8211.9
690.262	8124.9
690.609	8163.32
690.956	8152.24
691.303	8157.21
691.65	8024.11
691.997	8107.05
692.344	8012.36
692.69	8014.62
693.037	8073.38
693.383	7937.79
693.73	7959.03
694.077	7877.45
694.423	7906.15
694.769	7909.76
695.116	7849.43
695.462	7859.37
695.808	7792.7
696.155	7752.48
696.501	7788.41
696.847	7690.33
697.193	7664.8
697.539	7733.72
697.885	7624.8
698.231	7609.88
698.577	7578.47
698.923	7614.86
699.269	7602.88
699.614	7539.15
699.96	7461.64
700.306	7516.1
700.651	7430.91
700.997	7369.66
701.342	7408.99
701.688	7336.9
702.033	7329.89
702.379	7332.15
702.724	7286.96
703.069	7315.2
703.415	7190.23
703.76	7235.21
704.105	7237.24
704.45	7186.84
704.795	7174.42
705.14	7135.09
705.485	7127.41
705.83	7124.93
706.175	7134.42
706.52	7115.66
706.865	7036.79
707.209	7098.94
707.554	7018.04
707.899	6985.49
708.243	6983.91
708.588	6946.85
708.932	6882.45
709.277	6873.41
709.621	6936.23
709.966	6880.19
710.31	6852.39
710.654	6832.96
710.998	6859.85
711.342	6803.58
711.687	6823.01
712.031	6783.24
712.375	6776.01
712.719	6735.56
713.063	6748.44
713.407	6737.59
713.75	6715.9
714.094	6706.18
714.438	6700.76
714.782	6674.77
715.125	6589.12
715.469	6646.75
715.812	6643.58
716.156	6594.77
716.499	6622.11
716.843	6602
717.186	6563.58
717.53	6685.39
717.873	6601.55
718.216	6571.72
718.559	6542.57
718.902	6544.38
719.246	6509.57
719.589	6482.68
719.932	6463.47
720.275	6407.66
720.617	6518.61
720.96	6435
721.303	6493.53
721.646	6487.2
721.989	6418.5
722.331	6470.71
722.674	6433.19
723.016	6479.97
723.359	6345.51
723.701	6462.34
724.044	6429.8
724.386	6338.73
724.729	6404.72
725.071	6432.29
725.413	6458.05
725.755	6419.18
726.097	6407.43
726.439	6371.5
726.782	6376.02
727.124	6340.77
727.465	6368.56
727.807	6329.47
728.149	6344.38
728.491	6337.38
728.833	6335.57
729.175	6312.29
729.516	6298.28
729.858	6318.17
730.199	6317.26
730.541	6345.51
730.882	6319.3
731.224	6330.37
731.565	6313.87
731.906	6304.38
732.248	6348.9
732.589	6335.79
732.93	6290.82
733.271	6262.35
733.612	6278.17
733.953	6327.21
734.294	6302.8
734.635	6287.89
734.976	6258.96
735.317	6250.15
735.658	6292.63
735.999	6326.08
736.339	6277.94
736.68	6329.24
737.021	6249.47
737.361	6255.34
737.702	6322.46
738.042	6258.51
738.383	6324.49
738.723	6386.64
739.063	6300.31
739.404	6354.55
739.744	6341.9
740.084	6350.26
740.424	6315.23
740.764	6286.53
741.104	6335.34
741.444	6337.15
741.784	6368.79
742.124	6383.25
742.464	6401.55
742.804	6385.51
743.143	6332.18
743.483	6382.8
743.823	6416.7
744.162	6410.59
744.502	6428.9
744.841	6362.69
745.181	6462.12
745.52	6553.42
745.86	6499.18
746.199	6534.43
746.538	6569.01
746.877	6596.13
747.216	6564.26
747.556	6648.1
747.895	6684.03
748.234	6691.49
748.573	6717.03
748.911	6766.52
749.25	6802.9
749.589	6851.26
749.928	6945.95
750.267	6972.39
750.605	6970.13
750.944	7020.07
751.283	7079.96
751.621	7176
751.96	7142.78
752.298	7286.28
752.636	7288.76
752.975	7284.02
753.313	7448.76
753.651	7538.25
753.989	7560.17
754.327	7695.76
754.666	7727.62
755.004	7830.67
755.342	7943.89
755.679	7999.03
756.017	8051.45
756.355	8173.03
756.693	8257.55
757.031	8369.86
757.368	8436.3
757.706	8477.43
758.044	8603.53
758.381	8732.34
758.719	8830.42
759.056	9037.64
759.394	9074.25
759.731	9144.76
760.068	9219.33
760.405	9357.18
760.743	9429.5
761.08	9606.89
761.417	9735.25
761.754	9834.01
762.091	9983.38
762.428	10033.78
762.765	10175.47
763.102	10353.32
763.438	10358.29
763.775	10525.29
764.112	10718.73
764.449	10794.89
764.785	10821.1
765.122	10958.5
765.458	11030.59
765.795	11168.44
766.131	11164.82
766.467	11313.74
766.804	11468.77
767.14	11492.72
767.476	11648.42
767.812	11723.45
768.148	11848.64
768.485	11889.09
768.821	11980.39
769.157	12027.62
769.492	12184.45
769.828	12232.59
770.164	12253.38
770.5	12347.39
770.836	12494.95
771.171	12470.1
771.507	12576.99
771.842	12557.33
772.178	12680.94
772.513	12656.08
772.849	12751.44
773.184	12902.4
773.519	12901.04
773.855	12961.61
774.19	12952.57
774.525	13012.23
774.86	13073.24
775.195	13122.06
775.53	13129.74
775.865	13191.21
776.2	13107.59
776.535	13133.58
776.87	13160.93
777.205	13260.58
777.539	13164.99
777.874	13286.12
778.209	13245.89
778.543	13203.86
778.878	13223.07
779.212	13273.69
779.547	13262.62
779.881	13331.54
780.215	13215.16
780.55	13395.72
780.884	13252.9
781.218	13302.16
781.552	13377.64
781.886	13368.6
782.22	13386.68
782.554	13247.02
782.888	13297.64
783.222	13262.84
783.556	13201.83
783.889	13255.39
784.223	13106.46
784.557	13199.79
784.89	13233.69
785.224	13247.02
785.557	13148.72
785.891	13199.57
786.224	13164.99
786.558	13062.85
786.891	13129.51
787.224	13045
787.557	13083.19
787.891	13085.45
788.224	13103.3
788.557	13150.08
788.89	13030.08
789.223	12993.92
789.556	12960.93
789.888	12932.91
790.221	12969.07
790.554	12787.38
790.887	12895.4
791.219	12818.79
791.552	12834.38
791.884	12806.13
792.217	12796.87
792.549	12788.73
792.882	12662.18
793.214	12614.05
793.546	12672.8
793.879	12588.06
794.211	12535.63
794.543	12614.5
794.875	12548.29
795.207	12708.96
795.539	12555.52
795.871	12526.14
796.203	12478.91
796.535	12394.17
796.867	12441.85
797.198	12358.91
797.53	12434.84
797.862	12287.5
798.193	12360.72
798.525	12236.2
798.856	12350.78
799.188	12116.88
799.519	12130.9
799.85	12063.78
800.182	12138.13
800.513	12081.63
800.844	11999.37
801.175	12074.17
801.506	12092.48
801.837	11977
802.168	11996.44
802.499	11927.06
802.83	11927.06
803.161	11872.15
803.491	11810.23
803.822	11915.08
804.153	11792.83
804.483	11720.51
804.814	11722.54
805.145	11697.46
805.475	11726.61
805.805	11639.16
806.136	11627.63
806.466	11650.46
806.796	11598.71
807.126	11551.25
807.457	11497.92
807.787	11527.3
808.117	11490.01
808.447	11481.87
808.777	11519.61
809.107	11440.74
809.436	11392.61
809.766	11345.61
810.096	11334.53
810.426	11325.72
810.755	11253.63
811.085	11302.44
811.414	11233.29
811.744	11247.3
812.073	11114.2
812.403	11168.44
812.732	11118.94
813.061	11135.22
813.39	11041.66
813.719	11056.12
814.049	11072.84
814.378	11066.74
814.707	10950.81
815.036	11007.08
815.365	10925.05
815.693	10902
816.022	10890.48
816.351	10818.61
816.68	10803.47
817.008	10848.44
817.337	10765.28
817.665	10683.02
817.994	10735.68
818.322	10726.86
818.651	10708.11
818.979	10692.52
819.307	10704.04
819.636	10685.51
819.964	10650.03
820.292	10676.47
820.62	10668.79
820.948	10676.24
821.276	10628.34
821.604	10579.75
821.932	10640.09
822.259	10659.3
822.587	10663.36
822.915	10589.02
823.243	10625.17
823.57	10595.57
823.898	10626.08
824.225	10632.4
824.553	10615.23
824.88	10646.64
825.207	10628.56
825.535	10547.89
825.862	10626.3
826.189	10587.43
826.516	10584.72
826.843	10667.21
827.17	10656.36
827.497	10716.92
827.824	10641.9
828.151	10722.8
828.478	10657.49
828.805	10729.58
829.131	10678.05
829.458	10632.63
829.785	10490.49
830.111	10663.59
830.438	10641.67
830.764	10629.24
831.09	10664.95
831.417	10608.45
831.743	10621.33
832.069	10670.14
832.395	10637.15
832.722	10632.86
833.048	10575
833.374	10609.81
833.7	10516.93
834.026	10529.13
834.351	10523.71
834.677	10536.81
835.003	10568.22
835.329	10464.27
835.654	10452.3
835.98	10498.62
836.306	10442.58
836.631	10495.91
836.956	10411.84
837.282	10499.07
837.607	10438.51
837.932	10415.91
838.258	10361.68
838.583	10337.5
838.908	10335.24
839.233	10373.2
839.558	10353.77
839.883	10284.16
840.208	10249.36
840.533	10251.17
840.858	10290.94
841.182	10297.72
841.507	10262.92
841.832	10213.43
842.156	10222.7
842.481	10159.87
842.805	10067.45
843.13	10140.21
843.454	10114
843.778	10093.44
844.103	10026.77
844.427	9993.78
844.751	10018.63
845.075	9933.67
845.399	9977.96
845.723	9933.44
846.047	9979.54
846.371	9839.43
846.695	9859.09
847.019	9796.72
847.343	9734.35
847.666	9689.6
847.99	9665.2
848.313	9632.66
848.637	9566.22
848.96	9575.93
849.284	9539.1
849.607	9538.2
849.931	9517.86
850.254	9427.69
850.577	9460.23
850.9	9293.91
851.223	9296.85
851.546	9277.86
851.869	9211.2
852.192	9220.92
852.515	9138.66
852.838	9148.83
853.161	9201.26
853.483	9050.75
853.806	9071.54
854.129	9015.5
854.451	8975.27
854.774	8948.38
855.096	8942.5
855.419	8930.3
855.741	8854.37
856.063	8835.16
856.385	8774.83
856.708	8804.66
857.03	8799.01
857.352	8753.36
857.674	8764.66
857.996	8672.91
858.318	8587.94
858.64	8607.37
858.961	8604.89
859.283	8609.86
859.605	8526.7
859.926	8583.64
860.248	8568.5
860.57	8489.41
860.891	8491.44
861.212	8428.17
861.534	8409.19
861.855	8353.82
862.176	8438.79
862.498	8425.68
862.819	8354.95
863.14	8335.74
863.461	8336.87
863.782	8354.95
864.103	8330.09
864.424	8282.41
864.745	8281.96
865.065	8316.08
865.386	8257.33
865.707	8265.01
866.027	8259.36
866.348	8201.06
866.668	8193.82
866.989	8130.77
867.309	8134.62
867.63	8198.8
867.95	8091.91
868.27	8116.09
868.59	8124.22
868.91	8130.1
869.23	8079.48
869.55	8006.26
869.87	8113.83
870.19	8053.04
870.51	8083.09
870.83	8013.26
871.15	8013.04
871.469	7982.3
871.789	8086.26
872.109	8044.45
872.428	8029.76
872.748	7995.41
873.067	7949.76
873.386	7980.95
873.706	7945.24
874.025	7888.75
874.344	7856.43
874.663	7893.49
874.982	7827.96
875.301	7873.61
875.62	7862.31
875.939	7820.05
876.258	7941.4
876.577	7826.6
876.896	7813.5
877.214	7797.45
877.533	7750.22
877.852	7752.71
878.17	7788.86
878.489	7794.96
878.807	7718.81
879.125	7740.05
879.444	7705.93
879.762	7672.93
880.08	7715.19
880.398	7608.3
880.716	7684.68
881.034	7579.83
881.352	7646.95
881.67	7616.21
881.988	7625.7
882.306	7567.63
882.624	7509.32
882.941	7477.01
883.259	7466.39
883.577	7447.86
883.894	7458.93
884.212	7489.21
884.529	7432.49
884.846	7414.18
885.164	7367.86
885.481	7364.69
885.798	7358.37
886.115	7357.01
886.432	7323.56
886.75	7331.02
887.067	7316.79
887.383	7271.14
887.7	7365.6
888.017	7224.81
888.334	7270.46
888.651	7195.43
888.967	7207.64
889.284	7168.31
889.6	7144.81
889.917	7103.46
890.233	7164.02
890.55	7126.96
890.866	7067.3
891.182	7050.8
891.498	7066.85
891.815	6985.49
892.131	7044.93
892.447	6959.73
892.763	6985.72
893.079	6932.16
893.395	6905.95
893.71	6897.14
894.026	6866.63
894.342	6838.61
894.657	6797.25
894.973	6796.35
895.289	6832.96
895.604	6851.94
895.92	6718.83
896.235	6734.2
896.55	6731.94
896.865	6711.83
897.181	6649.91
897.496	6645.39
897.811	6623.92
898.126	6631.38
898.441	6601.78
898.756	6601.78
899.071	6551.61
899.386	6514.09
899.7	6473.64
900.015	6478.16
900.33	6456.24
900.644	6401.55
900.959	6409.69
901.273	6356.81
901.588	6398.39
901.902	6385.06
902.216	6281.11
902.531	6298.05
902.845	6251.28
903.159	6252.18
903.473	6216.02
903.787	6189.36
904.101	6167.21
904.415	6118.85
904.729	6121.56
905.042	6095.57
905.356	6049.7
905.67	6051.73
905.984	6029.81
906.297	6015.12
906.611	6005.86
906.924	5950.27
907.237	5949.14
907.551	5895.58
907.864	5926.31
908.177	5931.51
908.491	5906.65
908.804	5840.44
909.117	5833.21
909.43	5757.96
909.743	5730.39
910.056	5722.7
910.368	5702.14
910.681	5646.77
910.994	5710.95
911.307	5704.62
911.619	5644.96
911.932	5597.28
912.244	5588.92
912.557	5560.67
912.869	5524.52
913.181	5532.2
913.494	5536.72
913.806	5462.82
914.118	5445.65
914.43	5386.44
914.742	5373.33
915.054	5375.59
915.366	5418.3
915.678	5333.56
915.99	5344.63
916.302	5291.98
916.613	5273.22
916.925	5252.88
917.236	5252.43
917.548	5184.41
917.859	5268.03
918.171	5167.01
918.482	5097.18
918.794	5126.79
919.105	5140.12
919.416	5094.24
919.727	5092.66
920.038	5056.73
920.349	5064.64
920.66	5029.61
920.971	4975.38
921.282	4984.42
921.593	4961.14
921.903	4947.13
922.214	4951.88
922.525	4891.09
922.835	4889.5
923.146	4881.37
923.456	4837.53
923.767	4831.43
924.077	4817.19
924.387	4764.31
924.697	4734.48
925.008	4766.8
925.318	4750.98
925.628	4728.6
925.938	4716.85
926.248	4643.18
926.558	4616.97
926.867	4652.22
927.177	4641.83
927.487	4594.82
927.796	4534.03
928.106	4624.65
928.416	4551.89
928.725	4538.78
929.034	4502.4
929.344	4490.64
929.653	4465.56
929.962	4426.01
930.271	4408.61
930.581	4427.14
930.89	4411.1
931.199	4333.81
931.508	4327.71
931.817	4365.68
932.125	4348.95
932.434	4303.98
932.743	4310.54
933.051	4303.76
933.36	4263.76
933.669	4254.72
933.977	4214.04
934.286	4190.54
934.594	4194.38
934.902	4172.01
935.21	4158
935.519	4172.69
935.827	4134.27
936.135	4128.85
936.443	4105.57
936.751	4027.38
937.059	4063.31
937.367	4092.91
937.674	4050.43
937.982	4020.83
938.29	3978.57
938.597	4004.1
938.905	3940.38
939.213	3926.37
939.52	3928.4
939.827	3927.04
940.135	3910.32
940.442	3854.96
940.749	3859.93
941.056	3852.47
941.363	3821.06
941.67	3829.87
941.977	3805.92
942.284	3800.49
942.591	3792.58
942.898	3760.95
943.205	3734.73
943.511	3762.75
943.818	3730.44
944.125	3674.85
944.431	3638.24
944.738	3678.46
945.044	3643.21
945.35	3625.81
945.657	3620.61
945.963	3586.94
946.269	3600.05
946.575	3569.76
946.881	3577
947.187	3520.05
947.493	3509.65
947.799	3521.18
948.105	3503.1
948.41	3465.81
948.716	3426.27
949.022	3445.02
949.327	3466.26
949.633	3439.15
949.938	3406.15
950.244	3400.05
950.549	3399.83
950.854	3356.44
951.16	3378.13
951.465	3330
951.77	3316.44
952.075	3293.61
952.38	3297.91
952.685	3296.78
952.99	3237.8
953.294	3282.77
953.599	3242.77
953.904	3239.6
954.209	3197.12
954.513	3223.11
954.818	3212.26
955.122	3182.2
955.426	3196.22
955.731	3164.8
956.035	3160.96
956.339	3171.13
956.643	3108.08
956.948	3090.68
957.252	3090.46
957.556	3084.13
957.86	3061.3
958.163	3043.23
958.467	3051.81
958.771	3010.46
959.075	3023.56
959.378	2983.57
959.682	3006.62
959.985	3002.1
960.289	2940.18
960.592	2973.4
960.896	2950.57
961.199	2947.41
961.502	2919.39
961.805	2929.56
962.108	2892.27
962.411	2863.12
962.714	2879.84
963.017	2852.95
963.32	2838.94
963.623	2855.21
963.926	2820.41
964.228	2855.43
964.531	2822.44
964.833	2796.45
965.136	2784.7
965.438	2756.68
965.741	2719.62
966.043	2732.05
966.345	2716.91
966.648	2705.61
966.95	2708.09
967.252	2677.13
967.554	2672.39
967.856	2689.56
968.158	2647.76
968.46	2652.73
968.761	2652.05
969.063	2595.78
969.365	2622.22
969.666	2606.4
969.968	2574.99
970.269	2584.93
970.571	2569.34
970.872	2545.16
971.174	2540.64
971.475	2557.59
971.776	2503.58
972.077	2553.75
972.378	2523.24
972.679	2517.14
972.98	2511.49
973.281	2474.43
973.582	2434.65
973.883	2473.97
974.183	2457.93
974.484	2428.78
974.785	2431.49
975.085	2425.84
975.386	2371.38
975.686	2393.52
975.986	2378.84
976.287	2381.32
976.587	2358.72
976.887	2344.94
977.187	2373.64
977.487	2318.95
977.787	2312.62
978.087	2268.33
978.387	2276.01
978.687	2284.15
978.987	2294.09
979.286	2302.68
979.586	2279.4
979.885	2261.1
980.185	2274.43
980.484	2249.35
980.784	2239.63
981.083	2224.94
981.382	2230.37
981.682	2198.73
981.981	2193.76
982.28	2205.96
982.579	2192.85
982.878	2172.06
983.177	2152.63
983.475	2168.9
983.774	2163.02
984.073	2143.14
984.372	2123.02
984.67	2120.99
984.969	2130.93
985.267	2084.83
985.566	2125.06
985.864	2084.38
986.162	2073.31
986.461	2055.91
986.759	2049.8
987.057	2072.86
987.355	2025.85
987.653	2046.64
987.951	2012.07
988.249	2039.86
988.547	2023.82
988.844	2018.39
989.142	2017.94
989.44	1983.14
989.737	1988.56
990.035	1946.08
990.332	1917.6
990.63	1938.85
990.927	1935.91
991.224	1932.52
991.521	1886.42
991.819	1926.87
992.116	1894.1
992.413	1893.2
992.71	1847.32
993.006	1889.58
993.303	1872.63
993.6	1887.78
993.897	1862.24
994.193	1842.58
994.49	1840.54
994.787	1804.16
995.083	1781.34
995.379	1825.4
995.676	1808.91
995.972	1788.34
996.268	1771.17
996.565	1765.74
996.861	1774.33
997.157	1754.45
997.453	1777.72
997.749	1738.63
998.044	1729.59
998.34	1734.56
998.636	1710.6
998.932	1715.58
999.227	1692.07
999.523	1695.69
999.818	1687.78
1000.114	1647.1
1000.409	1659.76
1000.704	1683.26
1001	1625.86
1001.295	1635.35
1001.59	1638.06
1001.885	1591.06
1002.18	1629.02
1002.475	1603.26
1002.77	1614.79
1003.065	1574.34
1003.359	1596.71
1003.654	1591.29
1003.949	1558.97
1004.243	1553.77
1004.538	1541.12
1004.832	1571.17
1005.127	1527.11
1005.421	1532.08
1005.715	1538.86
1006.009	1499.08
1006.304	1540.89
1006.598	1514.68
1006.892	1472.19
1007.186	1471.06
1007.48	1485.98
1007.773	1496.37
1008.067	1479.2
1008.361	1438.07
1008.655	1441.69
1008.948	1441.69
1009.242	1422.48
1009.535	1385.64
1009.829	1444.62
1010.122	1435.81
1010.415	1391.97
1010.708	1405.53
1011.001	1403.27
1011.295	1382.93
1011.588	1356.72
1011.881	1339.99
1012.173	1342.03
1012.466	1335.02
1012.759	1336.15
1013.052	1321.24
1013.344	1312.2
1013.637	1304.06
1013.93	1333.44
1014.222	1292.31
1014.514	1267.68
1014.807	1269.94
1015.099	1292.08
1015.391	1249.6
1015.683	1281.92
1015.976	1278.53
1016.268	1246.21
1016.56	1215.48
1016.851	1234.23
1017.143	1259.77
1017.435	1211.18
1017.727	1217.06
1018.018	1201.24
1018.31	1194.01
1018.602	1201.01
1018.893	1172.77
1019.185	1200.11
1019.476	1176.38
1019.767	1155.37
1020.058	1179.55
1020.35	1157.85
1020.641	1155.14
1020.932	1144.52
1021.223	1129.6
1021.514	1132.31
1021.804	1137.96
1022.095	1105.2
1022.386	1100
1022.677	1098.87
1022.967	1066.1
1023.258	1081.47
1023.548	1071.98
1023.839	1087.12
1024.129	1076.5
1024.419	1048.25
1024.709	1053.45
1025	1034.69
1025.29	1043.5
1025.58	1038.76
1025.87	1024.3
1026.16	1014.35
1026.449	1008.02
1026.739	1002.83
1027.029	1008.48
1027.319	1002.15
1027.608	1016.16
1027.898	982.26
1028.187	1005.76
1028.477	987.91
1028.766	960.12
1029.055	967.35
1029.344	949.72
1029.634	935.94
1029.923	935.26
1030.212	957.4
1030.501	940
1030.79	958.31
1031.078	939.78
1031.367	932.09
1031.656	905.88
1031.945	903.62
1032.233	893.45
1032.522	901.81
1032.81	899.33
1033.099	901.36
1033.387	886.67
1033.675	858.2
1033.963	888.71
1034.251	868.14
1034.54	883.51
1034.828	847.12
1035.116	866.79
1035.403	847.8
1035.691	853
1035.979	835.37
1036.267	841.48
1036.554	820.68
1036.842	811.19
1037.129	826.56
1037.417	825.2
1037.704	818.65
1037.992	830.18
1038.279	790.4
1038.566	796.05
1038.853	796.05
1039.14	796.05
