Data from hue_80_FLMS001491_52.txt Node
Date: Mon Feb 06 15:23:13 GMT 2017
User: dcchb
Spectrometer: FLMS00149
Trigger mode: 0
Integration Time (sec): 2.000000E-2
Scans to average: 10
Electric dark correction enabled: true
Nonlinearity correction enabled: false
Boxcar width: 0
XAxis mode: Wavelengths
Number of Pixels in Spectrum: 2048
>>>>>Begin Spectral Data<<<<<
341.393	-6.02
341.776	-6.02
342.16	-6.02
342.543	-67.71
342.927	-52.8
343.31	-71.78
343.693	-65.45
344.077	-67.94
344.46	-55.96
344.843	-34.72
345.226	-45.79
345.61	-43.53
345.993	-31.1
346.376	-4.43
346.759	13.64
347.142	25.62
347.525	74.43
347.908	43.7
348.291	76.69
348.674	83.47
349.057	103.13
349.44	145.17
349.823	144.49
350.206	143.36
350.588	197.59
350.971	205.05
351.354	225.62
351.737	203.92
352.119	244.6
352.502	252.96
352.884	256.35
353.267	283.02
353.65	293.86
354.032	277.37
354.414	318.72
354.797	307.65
355.179	312.62
355.562	319.85
355.944	321.21
356.326	337.03
356.709	336.8
357.091	324.14
357.473	347.87
357.855	333.41
358.238	344.48
358.62	354.88
359.002	341.32
359.384	327.76
359.766	337.25
360.148	348.1
360.53	360.53
360.912	325.73
361.294	325.5
361.676	321.43
362.057	337.93
362.439	305.39
362.821	320.53
363.203	319.4
363.584	339.06
363.966	340.19
364.348	304.71
364.729	321.88
365.111	292.28
365.493	309.46
365.874	298.83
366.256	342.9
366.637	290.7
367.019	300.42
367.4	309.91
367.781	313.3
368.163	302
368.544	311.04
368.925	303.13
369.306	300.42
369.688	308.33
370.069	312.17
370.45	303.81
370.831	284.15
371.212	302
371.593	326.86
371.974	306.74
372.355	301.77
372.736	307.65
373.117	302
373.498	317.36
373.879	299.96
374.26	305.16
374.641	311.49
375.021	299.51
375.402	310.36
375.783	341.32
376.163	318.72
376.544	323.47
376.925	335.67
377.305	331.15
377.686	314.43
378.066	322.34
378.447	314.65
378.827	345.61
379.208	346.97
379.588	299.96
379.968	330.47
380.349	349
380.729	318.95
381.109	316.69
381.489	323.47
381.87	351.04
382.25	324.14
382.63	332.28
383.01	338.61
383.39	346.74
383.77	340.64
384.15	338.15
384.53	335.67
384.91	341.32
385.29	345.16
385.67	344.26
386.049	349.45
386.429	333.86
386.809	357.82
387.189	360.3
387.568	337.93
387.948	350.58
388.328	342.45
388.707	351.04
389.087	346.74
389.466	374.99
389.846	349.68
390.225	367.08
390.605	361.88
390.984	356.46
391.363	356.91
391.743	350.81
392.122	355.56
392.501	373.41
392.881	355.56
393.26	393.97
393.639	356.01
394.018	364.37
394.397	378.83
394.776	380.64
395.155	357.59
395.534	351.26
395.913	365.27
396.292	403.24
396.671	381.77
397.05	383.8
397.429	402.56
397.808	390.58
398.186	396.46
398.565	371.15
398.944	391.03
399.323	386.52
399.701	402.56
400.08	388.55
400.458	390.58
400.837	373.63
401.215	378.61
401.594	409.57
401.972	400.75
402.351	406.63
402.729	384.93
403.107	396.23
403.486	379.28
403.864	411.37
404.242	415.44
404.62	396.01
404.999	415.22
405.377	405.05
405.755	433.75
406.133	420.64
406.511	411.83
406.889	423.35
407.267	408.21
407.645	434.42
408.023	428.77
408.401	436.01
408.779	435.33
409.156	455.21
409.534	444.37
409.912	457.93
410.29	433.52
410.667	444.82
411.045	465.38
411.422	478.26
411.8	453.18
412.178	465.84
412.555	464.48
412.933	480.07
413.31	451.37
413.687	464.25
414.065	472.16
414.442	465.61
414.819	472.84
415.197	464.71
415.574	466.74
415.951	474.2
416.328	491.82
416.705	460.86
417.082	500.41
417.46	497.92
417.837	497.02
418.214	495.44
418.591	493.18
418.967	494.54
419.344	489.79
419.721	508.09
420.098	504.7
420.475	507.19
420.852	517.36
421.228	514.2
421.605	551.48
421.982	543.57
422.358	530.47
422.735	528.66
423.111	513.07
423.488	548.54
423.864	540.41
424.241	551.48
424.617	537.92
424.994	539.28
425.37	562.33
425.746	561.2
426.123	561.43
426.499	566.4
426.875	576.57
427.251	569.79
427.627	567.98
428.003	569.11
428.379	574.76
428.756	577.02
429.132	586.06
429.507	611.14
429.883	575.44
430.259	612.05
430.635	613.85
431.011	612.27
431.387	626.28
431.763	645.49
432.138	647.75
432.514	644.59
432.89	648.88
433.265	644.36
433.641	666.28
434.016	660.18
434.392	662.67
434.767	667.64
435.143	674.87
435.518	677.36
435.894	672.84
436.269	671.48
436.644	678.48
437.02	673.51
437.395	713.96
437.77	710.8
438.145	718.03
438.52	723.91
438.895	711.93
439.271	702.67
439.646	738.37
440.021	730.01
440.395	725.72
440.77	739.27
441.145	757.8
441.52	736.56
441.895	766.62
442.27	795.09
442.645	773.62
443.019	783.34
443.394	745.6
443.769	784.47
444.143	767.3
444.518	786.73
444.892	792.61
445.267	795.32
445.641	805.49
446.016	826.5
446.39	832.38
446.764	817.24
447.139	818.82
447.513	815.43
447.887	855.66
448.262	850.23
448.636	842.55
449.01	840.74
449.384	842.77
449.758	888.2
450.132	863.56
450.506	880.74
450.88	908.99
451.254	873.28
451.628	876.22
452.002	900.4
452.376	921.42
452.75	900.85
453.123	915.31
453.497	919.83
453.871	934.98
454.244	927.07
454.618	1007.52
454.992	968.65
455.365	974.07
455.739	1000.06
456.112	1024.24
456.486	994.18
456.859	1022.88
457.232	1035.09
457.606	1015.43
457.979	1016.1
458.352	1052.49
458.725	1087.97
459.099	1066.72
459.472	1108.98
459.845	1144.91
460.218	1138.59
460.591	1140.62
460.964	1118.47
461.337	1159.38
461.71	1175.42
462.083	1219.26
462.456	1216.78
462.829	1200.96
463.201	1240.5
463.574	1251.13
463.947	1246.38
464.32	1256.1
464.692	1262.2
465.065	1310.11
465.438	1322.54
465.81	1350.11
466.183	1356.89
466.555	1409.09
466.928	1396.88
467.3	1402.99
467.672	1411.12
468.045	1473.94
468.417	1474.85
468.789	1465.81
469.161	1523.89
469.534	1525.47
469.906	1605.92
470.278	1576.99
470.65	1612.25
471.022	1649.08
471.394	1696.31
471.766	1725.69
472.138	1776.08
472.51	1800.49
472.882	1832.13
473.253	1884.78
473.625	1903.31
473.997	1943.31
474.369	1981.28
474.74	2037.32
475.112	2072.57
475.484	2135.62
475.855	2175.17
476.227	2165.68
476.598	2260.36
476.97	2292.45
477.341	2374.03
477.713	2433.02
478.084	2502.62
478.455	2554.37
478.827	2632.33
479.198	2752.33
479.569	2753.46
479.94	2858.31
480.311	2894.47
480.682	3035.26
481.053	3123.84
481.424	3204.29
481.795	3262.15
482.166	3360.45
482.537	3443.38
482.908	3526.55
483.279	3635.24
483.65	3758.4
484.021	3846.31
484.391	3955.69
484.762	4056.48
485.133	4143.93
485.503	4228.67
485.874	4400.87
486.244	4484.03
486.615	4610.13
486.985	4693.75
487.356	4873.85
487.726	4953.85
488.097	5147.97
488.467	5239.04
488.837	5353.84
489.207	5502.09
489.578	5639.48
489.948	5788.86
490.318	5919.25
490.688	5990.44
491.058	6195.18
491.428	6323.08
491.798	6446.92
492.168	6666.8
492.538	6756.52
492.908	6933.01
493.278	7031.54
493.648	7160.12
494.017	7354.92
494.387	7407.12
494.757	7599.43
495.126	7766.21
495.496	7845.53
495.866	8021.79
496.235	8116.93
496.605	8265.63
496.974	8384.05
497.344	8482.35
497.713	8635.79
498.082	8803.24
498.452	8978.83
498.821	9113.29
499.19	9080.52
499.559	9317.13
499.928	9422.21
500.298	9516.44
500.667	9689.77
501.036	9729.77
501.405	9878.24
501.774	9971.35
502.143	10107.62
502.512	10261.51
502.88	10398.91
503.249	10445.01
503.618	10507.83
503.987	10623.76
504.356	10779.46
504.724	10851.1
505.093	10907.14
505.462	11016.97
505.83	11139.23
506.199	11317.98
506.567	11449.95
506.936	11430.07
507.304	11622.6
507.672	11792.09
508.041	11691.3
508.409	11957.06
508.777	12007.68
509.145	12145.98
509.514	12150.5
509.882	12221.23
510.25	12388.01
510.618	12477.04
510.986	12439.53
511.354	12705.06
511.722	12778.51
512.09	12848.33
512.458	12875.68
512.826	13005.62
513.193	13024.38
513.561	13156.12
513.929	13299.85
514.297	13278.38
514.664	13406.29
515.032	13502.78
515.4	13496.68
515.767	13700.97
516.135	13700.06
516.502	13695.09
516.869	13887.18
517.237	13850.12
517.604	13915.65
517.972	14012.15
518.339	14134.63
518.706	14100.28
519.073	14190.9
519.44	14293.72
519.808	14394.28
520.175	14422.08
520.542	14545.01
520.909	14639.93
521.276	14572.58
521.643	14705.01
522.009	14859.81
522.376	14963.31
522.743	14867.72
523.11	15114.72
523.477	15081.27
523.843	15303.64
524.21	15382.96
524.577	15389.51
524.943	15406.23
525.31	15550.41
525.676	15604.19
526.043	15653.68
526.409	15704.3
526.776	15855.26
527.142	15851.19
527.508	15991.08
527.874	15968.25
528.241	16024.3
528.607	16048.48
528.973	16118.76
529.339	16156.04
529.705	16321.01
530.071	16430.61
530.437	16337.06
530.803	16407.34
531.169	16536.6
531.535	16394.23
531.901	16453.66
532.267	16500.22
532.632	16630.16
532.998	16528.92
533.364	16622.7
533.73	16553.32
534.095	16719.87
534.461	16680.1
534.826	16751.51
535.192	16804.16
535.557	16817.04
535.923	16817.72
536.288	16836.7
536.653	16822.69
537.019	16867.44
537.384	16825.63
537.749	16878.29
538.114	16846.2
538.479	16851.85
538.845	16884.16
539.21	16764.62
539.575	16817.04
539.94	16834.67
540.305	16951.28
540.67	16812.75
541.034	16844.16
541.399	16946.53
541.764	16858.85
542.129	16934.1
542.494	16868.79
542.858	16907.89
543.223	16936.81
543.587	16937.94
543.952	16913.76
544.316	16883.26
544.681	16851.85
545.045	16902.69
545.41	16965.74
545.774	17036.92
546.138	16871.51
546.503	16894.56
546.867	16872.86
547.231	16986.08
547.595	16986.76
547.959	16964.38
548.324	16900.88
548.688	16888
549.052	16890.94
549.416	16875.35
549.779	16947.89
550.143	16837.61
550.507	16925.74
550.871	16965.29
551.235	16876.93
551.599	16922.58
551.962	16916.25
552.326	16883.03
552.689	17019.07
553.053	16892.07
553.417	16848.23
553.78	17065.62
554.143	16927.1
554.507	16936.36
554.87	16930.71
555.234	17046.19
555.597	16863.82
555.96	16955.8
556.323	16975.23
556.686	16889.36
557.05	17020.43
557.413	17029.02
557.776	17009.58
558.139	17036.92
558.502	17083.7
558.865	17142.46
559.228	17194.21
559.59	17115.11
559.953	17172.74
560.316	17293.87
560.679	17210.71
561.041	17325.96
561.404	17338.39
561.767	17402.11
562.129	17353.53
562.492	17420.64
562.854	17479.17
563.217	17332.28
563.579	17394.66
563.941	17523.92
564.304	17525.5
564.666	17651.82
565.028	17591.49
565.39	17645.72
565.753	17710.81
566.115	17655.89
566.477	17738.38
566.839	17765.04
567.201	17861.76
567.563	17867.41
567.925	17882.55
568.287	17877.81
568.648	17890.01
569.01	18015.43
569.372	18078.03
569.734	18096.11
570.095	17996.45
570.457	18155.09
570.819	18131.36
571.18	18150.57
571.542	18152.15
571.903	18137.91
572.265	18219.04
572.626	18334.52
572.987	18222.66
573.349	18274.86
573.71	18334.74
574.071	18387.62
574.432	18346.72
574.794	18486.38
575.155	18459.03
575.516	18331.13
575.877	18432.14
576.238	18534.06
576.599	18630.56
576.96	18607.96
577.32	18546.49
577.681	18553.27
578.042	18600.27
578.403	18597.79
578.763	18666.71
579.124	18645.47
579.485	18660.61
579.845	18706.26
580.206	18660.16
580.566	18669.2
580.927	18605.92
581.287	18629.43
581.648	18689.08
582.008	18817.67
582.368	18667.62
582.728	18680.5
583.089	18671.68
583.449	18698.58
583.809	18646.37
584.169	18661.29
584.529	18598.24
584.889	18757.56
585.249	18633.49
585.609	18588.52
585.969	18622.42
586.329	18609.99
586.688	18678.92
587.048	18595.3
587.408	18592.14
587.768	18614.06
588.127	18556.21
588.487	18538.35
588.846	18678.01
589.206	18481.86
589.565	18606.6
589.925	18653.83
590.284	18585.58
590.643	18579.48
591.003	18568.64
591.362	18658.8
591.721	18533.16
592.08	18495.42
592.44	18526.15
592.799	18579.03
593.158	18544.91
593.517	18577
593.876	18523.89
594.235	18560.95
594.593	18450.22
594.952	18450.22
595.311	18515.53
595.67	18506.49
596.029	18541.29
596.387	18533.83
596.746	18595.08
597.104	18521.86
597.463	18574.51
597.822	18608.64
598.18	18490.67
598.538	18485.47
598.897	18667.84
599.255	18470.11
599.613	18672.36
599.972	18509.88
600.33	18605.47
600.688	18401.63
601.046	18534.51
601.404	18627.62
601.762	18529.77
602.12	18627.17
602.478	18689.08
602.836	18618.8
603.194	18515.98
603.552	18578.81
603.91	18558.47
604.268	18591.91
604.625	18498.58
604.983	18607.05
605.341	18528.41
605.698	18574.96
606.056	18642.31
606.413	18626.04
606.771	18737.22
607.128	18611.8
607.485	18679.59
607.843	18636.2
608.2	18670.55
608.557	18676.66
608.914	18629.88
609.272	18738.12
609.629	18746.48
609.986	18909.87
610.343	18748.52
610.7	18876.42
611.057	18836.2
611.414	18827.61
611.771	18888.85
612.127	18940.6
612.484	18951.22
612.841	18906.48
613.198	18915.97
613.554	18935.63
613.911	19141.28
614.267	19061.73
614.624	18975.86
614.98	19066.93
615.337	19099.02
615.693	19136.98
616.05	19117.77
616.406	19095.85
616.762	19078.91
617.118	19111.22
617.475	19040.71
617.831	19179.47
618.187	19159.35
618.543	19149.19
618.899	19274.15
619.255	19214.95
619.611	19277.09
619.967	19256.53
620.323	19280.71
620.678	19203.2
621.034	19197.55
621.39	19139.24
621.746	19111.67
622.101	19416.75
622.457	19319.35
622.812	19308.73
623.168	19380.14
623.523	19362.97
623.879	19382.85
624.234	19298.11
624.589	19361.16
624.945	19385.11
625.3	19323.87
625.655	19367.03
626.01	19333.59
626.365	19331.1
626.72	19312.35
627.075	19322.06
627.43	19309.41
627.785	19192.35
628.14	19266.7
628.495	19280.26
628.85	19288.39
629.205	19244.32
629.559	19320.93
629.914	19234.38
630.269	19219.24
630.623	19182.86
630.978	19255.62
631.332	19230.54
631.687	19280.48
632.041	19193.03
632.396	19238.45
632.75	19118.23
633.104	19175.63
633.459	18991.22
633.813	19062.63
634.167	19014.73
634.521	19071.67
634.875	19138.79
635.229	19014.73
635.583	18956.65
635.937	19013.6
636.291	19027.16
636.645	18925.01
636.999	18909.64
637.352	18954.61
637.706	18817.9
638.06	18831.45
638.413	18892.92
638.767	18804.11
639.121	18808.63
639.474	18809.53
639.828	18750.55
640.181	18768.18
640.534	18728.63
640.888	18667.84
641.241	18620.61
641.594	18731.8
641.947	18723.66
642.301	18563.21
642.654	18666.03
643.007	18732.7
643.36	18630.33
643.713	18641.4
644.066	18661.97
644.419	18489.09
644.771	18467.85
645.124	18205.48
645.477	18250
645.83	18161.87
646.182	18120.06
646.535	17990.8
646.888	17944.25
647.24	17879.16
647.593	17936.11
647.945	17940.63
648.298	17895.21
648.65	17914.64
649.002	17878.71
649.355	17954.87
649.707	17885.49
650.059	18012.27
650.411	18290
650.763	18233.73
651.115	18567.96
651.467	18426.49
651.819	18314.41
652.171	18446.38
652.523	18458.81
652.875	18352.14
653.227	18258.14
653.578	18474.63
653.93	18431.24
654.282	18315.31
654.633	18248.87
654.985	18330.9
655.337	18276.21
655.688	18299.26
656.039	18398.92
656.391	18177.46
656.742	18315.99
657.094	18270.34
657.445	18334.74
657.796	18380.84
658.147	18336.55
658.498	18352.37
658.849	18341.98
659.2	18300.62
659.551	18254.29
659.902	18292.94
660.253	18307.63
660.604	18349.66
660.955	18220.85
661.306	18352.14
661.656	18317.34
662.007	18273.28
662.358	18397.12
662.708	18285.25
663.059	18308.98
663.409	18246.61
663.76	18393.95
664.11	18337.91
664.461	18361.18
664.811	18359.15
665.161	18428.98
665.511	18430.11
665.862	18318.02
666.212	18339.04
666.562	18442.54
666.912	18307.17
667.262	18323.22
667.612	18348.3
667.962	18359.6
668.312	18386.95
668.662	18413.39
669.011	18247.51
669.361	18320.28
669.711	18255.88
670.06	18286.38
670.41	18306.95
670.76	18278.02
671.109	18299.72
671.459	18198.7
671.808	18211.58
672.157	18316.21
672.507	18204.8
672.856	18185.6
673.205	18195.99
673.554	18195.76
673.904	18156.9
674.253	18278.25
674.602	18202.54
674.951	17800.29
675.3	17759.39
675.649	18084.58
675.998	17997.35
676.346	18119.38
676.695	18200.74
677.044	17968.2
677.393	18027.41
677.741	18056.56
678.09	18030.12
678.438	18010.46
678.787	17962.78
679.135	17918.48
679.484	17829.67
679.832	17910.8
680.181	17868.77
680.529	17893.63
680.877	17831.93
681.225	17766.4
681.573	17886.85
681.922	17697.7
682.27	17824.25
682.618	17788.09
682.966	17626.29
683.314	17684.14
683.661	17545.84
684.009	17519.85
684.357	17526.4
684.705	17450.25
685.053	17582.67
685.4	17412.06
685.748	17316.69
686.095	17218.39
686.443	17304.26
686.79	17235.34
687.138	17217.26
687.485	17186.07
687.832	17146.75
688.18	17157.83
688.527	17079.18
688.874	17059.3
689.221	17002.58
689.568	16979.53
689.915	16953.31
690.262	16921.45
690.609	16787.44
690.956	16629.7
691.303	16642.81
691.65	16643.04
691.997	16572.76
692.344	16525.98
692.69	16541.57
693.037	16579.54
693.383	16375.93
693.73	16351.29
694.077	16239.88
694.423	16217.96
694.769	16205.08
695.116	16164.86
695.462	16158.76
695.808	16045.99
696.155	16089.38
696.501	15994.47
696.847	15933.9
697.193	15804.64
697.539	15891.87
697.885	15706.56
698.231	15718.99
698.577	15672.89
698.923	15728.71
699.269	15580.92
699.614	15439.23
699.96	15476.51
700.306	15346.8
700.651	15400.81
700.997	15210.98
701.342	15271.55
701.688	15186.35
702.033	15078.33
702.379	15088.28
702.724	14980.93
703.069	15014.38
703.415	14858.45
703.76	14897.77
704.105	14862.74
704.45	14854.84
704.795	14773.03
705.14	14721.96
705.485	14746.36
705.83	14622.75
706.175	14555.86
706.52	14600.83
706.865	14526.03
707.209	14491.46
707.554	14416.88
707.899	14476.09
708.243	14319.71
708.588	14281.97
708.932	14183.89
709.277	14224.12
709.621	14242.65
709.966	14159.49
710.31	14147.74
710.654	13965.59
710.998	14006.27
711.342	14066.16
711.687	13928.08
712.031	13877.23
712.375	13783.23
712.719	13888.31
713.063	13756.56
713.407	13818.7
713.75	13754.07
714.094	13688.31
714.438	13642.66
714.782	13687.18
715.125	13570.8
715.469	13640.63
715.812	13539.16
716.156	13566.96
716.499	13479.28
716.843	13529.9
717.186	13443.8
717.53	13555.43
717.873	13524.25
718.216	13512.95
718.559	13375.1
718.902	13256.46
719.246	13316.8
719.589	13326.51
719.932	13247.19
720.275	13280.19
720.617	13282.45
720.96	13176.01
721.303	13223.69
721.646	13261.2
721.989	13093.75
722.331	13119.74
722.674	13162.22
723.016	13116.35
723.359	13103.24
723.701	13166.97
724.044	13066.86
724.386	13073.41
724.729	13041.32
725.071	13053.53
725.413	13015.56
725.755	13062.34
726.097	13024.38
726.439	12956.81
726.782	12932.17
727.124	12975.79
727.465	12926.52
727.807	12910.03
728.149	12959.52
728.491	12965.85
728.833	12928.56
729.175	12920.42
729.516	12896.47
729.858	12849.46
730.199	12883.36
730.541	12855.34
730.882	12840.2
731.224	12809.92
731.565	12713.65
731.906	12765.85
732.248	12784.38
732.589	12753.42
732.93	12797.04
733.271	12737.6
733.612	12742.57
733.953	12722.91
734.294	12736.92
734.635	12700.09
734.976	12699.41
735.317	12699.86
735.658	12727.89
735.999	12769.47
736.339	12706.64
736.68	12800.43
737.021	12768.34
737.361	12715.68
737.702	12813.76
738.042	12749.13
738.383	12716.36
738.723	12815.79
739.063	12704.16
739.404	12785.06
739.744	12840.65
740.084	12760.43
740.424	12763.14
740.764	12754.78
741.104	12830.93
741.444	12808.34
741.784	12777.83
742.124	12806.98
742.464	12807.88
742.804	12828.67
743.143	12850.59
743.483	12939.86
743.823	12800.2
744.162	12901.21
744.502	12919.29
744.841	12960.2
745.181	13071.61
745.52	12982.57
745.86	13117.25
746.199	13132.17
746.538	13099.63
746.877	13240.87
747.216	13260.75
747.556	13226.18
747.895	13280.41
748.234	13324.93
748.573	13360.19
748.911	13408.09
749.25	13511.59
749.589	13502.55
749.928	13533.29
750.267	13679.95
750.605	13688.09
750.944	13750.23
751.283	13801.3
751.621	13907.52
751.96	13946.61
752.298	14069.32
752.636	14157.45
752.975	14183.67
753.313	14186.15
753.651	14406.49
753.989	14384.34
754.327	14455.52
754.666	14646.25
755.004	14753.14
755.342	14861.84
755.679	14887.83
756.017	14930.54
756.355	15103.64
756.693	15182.96
757.031	15291.89
757.368	15322.62
757.706	15521.71
758.044	15631.99
758.381	15764.19
758.719	15863.4
759.056	15929.84
759.394	15979.55
759.731	16075.59
760.068	16255.02
760.405	16210.96
760.743	16425.64
761.08	16639.2
761.417	16616.6
761.754	16772.98
762.091	16831.51
762.428	16885.06
762.765	17007.55
763.102	17118.05
763.438	17194.43
763.775	17262
764.112	17415.67
764.449	17485.5
764.785	17544.26
765.122	17607.08
765.458	17656.34
765.795	17818.37
766.131	17746.96
766.467	17894.3
766.804	17952.83
767.14	17956.45
767.476	18104.24
767.812	18028.99
768.148	18174.3
768.485	18174.97
768.821	18100.17
769.157	18227.18
769.492	18246.61
769.828	18440.73
770.164	18294.74
770.5	18311.92
770.836	18487.06
771.171	18423.1
771.507	18435.98
771.842	18406.38
772.178	18463.55
772.513	18583.32
772.849	18534.74
773.184	18600.95
773.519	18565.25
773.855	18477.11
774.19	18443.67
774.525	18593.72
774.86	18634.85
775.195	18549.88
775.53	18545.13
775.865	18480.28
776.2	18436.44
776.535	18418.58
776.87	18417
777.205	18470.79
777.539	18340.62
777.874	18447.28
778.209	18292.71
778.543	18361.18
778.878	18284.12
779.212	18334.74
779.547	18198.7
779.881	18340.39
780.215	18146.05
780.55	18307.85
780.884	18183.11
781.218	18068.99
781.552	18132.04
781.886	18080.06
782.22	18044.36
782.554	18012.72
782.888	17865.15
783.222	17729.79
783.556	17783.12
783.889	17770.01
784.223	17635.33
784.557	17623.58
784.89	17716.91
785.224	17591.94
785.557	17641.2
785.891	17573.63
786.224	17518.27
786.558	17493.86
786.891	17372.06
787.224	17327.31
787.557	17334.54
787.891	17283.92
788.224	17255.22
788.557	17313.75
788.89	17246.64
789.223	17168.9
789.556	17005.06
789.888	17045.51
790.221	16921.45
790.554	16882.35
790.887	16944.72
791.219	16816.14
791.552	16857.04
791.884	16780.66
792.217	16751.96
792.549	16646.88
792.882	16617.5
793.214	16442.14
793.546	16528.92
793.879	16363.5
794.211	16316.94
794.543	16306.77
794.875	16323.5
795.207	16399.2
795.539	16257.96
795.871	16292.54
796.203	16202.37
796.535	16085.09
796.867	16023.17
797.198	15956.73
797.53	15989.95
797.862	15928.93
798.193	15912.43
798.525	15793.12
798.856	15829.73
799.188	15737.98
799.519	15628.6
799.85	15572.1
800.182	15634.48
800.513	15544.31
800.844	15440.58
801.175	15501.6
801.506	15359.23
801.837	15367.59
802.168	15294.82
802.499	15280.13
802.83	15221.83
803.161	15237.42
803.491	15118.11
803.822	15265.9
804.153	15113.81
804.483	15001.95
804.814	14959.92
805.145	14975.28
805.475	14956.08
805.805	14860.48
806.136	14963.08
806.466	14921.73
806.796	14817.77
807.126	14669.08
807.457	14662.3
807.787	14725.8
808.117	14703.43
808.447	14630.21
808.777	14568.97
809.107	14553.6
809.436	14530.55
809.766	14520.38
810.096	14441.06
810.426	14368.97
810.755	14422.98
811.085	14350.22
811.414	14355.19
811.744	14228.41
812.073	14274.51
812.403	14108.41
812.732	14201.07
813.061	14096.89
813.39	14045.37
813.719	14019.15
814.049	14136.89
814.378	14044.69
814.707	13969.43
815.036	13931.7
815.365	13876.33
815.693	13806.28
816.022	13846.95
816.351	13721.08
816.68	13711.14
817.008	13711.59
817.337	13607.86
817.665	13634.3
817.994	13639.27
818.322	13612.38
818.651	13552.95
818.979	13539.84
819.307	13475.21
819.636	13488.09
819.964	13432.73
820.292	13431.14
820.62	13483.35
820.948	13345.04
821.276	13416
821.604	13345.04
821.932	13392.27
822.259	13426.17
822.587	13387.53
822.915	13320.41
823.243	13372.61
823.57	13410.13
823.898	13399.73
824.225	13325.16
824.553	13312.5
824.88	13338.94
825.207	13358.38
825.535	13310.02
825.862	13370.58
826.189	13309.57
826.516	13419.17
826.843	13418.26
827.17	13414.87
827.497	13314.31
827.824	13435.44
828.151	13416.23
828.478	13320.19
828.805	13419.39
829.131	13398.83
829.458	13355.89
829.785	13298.72
830.111	13281.54
830.438	13296.23
830.764	13254.88
831.09	13329.68
831.417	13223.69
831.743	13378.72
832.069	13357.7
832.395	13160.64
832.722	13303.01
833.048	13221.88
833.374	13297.81
833.7	13155.67
834.026	13204.48
834.351	13260.75
834.677	13201.55
835.003	13191.15
835.329	13178.5
835.654	13217.36
835.98	13107.76
836.306	13114.54
836.631	13082.68
836.956	13077.71
837.282	13073.87
837.607	13048.33
837.932	13043.81
838.258	13047.2
838.583	13032.28
838.908	12905.06
839.233	13001.78
839.558	12924.26
839.883	12896.69
840.208	12851.05
840.533	12841.1
840.858	12839.52
841.182	12898.95
841.507	12828.67
841.832	12778.73
842.156	12682.01
842.481	12769.01
842.805	12619.87
843.13	12672.52
843.454	12627.32
843.778	12588.23
844.103	12515.69
844.427	12525.41
844.751	12554.33
845.075	12482.92
845.399	12451.28
845.723	12370.61
846.047	12401.11
846.371	12217.39
846.695	12300.33
847.019	12183.49
847.343	12174.45
847.666	12087.45
847.99	12028.02
848.313	12040.45
848.637	11946.21
848.96	11931.3
849.284	11897.63
849.607	11817.63
849.931	11791.64
850.254	11682.04
850.577	11651.53
850.9	11598.42
851.223	11551.87
851.546	11509.61
851.869	11477.3
852.192	11500.12
852.515	11307.36
852.838	11378.99
853.161	11298.32
853.483	11299.9
853.806	11280.47
854.129	11207.7
854.451	11132.9
854.774	11146.91
855.096	11069.62
855.419	11070.75
855.741	10964.99
856.063	10957.99
856.385	10901.04
856.708	10932.9
857.03	10909.18
857.352	10948.5
857.674	10842.96
857.996	10799.57
858.318	10743.31
858.64	10793.93
858.961	10674.61
859.283	10693.36
859.605	10605.23
859.926	10645.91
860.248	10621.5
860.57	10605.68
860.891	10609.07
861.212	10561.84
861.534	10477.32
861.855	10575.4
862.176	10472.35
862.498	10483.2
862.819	10440.71
863.14	10354.61
863.461	10339.93
863.782	10316.65
864.103	10332.47
864.424	10229.42
864.745	10275.07
865.065	10284.33
865.386	10216.77
865.707	10165.92
866.027	10180.38
866.348	10177.22
866.668	10157.33
866.989	10120.72
867.309	10103.77
867.63	10119.14
867.95	10057.45
868.27	10046.83
868.59	10031.46
868.91	10019.48
869.23	10047.73
869.55	9990.78
869.87	10007.96
870.19	9971.57
870.51	9993.95
870.83	10011.35
871.15	9871.46
871.469	9849.54
871.789	9965.92
872.109	9861.29
872.428	9848.41
872.748	9898.36
873.067	9871.01
873.386	9831.01
873.706	9728.19
874.025	9751.24
874.344	9791.24
874.663	9709.43
874.982	9727.74
875.301	9744.91
875.62	9748.08
875.939	9625.14
876.258	9616.56
876.577	9632.37
876.896	9619.04
877.214	9558.03
877.533	9573.62
877.852	9604.58
878.17	9632.6
878.489	9566.16
878.807	9550.34
879.125	9646.16
879.444	9531.36
879.762	9454.98
880.08	9526.84
880.398	9464.47
880.716	9518.7
881.034	9393.28
881.352	9450.68
881.67	9427.86
881.988	9382.44
882.306	9297.69
882.624	9326.17
882.941	9262.21
883.259	9273.06
883.577	9268.54
883.894	9214.08
884.212	9201.42
884.529	9238.71
884.846	9141.99
885.164	9143.35
885.481	9076.68
885.798	9115.33
886.115	9025.84
886.432	9026.29
886.75	8983.35
887.067	9025.38
887.383	9061.99
887.7	8996.91
888.017	8979.96
888.334	8843.47
888.651	8887.99
888.967	8934.54
889.284	8814.54
889.6	8811.6
889.917	8722.12
890.233	8770.25
890.55	8725.05
890.866	8736.8
891.182	8708.78
891.498	8676.92
891.815	8635.11
892.131	8579.97
892.447	8634.66
892.763	8552.63
893.079	8605.96
893.395	8513.53
893.71	8488.45
894.026	8443.25
894.342	8432.86
894.657	8384.05
894.973	8347.66
895.289	8433.99
895.604	8390.37
895.92	8342.24
896.235	8296.36
896.55	8304.5
896.865	8260.66
897.181	8256.14
897.496	8186.31
897.811	8159.19
898.126	8135.01
898.441	8133.88
898.756	8056.82
899.071	8045.97
899.386	8039.42
899.7	7995.13
900.015	7989.25
900.33	7930.72
900.644	7889.59
900.959	7865.64
901.273	7936.83
901.588	7818.18
901.902	7808.92
902.216	7736.15
902.531	7730.95
902.845	7733.67
903.159	7706.32
903.473	7630.62
903.787	7604.18
904.101	7561.47
904.415	7518.76
904.729	7492.09
905.042	7478.76
905.356	7471.98
905.67	7422.04
905.984	7388.82
906.297	7385.2
906.611	7314.02
906.924	7274.7
907.237	7296.84
907.551	7352.43
907.864	7182.95
908.177	7232.66
908.491	7205.32
908.804	7216.39
909.117	7100.46
909.43	7133.91
909.743	7015.72
910.056	7094.14
910.368	7067.92
910.681	7011.65
910.994	6971.88
911.307	6919
911.619	6900.69
911.932	6843.75
912.244	6834.03
912.557	6853.24
912.869	6761.94
913.181	6771.88
913.494	6807.14
913.806	6737.31
914.118	6705.67
914.43	6653.02
914.742	6661.15
915.054	6632.68
915.366	6602.62
915.678	6550.87
915.99	6505.9
916.302	6468.62
916.613	6442.85
916.925	6448.73
917.236	6432.91
917.548	6382.74
917.859	6370.31
918.171	6315.17
918.482	6317.88
918.794	6272.69
919.105	6294.61
919.416	6260.71
919.727	6216.42
920.038	6210.32
920.349	6127.38
920.66	6137.1
920.971	6107.72
921.282	6071.79
921.593	6027.27
921.903	6018.23
922.214	5996.09
922.525	6000.83
922.835	5952.24
923.146	5929.19
923.456	5891.91
923.767	5908.4
924.077	5851.68
924.387	5859.82
924.697	5787.73
925.008	5797.67
925.318	5801.74
925.628	5731.46
925.938	5703.66
926.248	5676.55
926.558	5675.64
926.867	5691.46
927.177	5662.31
927.487	5592.93
927.796	5582.31
928.106	5554.74
928.416	5532.14
928.725	5528.98
929.034	5473.61
929.344	5487.62
929.653	5434.52
929.962	5449.43
930.271	5383.45
930.581	5397
930.89	5350.68
931.199	5251.02
931.508	5279.49
931.817	5301.87
932.125	5245.82
932.434	5285.14
932.743	5216.22
933.051	5206.73
933.36	5126.5
933.669	5075.66
933.977	5120.63
934.286	5134.86
934.594	5073.62
934.902	5016.9
935.21	4952.95
935.519	5046.73
935.827	5029.33
936.135	4947.98
936.443	4906.17
936.751	4946.62
937.059	4951.14
937.367	4906.62
937.674	4851.71
937.982	4859.17
938.29	4843.8
938.597	4841.09
938.905	4823.23
939.213	4788.43
939.52	4731.94
939.827	4773.97
940.135	4694.65
940.442	4683.35
940.749	4673.18
941.056	4719.73
941.363	4623.92
941.67	4579.63
941.977	4534.88
942.284	4580.98
942.591	4574.2
942.898	4566.74
943.205	4504.83
943.511	4474.09
943.818	4486.75
944.125	4427.54
944.431	4461.89
944.738	4453.08
945.044	4417.14
945.35	4373.98
945.657	4373.53
945.963	4312.51
946.269	4355
946.575	4345.73
946.881	4218.96
947.187	4267.77
947.493	4247.66
947.799	4285.85
948.105	4245.62
948.41	4207.88
948.716	4192.52
949.022	4106.64
949.327	4129.24
949.633	4121.78
949.938	4110.49
950.244	4127.21
950.549	4087.21
950.854	4068.68
951.16	4024.39
951.465	3998.85
951.77	3998.62
952.075	3995.69
952.38	3937.16
952.685	3948.23
952.99	3930.83
953.294	3933.77
953.599	3893.77
953.904	3869.36
954.209	3877.95
954.513	3883.82
954.818	3827.78
955.122	3802.92
955.426	3805.86
955.731	3799.98
956.035	3747.33
956.339	3745.75
956.643	3768.8
956.948	3711.4
957.252	3697.39
957.556	3656.26
957.86	3667.11
958.163	3684.73
958.467	3660.1
958.771	3649.48
959.075	3627.33
959.378	3619.2
959.682	3605.64
959.985	3577.17
960.289	3546.43
960.592	3529.94
960.896	3571.74
961.199	3485.19
961.502	3479.77
961.805	3531.29
962.108	3482.71
962.411	3440.22
962.714	3431.41
963.017	3429.6
963.32	3395.7
963.623	3362.48
963.926	3396.15
964.228	3378.98
964.531	3325.65
964.833	3334.23
965.136	3329.94
965.438	3278.19
965.741	3261.02
966.043	3299.66
966.345	3260.56
966.648	3270.51
966.95	3214.01
967.252	3214.69
967.554	3193.22
967.856	3166.78
968.158	3182.83
968.46	3159.1
968.761	3147.35
969.063	3168.59
969.365	3119.1
969.666	3103.51
969.968	3048.82
970.269	3054.69
970.571	3033.23
970.872	3070.29
971.174	3029.38
971.475	3000.23
971.776	3002.27
972.077	2990.29
972.378	2964.53
972.679	2959.1
972.98	2992.1
973.281	2938.31
973.582	2946.67
973.883	2926.79
974.183	2929.73
974.484	2924.08
974.785	2877.07
975.085	2882.04
975.386	2851.54
975.686	2867.58
975.986	2881.59
976.287	2867.35
976.587	2800.46
976.887	2806.56
977.187	2806.11
977.487	2775.83
977.787	2775.15
978.087	2739
978.387	2733.35
978.687	2725.21
978.987	2716.85
979.286	2718.88
979.586	2719.56
979.885	2665.78
980.185	2656.51
980.484	2666.46
980.784	2612.45
981.083	2633.69
981.382	2634.59
981.682	2649.28
981.981	2623.97
982.28	2594.37
982.579	2574.93
982.878	2576.74
983.177	2591.43
983.475	2545.55
983.774	2546.68
984.073	2537.65
984.372	2464.88
984.67	2495.16
984.969	2466.46
985.267	2481.15
985.566	2447.93
985.864	2437.99
986.162	2437.31
986.461	2419
986.759	2448.38
987.057	2406.12
987.355	2395.05
987.653	2393.92
987.951	2381.27
988.249	2406.58
988.547	2373.58
988.844	2332.23
989.142	2336.52
989.44	2333.36
989.737	2354.6
990.035	2304.66
990.332	2312.57
990.63	2277.09
990.927	2311.66
991.224	2287.03
991.521	2282.28
991.819	2265.34
992.116	2231.21
992.413	2240.48
992.71	2211.55
993.006	2210.2
993.303	2196.64
993.6	2190.31
993.897	2161.84
994.193	2158.9
994.49	2151.44
994.787	2149.41
995.083	2116.19
995.379	2133.14
995.676	2124.32
995.972	2102.18
996.268	2071.22
996.565	2091.56
996.861	2088.62
997.157	2060.82
997.453	2049.52
997.749	2045.45
998.044	2007.94
998.34	2017.88
998.636	1995.74
998.932	2013.37
999.227	1990.99
999.523	1981.73
999.818	1945.8
1000.114	1981.5
1000.409	1959.81
1000.704	1934.72
1001	1928.17
1001.295	1955.51
1001.59	1919.36
1001.885	1914.38
1002.18	1925.23
1002.475	1870.77
1002.77	1852.24
1003.065	1838.45
1003.359	1868.96
1003.654	1843.2
1003.949	1831.9
1004.243	1852.92
1004.538	1797.55
1004.832	1796.2
1005.127	1789.87
1005.421	1782.64
1005.715	1782.41
1006.009	1765.01
1006.304	1753.94
1006.598	1724.33
1006.892	1735.86
1007.186	1718.68
1007.48	1744.22
1007.773	1705.12
1008.067	1703.99
1008.361	1664.45
1008.655	1717.1
1008.948	1655.41
1009.242	1679.36
1009.535	1667.39
1009.829	1662.87
1010.122	1642.08
1010.415	1626.93
1010.708	1581.74
1011.001	1600.49
1011.295	1577.44
1011.588	1550.1
1011.881	1594.17
1012.173	1551
1012.466	1575.18
1012.759	1565.92
1013.052	1538.35
1013.344	1522.98
1013.637	1580.61
1013.93	1489.31
1014.222	1489.31
1014.514	1504
1014.807	1501.74
1015.099	1484.57
1015.391	1467.84
1015.683	1484.79
1015.976	1461.29
1016.268	1457.9
1016.56	1485.92
1016.851	1409.99
1017.143	1423.55
1017.435	1406.15
1017.727	1405.92
1018.018	1372.25
1018.31	1408.41
1018.602	1367.96
1018.893	1432.14
1019.185	1350.78
1019.476	1381.74
1019.767	1371.12
1020.058	1338.13
1020.35	1300.62
1020.641	1315.08
1020.932	1308.3
1021.223	1301.07
1021.514	1305.14
1021.804	1286.38
1022.095	1272.14
1022.386	1293.84
1022.677	1253.84
1022.967	1273.5
1023.258	1245.93
1023.548	1232.59
1023.839	1257.23
1024.129	1246.61
1024.419	1214.29
1024.709	1222.65
1025	1192.82
1025.29	1182.2
1025.58	1205.25
1025.87	1196.21
1026.16	1186.04
1026.449	1162.54
1026.739	1187.17
1027.029	1151.24
1027.319	1139.49
1027.608	1125.48
1027.898	1125.93
1028.187	1117.57
1028.477	1150.34
1028.766	1089.32
1029.055	1120.51
1029.344	1093.39
1029.634	1096.55
1029.923	1082.99
1030.212	1074.86
1030.501	1088.19
1030.79	1071.47
1031.078	1030.79
1031.367	1055.88
1031.656	1049.55
1031.945	1019.49
1032.233	1029.44
1032.522	1005.48
1032.81	1004.58
1033.099	1018.82
1033.387	1009.32
1033.675	994.86
1033.963	988.31
1034.251	981.75
1034.54	979.72
1034.828	976.33
1035.116	981.75
1035.403	973.39
1035.691	967.74
1035.979	946.95
1036.267	930.68
1036.554	944.24
1036.842	928.2
1037.129	933.17
1037.417	904.69
1037.704	916.44
1037.992	923.68
1038.279	902.66
1038.566	898.37
1038.853	898.37
1039.14	898.37
