Data from hue_190_FLMS001491_00032.txt Node
Date: Tue Feb 07 16:45:11 GMT 2017
User: dcchb
Spectrometer: FLMS00149
Trigger mode: 0
Integration Time (sec): 2.000000E-2
Scans to average: 10
Electric dark correction enabled: true
Nonlinearity correction enabled: false
Boxcar width: 0
XAxis mode: Wavelengths
Number of Pixels in Spectrum: 2048
>>>>>Begin Spectral Data<<<<<
341.393	-3.69
341.776	-3.69
342.16	-3.69
342.543	-61.54
342.927	-61.31
343.31	-63.35
343.693	-72.16
344.077	-48.66
344.46	-59.73
344.843	-46.62
345.226	-26.28
345.61	-52.05
345.993	-19.73
346.376	-16.57
346.759	22.3
347.142	11.68
347.525	30.66
347.908	54.17
348.291	81.28
348.674	92.36
349.057	112.69
349.44	116.76
349.823	153.82
350.206	155.63
350.588	198.34
350.971	190.43
351.354	227.72
351.737	249.41
352.119	243.99
352.502	257.78
352.884	257.78
353.267	266.14
353.65	281.96
354.032	286.7
354.414	282.41
354.797	295.06
355.179	302.29
355.562	326.7
355.944	325.8
356.326	326.25
356.709	339.58
357.091	319.02
357.473	348.39
357.855	353.82
358.238	338.68
358.62	303.42
359.002	334.38
359.384	333.71
359.766	319.02
360.148	330.99
360.53	334.38
360.912	327.6
361.294	331.67
361.676	323.31
362.057	303.65
362.439	329.64
362.821	329.64
363.203	329.64
363.584	324.44
363.966	323.76
364.348	305.68
364.729	328.73
365.111	310.88
365.493	326.02
365.874	302.07
366.256	311.79
366.637	319.47
367.019	303.65
367.4	292.58
367.781	317.44
368.163	309.98
368.544	327.6
368.925	316.76
369.306	311.56
369.688	315.85
370.069	322.63
370.45	322.86
370.831	313.14
371.212	303.88
371.593	295.97
371.974	294.16
372.355	295.74
372.736	303.88
373.117	297.77
373.498	315.4
373.879	318.79
374.26	328.73
374.641	301.16
375.021	316.31
375.402	333.93
375.783	306.81
376.163	323.54
376.544	340.03
376.925	331.67
377.305	326.7
377.686	317.21
378.066	316.08
378.447	336.42
378.827	316.98
379.208	319.69
379.588	334.38
379.968	329.86
380.349	314.72
380.729	335.51
381.109	326.7
381.489	334.16
381.87	341.62
382.25	320.15
382.63	332.58
383.01	317.66
383.39	320.37
383.77	341.16
384.15	331.22
384.53	345.01
384.91	352.91
385.29	348.62
385.67	321.05
386.049	331.67
386.429	342.52
386.809	359.69
387.189	370.99
387.568	357.66
387.948	361.05
388.328	348.39
388.707	351.33
389.087	329.86
389.466	338.68
389.846	348.62
390.225	355.63
390.605	361.05
390.984	356.53
391.363	360.37
391.743	364.21
392.122	348.62
392.501	360.82
392.881	386.81
393.26	359.02
393.639	369.19
394.018	368.51
394.397	363.99
394.776	369.19
395.155	375.51
395.534	365.34
395.913	375.51
396.292	384.78
396.671	389.75
397.05	388.39
397.429	377.09
397.808	396.76
398.186	396.98
398.565	404.66
398.944	375.96
399.323	403.99
399.701	380.94
400.08	385.23
400.458	400.37
400.837	398.34
401.215	415.06
401.594	397.43
401.972	401.27
402.351	398.56
402.729	417.32
403.107	403.31
403.486	419.35
403.864	414.16
404.242	445.79
404.62	437.88
404.999	434.95
405.377	445.57
405.755	436.75
406.133	418
406.511	429.97
406.889	465.23
407.267	470.65
407.645	483.98
408.023	459.13
408.401	493.02
408.779	492.35
409.156	471.33
409.534	477.88
409.912	488.5
410.29	498.45
410.667	503.42
411.045	500.03
411.422	523.76
411.8	513.14
412.178	504.55
412.555	541.61
412.933	535.28
413.31	563.76
413.687	538.67
414.065	573.93
414.442	579.8
414.819	573.93
415.197	572.8
415.574	602.4
415.951	610.99
416.328	617.31
416.705	578.45
417.082	627.26
417.46	640.59
417.837	655.28
418.214	645.34
418.591	653.7
418.967	665.22
419.344	670.19
419.721	669.97
420.098	680.14
420.475	700.25
420.852	680.59
421.228	722.4
421.605	738.67
421.982	752
422.358	733.02
422.735	769.63
423.111	785.22
423.488	787.71
423.864	808.72
424.241	830.87
424.617	823.41
424.994	838.55
425.37	862.96
425.746	864.54
426.123	874.71
426.499	875.16
426.875	898.66
427.251	897.76
427.627	940.24
428.003	901.83
428.379	953.35
428.756	934.59
429.132	965.78
429.507	980.24
429.883	999.45
430.259	1018.89
430.635	1006.91
431.011	1025.44
431.387	1019.11
431.763	1035.16
432.138	1064.31
432.514	1089.39
432.89	1078.55
433.265	1080.35
433.641	1103.4
434.016	1167.58
434.392	1171.65
434.767	1195.6
435.143	1199.9
435.518	1222.27
435.894	1239.44
436.269	1268.82
436.644	1325.32
437.02	1308.82
437.395	1335.04
437.77	1353.11
438.145	1354.92
438.52	1387.01
438.895	1404.86
439.271	1421.36
439.646	1440.8
440.021	1500.91
440.395	1505.65
440.77	1507.69
441.145	1506.1
441.52	1536.61
441.895	1595.59
442.27	1565.31
442.645	1608.25
443.019	1643.05
443.394	1625.65
443.769	1650.28
444.143	1671.07
444.518	1671.3
444.892	1688.7
445.267	1699.77
445.641	1739.54
446.016	1747.68
446.39	1760.56
446.764	1787.23
447.139	1795.14
447.513	1776.38
447.887	1811.18
448.262	1842.14
448.636	1855.25
449.01	1830.16
449.384	1903.16
449.758	1901.35
450.132	1918.97
450.506	1925.98
450.88	1930.73
451.254	1960.33
451.628	1982.7
452.002	1981.57
452.376	2000.55
452.75	2041.23
453.123	2034
453.497	2050.95
453.871	2097.28
454.244	2152.64
454.618	2138.63
454.992	2178.4
455.365	2208.01
455.739	2240.1
456.112	2268.12
456.486	2262.24
456.859	2303.15
457.232	2373.88
457.606	2324.16
457.979	2391.96
458.352	2450.03
458.725	2461.33
459.099	2495.01
459.472	2531.84
459.845	2539.07
460.218	2569.35
460.591	2602.57
460.964	2600.09
461.337	2665.4
461.71	2697.26
462.083	2716.47
462.456	2745.17
462.829	2769.8
463.201	2817.03
463.574	2804.83
463.947	2896.12
464.32	2916.46
464.692	2958.72
465.065	2987.42
465.438	3034.2
465.81	3060.87
466.183	3088.21
466.555	3132.5
466.928	3182.22
467.3	3164.82
467.672	3262.89
468.045	3317.13
468.417	3341.31
468.789	3357.13
469.161	3449.1
469.534	3459.27
469.906	3533.85
470.278	3579.95
470.65	3597.12
471.022	3697.46
471.394	3800.06
471.766	3826.95
472.138	3851.13
472.51	3940.84
472.882	3987.17
473.253	4045.7
473.625	4098.35
473.997	4202.53
474.369	4184.9
474.74	4280.04
475.112	4352.81
475.484	4441.85
475.855	4502.41
476.227	4522.75
476.598	4653.37
476.97	4703.53
477.341	4823.08
477.713	4873.25
478.084	4957.77
478.455	5053.36
478.827	5143.07
479.198	5211.32
479.569	5266.01
479.94	5435.72
480.311	5529.95
480.682	5551.42
481.053	5690.63
481.424	5833
481.795	5833
482.166	6026.89
482.537	6063.27
482.908	6227.34
483.279	6242.93
483.65	6336.94
484.021	6442.02
484.391	6546.88
484.762	6575.8
485.133	6656.25
485.503	6729.7
485.874	6908.67
486.244	7014.89
486.615	7102.57
486.985	7179.18
487.356	7374.88
487.726	7367.42
488.097	7532.84
488.467	7560.63
488.837	7790.46
489.207	7836.79
489.578	7914.75
489.948	7975.09
490.318	8147.29
490.688	8150.22
491.058	8265.47
491.428	8339.37
491.798	8370.78
492.168	8587.05
492.538	8639.7
492.908	8720.6
493.278	8805.35
493.648	8799.25
494.017	8935.74
494.387	8957.89
494.757	9061.61
495.126	9139.12
495.496	9171.21
495.866	9200.82
496.235	9352.9
496.605	9387.48
496.974	9481.94
497.344	9493.47
497.713	9527.36
498.082	9555.38
498.452	9681.26
498.821	9752.22
499.19	9696.4
499.559	9815.49
499.928	9857.52
500.298	9904.3
500.667	10015.03
501.036	9896.39
501.405	10026.56
501.774	10069.95
502.143	10074.01
502.512	10007.8
502.88	10175.93
503.249	10149.49
503.618	10265.2
503.987	10251.64
504.356	10316.72
504.724	10317.85
505.093	10291.86
505.462	10309.49
505.83	10415.02
506.199	10427.68
506.567	10559.65
506.936	10551.06
507.304	10663.38
507.672	10553.55
508.041	10686.43
508.409	10653.89
508.777	10664.06
509.145	10687.33
509.514	10714.22
509.882	10806.88
510.25	10718.52
510.618	10809.59
510.986	10784.28
511.354	10865.41
511.722	10881.45
512.09	10988.12
512.458	10856.82
512.826	10966.87
513.193	10979.75
513.561	10951.28
513.929	11023.14
514.297	11087.1
514.664	11067.21
515.032	11088.68
515.4	11082.12
515.767	11050.03
516.135	11072.63
516.502	11060.66
516.869	11165.29
517.237	11123.03
517.604	11109.69
517.972	11190.82
518.339	11177.71
518.706	11105.4
519.073	11132.97
519.44	11143.82
519.808	11203.48
520.175	11177.26
520.542	11228.33
520.909	11269.01
521.276	11147.66
521.643	11287.09
522.009	11302.23
522.376	11301.33
522.743	11253.42
523.11	11331.38
523.477	11340.42
523.843	11266.3
524.21	11419.74
524.577	11385.39
524.943	11365.73
525.31	11408.44
525.676	11352.85
526.043	11370.93
526.409	11412.28
526.776	11382.23
527.142	11325.96
527.508	11389.69
527.874	11347.65
528.241	11338.16
528.607	11367.09
528.973	11394.21
529.339	11237.6
529.705	11348.56
530.071	11432.4
530.437	11265.85
530.803	11303.14
531.169	11307.65
531.535	11218.62
531.901	11245.74
532.267	11169.81
532.632	11240.76
532.998	11151.95
533.364	11126.19
533.73	11035.8
534.095	11153.99
534.461	11044.16
534.826	10978.85
535.192	10973.65
535.557	10967.55
535.923	10820.44
536.288	10930.94
536.653	10811.62
537.019	10744.28
537.384	10696.15
537.749	10717.16
538.114	10557.39
538.479	10570.05
538.845	10559.2
539.21	10508.35
539.575	10430.84
539.94	10465.87
540.305	10412.54
540.67	10328.02
541.034	10294.8
541.399	10286.21
541.764	10208.02
542.129	10187.68
542.494	10109.95
542.858	10136.84
543.223	9999.89
543.587	10011.87
543.952	9909.73
544.316	9852.78
544.681	9836.73
545.045	9820.24
545.41	9799.45
545.774	9683.52
546.138	9673.35
546.503	9615.27
546.867	9561.26
547.231	9528.72
547.595	9472.45
547.959	9498.44
548.324	9371.21
548.688	9395.84
549.052	9296.86
549.416	9239.46
549.779	9177.99
550.143	9159.69
550.507	9112.68
550.871	9135.06
551.235	9002.18
551.599	8981.61
551.962	9025.23
552.326	8942.97
552.689	8831.79
553.053	8862.3
553.417	8740.26
553.78	8796.31
554.143	8685.12
554.507	8719.25
554.87	8667.27
555.234	8747.04
555.597	8607.39
555.96	8515.64
556.323	8540.27
556.686	8546.15
557.05	8483.55
557.413	8495.07
557.776	8418.01
558.139	8420.95
558.502	8389.77
558.865	8393.16
559.228	8396.54
559.59	8281.97
559.953	8329.43
560.316	8332.59
560.679	8297.56
561.041	8295.76
561.404	8226.61
561.767	8227.51
562.129	8240.84
562.492	8228.87
562.854	8155.2
563.217	8174.86
563.579	8150.68
563.941	8186.83
564.304	8104.12
564.666	8123.11
565.028	8165.36
565.39	8097.57
565.753	8110.9
566.115	8115.87
566.477	8131.47
566.839	8170.79
567.201	8165.82
567.563	8144.35
567.925	8146.83
568.287	8142.54
568.648	8088.3
569.01	8208.53
569.372	8109.09
569.734	8099.38
570.095	8091.92
570.457	8084.46
570.819	8112.48
571.18	8098.47
571.542	8112.48
571.903	8053.28
572.265	8160.62
572.626	8101.64
572.987	8073.39
573.349	8083.78
573.71	8130.11
574.071	8078.36
574.432	8049.21
574.794	8047.63
575.155	8165.59
575.516	8075.65
575.877	8058.25
576.238	8052.15
576.599	8107.06
576.96	8095.54
577.32	8083.11
577.681	8120.39
578.042	8095.31
578.403	8089.21
578.763	8075.42
579.124	8058.47
579.485	8132.82
579.845	8067.74
580.206	8048.53
580.566	8035.65
580.927	8006.95
581.287	8052.82
581.648	7998.14
582.008	7989.55
582.368	8038.14
582.728	8035.88
583.089	7979.61
583.449	7947.74
583.809	7941.87
584.169	7929.44
584.529	7923.34
584.889	7933.28
585.249	7944.58
585.609	7884.47
585.969	7892.6
586.329	7913.85
586.688	7937.8
587.048	7909.33
587.408	7885.82
587.768	7852.15
588.127	7879.27
588.487	7820.06
588.846	7905.71
589.206	7823.9
589.565	7819.16
589.925	7794.53
590.284	7773.74
590.643	7878.59
591.003	7781.19
591.362	7903.68
591.721	7822.32
592.08	7798.82
592.44	7840.4
592.799	7847.18
593.158	7775.54
593.517	7783.45
593.876	7758.6
594.235	7710.24
594.593	7782.1
594.952	7743.68
595.311	7678.6
595.67	7702.78
596.029	7738.93
596.387	7684.7
596.746	7742.55
597.104	7692.38
597.463	7656.45
597.822	7623.46
598.18	7643.8
598.538	7675.21
598.897	7686.96
599.255	7597.47
599.613	7730.35
599.972	7617.13
600.33	7644.7
600.688	7655.55
601.046	7669.33
601.404	7696.22
601.762	7594.98
602.12	7645.38
602.478	7647.41
602.836	7687.18
603.194	7623.46
603.552	7576.68
603.91	7634.98
604.268	7632.72
604.625	7582.78
604.983	7603.57
605.341	7493.52
605.698	7599.73
606.056	7652.61
606.413	7667.98
606.771	7672.04
607.128	7618.26
607.485	7564.25
607.843	7601.09
608.2	7679.28
608.557	7625.94
608.914	7589.79
609.272	7617.13
609.629	7630.24
609.986	7731.48
610.343	7623.91
610.7	7696.68
611.057	7690.57
611.414	7658.49
611.771	7653.06
612.127	7695.09
612.484	7669.78
612.841	7700.07
613.198	7679.05
613.554	7746.62
613.911	7714.53
614.267	7773.06
614.624	7696.68
614.98	7634.3
615.337	7783.23
615.693	7689.9
616.05	7678.6
616.406	7752.04
616.762	7721.08
617.118	7737.58
617.475	7688.77
617.831	7783.23
618.187	7728.77
618.543	7743.23
618.899	7778.26
619.255	7686.05
619.611	7773.28
619.967	7811.93
620.323	7792.49
620.678	7752.72
621.034	7792.72
621.39	7712.49
621.746	7754.53
622.101	7820.06
622.457	7692.83
622.812	7752.49
623.168	7778.71
623.523	7742.32
623.879	7768.99
624.234	7770.35
624.589	7721.99
624.945	7763.34
625.3	7698.94
625.655	7762.89
626.01	7783.23
626.365	7693.29
626.72	7705.26
627.075	7740.29
627.43	7686.96
627.785	7669.33
628.14	7711.37
628.495	7723.12
628.85	7726.73
629.205	7666.85
629.559	7754.98
629.914	7687.86
630.269	7653.97
630.623	7647.64
630.978	7632.72
631.332	7680.18
631.687	7705.94
632.041	7647.19
632.396	7621.2
632.75	7652.61
633.104	7654.64
633.459	7604.7
633.813	7613.06
634.167	7631.82
634.521	7568.09
634.875	7637.47
635.229	7562.44
635.583	7515.66
635.937	7513.18
636.291	7586.4
636.645	7560.63
636.999	7550.01
637.352	7531.03
637.706	7447.19
638.06	7484.48
638.413	7451.94
638.767	7499.62
639.121	7470.24
639.474	7410.13
639.828	7410.13
640.181	7425.27
640.534	7397.93
640.888	7424.37
641.241	7399.06
641.594	7430.24
641.947	7465.5
642.301	7389.79
642.654	7398.83
643.007	7397.7
643.36	7382.56
643.713	7368.1
644.066	7396.57
644.419	7355.67
644.771	7314.99
645.124	7234.09
645.477	7231.6
645.83	7156.58
646.182	7133.08
646.535	7148.44
646.888	7157.26
647.24	7127.88
647.593	7191.38
647.945	7157.26
648.298	7095.11
648.65	7107.54
649.002	7069.8
649.355	7115.22
649.707	7039.07
650.059	7144.6
650.411	7199.74
650.763	7192.28
651.115	7287.65
651.467	7305.73
651.819	7271.6
652.171	7331.71
652.523	7257.59
652.875	7263.47
653.227	7294.2
653.578	7257.14
653.93	7297.36
654.282	7226.18
654.633	7253.07
654.985	7255.33
655.337	7293.97
655.688	7321.54
656.039	7353.41
656.391	7249.91
656.742	7230.02
657.094	7288.33
657.445	7289.68
657.796	7252.17
658.147	7320.64
658.498	7282.68
658.849	7289.23
659.2	7339.85
659.551	7336.69
659.902	7334.88
660.253	7296.01
660.604	7316.57
660.955	7336.91
661.306	7349.11
661.656	7318.83
662.007	7313.64
662.358	7337.36
662.708	7382.56
663.059	7336.01
663.409	7296.46
663.76	7340.53
664.11	7335.33
664.461	7375.55
664.811	7378.04
665.161	7380.75
665.511	7391.15
665.862	7303.24
666.212	7380.07
666.562	7374.42
666.912	7394.99
667.262	7358.83
667.612	7358.61
667.962	7375.78
668.312	7366.97
668.662	7318.61
669.011	7363.35
669.361	7371.71
669.711	7387.31
670.06	7321.09
670.41	7387.53
670.76	7271.15
671.109	7323.13
671.459	7358.15
671.808	7338.04
672.157	7298.95
672.507	7302.11
672.856	7307.76
673.205	7290.13
673.554	7333.97
673.904	7315.9
674.253	7312.51
674.602	7358.15
674.951	7152.51
675.3	7152.51
675.649	7263.02
675.998	7268.21
676.346	7281.09
676.695	7300.53
677.044	7207.88
677.393	7242
677.741	7259.4
678.09	7210.36
678.438	7191.83
678.787	7132.85
679.135	7205.39
679.484	7133.53
679.832	7193.41
680.181	7096.47
680.529	7148.89
680.877	7128.78
681.225	7075.9
681.573	7160.19
681.922	7072.29
682.27	7091.27
682.618	7051.95
682.966	7066.64
683.314	7015.79
683.661	7007.88
684.009	7008.11
684.357	7003.81
684.705	6963.36
685.053	6960.65
685.4	6925.17
685.748	6900.09
686.095	6947.77
686.443	6866.42
686.79	6843.37
687.138	6851.5
687.485	6900.31
687.832	6881.33
688.18	6888.11
688.527	6778.73
688.874	6768.56
689.221	6758.4
689.568	6721.33
689.915	6733.99
690.262	6684.5
690.609	6681.79
690.956	6646.76
691.303	6691.73
691.65	6609.93
691.997	6604.05
692.344	6604.5
692.69	6570.83
693.037	6577.16
693.383	6470.04
693.73	6488.35
694.077	6513.43
694.423	6481.57
694.769	6419.87
695.116	6360.67
695.462	6358.41
695.808	6329.93
696.155	6304.17
696.501	6309.82
696.847	6307.79
697.193	6254.91
697.539	6323.83
697.885	6157.96
698.231	6202.7
698.577	6191.63
698.923	6190.73
699.269	6178.98
699.614	6119.99
699.96	6151.41
700.306	6118.19
700.651	6056.72
700.997	6026.89
701.342	6056.72
701.688	5973.78
702.033	5975.37
702.379	5962.26
702.724	5909.6
703.069	5879.55
703.415	5872.54
703.76	5851.75
704.105	5936.95
704.45	5840.91
704.795	5770.4
705.14	5783.96
705.485	5801.36
705.83	5761.59
706.175	5722.26
706.52	5733.11
706.865	5698.31
707.209	5734.92
707.554	5654.24
707.899	5673.45
708.243	5613.57
708.588	5649.05
708.932	5605.43
709.277	5568.14
709.621	5567.47
709.966	5556.62
710.31	5554.36
710.654	5553.46
710.998	5492.67
711.342	5503.74
711.687	5487.02
712.031	5447.24
712.375	5484.3
712.719	5456.96
713.063	5425.78
713.407	5471.42
713.75	5430.3
714.094	5426
714.438	5374.93
714.782	5371.31
715.125	5391.88
715.469	5328.38
715.812	5363.4
716.156	5344.87
716.499	5316.85
716.843	5325.89
717.186	5368.38
717.53	5284.54
717.873	5334.03
718.216	5342.84
718.559	5313.69
718.902	5229.85
719.246	5267.81
719.589	5264.42
719.932	5264.65
720.275	5256.29
720.617	5246.35
720.96	5234.59
721.303	5241.6
721.646	5263.52
721.989	5235.95
722.331	5277.53
722.674	5215.61
723.016	5257.42
723.359	5236.4
723.701	5222.16
724.044	5207.48
724.386	5162.51
724.729	5185.1
725.071	5191.66
725.413	5185.56
725.755	5154.6
726.097	5146.01
726.439	5167.7
726.782	5190.98
727.124	5200.92
727.465	5147.14
727.807	5101.26
728.149	5116.41
728.491	5101.26
728.833	5139.23
729.175	5176.52
729.516	5168.83
729.858	5121.6
730.199	5140.81
730.541	5133.81
730.882	5132.22
731.224	5111.21
731.565	5169.06
731.906	5114.37
732.248	5159.79
732.589	5136.74
732.93	5126.35
733.271	5140.59
733.612	5096.07
733.953	5193.92
734.294	5114.82
734.635	5124.31
734.976	5177.19
735.317	5124.31
735.658	5183.75
735.999	5195.27
736.339	5182.84
736.68	5141.72
737.021	5178.1
737.361	5159.79
737.702	5158.89
738.042	5160.92
738.383	5198.89
738.723	5244.09
739.063	5238.89
739.404	5260.81
739.744	5251.77
740.084	5234.14
740.424	5269.4
740.764	5214.71
741.104	5289.51
741.444	5302.84
741.784	5333.35
742.124	5343.97
742.464	5332.44
742.804	5312.11
743.143	5378.77
743.483	5397.98
743.823	5390.07
744.162	5419.67
744.502	5507.36
744.841	5461.71
745.181	5512.33
745.52	5502.38
745.86	5540.12
746.199	5599.33
746.538	5658.54
746.877	5703.51
747.216	5704.86
747.556	5731.3
747.895	5811.98
748.234	5791.64
748.573	5857.4
748.911	5917.74
749.25	5991.64
749.589	6014.69
749.928	6086.1
750.267	6074.57
750.605	6196.15
750.944	6270.27
751.283	6345.07
751.621	6397.5
751.96	6493.54
752.298	6612.64
752.636	6630.04
752.975	6719.53
753.313	6809.69
753.651	6953.42
753.989	7007.2
754.327	7121.55
754.666	7192.96
755.004	7329.23
755.342	7491.03
755.679	7651.48
756.017	7740.52
756.355	7884.69
756.693	7948.65
757.031	8110.22
757.368	8222.99
757.706	8445.81
758.044	8534.85
758.381	8695.75
758.719	8899.13
759.056	9040.14
759.394	9171.44
759.731	9294.37
760.068	9426.57
760.405	9599.9
760.743	9738.66
761.08	9961.25
761.417	10133.9
761.754	10292.31
762.091	10422.03
762.428	10616.15
762.765	10745.41
763.102	10926.2
763.438	11084.16
763.775	11298.84
764.112	11453.19
764.449	11636.91
764.785	11811.14
765.122	11919.39
765.458	12151.02
765.795	12266.5
766.131	12426.5
766.467	12594.17
766.804	12773.83
767.14	12803.21
767.476	13081.39
767.812	13165.01
768.148	13375.17
768.485	13421.72
768.821	13569.29
769.157	13669.4
769.492	13812
769.828	13995.72
770.164	14035.27
770.5	14161.82
770.836	14414.47
771.171	14450.62
771.507	14530.39
771.842	14432.77
772.178	14749.82
772.513	14796.38
772.849	14844.28
773.184	14941.01
773.519	15061
773.855	15140.77
774.19	15238.4
774.525	15406.08
774.86	15391.84
775.195	15560.65
775.53	15590.93
775.865	15612.85
776.2	15600.88
776.535	15701.89
776.87	15753.64
777.205	15757.71
777.539	15797.03
777.874	15959.51
778.209	15866.18
778.543	15959.96
778.878	15949.79
779.212	15985.05
779.547	16044.93
779.881	16093.07
780.215	16108.43
780.55	16198.15
780.884	16105.27
781.218	16228.88
781.552	16245.15
781.886	16194.31
782.22	16295.09
782.554	16265.94
782.888	16169.22
783.222	16211.25
783.556	16210.35
783.889	16212.84
784.223	16173.06
784.557	16187.75
784.89	16285.15
785.224	16183.46
785.557	16137.58
785.891	16198.83
786.224	16216.45
786.558	16240.18
786.891	16178.26
787.224	16164.25
787.557	16184.59
787.891	16227.07
788.224	16233.4
788.557	16187.98
788.89	16224.36
789.223	16146.17
789.556	16064.59
789.888	16199.5
790.221	16098.04
790.554	16043.35
790.887	16030.92
791.219	15935.33
791.552	16001.32
791.884	15926.52
792.217	15917.02
792.549	15884.03
792.882	15924.26
793.214	15862.79
793.546	15883.58
793.879	15800.87
794.211	15703.02
794.543	15771.27
794.875	15686.52
795.207	15848.33
795.539	15666.18
795.871	15829.12
796.203	15592.06
796.535	15537.37
796.867	15529.69
797.198	15523.81
797.53	15520.88
797.862	15430.26
798.193	15493.53
798.525	15394.55
798.856	15451.5
799.188	15341.67
799.519	15276.82
799.85	15163.82
800.182	15278.4
800.513	15206.54
800.844	15125.18
801.175	15230.04
801.506	15203.15
801.837	15148.01
802.168	15076.82
802.499	15024.62
802.83	14964.06
803.161	15033.21
803.491	15015.35
803.822	14970.61
804.153	14895.81
804.483	14795.7
804.814	14780.11
805.145	14750.95
805.475	14726.1
805.805	14700.11
806.136	14712.08
806.466	14742.82
806.796	14706.89
807.126	14609.26
807.457	14523.16
807.787	14574.01
808.117	14472.77
808.447	14451.75
808.777	14470.96
809.107	14418.08
809.436	14384.41
809.766	14360
810.096	14364.98
810.426	14271.19
810.755	14330.85
811.085	14286.11
811.414	14251.08
811.744	14139.44
812.073	14104.42
812.403	14141.03
812.732	14076.62
813.061	14066.23
813.39	13975.83
813.719	14050.41
814.049	14048.15
814.378	14038.43
814.707	13910.3
815.036	13947.36
815.365	13861.49
815.693	13789.62
816.022	13877.3
816.351	13790.98
816.68	13661.72
817.008	13753.24
817.337	13674.6
817.665	13598.22
817.994	13668.72
818.322	13592.34
818.651	13543.98
818.979	13466.69
819.307	13559.12
819.636	13577.43
819.964	13497.2
820.292	13664.65
820.62	13490.65
820.948	13499.01
821.276	13510.31
821.604	13510.08
821.932	13531.55
822.259	13506.69
822.587	13507.82
822.915	13517.54
823.243	13595.73
823.57	13557.76
823.898	13630.98
824.225	13437.77
824.553	13437.32
824.88	13496.07
825.207	13465.56
825.535	13503.53
825.862	13522.06
826.189	13508.95
826.516	13537.2
826.843	13581.27
827.17	13515.51
827.497	13497.43
827.824	13487.71
828.151	13584.43
828.478	13605
828.805	13570.87
829.131	13499.01
829.458	13453.81
829.785	13422.63
830.111	13448.39
830.438	13612
830.764	13462.17
831.09	13624.66
831.417	13499.24
831.743	13579.23
832.069	13557.09
832.395	13477.99
832.722	13502.4
833.048	13415.62
833.374	13534.26
833.7	13383.98
834.026	13464.66
834.351	13445.45
834.677	13440.25
835.003	13424.44
835.329	13455.85
835.654	13321.84
835.98	13393.25
836.306	13349.41
836.631	13315.29
836.956	13456.98
837.282	13330.88
837.607	13264.44
837.932	13279.13
838.258	13249.98
838.583	13264.67
838.908	13181.73
839.233	13252.01
839.558	13155.06
839.883	13127.49
840.208	13169.98
840.533	13106.93
840.858	13087.72
841.182	13124.56
841.507	13094.73
841.832	13024.22
842.156	13051.56
842.481	12964.79
842.805	13001.4
843.13	12946.71
843.454	12926.14
843.778	12899.93
844.103	12766.83
844.427	12842.76
844.751	12823.55
845.075	12797.78
845.399	12694.06
845.723	12642.31
846.047	12649.09
846.371	12481.86
846.695	12616.55
847.019	12492.03
847.343	12440.28
847.666	12377.01
847.99	12313.05
848.313	12368.42
848.637	12218.59
848.96	12161.87
849.284	12157.35
849.607	12085.04
849.931	12013.62
850.254	12005.26
850.577	11937.24
850.9	11802.1
851.223	11883.23
851.546	11751.48
851.869	11737.7
852.192	11762.33
852.515	11650.92
852.838	11595.78
853.161	11638.27
853.483	11565.28
853.806	11503.13
854.129	11450.48
854.451	11421.32
854.774	11403.25
855.096	11418.61
855.419	11295.23
855.741	11295.45
856.063	11158.96
856.385	11203.93
856.708	11158.96
857.03	11065.63
857.352	11132.29
857.674	11091.39
857.996	11090.03
858.318	11002.35
858.64	10956.25
858.961	10972.3
859.283	10945.63
859.605	10871.51
859.926	10936.82
860.248	10925.29
860.57	10817.27
860.891	10817.5
861.212	10756.71
861.534	10803.71
861.855	10759.65
862.176	10779.31
862.498	10719.42
862.819	10722.81
863.14	10643.72
863.461	10672.42
863.782	10611.4
864.103	10547.45
864.424	10574.57
864.745	10598.07
865.065	10535.92
865.386	10487.34
865.707	10471.29
866.027	10476.49
866.348	10429.03
866.668	10485.08
866.989	10399.2
867.309	10370.05
867.63	10470.84
867.95	10314.91
868.27	10348.81
868.59	10393.55
868.91	10295.48
869.23	10269.26
869.55	10216.16
869.87	10224.75
870.19	10260.22
870.51	10290.05
870.83	10261.35
871.15	10182.49
871.469	10184.97
871.789	10213.9
872.109	10111.75
872.428	10135.48
872.748	10129.83
873.067	10119.44
873.386	10170.28
873.706	10053.45
874.025	9998.54
874.344	9987.01
874.663	10027.69
874.982	9973.45
875.301	10015.26
875.62	9971.87
875.939	9967.8
876.258	9937.07
876.577	9921.02
876.896	9860.91
877.214	9864.75
877.533	9919.67
877.852	9840.8
878.17	9843.06
878.489	9827.47
878.807	9800.58
879.125	9780.46
879.444	9779.56
879.762	9782.05
880.08	9790.18
880.398	9736.85
880.716	9717.41
881.034	9735.72
881.352	9773.23
881.67	9659.11
881.988	9594.25
882.306	9581.6
882.624	9546.35
882.941	9544.99
883.259	9509.51
883.577	9494.37
883.894	9507.48
884.212	9535.27
884.529	9446.69
884.846	9436.52
885.164	9383.41
885.481	9383.41
885.798	9464.77
886.115	9344.32
886.432	9353.13
886.75	9333.24
887.067	9314.03
887.383	9274.71
887.7	9269.52
888.017	9253.02
888.334	9223.64
888.651	9216.18
888.967	9189.07
889.284	9144.77
889.6	9062.29
889.917	9102.29
890.233	9054.15
890.55	9046.25
890.866	9052.12
891.182	8979.35
891.498	8922.63
891.815	8951.33
892.131	8887.15
892.447	8883.54
892.763	8826.36
893.079	8846.7
893.395	8833.82
893.71	8745.24
894.026	8752.02
894.342	8776.65
894.657	8698.23
894.973	8666.14
895.289	8667.05
895.604	8614.62
895.92	8636.09
896.235	8523.55
896.55	8536.2
896.865	8539.14
897.181	8419.6
897.496	8427.73
897.811	8390.9
898.126	8393.38
898.441	8326.04
898.756	8286.49
899.071	8284.68
899.386	8233.39
899.7	8150.68
900.015	8175.53
900.33	8118.36
900.644	8078.36
900.959	8044.46
901.273	8013.73
901.588	8007.63
901.902	8018.48
902.216	7978.93
902.531	7932.6
902.845	7894.86
903.159	7846.05
903.473	7865.03
903.787	7860.97
904.101	7742.78
904.415	7743.68
904.729	7754.08
905.042	7699.84
905.356	7671.37
905.67	7698.03
905.984	7599.28
906.297	7605.38
906.611	7520.18
906.924	7477.25
907.237	7495.33
907.551	7447.19
907.864	7408.77
908.177	7373.75
908.491	7362.9
908.804	7288.33
909.117	7265.5
909.43	7274.54
909.743	7236.35
910.056	7170.14
910.368	7216.01
910.681	7162.9
910.994	7121.55
911.307	7133.3
911.619	7061.44
911.932	7081.1
912.244	7021.89
912.557	6983.93
912.869	6856.7
913.181	6941.89
913.494	6920.43
913.806	6832.52
914.118	6824.61
914.43	6764.05
914.742	6825.96
915.054	6731.28
915.366	6722.46
915.678	6670.94
915.99	6674.56
916.302	6602.69
916.613	6600.21
916.925	6647.66
917.236	6561.56
917.548	6514.11
917.859	6562.02
918.171	6497.16
918.482	6472.53
918.794	6425.98
919.105	6445.86
919.416	6388.01
919.727	6395.24
920.038	6383.72
920.349	6305.3
920.66	6246.54
920.971	6267.34
921.282	6265.75
921.593	6181.01
921.903	6145.76
922.214	6126.55
922.525	6130.16
922.835	6082.93
923.146	6054.69
923.456	6138.98
923.767	6008.36
924.077	5989.6
924.387	6002.94
924.697	5909.38
925.008	5919.32
925.318	5920.9
925.628	5900.11
925.938	5842.04
926.248	5858.53
926.558	5845.88
926.867	5784.64
927.177	5754.58
927.487	5736.5
927.796	5669.38
928.106	5662.15
928.416	5694.92
928.725	5683.17
929.034	5611.31
929.344	5646.79
929.653	5583.74
929.962	5542.16
930.271	5539.22
930.581	5556.62
930.89	5494.25
931.199	5498.32
931.508	5428.71
931.817	5476.4
932.125	5393.69
932.434	5420.8
932.743	5390.3
933.051	5350.07
933.36	5331.09
933.669	5302.61
933.977	5290.86
934.286	5261.49
934.594	5230.75
934.902	5235.5
935.21	5202.28
935.519	5178.1
935.827	5112.11
936.135	5130.19
936.443	5089.74
936.751	5088.84
937.059	5112.79
937.367	5049.97
937.674	5093.35
937.982	4967.48
938.29	4986.24
938.597	4976.07
938.905	4941.72
939.213	4903.3
939.52	4902.4
939.827	4859.46
940.135	4860.82
940.442	4866.47
940.749	4853.81
941.056	4841.16
941.363	4786.47
941.67	4753.25
941.977	4732.69
942.284	4674.61
942.591	4666.7
942.898	4670.99
943.205	4642.07
943.511	4678.22
943.818	4629.41
944.125	4540.6
944.431	4614.72
944.738	4551.22
945.044	4514.84
945.35	4527.27
945.657	4497.21
945.963	4471.68
946.269	4416.31
946.575	4435.74
946.881	4403.2
947.187	4417.89
947.493	4376.76
947.799	4381.28
948.105	4374.28
948.41	4259.7
948.716	4345.8
949.022	4295.41
949.327	4280.04
949.633	4235.75
949.938	4213.83
950.244	4242.53
950.549	4229.65
950.854	4171.12
951.16	4178.8
951.465	4183.55
951.77	4115.3
952.075	4104.23
952.38	4111.01
952.685	4102.42
952.99	4099.71
953.294	4011.8
953.599	4006.6
953.904	4002.99
954.209	3985.81
954.513	3990.78
954.818	3970.45
955.122	3952.59
955.426	3940.62
955.731	3926.15
956.035	3931.8
956.339	3895.42
956.643	3915.31
956.948	3856.78
957.252	3855.65
957.556	3826.27
957.86	3807.51
958.163	3778.59
958.467	3781.07
958.771	3774.07
959.075	3773.39
959.378	3699.27
959.682	3663.79
959.985	3666.27
960.289	3676.44
960.592	3649.32
960.896	3645.48
961.199	3654.3
961.502	3544.92
961.805	3593.96
962.108	3579.27
962.411	3545.37
962.714	3575.2
963.017	3529.1
963.32	3512.83
963.623	3497.92
963.926	3448.2
964.228	3511.93
964.531	3507.86
964.833	3476.45
965.136	3416.11
965.438	3447.3
965.741	3391.48
966.043	3363.68
966.345	3381.76
966.648	3345.15
966.95	3354.87
967.252	3316.68
967.554	3280.07
967.856	3288.2
968.158	3255.66
968.46	3258.37
968.761	3245.72
969.063	3240.3
969.365	3194.42
969.666	3207.75
969.968	3227.64
970.269	3178.83
970.571	3175.21
970.872	3138.15
971.174	3124.59
971.475	3114.42
971.776	3097.93
972.077	3086.63
972.378	3108.77
972.679	3072.16
972.98	3049.57
973.281	3072.84
973.582	3032.17
973.883	3031.04
974.183	3040.98
974.484	2999.17
974.785	2960.08
975.085	2965.95
975.386	2984.03
975.686	2906.29
975.986	2957.14
976.287	2940.19
976.587	2899.06
976.887	2853.19
977.187	2921.21
977.487	2868.78
977.787	2895.45
978.087	2850.02
978.387	2862
978.687	2835.79
978.987	2817.03
979.286	2784.26
979.586	2751.27
979.885	2777.26
980.185	2762.34
980.484	2741.33
980.784	2710.37
981.083	2728.22
981.382	2726.41
981.682	2686.64
981.981	2676.92
982.28	2678.95
982.579	2672.85
982.878	2668.56
983.177	2670.37
983.475	2611.16
983.774	2586.75
984.073	2603.02
984.372	2591.05
984.67	2559.41
984.969	2608.9
985.267	2580.88
985.566	2559.64
985.864	2538.85
986.162	2532.07
986.461	2509.92
986.759	2486.64
987.057	2476.02
987.355	2468.34
987.653	2479.86
987.951	2472.86
988.249	2500.65
988.547	2416.59
988.844	2401.45
989.142	2436.48
989.44	2393.09
989.737	2406.87
990.035	2403.03
990.332	2374.33
990.63	2351.28
990.927	2371.39
991.224	2350.15
991.521	2318.29
991.819	2311.28
992.116	2314.9
992.413	2291.62
992.71	2301.56
993.006	2278.51
993.303	2283.71
993.6	2267.67
993.897	2275.8
994.193	2252.75
994.49	2233.32
994.787	2222.24
995.083	2187.67
995.379	2174.11
995.676	2180.44
995.972	2151.06
996.268	2168.23
996.565	2122.59
996.861	2141.34
997.157	2122.13
997.453	2126.2
997.749	2075.81
998.044	2109.48
998.34	2087.78
998.636	2064.28
998.932	2069.25
999.227	2061.8
999.523	2060.89
999.818	2014.79
1000.114	2050.72
1000.409	2010.95
1000.704	1994.91
1001	2012.76
1001.295	1998.97
1001.59	1986.09
1001.885	1965.75
1002.18	1951.06
1002.475	1964.4
1002.77	1952.19
1003.065	1903.83
1003.359	1925.3
1003.654	1913.33
1003.949	1878.52
1004.243	1879.88
1004.538	1880.78
1004.832	1846.89
1005.127	1871.52
1005.421	1832.88
1005.715	1822.71
1006.009	1835.81
1006.304	1798.75
1006.598	1786.1
1006.892	1800.56
1007.186	1802.59
1007.48	1765.08
1007.773	1771.63
1008.067	1777.06
1008.361	1743.84
1008.655	1732.09
1008.948	1743.84
1009.242	1733.44
1009.535	1714.23
1009.829	1697.96
1010.122	1710.84
1010.415	1672.88
1010.708	1686.66
1011.001	1679.66
1011.295	1631.75
1011.588	1651.86
1011.881	1623.62
1012.173	1634.24
1012.466	1617.74
1012.759	1593.56
1013.052	1577.97
1013.344	1569.38
1013.637	1561.47
1013.93	1524.41
1014.222	1545.88
1014.514	1549.72
1014.807	1530.96
1015.099	1525.76
1015.391	1537.52
1015.683	1537.29
1015.976	1499.1
1016.268	1493.22
1016.56	1480.34
1016.851	1478.31
1017.143	1436.5
1017.435	1456.84
1017.727	1466.78
1018.018	1417.07
1018.31	1441.93
1018.602	1394.69
1018.893	1420.91
1019.185	1388.37
1019.476	1382.04
1019.767	1368.25
1020.058	1390.4
1020.35	1362.15
1020.641	1338.43
1020.932	1348.37
1021.223	1330.97
1021.514	1338.65
1021.804	1316.28
1022.095	1304.08
1022.386	1317.63
1022.677	1319.44
1022.967	1265.21
1023.258	1287.35
1023.548	1254.13
1023.839	1283.74
1024.129	1263.17
1024.419	1233.12
1024.709	1219.56
1025	1240.57
1025.29	1239.67
1025.58	1223.85
1025.87	1199.67
1026.16	1181.37
1026.449	1193.12
1026.739	1174.81
1027.029	1169.39
1027.319	1179.79
1027.608	1177.53
1027.898	1175.49
1028.187	1146.79
1028.477	1121.71
1028.766	1151.99
1029.055	1120.13
1029.344	1141.37
1029.634	1130.07
1029.923	1081.93
1030.212	1098.43
1030.501	1086
1030.79	1083.29
1031.078	1078.55
1031.367	1072.67
1031.656	1071.99
1031.945	1071.54
1032.233	1071.54
1032.522	1041.03
1032.81	1038.32
1033.099	1024.31
1033.387	1022.73
1033.675	1040.35
1033.963	996.74
1034.251	1009.62
1034.54	1022.95
1034.828	989.28
1035.116	966.01
1035.403	973.24
1035.691	949.51
1035.979	972.11
1036.267	964.88
1036.554	964.2
1036.842	960.81
1037.129	947.48
1037.417	944.31
1037.704	912.9
1037.992	912.67
1038.279	935.95
1038.566	940.47
1038.853	940.47
1039.14	940.47
