Data from hue_320_FLMS001491_70.txt Node
Date: Mon Feb 06 15:47:33 GMT 2017
User: dcchb
Spectrometer: FLMS00149
Trigger mode: 0
Integration Time (sec): 2.000000E-2
Scans to average: 10
Electric dark correction enabled: true
Nonlinearity correction enabled: false
Boxcar width: 0
XAxis mode: Wavelengths
Number of Pixels in Spectrum: 2048
>>>>>Begin Spectral Data<<<<<
341.393	-14.32
341.776	-14.32
342.16	-14.32
342.543	-48.9
342.927	-57.94
343.31	-38.95
343.693	-70.37
344.077	-84.83
344.46	-57.94
344.843	-57.48
345.226	-45.28
345.61	-39.86
345.993	-7.77
346.376	-1.67
346.759	12.12
347.142	33.59
347.525	21.84
347.908	57.54
348.291	74.04
348.674	98.22
349.057	106.81
349.44	127.82
349.823	136.18
350.206	199.46
350.588	180.02
350.971	204.43
351.354	205.56
351.737	230.87
352.119	242.39
352.502	248.72
352.884	287.82
353.267	265.44
353.65	296.18
354.032	291.43
354.414	298.66
354.797	297.53
355.179	313.58
355.562	310.19
355.944	325.78
356.326	357.65
356.709	331.88
357.091	335.27
357.473	335.73
357.855	345.67
358.238	342.96
358.62	337.99
359.002	340.47
359.384	346.12
359.766	344.54
360.148	344.54
360.53	332.11
360.912	331.43
361.294	324.43
361.676	322.62
362.057	350.64
362.439	328.95
362.821	336.4
363.203	321.26
363.584	324.43
363.966	317.87
364.348	329.62
364.729	329.17
365.111	328.95
365.493	319.91
365.874	328.72
366.256	308.83
366.637	316.74
367.019	307.25
367.4	299.79
367.781	322.62
368.163	313.35
368.544	302.73
368.925	299.57
369.306	317.65
369.688	312
370.069	303.64
370.45	307.93
370.831	299.57
371.212	303.86
371.593	313.13
371.974	313.13
372.355	300.02
372.736	327.36
373.117	323.3
373.498	334.6
373.879	304.77
374.26	293.69
374.641	311.09
375.021	318.1
375.402	320.13
375.783	316.29
376.163	329.85
376.544	322.39
376.925	327.82
377.305	316.29
377.686	326.01
378.066	307.48
378.447	305.9
378.827	339.12
379.208	329.62
379.588	307.03
379.968	316.97
380.349	332.11
380.729	297.53
381.109	336.4
381.489	328.27
381.87	325.56
382.25	314.94
382.63	332.34
383.01	339.79
383.39	331.88
383.77	307.48
384.15	326.46
384.53	323.97
384.91	337.53
385.29	333.24
385.67	330.75
386.049	322.62
386.429	339.34
386.809	345.22
387.189	334.37
387.568	346.12
387.948	346.8
388.328	348.38
388.707	350.41
389.087	328.95
389.466	357.87
389.846	353.58
390.225	350.64
390.605	354.48
390.984	331.21
391.363	340.92
391.743	342.73
392.122	345.22
392.501	352.67
392.881	350.87
393.26	365.33
393.639	358.32
394.018	375.95
394.397	366.91
394.776	340.47
395.155	362.39
395.534	361.04
395.913	362.84
396.292	342.28
396.671	358.32
397.05	387.48
397.429	363.07
397.808	365.1
398.186	343.41
398.565	381.37
398.944	384.76
399.323	372.56
399.701	400.13
400.08	378.66
400.458	368.27
400.837	379.11
401.215	375.5
401.594	390.19
401.972	386.57
402.351	375.72
402.729	408.27
403.107	407.36
403.486	403.97
403.864	397.19
404.242	429.51
404.62	383.41
404.999	400.36
405.377	415.05
405.755	405.33
406.133	425.21
406.511	413.69
406.889	429.06
407.267	417.31
407.645	423.63
408.023	425.89
408.401	454.37
408.779	414.59
409.156	438.55
409.534	448.27
409.912	452.11
410.29	465.21
410.667	465.21
411.045	464.99
411.422	469.51
411.8	492.78
412.178	481.94
412.555	481.71
412.933	475.16
413.31	490.75
413.687	483.97
414.065	505.44
414.442	521.94
414.819	536.85
415.197	535.72
415.574	530.3
415.951	536.4
416.328	518.32
416.705	543.18
417.082	544.53
417.46	562.16
417.837	585.44
418.214	555.38
418.591	567.13
418.967	591.31
419.344	589.05
419.721	584.98
420.098	598.32
420.475	613.91
420.852	615.94
421.228	625.89
421.605	645.55
421.982	642.61
422.358	629.05
422.735	624.53
423.111	642.61
423.488	657.53
423.864	648.26
424.241	682.38
424.617	669.05
424.994	669.5
425.37	686
425.746	692.33
426.123	678.99
426.499	717.18
426.875	711.31
427.251	695.94
427.627	717.86
428.003	737.75
428.379	745.88
428.756	753.79
429.132	748.6
429.507	775.04
429.883	763.74
430.259	758.77
430.635	771.42
431.011	794.7
431.387	799.89
431.763	817.07
432.138	818.2
432.514	835.15
432.89	837.63
433.265	842.83
433.641	840.57
434.016	866.56
434.392	854.58
434.767	858.2
435.143	877.18
435.518	882.38
435.894	890.51
436.269	906.78
436.644	902.72
437.02	928.03
437.395	933.68
437.77	957.4
438.145	940.46
438.52	951.98
438.895	967.12
439.271	929.38
439.646	961.25
440.021	975.71
440.395	974.35
440.77	976.16
441.145	998.99
441.52	1014.35
441.895	993.79
442.27	980.68
442.645	1024.07
443.019	1042.15
443.394	1041.92
443.769	1060.45
444.143	1023.39
444.518	1049.61
444.892	1047.57
445.267	1036.72
445.641	1072.66
446.016	1050.28
446.39	1042.83
446.764	1055.93
447.139	1032.88
447.513	1082.6
447.887	1092.99
448.262	1063.39
448.636	1080.79
449.01	1103.62
449.384	1069.49
449.758	1090.28
450.132	1098.64
450.506	1113.33
450.88	1127.34
451.254	1103.16
451.628	1142.26
452.002	1131.86
452.376	1150.39
452.75	1139.32
453.123	1154.46
453.497	1154.91
453.871	1156.95
454.244	1180
454.618	1174.35
454.992	1198.98
455.365	1177.06
455.739	1211.63
456.112	1213.89
456.486	1195.14
456.859	1186.32
457.232	1243.5
457.606	1245.76
457.979	1241.92
458.352	1246.44
458.725	1269.03
459.099	1270.39
459.472	1290.73
459.845	1325.53
460.218	1290.28
460.591	1312.2
460.964	1327.56
461.337	1307.45
461.71	1354
462.083	1351.29
462.456	1365.08
462.829	1365.76
463.201	1390.16
463.574	1387.22
463.947	1410.27
464.32	1438.07
464.692	1429.48
465.065	1427.67
465.438	1455.47
465.81	1449.82
466.183	1477.84
466.555	1476.71
466.928	1479.42
467.3	1497.73
467.672	1510.84
468.045	1533.43
468.417	1534.79
468.789	1541.8
469.161	1575.24
469.534	1580.44
469.906	1602.81
470.278	1592.42
470.65	1615.47
471.022	1625.18
471.394	1673.54
471.766	1658.18
472.138	1681.45
472.51	1703.83
472.882	1718.06
473.253	1737.5
473.625	1748.34
473.997	1758.06
474.369	1788.79
474.74	1802.81
475.112	1804.84
475.484	1824.5
475.855	1866.31
476.227	1877.61
476.598	1895.01
476.97	1906.08
477.341	1978.85
477.713	1954.67
478.084	1979.98
478.455	2008
478.827	2016.36
479.198	2104.94
479.569	2054.32
479.94	2115.79
480.311	2126.19
480.682	2161.21
481.053	2194.43
481.424	2237.14
481.795	2221.1
482.166	2247.77
482.537	2253.19
482.908	2290.25
483.279	2337.25
483.65	2355.11
484.021	2378.84
484.391	2410.25
484.762	2435.11
485.133	2438.72
485.503	2455.9
485.874	2483.01
486.244	2501.32
486.615	2542.45
486.985	2584.93
487.356	2625.61
487.726	2645.95
488.097	2672.39
488.467	2685.04
488.837	2741.31
489.207	2710.8
489.578	2805.94
489.948	2770.69
490.318	2816.11
490.688	2822.67
491.058	2849.56
491.428	2913.28
491.798	2910.8
492.168	2932.27
492.538	2935.21
492.908	3006.84
493.278	3019.27
493.648	2992.38
494.017	3062.89
494.387	3116.44
494.757	3035.54
495.126	3125.93
495.496	3096.78
495.866	3056.56
496.235	3138.59
496.605	3160.74
496.974	3185.37
497.344	3201.19
497.713	3198.7
498.082	3196.67
498.452	3234.18
498.821	3275.31
499.19	3285.93
499.559	3305.59
499.928	3297.46
500.298	3351.24
500.667	3388.07
501.036	3341.52
501.405	3373.16
501.774	3354.63
502.143	3379.26
502.512	3437.56
502.88	3419.26
503.249	3433.27
503.618	3446.83
503.987	3445.02
504.356	3497.68
504.724	3531.35
505.093	3475.98
505.462	3502.87
505.83	3509.88
506.199	3571.35
506.567	3582.19
506.936	3558.47
507.304	3606.83
507.672	3609.76
508.041	3622.87
508.409	3631.68
508.777	3634.4
509.145	3668.29
509.514	3662.42
509.882	3680.27
510.25	3652.02
510.618	3710.33
510.986	3658.58
511.354	3708.52
511.722	3727.05
512.09	3762.98
512.458	3769.99
512.826	3742.64
513.193	3786.71
513.561	3732.92
513.929	3774.05
514.297	3824.45
514.664	3822.87
515.032	3825.58
515.4	3819.7
515.767	3861.06
516.135	3871.23
516.502	3829.42
516.869	3875.75
517.237	3896.99
517.604	3879.59
517.972	3945.8
518.339	3923.43
518.706	3912.58
519.073	3941.96
519.44	3921.17
519.808	3908.51
520.175	3945.57
520.542	3977.21
520.909	3986.48
521.276	3981.96
521.643	3999.36
522.009	4014.95
522.376	4031.67
522.743	4057.21
523.11	4115.97
523.477	4098.11
523.843	4085.91
524.21	4143.99
524.577	4178.11
524.943	4167.72
525.31	4189.64
525.676	4181.95
526.043	4214.95
526.409	4210.2
526.776	4260.14
527.142	4324.55
527.508	4266.47
527.874	4307.6
528.241	4334.72
528.607	4362.74
528.973	4378.33
529.339	4377.88
529.705	4406.58
530.071	4457.65
530.437	4449.06
530.803	4485.67
531.169	4532.9
531.535	4503.3
531.901	4518.44
532.267	4491.1
532.632	4575.16
532.998	4525.9
533.364	4600.92
533.73	4626.91
534.095	4648.61
534.461	4648.61
534.826	4697.19
535.192	4649.51
535.557	4740.36
535.923	4731.54
536.288	4749.85
536.653	4760.47
537.019	4767.02
537.384	4771.99
537.749	4783.07
538.114	4841.14
538.479	4851.09
538.845	4851.31
539.21	4845.21
539.575	4896.06
539.94	4915.27
540.305	4904.87
540.67	4907.36
541.034	4947.81
541.399	4988.71
541.764	4997.98
542.129	5022.83
542.494	5016.96
542.858	5030.07
543.223	5092.21
543.587	5135.6
543.952	5092.21
544.316	5132.89
544.681	5150.29
545.045	5170.17
545.41	5216.95
545.774	5198.42
546.138	5193.45
546.503	5247.23
546.867	5320.91
547.231	5281.58
547.595	5315.26
547.959	5321.13
548.324	5338.98
548.688	5334.92
549.052	5400.9
549.416	5389.38
549.779	5425.54
550.143	5426.67
550.507	5408.36
550.871	5438.87
551.235	5472.54
551.599	5498.75
551.962	5461.69
552.326	5558.19
552.689	5524.06
553.053	5567.9
553.417	5564.97
553.78	5631.18
554.143	5631.18
554.507	5682.03
554.87	5633.67
555.234	5668.92
555.597	5654.23
555.96	5677.28
556.323	5720.89
556.686	5713.44
557.05	5724.74
557.413	5722.48
557.776	5781.68
558.139	5800.44
558.502	5768.8
558.865	5862.13
559.228	5869.37
559.59	5901.68
559.953	5849.93
560.316	5952.08
560.679	5948.69
561.041	6005.63
561.404	5989.81
561.767	6036.37
562.129	5965.41
562.492	6077.04
562.854	6006.76
563.217	6042.47
563.579	6092.18
563.941	6109.36
564.304	6102.35
564.666	6123.6
565.028	6198.62
565.39	6159.08
565.753	6166.98
566.115	6215.57
566.477	6235.01
566.839	6223.03
567.201	6222.8
567.563	6277.26
567.925	6336.92
568.287	6284.95
568.648	6371.27
569.01	6387.77
569.372	6412.63
569.734	6376.7
570.095	6436.36
570.457	6458.95
570.819	6498.95
571.18	6535.56
571.542	6568.56
571.903	6604.49
572.265	6689.68
572.626	6670.25
572.987	6669.34
573.349	6698.27
573.71	6785.73
574.071	6808.55
574.432	6837.25
574.794	6904.14
575.155	6934.42
575.516	6979.84
575.877	7090.35
576.238	7158.82
576.599	7195.66
576.96	7265.03
577.32	7221.19
577.681	7332.15
578.042	7415.09
578.403	7505.48
578.763	7582.31
579.124	7703.89
579.485	7746.38
579.845	7947.05
580.206	8002.42
580.566	8027.27
580.927	8140.94
581.287	8311.11
581.648	8355.63
582.008	8552.91
582.368	8676.98
582.728	8812.79
583.089	8908.83
583.449	9001.49
583.809	9248.49
584.169	9341.82
584.529	9500.46
584.889	9835.36
585.249	9969.37
585.609	10097.28
585.969	10297.5
586.329	10456.14
586.688	10690.48
587.048	10870.14
587.408	11064.03
587.768	11299.96
588.127	11465.6
588.487	11777.01
588.846	12011.35
589.206	12171.8
589.565	12334.73
589.925	12713.93
590.284	12887.94
590.643	13137.42
591.003	13394.59
591.362	13688.14
591.721	14000
592.08	14205.19
592.44	14528.8
592.799	14788.45
593.158	15033.42
593.517	15329
593.876	15659.39
594.235	15722.44
594.593	16120.4
594.952	16484.91
595.311	16744.79
595.67	16941.16
596.029	17360.59
596.387	17609.17
596.746	17878.77
597.104	18155.6
597.463	18484.85
597.822	18744.51
598.18	19036.02
598.538	19285.74
598.897	19685.73
599.255	19750.58
599.613	20298.36
599.972	20530.67
600.33	20859.03
600.688	21052.7
601.046	21390.77
601.404	21697.2
601.762	21884.99
602.12	22200.69
602.478	22435.03
602.836	22722.26
603.194	22775.36
603.552	23183.94
603.91	23286.76
604.268	23776.69
604.625	23862.11
604.983	24194.53
605.341	24289.67
605.698	24657.12
606.056	25059.14
606.413	25133.27
606.771	25567.38
607.128	25714.95
607.485	25762.63
607.843	26077.65
608.2	26452.33
608.557	26661.81
608.914	26808.25
609.272	27085.08
609.629	27371.17
609.986	27694.1
610.343	27753.99
610.7	28066.75
611.057	28236.69
611.414	28353.52
611.771	28644.13
612.127	28812.94
612.484	28933.62
612.841	29280.73
613.198	29324.79
613.554	29499.25
613.911	29732.47
614.267	29906.25
614.624	30039.8
614.98	30288.38
615.337	30516.4
615.693	30571.77
616.05	30688.15
616.406	31041.13
616.762	30979.21
617.118	31096.05
617.475	31268.92
617.831	31582.81
618.187	31661.46
618.543	31822.36
618.899	32171.5
619.255	32055.8
619.611	32262.34
619.967	32375.11
620.323	32728.32
620.678	32698.49
621.034	32586.4
621.39	32755.44
621.746	32810.13
622.101	33219.61
622.457	33001.08
622.812	33233.39
623.168	33403.33
623.523	33422.77
623.879	33632.25
624.234	33400.62
624.589	33808.52
624.945	33856.43
625.3	33868.4
625.655	33993.37
626.01	33966.48
626.365	34110.88
626.72	34134.84
627.075	34179.58
627.43	34336.41
627.785	34326.47
628.14	34458.22
628.495	34408.05
628.85	34415.51
629.205	34480.82
629.559	34620.47
629.914	34653.92
630.269	34474.71
630.623	34740.47
630.978	34449.86
631.332	34789.06
631.687	34896.85
632.041	34784.99
632.396	34877.87
632.75	34802.16
633.104	34834.71
633.459	34860.47
633.813	34913.57
634.167	34844.42
634.521	34814.82
634.875	34971.43
635.229	34931.43
635.583	34851.43
635.937	34863.41
636.291	34834.93
636.645	34779.11
636.999	34866.34
637.352	35006.45
637.706	34804.65
638.06	34951.99
638.413	34932.1
638.767	34890.98
639.121	34921.71
639.474	34748.38
639.828	34841.26
640.181	34898.21
640.534	34887.81
640.888	34890.3
641.241	34866.12
641.594	34816.4
641.947	35078.54
642.301	34754.71
642.654	34806.23
643.007	34810.07
643.36	34798.55
643.713	34792.22
644.066	34823.63
644.419	34809.4
644.771	34589.51
645.124	34202.63
645.477	34204.44
645.83	33981.17
646.182	33944.11
646.535	33748.18
646.888	33932.58
647.24	33699.59
647.593	33849.87
647.945	33954.28
648.298	33707.73
648.65	33671.12
649.002	33556.1
649.355	33801.06
649.707	33736.66
650.059	33843.77
650.411	34194.5
650.763	34187.94
651.115	34640.36
651.467	34629.97
651.819	34422.96
652.171	34481.27
652.523	34498.67
652.875	34507.48
653.227	34426.35
653.578	34543.19
653.93	34479.01
654.282	34269.97
654.633	34276.3
654.985	34376.86
655.337	34338.9
655.688	34331.67
656.039	34446.92
656.391	34136.64
656.742	34319.01
657.094	34379.8
657.445	34411.21
657.796	34332.35
658.147	34274.95
658.498	34219.35
658.849	34283.08
659.2	34237.43
659.551	34153.14
659.902	34360.59
660.253	34204.89
660.604	34315.4
660.955	34039.47
661.306	34142.52
661.656	34197.89
662.007	34112.01
662.358	34138.9
662.708	34168.96
663.059	34094.61
663.409	33855.52
663.76	34225.46
664.11	34155.18
664.461	34097.1
664.811	34125.8
665.161	34078.79
665.511	34094.16
665.862	34041.51
666.212	34123.09
666.562	34180.26
666.912	34168.06
667.262	34044.9
667.612	34054.84
667.962	34079.47
668.312	34033.37
668.662	34204.89
669.011	34018
669.361	34036.53
669.711	34039.02
670.06	34106.14
670.41	33939.36
670.76	33837.44
671.109	34016.2
671.459	33911.34
671.808	33985.91
672.157	33915.18
672.507	33787.28
672.856	33787.05
673.205	33741.17
673.554	33989.3
673.904	33975.97
674.253	33954.5
674.602	33873.83
674.951	33318.81
675.3	33201.08
675.649	33702.08
675.998	33673.83
676.346	33655.08
676.695	33778.46
677.044	33433.61
677.393	33670.44
677.741	33736.88
678.09	33638.8
678.438	33497.34
678.787	33677.67
679.135	33541.18
679.484	33337.12
679.832	33558.13
680.181	33300.51
680.529	33463.44
680.877	33379.38
681.225	33325.59
681.573	33549.77
681.922	33154.75
682.27	33074.07
682.618	33125.82
682.966	33068.88
683.314	33196.33
683.661	33061.87
684.009	32965.6
684.357	32877.24
684.705	32839.05
685.053	32824.36
685.4	32709.11
685.748	32580.3
686.095	32620.98
686.443	32617.36
686.79	32445.62
687.138	32609.91
687.485	32456.69
687.832	32419.63
688.18	32420.08
688.527	32264.6
688.874	32242.46
689.221	32253.08
689.568	32016.7
689.915	32014.21
690.262	32018.06
690.609	31816.03
690.956	31799.08
691.303	31871.85
691.65	31617.84
691.997	31642.02
692.344	31402.93
692.69	31451.52
693.037	31448.13
693.383	31113.45
693.73	31305.76
694.077	31163.84
694.423	31111.87
694.769	31113.45
695.116	31156.84
695.462	30938.99
695.808	30825.77
696.155	30870.52
696.501	30608.83
696.847	30692.22
697.193	30495.61
697.539	30581.71
697.885	30361.6
698.231	30306.91
698.577	30288.84
698.923	30246.13
699.269	30067.6
699.614	30011.1
699.96	29825.8
700.306	29944.89
700.651	29751.45
700.997	29736.31
701.342	29737.21
701.688	29473.49
702.033	29513.94
702.379	29549.19
702.724	29438.46
703.069	29385.58
703.415	29129.32
703.76	29235.08
704.105	29234.63
704.45	29011.81
704.795	28962.54
705.14	28833.96
705.485	28750.12
705.83	28724.81
706.175	28737.69
706.52	28667.86
706.865	28525.49
707.209	28541.76
707.554	28429
707.899	28440.98
708.243	28318.94
708.588	28354.42
708.932	28154.43
709.277	28099.06
709.621	28193.98
709.966	27946.3
710.31	27994.89
710.654	27708.57
710.998	27906.07
711.342	27768.22
711.687	27749.69
712.031	27595.12
712.375	27539.98
712.719	27699.3
713.063	27500.21
713.407	27569.81
713.75	27427.44
714.094	27444.17
714.438	27299.99
714.782	27305.19
715.125	27237.84
715.469	27162.59
715.812	27019.32
716.156	26881.92
716.499	26994.01
716.843	26942.71
717.186	26747.69
717.53	26865.88
717.873	26903.84
718.216	26786.56
718.559	26752.21
718.902	26575.26
719.246	26649.61
719.589	26497.3
719.932	26472.89
720.275	26426.11
720.617	26288.04
720.96	26250.98
721.303	26268.38
721.646	26212.56
721.989	26082.39
722.331	26267.47
722.674	26121.94
723.016	26229.73
723.359	26152.67
723.701	26127.36
724.044	25995.16
724.386	25677.66
724.729	25991.55
725.071	25840.82
725.413	25848.73
725.755	25825.68
726.097	25657.77
726.439	25565.8
726.782	25516.08
727.124	25655.29
727.465	25490.54
727.807	25566.93
728.149	25487.15
728.491	25453.71
728.833	25502.52
729.175	25340.72
729.516	25241.74
729.858	25281.51
730.199	25331
730.541	25280.61
730.882	25202.87
731.224	25215.07
731.565	25035.64
731.906	24924.91
732.248	25072.02
732.589	24920.62
732.93	24884.91
733.271	24933.95
733.612	24904.12
733.953	24926.27
734.294	24666.39
734.635	24714.07
734.976	24758.36
735.317	24636.78
735.658	24723.33
735.999	24614.64
736.339	24650.34
736.68	24678.14
737.021	24495.99
737.361	24452.15
737.702	24453.28
738.042	24349.11
738.383	24426.84
738.723	24328.99
739.063	24335.55
739.404	24370.8
739.744	24309.56
740.084	24160.86
740.424	24321.31
740.764	24179.39
741.104	24239.96
741.444	24090.36
741.784	24096.91
742.124	24129.22
742.464	24003.58
742.804	24027.98
743.143	23955.22
743.483	23771.49
743.823	23831.15
744.162	23838.38
744.502	23877.48
744.841	23816.92
745.181	23769.01
745.52	23613.31
745.86	23669.8
746.199	23517.49
746.538	23630.03
746.877	23549.13
747.216	23522.46
747.556	23501.9
747.895	23523.14
748.234	23399.98
748.573	23300.09
748.911	23336.7
749.25	23318.85
749.589	23205.63
749.928	23253.99
750.267	23245.18
750.605	23114.34
750.944	23141.68
751.283	23004.28
751.621	23063.94
751.96	22894.45
752.298	22889.48
752.636	22962.7
752.975	22887.68
753.313	22787.34
753.651	22795.02
753.989	22688.58
754.327	22692.2
754.666	22650.17
755.004	22609.72
755.342	22611.52
755.679	22457.63
756.017	22308.71
756.355	22349.38
756.693	22187.13
757.031	22308.48
757.368	22305.32
757.706	22198.65
758.044	22010.18
758.381	22149.16
758.719	21961.82
759.056	22068.71
759.394	21973.12
759.731	21860.13
760.068	21794.6
760.405	21694.26
760.743	21745.33
761.08	21632.79
761.417	21557.99
761.754	21534.94
762.091	21539.01
762.428	21363.2
762.765	21252.46
763.102	21371.1
763.438	21248.62
763.775	21078.23
764.112	21200.04
764.449	21027.84
764.785	21040.04
765.122	20822.19
765.458	20696.77
765.795	20778.8
766.131	20759.14
766.467	20617
766.804	20602.09
767.14	20478.92
767.476	20417.23
767.812	20417.46
768.148	20415.65
768.485	20222.21
768.821	20200.74
769.157	20142.89
769.492	20110.8
769.828	20116.45
770.164	19864.7
770.5	19828.32
770.836	19878.04
771.171	19710.81
771.507	19640.75
771.842	19520.98
772.178	19437.82
772.513	19490.93
772.849	19357.82
773.184	19247.77
773.519	19270.59
773.855	19192.4
774.19	19181.33
774.525	19064.27
774.86	18977.04
775.195	19009.36
775.53	18900.66
775.865	18754
776.2	18661.8
776.535	18614.79
776.87	18554.23
777.205	18581.35
777.539	18436.72
777.874	18429.26
778.209	18367.12
778.543	18281.69
778.878	18123.73
779.212	18144.07
779.547	17997.63
779.881	18014.13
780.215	17939.33
780.55	17921.03
780.884	17845.1
781.218	17835.83
781.552	17711.09
781.886	17698.66
782.22	17572.56
782.554	17506.57
782.888	17342.74
783.222	17248.95
783.556	17236.07
783.889	17166.7
784.223	17052.57
784.557	17052.12
784.89	17012.35
785.224	16952.92
785.557	16850.09
785.891	16793.6
786.224	16773.26
786.558	16772.58
786.891	16582.3
787.224	16561.51
787.557	16521.06
787.891	16416.88
788.224	16360.16
788.557	16375.53
788.89	16327.85
789.223	16282.42
789.556	16190.9
789.888	16156.1
790.221	16187.74
790.554	16023.9
790.887	16009.21
791.219	15946.84
791.552	15918.82
791.884	15849.44
792.217	15789.56
792.549	15715.89
792.882	15646.51
793.214	15585.95
793.546	15577.13
793.879	15475.89
794.211	15336.24
794.543	15368.78
794.875	15287.42
795.207	15367.65
795.539	15221.44
795.871	15295.33
796.203	15170.14
796.535	15112.29
796.867	15118.39
797.198	14965.4
797.53	14988.67
797.862	14858.06
798.193	14887.66
798.525	14796.36
798.856	14861.67
799.188	14693.99
799.519	14644.5
799.85	14552.3
800.182	14546.88
800.513	14534.45
800.844	14471.85
801.175	14499.65
801.506	14402.93
801.837	14408.58
802.168	14363.83
802.499	14311.63
802.83	14143.72
803.161	14146.21
803.491	14254.91
803.822	14114.12
804.153	14046.33
804.483	13912.77
804.814	13876.39
805.145	13940.34
805.475	13938.53
805.805	13770.63
806.136	13823.28
806.466	13802.72
806.796	13767.69
807.126	13700.57
807.457	13642.27
807.787	13582.61
808.117	13562.5
808.447	13532.44
808.777	13543.51
809.107	13482.05
809.436	13321.37
809.766	13351.88
810.096	13352.78
810.426	13263.97
810.755	13336.29
811.085	13236.86
811.414	13234.37
811.744	13118.21
812.073	13130.42
812.403	13111.66
812.732	13064.43
813.061	13000.25
813.39	13019.69
813.719	12911.44
814.049	12981.95
814.378	12868.5
814.707	12948.28
815.036	12890.2
815.365	12736.08
815.693	12734.95
816.022	12646.14
816.351	12661.73
816.68	12586.7
817.008	12615.18
817.337	12516.65
817.665	12465.58
817.994	12528.17
818.322	12502.41
818.651	12428.29
818.979	12375.86
819.307	12387.16
819.636	12392.58
819.964	12323.21
820.292	12402.3
820.62	12380.38
820.948	12299.48
821.276	12313.94
821.604	12220.84
821.932	12286.82
822.259	12331.34
822.587	12207.96
822.915	12249.08
823.243	12280.27
823.57	12205.92
823.898	12264
824.225	12198.24
824.553	12239.14
824.88	12273.04
825.207	12251.57
825.535	12203.66
825.862	12242.53
826.189	12205.7
826.516	12247.28
826.843	12254.51
827.17	12277.33
827.497	12266.49
827.824	12191.69
828.151	12290.44
828.478	12161.63
828.805	12263.1
829.131	12153.72
829.458	12133.61
829.785	12089.77
830.111	12201.4
830.438	12254.96
830.764	12208.18
831.09	12131.57
831.417	12118.69
831.743	12179.26
832.069	12150.1
832.395	12099.94
832.722	12220.38
833.048	12106.04
833.374	12104.68
833.7	11969.54
834.026	12109.2
834.351	12130.44
834.677	12100.16
835.003	12058.36
835.329	12061.97
835.654	12007.74
835.98	11930.45
836.306	11976.32
836.631	11974.29
836.956	11879.15
837.282	11973.61
837.607	11902.2
837.932	11855.87
838.258	11863.33
838.583	11764.8
838.908	11770.45
839.233	11768.65
839.558	11725.93
839.883	11701.3
840.208	11687.52
840.533	11648.2
840.858	11710.34
841.182	11657.46
841.507	11643.45
841.832	11526.84
842.156	11588.99
842.481	11537.92
842.805	11586.28
843.13	11520.97
843.454	11496.79
843.778	11364.14
844.103	11405.94
844.427	11425.6
844.751	11378.37
845.075	11384.25
845.399	11352.84
845.723	11220.86
846.047	11284.59
846.371	11126.18
846.695	11233.52
847.019	11048.21
847.343	10977.48
847.666	10900.42
847.99	10933.41
848.313	10947.2
848.637	10906.97
848.96	10767.09
849.284	10831.49
849.607	10787.65
849.931	10756.47
850.254	10700.88
850.577	10575.91
850.9	10553.54
851.223	10587.89
851.546	10440.54
851.869	10432.86
852.192	10418.17
852.515	10388.34
852.838	10293.66
853.161	10275.13
853.483	10321.23
853.806	10208.91
854.129	10198.97
854.451	10146.09
854.774	10007.79
855.096	10081.01
855.419	10051.18
855.741	10026.54
856.063	9944.06
856.385	10034.91
856.708	9936.38
857.03	9887.79
857.352	9855.48
857.674	9885.98
857.996	9787.68
858.318	9716.27
858.64	9796.04
858.961	9753.78
859.283	9681.69
859.605	9631.07
859.926	9643.05
860.248	9604.41
860.57	9521.25
860.891	9600.79
861.212	9544.75
861.534	9524.86
861.855	9519.66
862.176	9544.07
862.498	9456.39
862.819	9510.85
863.14	9422.94
863.461	9378.65
863.782	9370.29
864.103	9430.4
864.424	9392.21
864.745	9306.56
865.065	9293.91
865.386	9292.78
865.707	9263.4
866.027	9273.8
866.348	9270.41
866.668	9294.59
866.989	9204.19
867.309	9140.01
867.63	9189.28
867.95	9185.44
868.27	9151.31
868.59	9091.2
868.91	9100.01
869.23	9136.62
869.55	9044.42
869.87	9114.48
870.19	9114.7
870.51	9101.6
870.83	9052.33
871.15	9029.06
871.469	9053.24
871.789	9060.02
872.109	8990.41
872.428	8939.79
872.748	8996.06
873.067	8940.47
873.386	8918.78
873.706	8915.39
874.025	8845.33
874.344	8808.95
874.663	8931.21
874.982	8836.97
875.301	8798.33
875.62	8849.4
875.939	8801.49
876.258	8794.94
876.577	8778.67
876.896	8737.31
877.214	8726.24
877.533	8794.03
877.852	8706.35
878.17	8717.65
878.489	8724.21
878.807	8693.02
879.125	8646.69
879.444	8641.95
879.762	8591.55
880.08	8694.15
880.398	8587.03
880.716	8596.53
881.034	8606.92
881.352	8573.7
881.67	8538.9
881.988	8543.19
882.306	8556.75
882.624	8553.81
882.941	8446.92
883.259	8422.07
883.577	8392.69
883.894	8358.11
884.212	8371.67
884.529	8380.26
884.846	8327.61
885.164	8320.15
885.481	8295.52
885.798	8361.96
886.115	8271.79
886.432	8277.21
886.75	8277.89
887.067	8285.8
887.383	8150.44
887.7	8176.88
888.017	8106.82
888.334	8187.95
888.651	8137.33
888.967	8104.11
889.284	8112.92
889.6	8022.76
889.917	8034.51
890.233	8012.81
890.55	7909.54
890.866	8033.38
891.182	7913.61
891.498	7894.17
891.815	7929.88
892.131	7829.31
892.447	7803.33
892.763	7784.57
893.079	7775.98
893.395	7732.37
893.71	7676.1
894.026	7683.33
894.342	7729.66
894.657	7660.05
894.973	7625.93
895.289	7581.18
895.604	7510.45
895.92	7489.89
896.235	7526.5
896.55	7525.37
896.865	7476.78
897.181	7420.96
897.496	7483.33
897.811	7350.91
898.126	7393.85
898.441	7361.98
898.756	7338.48
899.071	7305.26
899.386	7266.62
899.7	7204.47
900.015	7139.61
900.33	7176.22
900.644	7151.82
900.959	7082.67
901.273	7143.23
901.588	7104.59
901.902	7079.5
902.216	7086.06
902.531	7051.93
902.845	7022.1
903.159	6962.9
903.473	6954.76
903.787	6941.65
904.101	6931.03
904.415	6924.03
904.729	6850.13
905.042	6815.56
905.356	6758.83
905.67	6808.55
905.984	6819.17
906.297	6747.31
906.611	6736.69
906.924	6694.2
907.237	6712.51
907.551	6617.82
907.864	6619.85
908.177	6603.58
908.491	6578.5
908.804	6536.69
909.117	6517.48
909.43	6498.05
909.743	6441.78
910.056	6409.46
910.368	6430.48
910.681	6396.13
910.994	6385.51
911.307	6343.7
911.619	6295.12
911.932	6313.65
912.244	6237.72
912.557	6276.81
912.869	6190.03
913.181	6163.14
913.494	6149.36
913.806	6120.66
914.118	6117.27
914.43	6110.04
914.742	6069.13
915.054	6045.41
915.366	6032.75
915.678	6002.02
915.99	5981.9
916.302	5908.91
916.613	5887.67
916.925	5896.26
917.236	5877.5
917.548	5867.33
917.859	5851.96
918.171	5804.96
918.482	5762.25
918.794	5781.46
919.105	5736.94
919.416	5693.55
919.727	5659.65
920.038	5644.06
920.349	5643.16
920.66	5604.51
920.971	5615.36
921.282	5571.75
921.593	5546.89
921.903	5503.05
922.214	5458.75
922.525	5454.91
922.835	5375.37
923.146	5409.49
923.456	5373.33
923.767	5399.32
924.077	5402.94
924.387	5320.91
924.697	5264.41
925.008	5277.29
925.318	5275.48
925.628	5246.33
925.938	5291.75
926.248	5216.5
926.558	5151.64
926.867	5213.11
927.177	5134.02
927.487	5095.37
927.796	5077.07
928.106	5057.86
928.416	5043.62
928.725	5045.88
929.034	5003.17
929.344	5030.97
929.653	4979.9
929.962	4953.01
930.271	4906.68
930.581	4919.11
930.89	4935.6
931.199	4892.44
931.508	4852.89
931.817	4813.35
932.125	4813.12
932.434	4802.95
932.743	4741.03
933.051	4703.75
933.36	4733.58
933.669	4712.11
933.977	4644.99
934.286	4711.88
934.594	4677.76
934.902	4591.21
935.21	4582.62
935.519	4574.71
935.827	4596.4
936.135	4570.19
936.443	4529.06
936.751	4515.05
937.059	4506.92
937.367	4467.82
937.674	4439.35
937.982	4406.35
938.29	4440.25
938.597	4435.73
938.905	4350.31
939.213	4378.78
939.52	4305.34
939.827	4313.93
940.135	4273.48
940.442	4286.81
940.749	4234.38
941.056	4293.59
941.363	4265.57
941.67	4214.49
941.977	4222.18
942.284	4145.34
942.591	4136.98
942.898	4156.42
943.205	4132.69
943.511	4130.88
943.818	4124.1
944.125	4067.38
944.431	4042.97
944.738	4034.84
945.044	4003.88
945.35	3998.91
945.657	3951.9
945.963	3969.08
946.269	3939.92
946.575	3926.37
946.881	3903.99
947.187	3911.68
947.493	3813.6
947.799	3892.02
948.105	3847.95
948.41	3817.67
948.716	3836.65
949.022	3835.29
949.327	3777.67
949.633	3732.47
949.938	3747.61
950.244	3748.74
950.549	3696.32
950.854	3720.72
951.16	3700.38
951.465	3648.41
951.77	3661.97
952.075	3647.5
952.38	3645.7
952.685	3613.83
952.99	3594.62
953.294	3588.75
953.599	3585.81
953.904	3564.34
954.209	3555.75
954.513	3537.22
954.818	3513.04
955.122	3499.48
955.426	3438.69
955.731	3432.59
956.035	3452.71
956.339	3436.89
956.643	3437.56
956.948	3386.94
957.252	3409.09
957.556	3385.36
957.86	3383.33
958.163	3374.74
958.467	3351.69
958.771	3306.04
959.075	3310.56
959.378	3280.51
959.682	3290.68
959.985	3240.06
960.289	3301.07
960.592	3240.96
960.896	3233.28
961.199	3199.61
961.502	3165.26
961.805	3165.26
962.108	3185.37
962.411	3183.11
962.714	3124.58
963.017	3094.52
963.32	3123.45
963.623	3107.4
963.926	3076.67
964.228	3083
964.531	3057.91
964.833	3068.76
965.136	3031.93
965.438	3014.53
965.741	2954.87
966.043	2999.84
966.345	2984.7
966.648	2959.84
966.95	2958.26
967.252	2958.93
967.554	2931.82
967.856	2911.7
968.158	2891.82
968.46	2893.62
968.761	2866.51
969.063	2898.14
969.365	2841.87
969.666	2878.94
969.968	2816.56
970.269	2788.99
970.571	2806.4
970.872	2813.63
971.174	2755.32
971.475	2773.4
971.776	2779.96
972.077	2752.84
972.378	2736.57
972.679	2733.4
972.98	2685.04
973.281	2728.43
973.582	2675.1
973.883	2657.02
974.183	2640.3
974.484	2650.24
974.785	2682.1
975.085	2654.99
975.386	2671.48
975.686	2621.77
975.986	2632.84
976.287	2605.72
976.587	2589.9
976.887	2567.08
977.187	2538.38
977.487	2553.29
977.787	2513.97
978.087	2519.17
978.387	2525.72
978.687	2513.07
978.987	2525.72
979.286	2472.62
979.586	2502.45
979.885	2474.43
980.185	2445.05
980.484	2475.78
980.784	2424.71
981.083	2405.73
981.382	2365.73
981.682	2407.76
981.981	2376.8
982.28	2352.62
982.579	2342
982.878	2362.11
983.177	2333.64
983.475	2320.98
983.774	2320.31
984.073	2285.05
984.372	2295.22
984.67	2314.66
984.969	2309.01
985.267	2295.45
985.566	2287.99
985.864	2256.81
986.162	2245.51
986.461	2231.95
986.759	2241.66
987.057	2239.86
987.355	2212.74
987.653	2198.73
987.951	2203.02
988.249	2202.12
988.547	2165.73
988.844	2173.87
989.142	2165.96
989.44	2145.17
989.737	2112.85
990.035	2095.45
990.332	2116.7
990.63	2105.4
990.927	2097.94
991.224	2028.11
991.521	2082.57
991.819	2078.28
992.116	2066.3
992.413	2069.69
992.71	2054.78
993.006	2050.93
993.303	1982.91
993.6	1996.92
993.897	2013.65
994.193	1993.08
994.49	2004.61
994.787	1988.34
995.083	1947.89
995.379	1929.13
995.676	1950.6
995.972	1950.37
996.268	1937.94
996.565	1901.79
996.861	1903.59
997.157	1923.25
997.453	1880.77
997.749	1871.96
998.044	1873.54
998.34	1876.25
998.636	1867.66
998.932	1845.97
999.227	1870.6
999.523	1843.03
999.818	1789.7
1000.114	1808.68
1000.409	1785.86
1000.704	1787.21
1001	1792.86
1001.295	1741.34
1001.59	1760.77
1001.885	1772.52
1002.18	1767.78
1002.475	1747.89
1002.77	1716.71
1003.065	1705.63
1003.359	1691.4
1003.654	1701.34
1003.949	1713.09
1004.243	1684.39
1004.538	1679.42
1004.832	1651.85
1005.127	1679.19
1005.421	1624.28
1005.715	1663.83
1006.009	1643.49
1006.304	1637.61
1006.598	1618.86
1006.892	1613.21
1007.186	1589.7
1007.48	1594
1007.773	1595.13
1008.067	1554
1008.361	1551.51
1008.655	1544.96
1008.948	1567.11
1009.242	1545.86
1009.535	1529.14
1009.829	1525.75
1010.122	1539.31
1010.415	1539.99
1010.708	1515.58
1011.001	1487.56
1011.295	1468.58
1011.588	1470.39
1011.881	1472.87
1012.173	1465.41
1012.466	1480.55
1012.759	1419.76
1013.052	1425.19
1013.344	1429.48
1013.637	1439.88
1013.93	1412.31
1014.222	1414.12
1014.514	1388.35
1014.807	1411.4
1015.099	1380.67
1015.391	1368.01
1015.683	1347.9
1015.976	1373.89
1016.268	1354.68
1016.56	1342.93
1016.851	1320.11
1017.143	1311.75
1017.435	1331.63
1017.727	1285.76
1018.018	1284.4
1018.31	1276.49
1018.602	1302.03
1018.893	1291.41
1019.185	1297.73
1019.476	1264.51
1019.767	1271.75
1020.058	1230.39
1020.35	1221.35
1020.641	1235.59
1020.932	1203.5
1021.223	1187.23
1021.514	1236.94
1021.804	1186.32
1022.095	1208.25
1022.386	1181.81
1022.677	1175.7
1022.967	1170.51
1023.258	1155.14
1023.548	1173.22
1023.839	1157.85
1024.129	1147.46
1024.419	1144.97
1024.709	1149.72
1025	1106.33
1025.29	1121.02
1025.58	1129.83
1025.87	1126.67
1026.16	1095.25
1026.449	1070.17
1026.739	1086.67
1027.029	1099.55
1027.319	1065.42
1027.608	1069.94
1027.898	1060.68
1028.187	1038.53
1028.477	1055.03
1028.766	1006.44
1029.055	1033.79
1029.344	1048.7
1029.634	1012.32
1029.923	1019.78
1030.212	1005.99
1030.501	1001.02
1030.79	976.84
1031.078	992.43
1031.367	985.2
1031.656	980.23
1031.945	972.09
1032.233	956.73
1032.522	980.23
1032.81	948.59
1033.099	952.43
1033.387	934.35
1033.675	923.05
1033.963	892.1
1034.251	924.18
1034.54	918.54
1034.828	917.41
1035.116	920.12
1035.403	909.04
1035.691	904.75
1035.979	904.75
1036.267	889.38
1036.554	875.15
1036.842	870.4
1037.129	860.01
1037.417	866.33
1037.704	833.79
1037.992	865.2
1038.279	875.82
1038.566	845.99
1038.853	845.99
1039.14	845.99
