Data from hue_20_FLMS001491_70.txt Node
Date: Mon Feb 06 15:34:29 GMT 2017
User: dcchb
Spectrometer: FLMS00149
Trigger mode: 0
Integration Time (sec): 2.000000E-2
Scans to average: 10
Electric dark correction enabled: true
Nonlinearity correction enabled: false
Boxcar width: 0
XAxis mode: Wavelengths
Number of Pixels in Spectrum: 2048
>>>>>Begin Spectral Data<<<<<
341.393	-9.29
341.776	-9.29
342.16	-9.29
342.543	-56.75
342.927	-60.82
343.31	-63.53
343.693	-44.32
344.077	-68.5
344.46	-46.58
344.843	-51.55
345.226	-46.35
345.61	-35.06
345.993	-19.24
346.376	-3.87
346.759	1.78
347.142	39.97
347.525	39.29
347.908	56.92
348.291	53.76
348.674	84.72
349.057	102.57
349.44	128.33
349.823	143.02
350.206	165.62
350.588	189.12
350.971	215.79
351.354	223.69
351.737	238.61
352.119	267.54
352.502	267.31
352.884	259.4
353.267	276.8
353.65	298.04
354.032	287.42
354.414	324.93
354.797	290.81
355.179	313.18
355.562	319.74
355.944	322.22
356.326	330.13
356.709	332.62
357.091	336.23
357.473	341.43
357.855	357.25
358.238	345.5
358.62	343.92
359.002	336.23
359.384	348.21
359.766	335.78
360.148	331.71
360.53	355.67
360.912	341.21
361.294	326.06
361.676	322.68
362.057	327.87
362.439	328.32
362.821	310.02
363.203	325.16
363.584	318.38
363.966	296.91
364.348	310.02
364.729	314.99
365.111	310.02
365.493	340.98
365.874	302.56
366.256	328.1
366.637	318.61
367.019	302.79
367.4	289.23
367.781	312.05
368.163	291.72
368.544	331.04
368.925	311.83
369.306	316.57
369.688	316.8
370.069	323.81
370.45	306.86
370.831	312.05
371.212	312.96
371.593	328.32
371.974	313.86
372.355	283.58
372.736	324.93
373.117	319.51
373.498	303.92
373.879	322.22
374.26	307.31
374.641	318.38
375.021	312.73
375.402	316.8
375.783	327.87
376.163	297.82
376.544	323.58
376.925	325.84
377.305	303.24
377.686	332.84
378.066	333.52
378.447	333.07
378.827	351.6
379.208	336.69
379.588	337.36
379.968	343.47
380.349	310.25
380.729	310.7
381.109	326.74
381.489	344.37
381.87	322.45
382.25	338.72
382.63	331.94
383.01	336.01
383.39	321.55
383.77	334.65
384.15	328.32
384.53	335.56
384.91	346.86
385.29	351.15
385.67	347.76
386.049	365.16
386.429	346.86
386.809	359.06
387.189	351.6
387.568	364.48
387.948	349.79
388.328	353.18
388.707	361.54
389.087	351.37
389.466	362.67
389.846	358.83
390.225	369
390.605	355.22
390.984	340.75
391.363	361.32
391.743	350.02
392.122	373.97
392.501	347.31
392.881	379.4
393.26	364.48
393.639	376.46
394.018	360.87
394.397	373.75
394.776	365.16
395.155	369
395.534	370.36
395.913	386.63
396.292	378.72
396.671	393.18
397.05	380.07
397.429	376.01
397.808	397.48
398.186	379.85
398.565	371.71
398.944	385.95
399.323	383.92
399.701	389.79
400.08	379.62
400.458	378.72
400.837	379.4
401.215	401.09
401.594	382.56
401.972	386.85
402.351	415.1
402.729	380.53
403.107	397.48
403.486	399.74
403.864	395.89
404.242	418.04
404.62	413.07
404.999	405.38
405.377	407.19
405.755	402.45
406.133	412.16
406.511	416.23
406.889	426.18
407.267	429.79
407.645	421.43
408.023	430.47
408.401	431.82
408.779	448.32
409.156	427.31
409.534	410.81
409.912	447.87
410.29	447.42
410.667	445.84
411.045	439.73
411.422	432.05
411.8	453.07
412.178	464.37
412.555	433.86
412.933	423.46
413.31	458.04
413.687	480.19
414.065	480.41
414.442	462.56
414.819	463.91
415.197	476.34
415.574	472.05
415.951	493.52
416.328	476.8
416.705	454.2
417.082	474.54
417.46	477.47
417.837	459.17
418.214	500.07
418.591	472.28
418.967	496.68
419.344	489.22
419.721	486.06
420.098	501.88
420.475	491.71
420.852	495.55
421.228	496.68
421.605	486.96
421.982	500.75
422.358	505.95
422.735	513.18
423.111	509.11
423.488	532.61
423.864	500.07
424.241	526.96
424.617	532.16
424.994	523.8
425.37	525.38
425.746	541.43
426.123	513.18
426.499	545.49
426.875	538.71
427.251	527.19
427.627	552.95
428.003	584.82
428.379	542.78
428.756	566.28
429.132	574.19
429.507	595.66
429.883	585.27
430.259	571.71
430.635	573.06
431.011	580.07
431.387	579.84
431.763	596.34
432.138	594.53
432.514	605.61
432.89	612.16
433.265	609.67
433.641	630.92
434.016	619.62
434.392	649.9
434.767	625.49
435.143	628.43
435.518	628.43
435.894	648.09
436.269	678.6
436.644	664.81
437.02	670.24
437.395	648.54
437.77	649.22
438.145	678.15
438.52	664.36
438.895	689.45
439.271	685.15
439.646	692.61
440.021	716.34
440.395	692.16
440.77	688.09
441.145	705.26
441.52	726.28
441.895	716.56
442.27	722.21
442.645	729.67
443.019	717.47
443.394	713.17
443.769	733.06
444.143	744.58
444.518	753.17
444.892	725.38
445.267	740.97
445.641	736.22
446.016	747.97
446.39	757.92
446.764	754.08
447.139	772.15
447.513	735.77
447.887	752.04
448.262	769.67
448.636	782.78
449.01	777.58
449.384	776
449.758	791.36
450.132	780.74
450.506	799.5
450.88	800.4
451.254	798.82
451.628	802.89
452.002	820.29
452.376	832.27
452.75	827.07
453.123	818.26
453.497	841.76
453.871	859.16
454.244	836.79
454.618	852.83
454.992	865.94
455.365	870.01
455.739	865.71
456.112	901.64
456.486	903
456.859	901.87
457.232	924.24
457.606	926.73
457.979	933.96
458.352	929.89
458.725	936.22
459.099	938.03
459.472	950.68
459.845	975.77
460.218	981.41
460.591	1004.01
460.964	1010.57
461.337	1018.7
461.71	1023
462.083	1008.98
462.456	1024.35
462.829	1026.84
463.201	1037.01
463.574	1061.19
463.947	1068.42
464.32	1100.28
464.692	1084.91
465.065	1103.45
465.438	1118.81
465.81	1148.87
466.183	1135.08
466.555	1162.88
466.928	1181.64
467.3	1181.64
467.672	1180.28
468.045	1241.07
468.417	1227.74
468.789	1225.93
469.161	1237.68
469.534	1291.24
469.906	1279.26
470.278	1307.51
470.65	1297.56
471.022	1331.91
471.394	1355.19
471.766	1359.94
472.138	1408.52
472.51	1385.47
472.882	1425.02
473.253	1423.66
473.625	1421.18
473.997	1486.94
474.369	1489.88
474.74	1514.51
475.112	1527.16
475.484	1560.38
475.855	1611.23
476.227	1609.87
476.598	1636.76
476.97	1614.17
477.341	1685.8
477.713	1708.4
478.084	1729.42
478.455	1745.91
478.827	1785.91
479.198	1829.98
479.569	1871.56
479.94	1911.11
480.311	1923.54
480.682	1963.54
481.053	2015.06
481.424	2059.13
481.795	2061.61
482.166	2086.02
482.537	2119.69
482.908	2192
483.279	2186.81
483.65	2258.22
484.021	2263.64
484.391	2307.03
484.762	2357.2
485.133	2405.33
485.503	2387.48
485.874	2486.69
486.244	2537.53
486.615	2565.1
486.985	2569.85
487.356	2635.83
487.726	2613.01
488.097	2721.48
488.467	2659.11
488.837	2773.68
489.207	2811.88
489.578	2868.37
489.948	2900.91
490.318	2930.74
490.688	2965.09
491.058	3020.91
491.428	3097.52
491.798	3084.64
492.168	3142.04
492.538	3147.69
492.908	3201.02
493.278	3270.85
493.648	3254.35
494.017	3306.55
494.387	3370.28
494.757	3384.52
495.126	3423.84
495.496	3437.62
495.866	3486.21
496.235	3495.02
496.605	3548.8
496.974	3555.13
497.344	3612.31
497.713	3635.36
498.082	3689.37
498.452	3717.16
498.821	3692.76
499.19	3746.77
499.559	3781.34
499.928	3806.88
500.298	3855.92
500.667	3833.77
501.036	3857.05
501.405	3871.28
501.774	3941.79
502.143	3951.96
502.512	3942.69
502.88	4008.68
503.249	4010.26
503.618	4034.44
503.987	4042.58
504.356	4083.93
504.724	4081.9
505.093	4139.07
505.462	4141.33
505.83	4183.36
506.199	4206.19
506.567	4270.82
506.936	4248.67
507.304	4287.99
507.672	4275.79
508.041	4310.82
508.409	4346.07
508.777	4311.04
509.145	4412.29
509.514	4371.61
509.882	4406.41
510.25	4483.7
510.618	4470.59
510.986	4448.89
511.354	4516.69
511.722	4505.84
512.09	4580.42
512.458	4554.65
512.826	4608.44
513.193	4651.15
513.561	4629.23
513.929	4634.88
514.297	4696.35
514.664	4698.61
515.032	4761.43
515.4	4809.56
515.767	4796
516.135	4794.42
516.502	4750.13
516.869	4868.32
517.237	4874.42
517.604	4868.54
517.972	4845.27
518.339	4880.52
518.706	4940.18
519.073	4943.34
519.44	4963.23
519.808	5026.05
520.175	4980.86
520.542	5042.33
520.909	5075.77
521.276	5067.41
521.643	5114.64
522.009	5149.67
522.376	5164.81
522.743	5213.85
523.11	5255.65
523.477	5229.21
523.843	5277.12
524.21	5344.24
524.577	5316.89
524.943	5373.16
525.31	5391.69
525.676	5450
526.043	5477.12
526.409	5486.83
526.776	5542.88
527.142	5577.45
527.508	5556.66
527.874	5666.49
528.241	5626.72
528.607	5644.34
528.973	5754.17
529.339	5673.49
529.705	5784
530.071	5797.79
530.437	5801.4
530.803	5847.05
531.169	5917.56
531.535	5839.37
531.901	5909.65
532.267	5946.71
532.632	5974.73
532.998	5958.23
533.364	6031.23
533.73	6009.76
534.095	6094.95
534.461	6117.78
534.826	6124.56
535.192	6120.71
535.557	6179.24
535.923	6152.13
536.288	6294.72
536.653	6261.73
537.019	6213.37
537.384	6300.82
537.749	6336.75
538.114	6282.29
538.479	6353.48
538.845	6413.81
539.21	6402.29
539.575	6452.91
539.94	6468.95
540.305	6462.17
540.67	6474.38
541.034	6455.4
541.399	6544.21
541.764	6594.15
542.129	6525.45
542.494	6547.14
542.858	6661.27
543.223	6633.24
543.587	6692
543.952	6738.55
544.316	6742.17
544.681	6734.71
545.045	6792.11
545.41	6832.79
545.774	6842.5
546.138	6881.15
546.503	6957.08
546.867	6848.61
547.231	6954.82
547.595	7013.8
547.959	6955.5
548.324	7005.44
548.688	7020.35
549.052	7040.01
549.416	7100.8
549.779	7072.1
550.143	7131.31
550.507	7146.45
550.871	7186.68
551.235	7216.96
551.599	7231.87
551.962	7306.67
552.326	7313
552.689	7281.14
553.053	7252.21
553.417	7312.32
553.78	7385.09
554.143	7356.84
554.507	7457.18
554.87	7447.91
555.234	7565.65
555.597	7430.28
555.96	7532.88
556.323	7609.04
556.686	7599.32
557.05	7648.36
557.413	7612.2
557.776	7627.34
558.139	7703.5
558.502	7651.97
558.865	7697.4
559.228	7770.16
559.59	7854
559.953	7889.48
560.316	7841.12
560.679	7876.15
561.041	7908.46
561.404	7936.94
561.767	7925.87
562.129	8018.74
562.492	8026.88
562.854	8075.47
563.217	8017.61
563.579	8109.59
563.941	8102.58
564.304	8122.47
564.666	8185.29
565.028	8263.71
565.39	8236.37
565.753	8323.14
566.115	8295.57
566.477	8327.21
566.839	8283.82
567.201	8415.57
567.563	8375.57
567.925	8508.9
568.287	8468.22
568.648	8495.34
569.01	8530.14
569.372	8653.53
569.734	8623.7
570.095	8656.69
570.457	8697.37
570.819	8783.7
571.18	8757.26
571.542	8775.11
571.903	8868.67
572.265	8903.92
572.626	8889.68
572.987	8975.55
573.349	9005.16
573.71	9054.42
574.071	9036.12
574.432	9121.77
574.794	9218.03
575.155	9260.75
575.516	9164.7
575.877	9320.63
576.238	9360.18
576.599	9387.97
576.96	9532.6
577.32	9536.22
577.681	9603.56
578.042	9666.84
578.403	9750.9
578.763	9797.91
579.124	9934.63
579.485	10049.2
579.845	10150.89
580.206	10175.52
580.566	10286.71
580.927	10420.94
581.287	10508.4
581.648	10518.57
582.008	10711.78
582.368	10766.47
582.728	10971.66
583.089	11040.81
583.449	11144.31
583.809	11335.04
584.169	11488.26
584.529	11633.79
584.889	11862.94
585.249	11998.75
585.609	12050.95
585.969	12367.78
586.329	12447.33
586.688	12588.34
587.048	12863.36
587.408	12977.03
587.768	13183.13
588.127	13429.9
588.487	13637.58
588.846	13941.3
589.206	14072.82
589.565	14200.05
589.925	14487.73
590.284	14719.81
590.643	14909.86
591.003	15271.21
591.362	15545.1
591.721	15789.61
592.08	15951.87
592.44	16253.33
592.799	16435.47
593.158	16809.47
593.517	16972.41
593.876	17273.42
594.235	17528.55
594.593	17842.44
594.952	18117.46
595.311	18285.37
595.67	18667.28
596.029	19042.63
596.387	19296.19
596.746	19552.45
597.104	19811.43
597.463	20114.7
597.822	20560.56
598.18	20633.55
598.538	20911.06
598.897	21251.39
599.255	21459.07
599.613	22010.69
599.972	22195.32
600.33	22527.52
600.688	22583.11
601.046	23118.91
601.404	23348.28
601.762	23543.99
602.12	23875.28
602.478	24252.67
602.836	24382.16
603.194	24565.2
603.552	24895.36
603.91	25103.72
604.268	25400.43
604.625	25586.64
604.983	25997.25
605.341	26087.65
605.698	26531.25
606.056	26713.62
606.413	27017.79
606.771	27286.03
607.128	27599.25
607.485	27519.93
607.843	27942.74
608.2	28314.48
608.557	28567.81
608.914	28754.47
609.272	29048.02
609.629	29210.28
609.986	29542.25
610.343	29670.83
610.7	29939.52
611.057	30102.68
611.414	30325.28
611.771	30560.98
612.127	30817.47
612.484	31037.35
612.841	31192.6
613.198	31301.3
613.554	31412.25
613.911	31776.99
614.267	31932.01
614.624	31982.63
614.98	32165.45
615.337	32522.28
615.693	32544.88
616.05	32657.19
616.406	32927.92
616.762	32966.11
617.118	33250.85
617.475	33384.4
617.831	33550.5
618.187	33752.98
618.543	33959.3
618.899	34239.75
619.255	34296.25
619.611	34371.72
619.967	34542.79
620.323	34748.89
620.678	34674.77
621.034	34697.36
621.39	34935.1
621.746	34956.57
622.101	35405.14
622.457	35240.85
622.812	35280.85
623.168	35481.3
623.523	35663.89
623.879	35787.73
624.234	35619.83
624.589	35947.28
624.945	36055.07
625.3	36180.49
625.655	36091.45
626.01	36314.27
626.365	36393.37
626.72	36347.72
627.075	36394.27
627.43	36551.78
627.785	36441.05
628.14	36704.54
628.495	36739.34
628.85	36678.56
629.205	36686.69
629.559	36940.47
629.914	36784.77
630.269	36911.54
630.623	36814.82
630.978	36842.39
631.332	36954.71
631.687	37096.85
632.041	36993.8
632.396	37106.57
632.75	36982.05
633.104	37093.23
633.459	36978.21
633.813	37037.64
634.167	37049.17
634.521	37086.68
634.875	37319.44
635.229	37129.84
635.583	37007.36
635.937	37062.5
636.291	37005.78
636.645	37101.82
636.999	37010.98
637.352	37268.82
637.706	37012.11
638.06	37247.81
638.413	37135.49
638.767	37030.41
639.121	37212.1
639.474	36919
639.828	37018.89
640.181	36960.13
640.534	36970.07
640.888	36902.28
641.241	36853.47
641.594	36925.33
641.947	37114.93
642.301	37002.61
642.654	36965.78
643.007	37087.36
643.36	37087.81
643.713	36979.34
644.066	37045.33
644.419	36874.71
644.771	36635.17
645.124	36381.16
645.477	36381.39
645.83	36192.24
646.182	36016.43
646.535	35857.11
646.888	36025.47
647.24	35799.48
647.593	36004.9
647.945	35944.79
648.298	35875.41
648.65	35764.23
649.002	35673.84
649.355	35980.72
649.707	35870.67
650.059	35903.89
650.411	36220.49
650.763	36447.6
651.115	36641.72
651.467	36603.98
651.819	36623.87
652.171	36596.52
652.523	36582.51
652.875	36561.72
653.227	36437.88
653.578	36731.89
653.93	36641.49
654.282	36338.68
654.633	36354.5
654.985	36482.4
655.337	36434.49
655.688	36559.91
656.039	36650.99
656.391	36435.62
656.742	36310.43
657.094	36154.28
657.445	36372.8
657.796	36341.39
658.147	36274.27
658.498	36327.6
658.849	36553.59
659.2	36316.76
659.551	36199.47
659.902	36438.11
660.253	36279.7
660.604	36343.87
660.955	36240.6
661.306	36300.03
661.656	36148.17
662.007	36194.73
662.358	36242.86
662.708	36253.71
663.059	36175.52
663.409	36076.76
663.76	36395.62
664.11	36323.08
664.461	36276.76
664.811	36337.77
665.161	36323.76
665.511	36183.43
665.862	36260.26
666.212	36281.73
666.562	36346.13
666.912	36139.36
667.262	36190.66
667.612	36081.73
667.962	36192.24
668.312	36106.59
668.662	36268.17
669.011	36107.72
669.361	36130.32
669.711	35986.37
670.06	36076.31
670.41	35876.99
670.76	36115.18
671.109	36208.29
671.459	36066.59
671.808	35975.07
672.157	36139.59
672.507	35783.21
672.856	35865.7
673.205	36027.5
673.554	35984.56
673.904	35776.88
674.253	36012.81
674.602	35934.39
674.951	35397.91
675.3	35237.69
675.649	35836.54
675.998	35837.45
676.346	35848.07
676.695	35822.08
677.044	35581.86
677.393	35791.12
677.741	35778.01
678.09	35612.14
678.438	35548.19
678.787	35627.74
679.135	35631.58
679.484	35543.67
679.832	35488.53
680.181	35300.96
680.529	35429.32
680.877	35290.12
681.225	35305.26
681.573	35474.29
681.922	35331.47
682.27	35304.13
682.618	35260.06
682.966	35096.68
683.314	35217.12
683.661	35026.4
684.009	34891.26
684.357	34796.12
684.705	34951.37
685.053	34915.44
685.4	34823.91
685.748	34666.86
686.095	34597.48
686.443	34552.28
686.79	34529.01
687.138	34520.42
687.485	34476.58
687.832	34504.83
688.18	34345.06
688.527	34195.91
688.874	34149.58
689.221	34092.63
689.568	34065.52
689.915	33850.38
690.262	33992.98
690.609	33894.67
690.956	33762.25
691.303	33701.91
691.65	33760.44
691.997	33511.41
692.344	33377.4
692.69	33406.55
693.037	33338.3
693.383	33047.69
693.73	33207.23
694.077	33031.19
694.423	33082.27
694.769	32841.59
695.116	32840.69
695.462	32841.14
695.808	32713.01
696.155	32761.37
696.501	32500.59
696.847	32599.34
697.193	32259.01
697.539	32418.33
697.885	32106.7
698.231	32067.6
698.577	32107.38
698.923	31943.76
699.269	31826.71
699.614	31783.77
699.96	31686.14
700.306	31833.94
700.651	31650.89
700.997	31551.68
701.342	31462.87
701.688	31448.64
702.033	31310.33
702.379	31333.16
702.724	31108.31
703.069	31265.59
703.415	30960.06
703.76	30946.05
704.105	31042.77
704.45	30885.94
704.795	30682.55
705.14	30629
705.485	30536.34
705.83	30497.25
706.175	30605.04
706.52	30470.58
706.865	30362.79
707.209	30197.37
707.554	30073.53
707.899	30096.58
708.243	30051.38
708.588	29941.78
708.932	29806.87
709.277	29730.72
709.621	29692.52
709.966	29532.98
710.31	29662.69
710.654	29365.75
710.998	29343.38
711.342	29437.62
711.687	29357.62
712.031	29214.8
712.375	29225.19
712.719	29299.54
713.063	29155.36
713.407	29209.83
713.75	28960.79
714.094	28946.56
714.438	28827.69
714.782	28933.22
715.125	28754.92
715.469	28831.53
715.812	28651.2
716.156	28507.7
716.499	28523.29
716.843	28517.19
717.186	28383.41
717.53	28676.51
717.873	28545.66
718.216	28458.66
718.559	28372.11
718.902	28179.34
719.246	28240.81
719.589	28127.14
719.932	27916.3
720.275	27964.43
720.617	27956.75
720.96	27815.06
721.303	27916.07
721.646	27908.16
721.989	27695.51
722.331	27706.14
722.674	27790.2
723.016	27803.99
723.359	27616.65
723.701	27730.54
724.044	27499.59
724.386	27344.79
724.729	27599.92
725.071	27369.42
725.413	27500.49
725.755	27422.53
726.097	27322.64
726.439	27071.8
726.782	27111.35
727.124	27244.68
727.465	27064.34
727.807	27081.75
728.149	26975.31
728.491	27011.01
728.833	27001.52
729.175	26826.84
729.516	26811.47
729.858	26745.48
730.199	26818.48
730.541	26715.88
730.882	26639.05
731.224	26850.11
731.565	26497.81
731.906	26538.03
732.248	26620.06
732.589	26508.88
732.93	26387.07
733.271	26525.38
733.612	26414.19
733.953	26438.6
734.294	26226.63
734.635	26266.4
734.976	26315.66
735.317	26124.93
735.658	26169.91
735.999	26160.41
736.339	26118.61
736.68	26158.83
737.021	25962.23
737.361	25989.34
737.702	26114.54
738.042	25933.75
738.383	25907.09
738.723	25888.33
739.063	25820.31
739.404	25907.54
739.744	25726.53
740.084	25734.89
740.424	25626.64
740.764	25513.88
741.104	25691.5
741.444	25598.17
741.784	25430.04
742.124	25664.61
742.464	25577.38
742.804	25409.25
743.143	25324.96
743.483	25371.51
743.823	25345.52
744.162	25336.25
744.502	25372.86
744.841	25250.16
745.181	25284.96
745.52	25150.27
745.86	25309.36
746.199	25239.99
746.538	25153.89
746.877	25254.67
747.216	25043.61
747.556	24981.69
747.895	25028.47
748.234	24940.33
748.573	24890.84
748.911	24917.06
749.25	24822.82
749.589	24672.77
749.928	24796.83
750.267	24773.78
750.605	24635.71
750.944	24760
751.283	24600.23
751.621	24638.65
751.96	24442.49
752.298	24544.19
752.636	24418.31
752.975	24304.87
753.313	24252.67
753.651	24495.15
753.989	24195.27
754.327	24139.68
754.666	24090.19
755.004	24141.94
755.342	24103.74
755.679	24091.54
756.017	24063.75
756.355	24093.35
756.693	23947.59
757.031	23899.91
757.368	23769.97
757.706	23749.4
758.044	23736.52
758.381	23735.39
758.719	23568.39
759.056	23714.15
759.394	23552.8
759.731	23435.97
760.068	23439.36
760.405	23332.69
760.743	23249.76
761.08	23290.43
761.417	23188.06
761.754	23114.62
762.091	23117.78
762.428	23074.85
762.765	22742.88
763.102	22882.31
763.438	22783.33
763.775	22692.93
764.112	22749.66
764.449	22675.53
764.785	22522.77
765.122	22417.01
765.458	22358.71
765.795	22356.45
766.131	22337.92
766.467	22212.72
766.804	22070.13
767.14	21980.18
767.476	21961.2
767.812	21922.33
768.148	21894.31
768.485	21772.96
768.821	21659.29
769.157	21612.74
769.492	21599.18
769.828	21571.38
770.164	21320.09
770.5	21357.38
770.836	21305.4
771.171	21128.91
771.507	21194.44
771.842	21007.33
772.178	21020.89
772.513	21024.73
772.849	20858.41
773.184	20745.87
773.519	20794.23
773.855	20643.72
774.19	20524.18
774.525	20564.85
774.86	20417.97
775.195	20424.97
775.53	20421.36
775.865	20262.04
776.2	20112.66
776.535	19986.56
776.87	20059.56
777.205	19980.92
777.539	19824.54
777.874	19910.63
778.209	19711.54
778.543	19712.67
778.878	19568.72
779.212	19544.32
779.547	19359.24
779.881	19413.7
780.215	19346.36
780.55	19388.39
780.884	19241.27
781.218	19284.21
781.552	19062.52
781.886	19030.88
782.22	18931.45
782.554	18922.86
782.888	18703.21
783.222	18670.44
783.556	18622.08
783.889	18560.61
784.223	18447.62
784.557	18315.42
784.89	18387.74
785.224	18332.6
785.557	18168.31
785.891	18238.59
786.224	18037.01
786.558	18110.46
786.891	17929.22
787.224	17872.72
787.557	17832.95
787.891	17784.81
788.224	17717.02
788.557	17745.04
788.89	17596.57
789.223	17569.23
789.556	17401.1
789.888	17418.04
790.221	17324.94
790.554	17238.84
790.887	17227.54
791.219	17139.41
791.552	17182.57
791.884	17070.71
792.217	17095.57
792.549	16987.55
792.882	16818.51
793.214	16720.21
793.546	16773.09
793.879	16680.44
794.211	16564.51
794.543	16564.51
794.875	16598.63
795.207	16575.36
795.539	16481.8
795.871	16461.01
796.203	16297.85
796.535	16191.41
796.867	16143.05
797.198	16112.32
797.53	16091.75
797.862	16176.04
798.193	16084.97
798.525	15966.56
798.856	15975.14
799.188	15768.37
799.519	15776.51
799.85	15649.73
800.182	15766.11
800.513	15746.45
800.844	15476.63
801.175	15592.33
801.506	15599.56
801.837	15492.45
802.168	15438.89
802.499	15449.28
802.83	15329.96
803.161	15334.71
803.491	15213.81
803.822	15223.98
804.153	15151.21
804.483	15099.69
804.814	14983.53
805.145	15003.19
805.475	14912.57
805.805	15004.1
806.136	14878.22
806.466	14879.13
806.796	14852.46
807.126	14736.53
807.457	14689.98
807.787	14623.32
808.117	14692.24
808.447	14555.07
808.777	14615.41
809.107	14504.22
809.436	14499.48
809.766	14445.24
810.096	14426.26
810.426	14368.86
810.755	14357.33
811.085	14357.11
811.414	14319.37
811.744	14123.44
812.073	14150.33
812.403	14153.72
812.732	14062.65
813.061	14065.59
813.39	14025.37
813.719	13938.81
814.049	14015.87
814.378	13844.13
814.707	13775.88
815.036	13757.58
815.365	13854.3
815.693	13639.84
816.022	13683.68
816.351	13659.05
816.68	13550.12
817.008	13660.18
817.337	13511.93
817.665	13447.98
817.994	13450.01
818.322	13497.7
818.651	13421.09
818.979	13311.71
819.307	13399.39
819.636	13335.67
819.964	13307.64
820.292	13221.77
820.62	13301.54
820.948	13208.44
821.276	13278.94
821.604	13172.73
821.932	13339.73
822.259	13282.79
822.587	13261.54
822.915	13200.3
823.243	13292.73
823.57	13212.51
823.898	13221.32
824.225	13220.19
824.553	13163.92
824.88	13179.96
825.207	13149.23
825.535	13124.6
825.862	13247.08
826.189	13145.16
826.516	13198.72
826.843	13213.41
827.17	13157.82
827.497	13208.89
827.824	13154.43
828.151	13208.21
828.478	13203.24
828.805	13192.17
829.131	13146.74
829.458	13090.7
829.785	13087.99
830.111	13098.38
830.438	13198.95
830.764	13112.4
831.09	13251.15
831.417	13064.94
831.743	13103.36
832.069	13154.88
832.395	13138.38
832.722	13161.89
833.048	13057.71
833.374	13093.64
833.7	13024.04
834.026	13043.24
834.351	13038.95
834.677	13003.02
835.003	12978.16
835.329	13009.8
835.654	12963.25
835.98	12911.27
836.306	12869.92
836.631	12902.01
836.956	12938.39
837.282	12902.01
837.607	12798.28
837.932	12787.21
838.258	12820.2
838.583	12791.05
838.908	12680.09
839.233	12806.19
839.558	12678.06
839.883	12739.07
840.208	12628.57
840.533	12699.52
840.858	12589.7
841.182	12637.15
841.507	12620.43
841.832	12525.29
842.156	12590.15
842.481	12557.38
842.805	12476.25
843.13	12496.59
843.454	12419.08
843.778	12350.83
844.103	12440.1
844.427	12314.9
844.751	12331.4
845.075	12242.81
845.399	12187.9
845.723	12218.63
846.047	12215.92
846.371	12106.09
846.695	12045.53
847.019	11952.65
847.343	11926.66
847.666	11890.73
847.99	11843.73
848.313	11888.25
848.637	11696.61
848.96	11693.68
849.284	11711.53
849.607	11494.36
849.931	11584.75
850.254	11481.03
850.577	11370.29
850.9	11351.99
851.223	11329.62
851.546	11293.23
851.869	11184.54
852.192	11232.22
852.515	11154.25
852.838	11126.46
853.161	11112.45
853.483	11090.53
853.806	11011.89
854.129	10956.97
854.451	10874.04
854.774	10882.85
855.096	10893.02
855.419	10849.63
855.741	10838.56
856.063	10728.96
856.385	10902.51
856.708	10754.04
857.03	10606.92
857.352	10690.99
857.674	10645.57
857.996	10590.65
858.318	10529.64
858.64	10546.59
858.961	10510.88
859.283	10448.96
859.605	10445.8
859.926	10452.13
860.248	10403.09
860.57	10368.29
860.891	10402.41
861.212	10352.92
861.534	10296.42
861.855	10225.24
862.176	10298.01
862.498	10271.11
862.819	10238.57
863.14	10153.6
863.461	10160.38
863.782	10047.39
864.103	10168.07
864.424	10023.89
864.745	10149.99
865.065	9985.92
865.386	10012.59
865.707	10014.85
866.027	9994.29
866.348	9926.49
866.668	9954.29
866.989	9902.76
867.309	9906.6
867.63	9871.8
867.95	9867.06
868.27	9935.76
868.59	9822.31
868.91	9881.97
869.23	9904.34
869.55	9776.21
869.87	9830.67
870.19	9761.07
870.51	9830.45
870.83	9801.97
871.15	9729.21
871.469	9705.71
871.789	9720.62
872.109	9701.64
872.428	9690.79
872.748	9745.48
873.067	9704.12
873.386	9672.03
873.706	9653.28
874.025	9595.65
874.344	9592.71
874.663	9622.77
874.982	9520.85
875.301	9516.56
875.62	9553.62
875.939	9453.06
876.258	9514.75
876.577	9425.49
876.896	9423.9
877.214	9414.19
877.533	9427.75
877.852	9364.25
878.17	9398.59
878.489	9371.7
878.807	9400.18
879.125	9364.02
879.444	9382.1
879.762	9293.96
880.08	9258.49
880.398	9256.23
880.716	9258.26
881.034	9264.13
881.352	9210.58
881.67	9206.96
881.988	9185.72
882.306	9099.39
882.624	9129.45
882.941	9073.86
883.259	9121.31
883.577	8964.71
883.894	9047.42
884.212	9016.68
884.529	8984.82
884.846	9002.9
885.164	9011.26
885.481	8947.76
885.798	8960.64
886.115	8892.39
886.432	8898.04
886.75	8840.19
887.067	8825.05
887.383	8849
887.7	8865.5
888.017	8756.8
888.334	8833.41
888.651	8764.04
888.967	8693.53
889.284	8655.34
889.6	8630.25
889.917	8558.39
890.233	8624.38
890.55	8552.97
890.866	8591.84
891.182	8544.38
891.498	8544.38
891.815	8492.86
892.131	8491.27
892.447	8473.2
892.763	8412.41
893.079	8328.57
893.395	8346.64
893.71	8374.44
894.026	8302.8
894.342	8298.51
894.657	8210.6
894.973	8239.98
895.289	8245.18
895.604	8207.67
895.92	8181.68
896.235	8153.66
896.55	8078.63
896.865	8100.78
897.181	8031.85
897.496	8028.01
897.811	7996.37
898.126	7968.35
898.441	7985.07
898.756	7941.68
899.071	7869.6
899.386	7935.58
899.7	7815.13
900.015	7876.15
900.33	7729.26
900.644	7759.99
900.959	7777.62
901.273	7707.34
901.588	7617.85
901.902	7623.95
902.216	7565.2
902.531	7584.41
902.845	7513.22
903.159	7507.12
903.473	7516.61
903.787	7404.3
904.101	7399.1
904.415	7378.99
904.729	7429.15
905.042	7333.56
905.356	7324.75
905.67	7292.66
905.984	7292.89
906.297	7275.26
906.611	7233.45
906.924	7211.99
907.237	7169.95
907.551	7163.85
907.864	7150.74
908.177	7101.71
908.491	7122.04
908.804	7016.06
909.117	7041.59
909.43	7011.99
909.743	6903.97
910.056	6929.51
910.368	6908.04
910.681	6877.31
910.994	6864.65
911.307	6805.22
911.619	6791.88
911.932	6763.41
912.244	6682.96
912.557	6766.12
912.869	6680.25
913.181	6659.68
913.494	6623.75
913.806	6575.84
914.118	6572.23
914.43	6516.18
914.742	6515.96
915.054	6433.47
915.366	6464.89
915.678	6436.64
915.99	6427.6
916.302	6389.86
916.613	6375.17
916.925	6338.56
917.236	6329.52
917.548	6307.38
917.859	6232.58
918.171	6193.71
918.482	6247.72
918.794	6205.23
919.105	6158.91
919.416	6114.84
919.727	6093.14
920.038	6093.37
920.349	6005.46
920.66	6025.35
920.971	6032.81
921.282	5985.13
921.593	6003.88
921.903	5887.5
922.214	5875.98
922.525	5834.39
922.835	5842.76
923.146	5835.52
923.456	5831
923.767	5732.48
924.077	5721.86
924.387	5757.79
924.697	5711.01
925.008	5705.13
925.318	5672.36
925.628	5615.64
925.938	5591.46
926.248	5567.51
926.558	5587.4
926.867	5562.54
927.177	5537.68
927.487	5486.61
927.796	5474.4
928.106	5442.31
928.416	5450.68
928.725	5385.59
929.034	5376.1
929.344	5355.09
929.653	5390.34
929.962	5321.87
930.271	5291.13
930.581	5294.97
930.89	5213.39
931.199	5247.52
931.508	5281.19
931.817	5221.3
932.125	5172.94
932.434	5147.63
932.743	5098.59
933.051	5130.46
933.36	5012.72
933.669	5073.51
933.977	4973.17
934.286	4998.03
934.594	5018.82
934.902	4954.19
935.21	4932.72
935.519	5004.13
935.827	4920.07
936.135	4889.33
936.443	4843.69
936.751	4851.14
937.059	4851.37
937.367	4833.97
937.674	4801.43
937.982	4794.42
938.29	4742.9
938.597	4774.54
938.905	4712.39
939.213	4665.61
939.52	4626.29
939.827	4668.55
940.135	4635.78
940.442	4607.76
940.749	4599.4
941.056	4656.57
941.363	4515.33
941.67	4532.51
941.977	4482.57
942.284	4497.03
942.591	4529.57
942.898	4423.13
943.205	4479.63
943.511	4404.38
943.818	4402.34
944.125	4341.1
944.431	4361.21
944.738	4314.21
945.044	4299.07
945.35	4290.93
945.657	4267.88
945.963	4250.03
946.269	4251.84
946.575	4235.11
946.881	4175
947.187	4165.51
947.493	4195.79
947.799	4188.56
948.105	4144.5
948.41	4151.05
948.716	4128.9
949.022	4127.32
949.327	4102.01
949.633	4035.57
949.938	4055.91
950.244	4024.05
950.549	3961.22
950.854	3959.19
951.16	3984.95
951.465	3918.29
951.77	3931.85
952.075	3862.47
952.38	3934.78
952.685	3891.39
952.99	3889.14
953.294	3857.5
953.599	3812.53
953.904	3812.98
954.209	3750.61
954.513	3782.7
954.818	3772.08
955.122	3778.63
955.426	3735.69
955.731	3720.33
956.035	3694.79
956.339	3695.69
956.643	3659.76
956.948	3657.73
957.252	3656.82
957.556	3632.19
957.86	3582.7
958.163	3583.83
958.467	3581.35
958.771	3532.31
959.075	3561.91
959.378	3499.99
959.682	3483.5
959.985	3468.13
960.289	3486.43
960.592	3457.96
960.896	3477.39
961.199	3408.47
961.502	3410.05
961.805	3434.23
962.108	3376.38
962.411	3365.31
962.714	3382.03
963.017	3393.78
963.32	3378.64
963.623	3328.92
963.926	3304.52
964.228	3255.25
964.531	3283.73
964.833	3262.71
965.136	3268.59
965.438	3240.56
965.741	3234.24
966.043	3228.59
966.345	3206.89
966.648	3151.53
966.95	3199.66
967.252	3147.46
967.554	3158.76
967.856	3136.16
968.158	3094.35
968.46	3122.15
968.761	3114.24
969.063	3083.05
969.365	3067.91
969.666	3060.68
969.968	3024.07
970.269	3029.95
970.571	3024.52
970.872	2978.65
971.174	2976.39
971.475	2980.23
971.776	2920.12
972.077	2939.1
972.378	2965.09
972.679	2921.48
972.98	2940.46
973.281	2894.13
973.582	2883.74
973.883	2839.22
974.183	2845.77
974.484	2837.41
974.785	2833.8
975.085	2815.94
975.386	2847.35
975.686	2789.73
975.986	2760.35
976.287	2751.99
976.587	2749.73
976.887	2739.11
977.187	2744.08
977.487	2729.84
977.787	2702.73
978.087	2698.88
978.387	2671.54
978.687	2695.04
978.987	2645.78
979.286	2673.12
979.586	2650.07
979.885	2630.19
980.185	2627.7
980.484	2602.62
980.784	2595.38
981.083	2583.41
981.382	2587.25
981.682	2567.81
981.981	2549.74
982.28	2513.35
982.579	2518.1
982.878	2526.68
983.177	2518.32
983.475	2533.92
983.774	2476.74
984.073	2492.34
984.372	2448.27
984.67	2461.15
984.969	2443.52
985.267	2439.46
985.566	2459.12
985.864	2392.68
986.162	2389.51
986.461	2362.85
986.759	2368.72
987.057	2353.58
987.355	2363.98
987.653	2367.59
987.951	2348.61
988.249	2341.83
988.547	2305.45
988.844	2295.96
989.142	2268.61
989.44	2293.47
989.737	2270.87
990.035	2254.15
990.332	2251.21
990.63	2267.93
990.927	2239.01
991.224	2195.62
991.521	2232.91
991.819	2187.03
992.116	2190.2
992.413	2177.09
992.71	2177.09
993.006	2152.46
993.303	2169.18
993.6	2145.45
993.897	2130.09
994.193	2140.93
994.49	2110.88
994.787	2142.06
995.083	2099.8
995.379	2107.03
995.676	2100.93
995.972	2084.89
996.268	2072.23
996.565	2058.45
996.861	2037.88
997.157	2020.71
997.453	2007.15
997.749	2047.15
998.044	1977.32
998.34	1993.37
998.636	1984.78
998.932	1972.35
999.227	1954.95
999.523	1953.37
999.818	1947.04
1000.114	1938.23
1000.409	1915.4
1000.704	1910.43
1001	1912.69
1001.295	1913.14
1001.59	1886.25
1001.885	1882.41
1002.18	1870.43
1002.475	1871.79
1002.77	1848.28
1003.065	1843.77
1003.359	1833.37
1003.654	1808.96
1003.949	1792.92
1004.243	1814.61
1004.538	1780.04
1004.832	1792.92
1005.127	1772.35
1005.421	1748.4
1005.715	1759.25
1006.009	1753.15
1006.304	1767.83
1006.598	1706.37
1006.892	1700.04
1007.186	1680.61
1007.48	1706.59
1007.773	1676.09
1008.067	1682.19
1008.361	1643.09
1008.655	1641.06
1008.948	1649.87
1009.242	1627.05
1009.535	1624.11
1009.829	1645.35
1010.122	1589.76
1010.415	1604
1010.708	1591.34
1011.001	1573.49
1011.295	1588.86
1011.588	1553.83
1011.881	1535.52
1012.173	1559.25
1012.466	1523.1
1012.759	1523.77
1013.052	1505.69
1013.344	1508.18
1013.637	1517.45
1013.93	1537.11
1014.222	1492.14
1014.514	1482.87
1014.807	1457.11
1015.099	1451.23
1015.391	1467.5
1015.683	1448.52
1015.976	1447.17
1016.268	1412.14
1016.56	1422.76
1016.851	1419.14
1017.143	1418.69
1017.435	1410.33
1017.727	1377.56
1018.018	1383.66
1018.31	1384.57
1018.602	1375.3
1018.893	1368.3
1019.185	1325.81
1019.476	1357.68
1019.767	1349.31
1020.058	1304.12
1020.35	1317.45
1020.641	1293.05
1020.932	1306.6
1021.223	1293.27
1021.514	1281.75
1021.804	1276.55
1022.095	1258.02
1022.386	1262.99
1022.677	1268.64
1022.967	1238.58
1023.258	1227.28
1023.548	1224.8
1023.839	1234.74
1024.129	1202.88
1024.419	1217.57
1024.709	1213.73
1025	1160.85
1025.29	1170.34
1025.58	1179.38
1025.87	1149.09
1026.16	1154.52
1026.449	1122.88
1026.739	1164.01
1027.029	1148.42
1027.319	1124.91
1027.608	1115.87
1027.898	1114.74
1028.187	1102.77
1028.477	1091.24
1028.766	1128.08
1029.055	1082.43
1029.344	1090.34
1029.634	1079.04
1029.923	1084.91
1030.212	1062.54
1030.501	1046.95
1030.79	1064.12
1031.078	1024.13
1031.367	1031.13
1031.656	1037.68
1031.945	1022.09
1032.233	1018.93
1032.522	994.52
1032.81	999.04
1033.099	993.17
1033.387	1007.4
1033.675	1002.43
1033.963	964.01
1034.251	971.7
1034.54	945.71
1034.828	950.46
1035.116	947.74
1035.403	946.16
1035.691	942.55
1035.979	924.24
1036.267	938.25
1036.554	919.72
1036.842	914.52
1037.129	902.77
1037.417	918.14
1037.704	915.88
1037.992	883.11
1038.279	872.72
1038.566	903.68
1038.853	903.68
1039.14	903.68
