Data from hue_240_FLMS001491_00014.txt Node
Date: Tue Feb 07 16:35:06 GMT 2017
User: dcchb
Spectrometer: FLMS00149
Trigger mode: 0
Integration Time (sec): 2.000000E-2
Scans to average: 10
Electric dark correction enabled: true
Nonlinearity correction enabled: false
Boxcar width: 0
XAxis mode: Wavelengths
Number of Pixels in Spectrum: 2048
>>>>>Begin Spectral Data<<<<<
341.393	-14.22
341.776	-14.22
342.16	-14.22
342.543	-56.71
342.927	-59.42
343.31	-71.62
343.693	-56.03
344.077	-61.45
344.46	-73.2
344.843	-61.68
345.226	-25.3
345.61	-20.55
345.993	-31.17
346.376	-6.77
346.759	-6.31
347.142	37.75
347.525	58.32
347.908	65.78
348.291	49.96
348.674	100.58
349.057	101.71
349.44	125.43
349.823	170.86
350.206	141.03
350.588	190.29
350.971	194.59
351.354	232.1
351.737	216.51
352.119	247.69
352.502	256.73
352.884	258.54
353.267	261.7
353.65	300.8
354.032	295.15
354.414	296.5
354.797	301.25
355.179	300.57
355.562	300.57
355.944	345.54
356.326	303.28
356.709	321.14
357.091	319.55
357.473	352.55
357.855	328.82
358.238	337.18
358.62	320.23
359.002	345.77
359.384	335.82
359.766	355.26
360.148	349.16
360.53	330.85
360.912	329.95
361.294	321.59
361.676	339.67
362.057	315.94
362.439	322.04
362.821	298.99
363.203	322.49
363.584	317.97
363.966	314.81
364.348	312.1
364.729	313.45
365.111	309.16
365.493	325.43
365.874	297.63
366.256	310.74
366.637	315.26
367.019	303.28
367.4	287.46
367.781	339.67
368.163	308.71
368.544	313.68
368.925	308.48
369.306	309.38
369.688	290.4
370.069	301.02
370.45	311.64
370.831	287.24
371.212	320.23
371.593	329.05
371.974	314.36
372.355	313.9
372.736	309.38
373.117	315.71
373.498	315.94
373.879	310.06
374.26	300.8
374.641	320.91
375.021	320.01
375.402	325.88
375.783	318.65
376.163	322.04
376.544	306.67
376.925	335.6
377.305	318.88
377.686	325.43
378.066	314.58
378.447	324.53
378.827	338.76
379.208	329.72
379.588	322.72
379.968	354.36
380.349	319.33
380.729	327.46
381.109	350.29
381.489	324.75
381.87	329.05
382.25	320.01
382.63	328.82
383.01	345.09
383.39	331.08
383.77	326.79
384.15	319.33
384.53	325.88
384.91	360.23
385.29	337.18
385.67	366.33
386.049	345.32
386.429	343.06
386.809	342.15
387.189	332.66
387.568	341.25
387.948	353.23
388.328	343.51
388.707	355.94
389.087	350.29
389.466	380.8
389.846	367.69
390.225	352.55
390.605	374.02
390.984	378.08
391.363	356.16
391.743	349.84
392.122	345.77
392.501	363.17
392.881	372.43
393.26	393.9
393.639	380.12
394.018	382.38
394.397	364.07
394.776	383.05
395.155	366.56
395.534	359.1
395.913	373.56
396.292	388.25
396.671	378.99
397.05	381.02
397.429	393.68
397.808	395.03
398.186	408.82
398.565	377.18
398.944	378.99
399.323	401.13
399.701	384.86
400.08	395.94
400.458	408.14
400.837	400.46
401.215	427.8
401.594	414.47
401.972	404.07
402.351	409.27
402.729	427.35
403.107	435.26
403.486	434.58
403.864	417.4
404.242	431.42
404.62	434.13
404.999	433.22
405.377	413.11
405.755	429.61
406.133	460.57
406.511	425.31
406.889	466.44
407.267	465.99
407.645	457.18
408.023	473.9
408.401	470.51
408.779	487.68
409.156	489.49
409.534	501.7
409.912	466.22
410.29	487.91
410.667	498.31
411.045	497.63
411.422	510.96
411.8	517.74
412.178	491.07
412.555	511.19
412.933	534.46
413.31	515.03
413.687	541.47
414.065	552.54
414.442	553.67
414.819	589.15
415.197	557.29
415.574	571.52
415.951	570.85
416.328	602.94
416.705	600.9
417.082	604.74
417.46	588.02
417.837	628.02
418.214	592.54
418.591	616.04
418.967	628.25
419.344	633.67
419.721	630.73
420.098	641.13
420.475	657.62
420.852	668.02
421.228	687.23
421.605	676.38
421.982	683.61
422.358	694.46
422.735	706.89
423.111	704.18
423.488	743.05
423.864	721.35
424.241	720.9
424.617	748.24
424.994	764.97
425.37	767.68
425.746	784.4
426.123	780.78
426.499	795.25
426.875	807.45
427.251	801.35
427.627	802.03
428.003	827.56
428.379	832.99
428.756	838.64
429.132	835.25
429.507	857.17
429.883	874.12
430.259	870.5
430.635	868.92
431.011	873.66
431.387	906.66
431.763	911.18
432.138	903.27
432.514	929.93
432.89	963.6
433.265	950.5
433.641	977.62
434.016	1007.67
434.392	1029.37
434.767	1018.07
435.143	1048.8
435.518	1039.08
435.894	1044.73
436.269	1081.57
436.644	1105.75
437.02	1107.1
437.395	1135.13
437.77	1144.39
438.145	1132.64
438.52	1149.59
438.895	1201.56
439.271	1176.25
439.646	1221.9
440.021	1210.83
440.395	1203.15
440.77	1237.5
441.145	1253.99
441.52	1271.85
441.895	1275.91
442.27	1262.35
442.645	1283.14
443.019	1303.48
443.394	1318.62
443.769	1322.92
444.143	1301.9
444.518	1340.09
444.892	1372.63
445.267	1358.85
445.641	1376.25
446.016	1394.33
446.39	1398.85
446.764	1395.01
447.139	1411.95
447.513	1423.25
447.887	1428.45
448.262	1424.61
448.636	1450.82
449.01	1475.23
449.384	1460.31
449.758	1474.55
450.132	1491.73
450.506	1517.71
450.88	1520.2
451.254	1530.14
451.628	1553.87
452.002	1568.11
452.376	1554.32
452.75	1615.34
453.123	1577.6
453.497	1597.03
453.871	1601.55
454.244	1672.96
454.618	1654.66
454.992	1682.23
455.365	1693.3
455.739	1712.29
456.112	1747.99
456.486	1742.12
456.859	1726.75
457.232	1797.03
457.606	1749.8
457.979	1806.07
458.352	1816.01
458.725	1826.18
459.099	1850.13
459.472	1921.55
459.845	1901.66
460.218	1916.12
460.591	1957.93
460.964	1959.51
461.337	1977.59
461.71	1997.7
462.083	2036.12
462.456	2024.59
462.829	2032.5
463.201	2085.38
463.574	2058.49
463.947	2115.21
464.32	2131.03
464.692	2181.88
465.065	2176.45
465.438	2198.37
465.81	2228.43
466.183	2251.25
466.555	2300.29
466.928	2293.06
467.3	2325.83
467.672	2315.43
468.045	2423.68
468.417	2436.33
468.789	2424.81
469.161	2444.02
469.534	2489.21
469.906	2522.21
470.278	2540.06
470.65	2565.14
471.022	2603.11
471.394	2664.12
471.766	2683.11
472.138	2683.56
472.51	2740.51
472.882	2840.39
473.253	2820.28
473.625	2827.74
473.997	2913.61
474.369	2892.59
474.74	2972.14
475.112	2956.09
475.484	3014.85
475.855	3083.77
476.227	3065.92
476.598	3147.95
476.97	3198.8
477.341	3231.79
477.713	3288.29
478.084	3272.24
478.455	3381.17
478.827	3419.81
479.198	3518.79
479.569	3484.22
479.94	3579.81
480.311	3611.44
480.682	3672.91
481.053	3754.72
481.424	3762.18
481.795	3831.1
482.166	3846.92
482.537	3907.03
482.908	3978.67
483.279	3999.68
483.65	4110.19
484.021	4151.54
484.391	4230.19
484.762	4215.04
485.133	4290.07
485.503	4333.69
485.874	4377.75
486.244	4422.04
486.615	4523.74
486.985	4551.98
487.356	4594.24
487.726	4637.41
488.097	4720.57
488.467	4672.21
488.837	4841.47
489.207	4838.08
489.578	4890.73
489.948	4912.65
490.318	5013.89
490.688	5024.06
491.058	5073.33
491.428	5137.73
491.798	5217.5
492.168	5297.5
492.538	5275.13
492.908	5324.85
493.278	5350.83
493.648	5382.25
494.017	5435.58
494.387	5476.71
494.757	5553.31
495.126	5557.83
495.496	5601.45
495.866	5598.06
496.235	5714.44
496.605	5745.85
496.974	5751.73
497.344	5813.42
497.713	5866.07
498.082	5833.08
498.452	5937.26
498.821	5913.3
499.19	5936.58
499.559	5987.88
499.928	6005.05
500.298	6040.76
500.667	6105.84
501.036	6076.69
501.405	6151.04
501.774	6140.19
502.143	6196.69
502.512	6141.32
502.88	6227.65
503.249	6212.73
503.618	6230.58
503.987	6279.85
504.356	6270.58
504.724	6353.75
505.093	6404.14
505.462	6370.24
505.83	6403.69
506.199	6428.55
506.567	6502.22
506.936	6480.3
507.304	6590.8
507.672	6537.47
508.041	6633.29
508.409	6625.38
508.777	6613.85
509.145	6661.99
509.514	6645.04
509.882	6716
510.25	6685.94
510.618	6758.71
510.986	6755.99
511.354	6794.86
511.722	6757.35
512.09	6849.55
512.458	6855.65
512.826	6878.48
513.193	6886.39
513.561	6898.82
513.929	6955.76
514.297	6972.71
514.664	7037.8
515.032	7066.04
515.4	7130.45
515.767	7073.05
516.135	7065.14
516.502	7027.63
516.869	7139.49
517.237	7132.93
517.604	7139.71
517.972	7134.52
518.339	7162.09
518.706	7159.6
519.073	7220.62
519.44	7257.45
519.808	7274.63
520.175	7272.82
520.542	7308.75
520.909	7327.05
521.276	7344.45
521.643	7351.23
522.009	7428.29
522.376	7365.47
522.743	7411.34
523.11	7458.58
523.477	7523.66
523.843	7510.55
524.21	7600.49
524.577	7583.09
524.943	7619.02
525.31	7636.65
525.676	7634.84
526.043	7683.65
526.409	7730.88
526.776	7774.05
527.142	7717.78
527.508	7799.36
527.874	7814.95
528.241	7798.23
528.607	7828.96
528.973	7874.84
529.339	7833.03
529.705	7878
530.071	7899.69
530.437	7908.96
530.803	7945.34
531.169	7989.18
531.535	7920.03
531.901	7932.91
532.267	7953.03
532.632	7977.66
532.998	7971.1
533.364	7994.15
533.73	7963.19
534.095	8064.21
534.461	7997.54
534.826	8042.51
535.192	7979.92
535.557	8076.64
535.923	8023.76
536.288	8051.1
536.653	8017.43
537.019	8078.45
537.384	8083.19
537.749	8068.05
538.114	8100.82
538.479	8017.66
538.845	8098.56
539.21	8037.09
539.575	8065.34
539.94	8027.37
540.305	8048.84
540.67	8080.71
541.034	8056.75
541.399	8072.8
541.764	8027.6
542.129	8080.03
542.494	8024.66
542.858	8017.43
543.223	7991.22
543.587	8028.96
543.952	8037.77
544.316	7995.74
544.681	8031.22
545.045	8000.03
545.41	8019.01
545.774	8009.97
546.138	8058.56
546.503	7977.88
546.867	8011.1
547.231	8032.57
547.595	7999.8
547.959	8025.57
548.324	8021.27
548.688	7977.43
549.052	8003.19
549.416	8014.04
549.779	8031.89
550.143	7983.53
550.507	8070.76
550.871	7985.34
551.235	8026.02
551.599	8001.61
551.962	8045.23
552.326	8062.85
552.689	8008.17
553.053	7948.73
553.417	7988.05
553.78	8061.5
554.143	7978.56
554.507	8031.67
554.87	8042.29
555.234	8041.38
555.597	8012.91
555.96	8065.11
556.323	8022.18
556.686	8042.29
557.05	8103.3
557.413	8090.87
557.776	8067.6
558.139	8067.15
558.502	8120.03
558.865	8135.17
559.228	8119.35
559.59	8179.01
559.953	8157.09
560.316	8211.32
560.679	8191.89
561.041	8238.44
561.404	8272.79
561.767	8263.07
562.129	8235.05
562.492	8251.55
562.854	8288.61
563.217	8328.61
563.579	8370.87
563.941	8412.9
564.304	8392.11
564.666	8443.86
565.028	8435.05
565.39	8440.7
565.753	8418.1
566.115	8474.14
566.477	8437.31
566.839	8455.39
567.201	8529.51
567.563	8510.07
567.925	8606.79
568.287	8587.81
568.648	8610.86
569.01	8625.1
569.372	8691.09
569.734	8586.91
570.095	8639.33
570.457	8719.56
570.819	8781.25
571.18	8709.62
571.542	8737.19
571.903	8776.96
572.265	8834.58
572.626	8840.01
572.987	8847.47
573.349	8888.82
573.71	8889.5
574.071	8898.31
574.432	8868.48
574.794	8938.99
575.155	8924.53
575.516	9009.27
575.877	8963.62
576.238	8988.48
576.599	9133.56
576.96	9070.06
577.32	9044.3
577.681	9138.08
578.042	9117.51
578.403	9155.71
578.763	9114.58
579.124	9094.46
579.485	9174.24
579.845	9244.97
580.206	9167.23
580.566	9185.31
580.927	9228.47
581.287	9284.52
581.648	9283.84
582.008	9235.93
582.368	9291.3
582.728	9231.86
583.089	9279.09
583.449	9311.86
583.809	9282.48
584.169	9358.41
584.529	9271.86
584.889	9411.29
585.249	9385.98
585.609	9381.69
585.969	9386.21
586.329	9405.87
586.688	9448.13
587.048	9402.93
587.408	9361.8
587.768	9408.13
588.127	9400.22
588.487	9435.7
588.846	9493.1
589.206	9458.3
589.565	9407.45
589.925	9526.54
590.284	9414.23
590.643	9485.19
591.003	9481.8
591.362	9550.95
591.721	9491.06
592.08	9555.02
592.44	9527.9
592.799	9549.37
593.158	9586.88
593.517	9550.72
593.876	9589.37
594.235	9610.83
594.593	9626.2
594.952	9584.62
595.311	9613.77
595.67	9597.05
596.029	9587.78
596.387	9700.1
596.746	9611.29
597.104	9631.85
597.463	9619.65
597.822	9642.92
598.18	9589.82
598.538	9655.13
598.897	9636.14
599.255	9607.45
599.613	9735.58
599.972	9679.99
600.33	9649.7
600.688	9702.13
601.046	9705.07
601.404	9696.48
601.762	9626.88
602.12	9780.77
602.478	9746.88
602.836	9793.65
603.194	9729.48
603.552	9782.36
603.91	9702.13
604.268	9768.12
604.625	9728.57
604.983	9761.57
605.341	9669.14
605.698	9761.79
606.056	9781.68
606.413	9763.83
606.771	9762.24
607.128	9799.3
607.485	9746.88
607.843	9780.77
608.2	9784.16
608.557	9923.6
608.914	9847.44
609.272	9915.69
609.629	9935.57
609.986	9897.61
610.343	9896.25
610.7	9929.47
611.057	9876.36
611.414	9882.24
611.771	9939.19
612.127	9973.99
612.484	9979.64
612.841	10056.7
613.198	9933.99
613.554	9939.64
613.911	10014.67
614.267	10020.99
614.624	9980.54
614.98	9971.05
615.337	9987.55
615.693	10018.51
616.05	10035.46
616.406	10069.13
616.762	10022.35
617.118	10067.77
617.475	10020.54
617.831	10032.52
618.187	10109.35
618.543	10060.77
618.899	10162.68
619.255	10025.29
619.611	10076.13
619.967	10098.51
620.323	10142.57
620.678	10047.43
621.034	10095.12
621.39	10049.47
621.746	10100.31
622.101	10206.3
622.457	10107.32
622.812	10060.31
623.168	10136.92
623.523	10132.4
623.879	10171.95
624.234	10060.77
624.589	10084.27
624.945	10124.95
625.3	10098.73
625.655	10080.65
626.01	10115.68
626.365	10098.96
626.72	10079.07
627.075	10046.53
627.43	10069.13
627.785	10103.03
628.14	10125.4
628.495	10115.45
628.85	10082.91
629.205	10058.28
629.559	10116.13
629.914	10046.53
630.269	10103.48
630.623	10039.98
630.978	10026.42
631.332	10044.5
631.687	10003.14
632.041	9951.84
632.396	10049.47
632.75	10004.5
633.104	10005.85
633.459	9951.62
633.813	9899.41
634.167	9944.16
634.521	9941.9
634.875	9875.69
635.229	9901.45
635.583	9896.03
635.937	9874.1
636.291	9790.94
636.645	9867.33
636.999	9747.55
637.352	9852.86
637.706	9741.68
638.06	9805.18
638.413	9790.04
638.767	9739.87
639.121	9766.54
639.474	9706.43
639.828	9698.97
640.181	9713.88
640.534	9726.54
640.888	9731.74
641.241	9665.3
641.594	9715.46
641.947	9766.09
642.301	9654.45
642.654	9709.59
643.007	9683.83
643.36	9696.48
643.713	9668.91
644.066	9662.13
644.419	9634.11
644.771	9577.39
645.124	9502.82
645.477	9446.32
645.83	9402.25
646.182	9351.41
646.535	9306.66
646.888	9362.03
647.24	9275.48
647.593	9298.3
647.945	9245.42
648.298	9305.98
648.65	9291.07
649.002	9260.79
649.355	9283.84
649.707	9235.25
650.059	9265.08
650.411	9417.39
650.763	9417.85
651.115	9499.2
651.467	9495.58
651.819	9438.18
652.171	9478.86
652.523	9463.72
652.875	9449.71
653.227	9462.36
653.578	9535.13
653.93	9415.13
654.282	9449.03
654.633	9355.47
654.985	9430.5
655.337	9445.19
655.688	9353.21
656.039	9472.76
656.391	9361.35
656.742	9354.12
657.094	9356.38
657.445	9441.12
657.796	9389.6
658.147	9359.32
658.498	9324.74
658.849	9359.54
659.2	9436.38
659.551	9323.38
659.902	9397.51
660.253	9395.93
660.604	9385.08
660.955	9342.59
661.306	9444.96
661.656	9356.6
662.007	9332.65
662.358	9368.36
662.708	9392.08
663.059	9398.64
663.409	9436.83
663.76	9456.04
664.11	9425.75
664.461	9424.17
664.811	9427.11
665.161	9410.39
665.511	9319.54
665.862	9445.19
666.212	9393.67
666.562	9426.21
666.912	9393.67
667.262	9429.6
667.612	9431.86
667.962	9402.7
668.312	9294.23
668.662	9376.49
669.011	9409.48
669.361	9415.59
669.711	9360.9
670.06	9330.39
670.41	9356.6
670.76	9351.41
671.109	9393.21
671.459	9412.2
671.808	9337.85
672.157	9352.76
672.507	9312.09
672.856	9358.64
673.205	9295.59
673.554	9325.64
673.904	9213.11
674.253	9370.39
674.602	9305.31
674.951	9162.71
675.3	9108.48
675.649	9358.64
675.998	9282.48
676.346	9245.42
676.695	9235.25
677.044	9217.4
677.393	9203.84
677.741	9214.91
678.09	9245.87
678.438	9152.09
678.787	9208.13
679.135	9205.87
679.484	9157.51
679.832	9196.61
680.181	9141.47
680.529	9136.72
680.877	9139.66
681.225	9087.46
681.573	9160.68
681.922	9019.44
682.27	9015.6
682.618	8989.61
682.966	9018.99
683.314	9020.12
683.661	8955.48
684.009	8981.25
684.357	8901.25
684.705	8872.32
685.053	8904.86
685.4	8875.49
685.748	8779.67
686.095	8780.35
686.443	8777.41
686.79	8742.38
687.138	8775.6
687.485	8789.39
687.832	8722.5
688.18	8740.35
688.527	8689.73
688.874	8717.53
689.221	8701.48
689.568	8615.15
689.915	8591.2
690.262	8622.16
690.609	8579
690.956	8499.9
691.303	8544.42
691.65	8493.35
691.997	8522.5
692.344	8431.2
692.69	8460.58
693.037	8415.84
693.383	8383.75
693.73	8364.09
694.077	8365.22
694.423	8300.81
694.769	8337.87
695.116	8268.72
695.462	8242.28
695.808	8199.35
696.155	8155.73
696.501	8196.63
696.847	8156.41
697.193	8089.52
697.539	8072.12
697.885	8003.42
698.231	8042.06
698.577	8005
698.923	7985.11
699.269	7932.46
699.614	7934.95
699.96	7896.3
700.306	7883.2
700.651	7840.94
700.997	7865.8
701.342	7780.6
701.688	7807.04
702.033	7742.18
702.379	7723.43
702.724	7709.64
703.069	7739.02
703.415	7606.59
703.76	7641.62
704.105	7602.3
704.45	7641.62
704.795	7541.51
705.14	7541.96
705.485	7561.85
705.83	7523.21
706.175	7485.47
706.52	7424.9
706.865	7442.08
707.209	7405.24
707.554	7356.66
707.899	7388.52
708.243	7342.87
708.588	7352.59
708.932	7282.76
709.277	7326.15
709.621	7271.69
709.966	7226.94
710.31	7262.65
710.654	7137.23
710.998	7212.03
711.342	7180.84
711.687	7174.97
712.031	7157.79
712.375	7088.64
712.719	7168.64
713.063	7105.36
713.407	7156.44
713.75	7099.71
714.094	7098.81
714.438	7058.81
714.782	7070.56
715.125	7079.38
715.469	7070.56
715.812	7043.22
716.156	6968.64
716.499	6968.64
716.843	6958.25
717.186	6918.02
717.53	6971.58
717.873	6960.28
718.216	6954.41
718.559	6880.96
718.902	6895.88
719.246	6903.34
719.589	6910.79
719.932	6861.08
720.275	6824.02
720.617	6827.18
720.96	6805.94
721.303	6793.51
721.646	6799.38
721.989	6767.97
722.331	6812.49
722.674	6815.43
723.016	6773.4
723.359	6786.73
723.701	6784.69
724.044	6696.79
724.386	6673.96
724.729	6737.24
725.071	6752.38
725.413	6730.68
725.755	6689.56
726.097	6633.96
726.439	6650.69
726.782	6679.39
727.124	6689.33
727.465	6717.8
727.807	6639.39
728.149	6691.59
728.491	6650.01
728.833	6678.71
729.175	6585.15
729.516	6613.85
729.858	6628.31
730.199	6664.7
730.541	6624.25
730.882	6629.67
731.224	6712.38
731.565	6602.78
731.906	6595.09
732.248	6590.35
732.589	6594.42
732.93	6577.47
733.271	6628.54
733.612	6568.2
733.953	6633.74
734.294	6607.3
734.635	6561.65
734.976	6595.55
735.317	6578.82
735.658	6586.73
735.999	6581.76
736.339	6573.17
736.68	6581.54
737.021	6566.4
737.361	6532.27
737.702	6573.63
738.042	6603.46
738.383	6559.16
738.723	6561.2
739.063	6615.89
739.404	6549.9
739.744	6560.97
740.084	6573.4
740.424	6654.53
740.764	6576.56
741.104	6585.83
741.444	6560.75
741.784	6641.87
742.124	6629.44
742.464	6618.15
742.804	6595.77
743.143	6629.9
743.483	6672.38
743.823	6630.8
744.162	6636.68
744.502	6718.26
744.841	6704.92
745.181	6758.71
745.52	6751.25
745.86	6741.98
746.199	6771.36
746.538	6756.9
746.877	6802.55
747.216	6846.39
747.556	6907.18
747.895	6913.73
748.234	6878.48
748.573	6905.6
748.911	6962.09
749.25	6949.89
749.589	6991.02
749.928	7052.26
750.267	7081.18
750.605	7108.3
750.944	7139.94
751.283	7199.37
751.621	7271.46
751.96	7299.26
752.298	7368.18
752.636	7380.39
752.975	7474.85
753.313	7420.61
753.651	7569.31
753.989	7567.27
754.327	7688.17
754.666	7698.57
755.004	7792.35
755.342	7898.79
755.679	7928.17
756.017	7972.69
756.355	8078.22
756.693	8188.95
757.031	8240.02
757.368	8228.95
757.706	8338.78
758.044	8458.55
758.381	8534.25
758.719	8614.02
759.056	8693.34
759.394	8792.55
759.731	8867.58
760.068	8917.52
760.405	8975.6
760.743	9087.46
761.08	9202.26
761.417	9299.2
761.754	9373.55
762.091	9426.43
762.428	9523.61
762.765	9619.42
763.102	9723.37
763.438	9887.44
763.775	9788.46
764.112	9947.55
764.449	10082.91
764.785	10105.96
765.122	10182.8
765.458	10230.25
765.795	10357.26
766.131	10392.74
766.467	10485.61
766.804	10523.58
767.14	10580.75
767.476	10664.82
767.812	10753.4
768.148	10920.86
768.485	10825.27
768.821	10866.85
769.157	10954.08
769.492	11035.43
769.828	11136.9
770.164	11126.28
770.5	11079.27
770.836	11212.15
771.171	11207.18
771.507	11284.92
771.842	11296.44
772.178	11294.63
772.513	11437
772.849	11489.2
773.184	11358.13
773.519	11512.03
773.855	11541.63
774.19	11536.21
774.525	11577.34
774.86	11630.89
775.195	11600.61
775.53	11616.43
775.865	11637.9
776.2	11549.31
776.535	11576.21
776.87	11629.31
777.205	11694.17
777.539	11694.4
777.874	11694.4
778.209	11627.73
778.543	11624.79
778.878	11644.23
779.212	11638.13
779.547	11663.44
779.881	11747.5
780.215	11625.02
780.55	11778.24
780.884	11663.21
781.218	11637
781.552	11719.25
781.886	11596.09
782.22	11618.69
782.554	11660.72
782.888	11593.38
783.222	11550.9
783.556	11573.04
783.889	11597.22
784.223	11496.44
784.557	11502.99
784.89	11555.87
785.224	11486.04
785.557	11401.07
785.891	11541.63
786.224	11459.83
786.558	11511.8
786.891	11412.14
787.224	11309.55
787.557	11398.36
787.891	11332.82
788.224	11336.67
788.557	11333.95
788.89	11342.54
789.223	11322.65
789.556	11299.6
789.888	11260.73
790.221	11200.4
790.554	11171.47
790.887	11185.03
791.219	11179.38
791.552	11114.3
791.884	11108.65
792.217	11032.04
792.549	10981.65
792.882	10971.03
793.214	10990.46
793.546	10962.66
793.879	10840.63
794.211	10850.8
794.543	10910.01
794.875	10823.46
795.207	10937.13
795.539	10870.01
795.871	10896.45
796.203	10747.3
796.535	10770.58
796.867	10752.5
797.198	10696.46
797.53	10682.67
797.862	10603.58
798.193	10632.95
798.525	10570.13
798.856	10565.61
799.188	10470.02
799.519	10463.24
799.85	10388.89
800.182	10457.14
800.513	10362.91
800.844	10378.27
801.175	10405.62
801.506	10381.89
801.837	10320.19
802.168	10361.55
802.499	10304.15
802.83	10178.28
803.161	10230.25
803.491	10170.82
803.822	10221.89
804.153	10077.04
804.483	10064.83
804.814	10038.62
805.145	10136.24
805.475	10026.87
805.805	10057.83
806.136	10017.6
806.466	9991.62
806.796	10011.05
807.126	9936.7
807.457	9868.68
807.787	9858.96
808.117	9868.68
808.447	9845.86
808.777	9861.22
809.107	9760.66
809.436	9742.13
809.766	9795.24
810.096	9753.66
810.426	9690.61
810.755	9661
811.085	9713.21
811.414	9713.43
811.744	9639.08
812.073	9702.81
812.403	9524.96
812.732	9563.83
813.061	9578.07
813.39	9489.93
813.719	9490.16
814.049	9557.28
814.378	9482.93
814.707	9425.98
815.036	9454.68
815.365	9367
815.693	9400.44
816.022	9350.95
816.351	9336.04
816.68	9253.56
817.008	9303.95
817.337	9281.13
817.665	9214.01
817.994	9293.56
818.322	9245.87
818.651	9155.03
818.979	9118.42
819.307	9162.03
819.636	9179.66
819.964	9114.8
820.292	9120.45
820.62	9114.8
820.948	9084.3
821.276	9135.37
821.604	9086.78
821.932	9058.08
822.259	9148.47
822.587	9129.27
822.915	9117.06
823.243	9164.52
823.57	9103.5
823.898	9103.28
824.225	9062.15
824.553	9015.37
824.88	9044.75
825.207	9094.69
825.535	9132.2
825.862	9046.56
826.189	9100.34
826.516	9172.65
826.843	9104.86
827.17	9086.55
827.497	9179.66
827.824	9163.16
828.151	9147.8
828.478	9062.6
828.805	9103.28
829.131	9114.12
829.458	9102.37
829.785	9034.13
830.111	9079.1
830.438	9122.94
830.764	9061.7
831.09	9114.35
831.417	9098.53
831.743	9069.83
832.069	9044.3
832.395	9026.9
832.722	9049.27
833.048	9036.84
833.374	9089.04
833.7	9053.79
834.026	9002.94
834.351	9079.1
834.677	9073.22
835.003	9060.79
835.329	8995.03
835.654	9031.42
835.98	8950.29
836.306	9021.25
836.631	9006.56
836.956	8970.85
837.282	8961.13
837.607	8936.73
837.932	8939.21
838.258	8958.2
838.583	8913.45
838.908	8939.21
839.233	8938.31
839.558	8840.01
839.883	8815.6
840.208	8775.38
840.533	8845.43
840.858	8867.8
841.182	8749.84
841.507	8839.78
841.832	8739.9
842.156	8759.33
842.481	8755.26
842.805	8714.36
843.13	8744.64
843.454	8649.05
843.778	8678.88
844.103	8641.14
844.427	8660.8
844.751	8598.66
845.075	8584.87
845.399	8584.65
845.723	8494.71
846.047	8428.95
846.371	8410.87
846.695	8453.13
847.019	8386.69
847.343	8390.75
847.666	8348.04
847.99	8284.99
848.313	8261.49
848.637	8214.49
848.96	8239.12
849.284	8208.84
849.607	8101.27
849.931	8114.6
850.254	8071.67
850.577	7956.64
850.9	8041.84
851.223	7987.83
851.546	7948.05
851.869	7884.55
852.192	7897.66
852.515	7906.25
852.838	7868.51
853.161	7794.84
853.483	7840.71
853.806	7738.34
854.129	7724.56
854.451	7718.23
854.774	7673.48
855.096	7700.83
855.419	7665.58
855.741	7635.07
856.063	7605.69
856.385	7523.43
856.708	7520.72
857.03	7546.48
857.352	7561.85
857.674	7558.01
857.996	7388.97
858.318	7411.34
858.64	7429.65
858.961	7433.72
859.283	7348.52
859.605	7309.2
859.926	7331.8
860.248	7338.58
860.57	7328.86
860.891	7340.16
861.212	7232.37
861.534	7188.75
861.855	7226.49
862.176	7191.69
862.498	7180.84
862.819	7217.23
863.14	7157.34
863.461	7141.07
863.782	7178.36
864.103	7181.97
864.424	7142.65
864.745	7122.09
865.065	7106.27
865.386	7068.53
865.707	7103.33
866.027	7106.04
866.348	7082.54
866.668	7059.26
866.989	7036.21
867.309	6991.24
867.63	7072.37
867.95	6993.28
868.27	6927.52
868.59	6984.46
868.91	6967.97
869.23	6970.9
869.55	6895.65
869.87	6967.97
870.19	6948.31
870.51	6940.62
870.83	6921.64
871.15	6823.79
871.469	6844.13
871.789	6851.81
872.109	6902.43
872.428	6838.93
872.748	6806.61
873.067	6784.02
873.386	6804.13
873.706	6828.31
874.025	6772.27
874.344	6796.9
874.663	6775.66
874.982	6731.81
875.301	6736.79
875.62	6736.56
875.939	6735.43
876.258	6740.4
876.577	6715.32
876.896	6642.33
877.214	6666.28
877.533	6662.44
877.852	6680.52
878.17	6676.9
878.489	6678.26
878.807	6704.92
879.125	6640.97
879.444	6627.64
879.762	6603
880.08	6641.87
880.398	6602.1
880.716	6580.41
881.034	6555.55
881.352	6561.88
881.67	6520.52
881.988	6571.59
882.306	6566.85
882.624	6516
882.941	6442.1
883.259	6468.77
883.577	6459.28
883.894	6468.77
884.212	6434.42
884.529	6442.56
884.846	6397.59
885.164	6414.31
885.481	6333.63
885.798	6367.98
886.115	6349.23
886.432	6316.01
886.75	6280.07
887.067	6307.87
887.383	6313.07
887.7	6253.18
888.017	6261.32
888.334	6243.24
888.651	6271.04
888.967	6238.04
889.284	6194.88
889.6	6190.81
889.917	6123.69
890.233	6143.36
890.55	6139.06
890.866	6107.65
891.182	6121.21
891.498	6057.03
891.815	6070.81
892.131	6088.89
892.447	6042.12
892.763	5987.2
893.079	6008.67
893.395	5992.4
893.71	5947.43
894.026	5958.28
894.342	5978.61
894.657	5931.61
894.973	5863.59
895.289	5887.32
895.604	5828.56
895.92	5781.11
896.235	5811.16
896.55	5832.18
896.865	5782.69
897.181	5810.71
897.496	5774.78
897.811	5717.38
898.126	5717.15
898.441	5704.27
898.756	5711.95
899.071	5647.32
899.386	5619.98
899.7	5585.63
900.015	5584.95
900.33	5536.82
900.644	5534.56
900.959	5563.26
901.273	5502.69
901.588	5508.8
901.902	5482.81
902.216	5472.19
902.531	5437.84
902.845	5437.61
903.159	5345.86
903.473	5327.56
903.787	5360.33
904.101	5337.95
904.415	5320.33
904.729	5299.76
905.042	5295.92
905.356	5281.91
905.67	5289.14
905.984	5224.28
906.297	5191.74
906.611	5206.66
906.924	5188.35
907.237	5169.37
907.551	5139.09
907.864	5149.94
908.177	5135.7
908.491	5083.04
908.804	5046.89
909.117	5029.94
909.43	5013.89
909.743	4994.46
910.056	4989.26
910.368	4885.08
910.681	4922.6
910.994	4952.2
911.307	4898.64
911.619	4877.4
911.932	4841.69
912.244	4841.24
912.557	4840.56
912.869	4877.17
913.181	4779.1
913.494	4780.45
913.806	4754.69
914.118	4719.44
914.43	4714.01
914.742	4750.85
915.054	4658.42
915.366	4668.59
915.678	4629.27
915.99	4608.93
916.302	4617.07
916.613	4569.16
916.925	4607.58
917.236	4563.28
917.548	4500.46
917.859	4569.61
918.171	4501.36
918.482	4471.99
918.794	4499.78
919.105	4459.33
919.416	4443.29
919.727	4431.54
920.038	4439.22
920.349	4378.88
920.66	4320.58
920.971	4374.81
921.282	4328.26
921.593	4309.96
921.903	4321.48
922.214	4251.65
922.525	4244.2
922.835	4302.73
923.146	4196.29
923.456	4164.65
923.767	4176.85
924.077	4199.45
924.387	4167.36
924.697	4141.6
925.008	4125.78
925.318	4124.43
925.628	4096.18
925.938	4091.43
926.248	4036.97
926.558	4019.57
926.867	4046.91
927.177	3990.42
927.487	4009.85
927.796	3987.71
928.106	4013.69
928.416	3962.4
928.725	3923.75
929.034	3893.25
929.344	3920.36
929.653	3912.23
929.962	3863.87
930.271	3891.66
930.581	3845.34
930.89	3798.11
931.199	3775.51
931.508	3795.85
931.817	3817.99
932.125	3800.82
932.434	3783.87
932.743	3764.21
933.051	3738.22
933.36	3673.59
933.669	3674.49
933.977	3667.94
934.286	3661.84
934.594	3611.9
934.902	3625.23
935.21	3595.17
935.519	3649.64
935.827	3584.1
936.135	3561.73
936.443	3537.55
936.751	3552.24
937.059	3574.61
937.367	3542.75
937.674	3509.98
937.982	3497.1
938.29	3471.11
938.597	3459.13
938.905	3451
939.213	3442.64
939.52	3434.73
939.827	3448.51
940.135	3416.2
940.442	3355.86
940.749	3414.61
941.056	3368.29
941.363	3302.53
941.67	3283.54
941.977	3293.03
942.284	3280.83
942.591	3272.02
942.898	3272.02
943.205	3262.98
943.511	3273.15
943.818	3238.35
944.125	3222.53
944.431	3208.97
944.738	3201.29
945.044	3195.41
945.35	3142.08
945.657	3158.12
945.963	3149.08
946.269	3125.58
946.575	3137.11
946.881	3114.51
947.187	3100.95
947.493	3079.93
947.799	3072.25
948.105	3049.2
948.41	3049.65
948.716	3032.25
949.022	3048.3
949.327	3003.32
949.633	2974.4
949.938	2995.19
950.244	3008.3
950.549	2936.43
950.854	2968.98
951.16	2929.88
951.465	2898.24
951.77	2893.72
952.075	2873.38
952.38	2888.53
952.685	2879.94
952.99	2869.09
953.294	2849.2
953.599	2857.79
953.904	2816.21
954.209	2822.09
954.513	2757.46
954.818	2764.24
955.122	2786.61
955.426	2767.85
955.731	2764.01
956.035	2722.65
956.339	2752.26
956.643	2718.59
956.948	2701.19
957.252	2712.94
957.556	2702.54
957.86	2674.75
958.163	2652.15
958.467	2627.74
958.771	2636.55
959.075	2610.57
959.378	2611.47
959.682	2648.08
959.985	2584.58
960.289	2611.24
960.592	2578.25
960.896	2550.68
961.199	2559.27
961.502	2573.73
961.805	2542.32
962.108	2514.98
962.411	2514.3
962.714	2512.49
963.017	2497.12
963.32	2457.35
963.623	2459.16
963.926	2486.05
964.228	2480.4
964.531	2445.15
964.833	2479.5
965.136	2439.27
965.438	2409.89
965.741	2421.42
966.043	2439.5
966.345	2386.84
966.648	2385.04
966.95	2360.63
967.252	2359.27
967.554	2355.88
967.856	2340.07
968.158	2358.14
968.46	2311.37
968.761	2335.55
969.063	2301.87
969.365	2297.58
969.666	2307.75
969.968	2294.87
970.269	2266.85
970.571	2272.04
970.872	2271.37
971.174	2246.06
971.475	2216.9
971.776	2270.91
972.077	2222.55
972.378	2210.13
972.679	2223.68
972.98	2215.78
973.281	2191.14
973.582	2182.56
973.883	2128.55
974.183	2149.11
974.484	2155.44
974.785	2140.97
975.085	2140.07
975.386	2114.08
975.686	2101.65
975.986	2130.58
976.287	2108.89
976.587	2077.7
976.887	2108.66
977.187	2051.71
977.487	2032.73
977.787	2064.82
978.087	2050.36
978.387	2041.77
978.687	2021.88
978.987	2008.32
979.286	1989.11
979.586	1991.15
979.885	1997.48
980.185	1950.47
980.484	1983.92
980.784	1963.58
981.083	1973.97
981.382	1945.73
981.682	1952.73
981.981	1957.02
982.28	1896.69
982.579	1899.85
982.878	1897.37
983.177	1886.74
983.475	1915.44
983.774	1903.69
984.073	1892.85
984.372	1846.52
984.67	1843.36
984.969	1878.16
985.267	1847.42
985.566	1832.51
985.864	1823.24
986.162	1800.42
986.461	1803.58
986.759	1820.53
987.057	1807.2
987.355	1783.24
987.653	1778.72
987.951	1787.09
988.249	1809.01
988.547	1763.13
988.844	1746.41
989.142	1754.77
989.44	1704.6
989.737	1737.6
990.035	1733.75
990.332	1702.79
990.63	1729.69
990.927	1705.28
991.224	1690.37
991.521	1677.26
991.819	1674.77
992.116	1672.51
992.413	1674.55
992.71	1666.64
993.006	1672.51
993.303	1664.38
993.6	1651.27
993.897	1635.9
994.193	1618.95
994.49	1612.18
994.787	1631.84
995.083	1618.05
995.379	1616.02
995.676	1613.31
995.972	1587.77
996.268	1576.92
996.565	1571.05
996.861	1599.29
997.157	1569.24
997.453	1541.44
997.749	1552.97
998.044	1512.06
998.34	1523.14
998.636	1531.73
998.932	1548.22
999.227	1484.95
999.523	1505.29
999.818	1482.46
1000.114	1488.56
1000.409	1508.9
1000.704	1464.38
1001	1468.45
1001.295	1481.33
1001.59	1459.64
1001.885	1457.15
1002.18	1423.93
1002.475	1414.89
1002.77	1427.32
1003.065	1441.78
1003.359	1419.64
1003.654	1409.47
1003.949	1382.58
1004.243	1390.26
1004.538	1383.48
1004.832	1404.27
1005.127	1371.5
1005.421	1357.04
1005.715	1358.62
1006.009	1340.09
1006.304	1350.49
1006.598	1319.98
1006.892	1336.25
1007.186	1338.06
1007.48	1330.15
1007.773	1296.48
1008.067	1309.36
1008.361	1306.87
1008.655	1287.89
1008.948	1269.36
1009.242	1283.37
1009.535	1293.54
1009.829	1262.81
1010.122	1236.59
1010.415	1225.97
1010.708	1225.52
1011.001	1238.4
1011.295	1248.12
1011.588	1220.77
1011.881	1225.74
1012.173	1201.56
1012.466	1211.73
1012.759	1184.16
1013.052	1217.61
1013.344	1187.78
1013.637	1176.48
1013.93	1169.25
1014.222	1191.17
1014.514	1164.28
1014.807	1166.09
1015.099	1148.23
1015.391	1140.32
1015.683	1136.03
1015.976	1138.97
1016.268	1125.41
1016.56	1110.49
1016.851	1131.74
1017.143	1120.44
1017.435	1121.57
1017.727	1093.54
1018.018	1091.51
1018.31	1087.22
1018.602	1057.84
1018.893	1074.11
1019.185	1074.11
1019.476	1061.23
1019.767	1066.43
1020.058	1052.42
1020.35	1045.18
1020.641	1031.4
1020.932	1014
1021.223	1010.38
1021.514	1014.45
1021.804	1015.81
1022.095	1001.12
1022.386	1003.83
1022.677	1027.11
1022.967	983.04
1023.258	975.58
1023.548	971.97
1023.839	976.71
1024.129	967.22
1024.419	926.32
1024.709	953.89
1025	945.3
1025.29	947.33
1025.58	960.21
1025.87	943.72
1026.16	910.5
1026.449	925.41
1026.739	916.6
1027.029	908.92
1027.319	901.46
1027.608	906.88
1027.898	898.97
1028.187	867.56
1028.477	894
1028.766	851.52
1029.055	865.3
1029.344	866.66
1029.634	886.32
1029.923	860.78
1030.212	849.94
1030.501	861.46
1030.79	867.11
1031.078	871.4
1031.367	840.22
1031.656	814.46
1031.945	821.91
1032.233	839.77
1032.522	812.2
1032.81	802.93
1033.099	806.55
1033.387	808.13
1033.675	803.83
1033.963	794.57
1034.251	788.92
1034.54	768.58
1034.828	771.07
1035.116	782.14
1035.403	788.92
1035.691	780.56
1035.979	775.36
1036.267	790.73
1036.554	769.03
1036.842	759.09
1037.129	751.86
1037.417	760.22
1037.704	741.01
1037.992	734.01
1038.279	718.64
1038.566	726.1
1038.853	726.1
1039.14	726.1
