Data from hue_180_FLMS001491_00039.txt Node
Date: Tue Feb 07 16:46:55 GMT 2017
User: dcchb
Spectrometer: FLMS00149
Trigger mode: 0
Integration Time (sec): 2.000000E-2
Scans to average: 10
Electric dark correction enabled: true
Nonlinearity correction enabled: false
Boxcar width: 0
XAxis mode: Wavelengths
Number of Pixels in Spectrum: 2048
>>>>>Begin Spectral Data<<<<<
341.393	-25.01
341.776	-25.01
342.16	-25.01
342.543	-74.73
342.927	-55.52
343.31	-76.31
343.693	-71.79
344.077	-42.41
344.46	-62.98
344.843	-45.58
345.226	-41.74
345.61	-23.21
345.993	-22.98
346.376	-14.62
346.759	-6.26
347.142	31.26
347.525	36
347.908	60.86
348.291	80.07
348.674	85.04
349.057	114.64
349.44	137.92
349.823	166.62
350.206	171.37
350.588	182.44
350.971	200.97
351.354	221.31
351.737	242.1
352.119	235.09
352.502	265.15
352.884	280.29
353.267	270.57
353.65	301.08
354.032	290.01
354.414	289.55
354.797	316.22
355.179	315.09
355.562	323.45
355.944	355.54
356.326	335.88
356.709	362.32
357.091	347.63
357.473	337.46
357.855	343.79
358.238	366.16
358.62	325.03
359.002	325.49
359.384	351.47
359.766	349.89
360.148	341.98
360.53	328.65
360.912	330.68
361.294	332.27
361.676	351.7
362.057	329.55
362.439	353.06
362.821	327.97
363.203	332.27
363.584	334.07
363.966	332.94
364.348	330.23
364.729	335.2
365.111	321.19
365.493	322.32
365.874	321.87
366.256	335.66
366.637	324.81
367.019	309.67
367.4	322.32
367.781	306.05
368.163	320.29
368.544	312.38
368.925	310.12
369.306	334.07
369.688	316.45
370.069	325.71
370.45	330.01
370.831	304.47
371.212	293.4
371.593	321.64
371.974	314.86
372.355	304.02
372.736	326.84
373.117	322.32
373.498	328.42
373.879	325.94
374.26	313.28
374.641	307.63
375.021	299.72
375.402	293.17
375.783	320.97
376.163	312.38
376.544	341.76
376.925	317.58
377.305	322.55
377.686	335.43
378.066	325.26
378.447	319.61
378.827	326.16
379.208	325.03
379.588	312.38
379.968	330.91
380.349	316.22
380.729	335.88
381.109	332.72
381.489	318.25
381.87	349.67
382.25	342.43
382.63	355.09
383.01	347.86
383.39	343.34
383.77	344.02
384.15	343.11
384.53	337.46
384.91	329.55
385.29	363.9
385.67	368.42
386.049	349.21
386.429	370.46
386.809	355.77
387.189	370.23
387.568	344.92
387.948	343.79
388.328	360.74
388.707	361.19
389.087	370.91
389.466	361.87
389.846	369.78
390.225	380.63
390.605	379.27
390.984	358.48
391.363	361.87
391.743	382.21
392.122	375.65
392.501	372.94
392.881	390.34
393.26	377.24
393.639	386.73
394.018	384.24
394.397	397.35
394.776	389.21
395.155	402.09
395.534	378.82
395.913	401.87
396.292	391.02
396.671	416.1
397.05	389.44
397.429	386.73
397.808	408.2
398.186	417.91
398.565	407.74
398.944	377.01
399.323	412.04
399.701	405.94
400.08	404.58
400.458	401.19
400.837	423.11
401.215	415.65
401.594	436.67
401.972	413.62
402.351	419.04
402.729	455.2
403.107	440.74
403.486	438.03
403.864	432.83
404.242	459.04
404.62	460.62
404.999	496.33
405.377	449.78
405.755	452.04
406.133	482.77
406.511	465.82
406.889	466.5
407.267	480.28
407.645	478.02
408.023	471.24
408.401	452.26
408.779	490.68
409.156	503.79
409.534	504.01
409.912	530.68
410.29	521.86
410.667	508.08
411.045	529.55
411.422	561.19
411.8	555.76
412.178	541.98
412.555	536.55
412.933	553.95
413.31	565.93
413.687	602.09
414.065	591.02
414.442	572.94
414.819	583.56
415.197	584.24
415.574	595.31
415.951	602.77
416.328	626.95
416.705	625.36
417.082	617.23
417.46	641.18
417.837	621.98
418.214	618.81
418.591	637.12
418.967	668.75
419.344	663.1
419.721	663.78
420.098	668.98
420.475	697.91
420.852	704.68
421.228	747.85
421.605	746.49
421.982	742.42
422.358	726.15
422.735	750.33
423.111	769.54
423.488	781.29
423.864	784.23
424.241	812.7
424.617	798.69
424.994	817.22
425.37	818.81
425.746	839.82
426.123	874.17
426.499	836.21
426.875	873.04
427.251	894.06
427.627	917.33
428.003	919.14
428.379	907.62
428.756	929.09
429.132	917.56
429.507	935.64
429.883	968.18
430.259	969.99
430.635	963.44
431.011	959.14
431.387	976.99
431.763	1029.87
432.138	1027.16
432.514	1033.72
432.89	1037.33
433.265	1053.83
433.641	1074.39
434.016	1110.32
434.392	1106.71
434.767	1150.32
435.143	1140.83
435.518	1173.15
435.894	1173.37
436.269	1219.7
436.644	1226.48
437.02	1215.63
437.395	1220.38
437.77	1260.38
438.145	1304.9
438.52	1278
438.895	1298.12
439.271	1326.82
439.646	1334.72
440.021	1368.85
440.395	1366.81
440.77	1363.65
441.145	1404.33
441.52	1409.53
441.895	1434.38
442.27	1427.83
442.645	1409.07
443.019	1478.22
443.394	1470.31
443.769	1482.74
444.143	1488.62
444.518	1540.82
444.892	1559.13
445.267	1558
445.641	1571.1
446.016	1567.71
446.39	1597.32
446.764	1598.67
447.139	1594.15
447.513	1619.92
447.887	1643.87
448.262	1638.45
448.636	1656.07
449.01	1661.72
449.384	1697.65
449.758	1703.53
450.132	1727.03
450.506	1762.51
450.88	1747.6
451.254	1746.24
451.628	1795.5
452.002	1785.56
452.376	1836.18
452.75	1829.85
453.123	1847.93
453.497	1871.66
453.871	1922.96
454.244	1939.68
454.618	1973.58
454.992	1977.65
455.365	1972
455.739	2036.4
456.112	2069.39
456.486	2044.99
456.859	2071.2
457.232	2148.26
457.606	2122.73
457.979	2169.73
458.352	2178.54
458.725	2238.66
459.099	2253.57
459.472	2293.34
459.845	2311.65
460.218	2345.55
460.591	2343.29
460.964	2359.56
461.337	2402.04
461.71	2487.24
462.083	2491.98
462.456	2493.34
462.829	2522.04
463.201	2572.88
463.574	2595.71
463.947	2628.93
464.32	2687.23
464.692	2740.34
465.065	2728.81
465.438	2788.25
465.81	2826.44
466.183	2845.87
466.555	2936.26
466.928	2935.59
467.3	2946.89
467.672	3032.08
468.045	3078.41
468.417	3088.8
468.789	3087.45
469.161	3158.63
469.534	3198.86
469.906	3293.54
470.278	3367.44
470.65	3410.38
471.022	3451.05
471.394	3528.34
471.766	3576.93
472.138	3589.58
472.51	3658.51
472.882	3694.21
473.253	3791.84
473.625	3858.95
473.997	3907.31
474.369	3974.88
474.74	4013.98
475.112	4167.64
475.484	4160.41
475.855	4280.41
476.227	4313.86
476.598	4436.34
476.97	4472.27
477.341	4598.37
477.713	4630.01
478.084	4725.6
478.455	4862.54
478.827	4886.04
479.198	5086.94
479.569	5097.11
479.94	5246.03
480.311	5306.15
480.682	5437.89
481.053	5523.99
481.424	5685.8
481.795	5681.73
482.166	5798.34
482.537	5910.2
482.908	6057.54
483.279	6151.1
483.65	6274.71
484.021	6346.57
484.391	6503.4
484.762	6589.73
485.133	6615.49
485.503	6691.42
485.874	6917.4
486.244	6966.22
486.615	7059.77
486.985	7246.89
487.356	7330.5
487.726	7431.06
488.097	7588.12
488.467	7661.56
488.837	7783.14
489.207	7923.7
489.578	8077.82
489.948	8149.46
490.318	8286.63
490.688	8257.03
491.058	8439.17
491.428	8553.07
491.798	8690.46
492.168	8765.94
492.538	8864.02
492.908	8913.51
493.278	9120.96
493.648	9126.38
494.017	9299.04
494.387	9388.07
494.757	9417.9
495.126	9520.05
495.496	9589.65
495.866	9647.27
496.235	9736.99
496.605	9864.67
496.974	9831.45
497.344	9980.83
497.713	10000.49
498.082	10083.87
498.452	10195.28
498.821	10191.44
499.19	10276.64
499.559	10361.38
499.928	10394.6
500.298	10480.47
500.667	10588.04
501.036	10513.24
501.405	10673.24
501.774	10649.28
502.143	10691.99
502.512	10777.41
502.88	10833.91
503.249	10842.05
503.618	10924.76
503.987	10917.75
504.356	10974.92
504.724	11049.27
505.093	11054.24
505.462	11114.35
505.83	11095.82
506.199	11277.97
506.567	11379.66
506.936	11315.48
507.304	11426.21
507.672	11386.44
508.041	11430.28
508.409	11477.51
508.777	11555.92
509.145	11645.87
509.514	11541.91
509.882	11613.78
510.25	11595.7
510.618	11729.48
510.986	11718.63
511.354	11768.12
511.722	11883.37
512.09	11851.96
512.458	11854.45
512.826	11920.66
513.193	11943.94
513.561	11917.5
513.929	12046.53
514.297	12015.35
514.664	12157.27
515.032	12119.3
515.4	12107.55
515.767	12176.7
516.135	12205.63
516.502	12054.89
516.869	12324.04
517.237	12315.45
517.604	12227.09
517.972	12336.24
518.339	12287.43
518.706	12235.46
519.073	12357.94
519.44	12353.64
519.808	12441.78
520.175	12346.64
520.542	12448.33
520.909	12531.72
521.276	12405.62
521.643	12589.12
522.009	12552.06
522.376	12583.92
522.743	12552.06
523.11	12631.83
523.477	12724.03
523.843	12760.64
524.21	12757.02
524.577	12792.05
524.943	12721.32
525.31	12803.58
525.676	12878.15
526.043	12865.04
526.409	12805.84
526.776	12943.46
527.142	12847.87
527.508	12921.31
527.874	12908.66
528.241	12912.5
528.607	12890.58
528.973	12873.18
529.339	12899.17
529.705	12990.46
530.071	12932.39
530.437	12929.9
530.803	12995.21
531.169	12994.08
531.535	12847.87
531.901	12839.96
532.267	12758.38
532.632	12835.44
532.998	12770.13
533.364	12900.75
533.73	12772.62
534.095	12899.84
534.461	12767.42
534.826	12781.66
535.192	12765.61
535.557	12797.93
535.923	12706.86
536.288	12680.19
536.653	12626.86
537.019	12628.44
537.384	12527.2
537.749	12563.13
538.114	12551.83
538.479	12516.58
538.845	12435.9
539.21	12389.8
539.575	12434.55
539.94	12320.2
540.305	12331.95
540.67	12320.2
541.034	12259.18
541.399	12227.77
541.764	12267.54
542.129	12125.18
542.494	12174.89
542.858	12109.36
543.223	12000.43
543.587	12061.22
543.952	11956.82
544.316	11886.09
544.681	11752.08
545.045	11829.36
545.41	11853.32
545.774	11717.05
546.138	11678.86
546.503	11644.96
546.867	11623.27
547.231	11673.44
547.595	11627.34
547.959	11672.31
548.324	11585.08
548.688	11522.25
549.052	11435.02
549.416	11427.57
549.779	11412.2
550.143	11368.36
550.507	11317.06
550.871	11312.99
551.235	11191.87
551.599	11263.96
551.962	11168.14
552.326	11182.83
552.689	11143.05
553.053	11060.34
553.417	11042.49
553.78	11094.02
554.143	11046.33
554.507	11011.08
554.87	10980.57
555.234	11022.38
555.597	10945.09
555.96	10880.69
556.323	10968.37
556.686	10883.85
557.05	10867.81
557.413	10875.72
557.776	10844.53
558.139	10919.11
558.502	10770.86
558.865	10769.96
559.228	10831.42
559.59	10791.65
559.953	10710.3
560.316	10837.98
560.679	10733.8
561.041	10802.95
561.404	10820.58
561.767	10810.63
562.129	10679.34
562.492	10858.54
562.854	10753.46
563.217	10743.97
563.579	10719.11
563.941	10757.98
564.304	10703.52
564.666	10757.75
565.028	10789.84
565.39	10714.59
565.753	10773.8
566.115	10804.76
566.477	10800.92
566.839	10779.22
567.201	10796.85
567.563	10825.77
567.925	10819.45
568.287	10825.1
568.648	10834.36
569.01	10844.31
569.372	10854.47
569.734	10896.73
570.095	10877.98
570.457	10884.08
570.819	10868.03
571.18	10860.58
571.542	10904.64
571.903	10954.58
572.265	10896.06
572.626	10882.5
572.987	10898.77
573.349	10931.31
573.71	10927.69
574.071	10921.59
574.432	10989.39
574.794	10959.56
575.155	10951.65
575.516	10964.53
575.877	10903.96
576.238	10967.92
576.599	10962.27
576.96	11029.16
577.32	10904.42
577.681	10920.24
578.042	11004.08
578.403	11020.35
578.763	10932.66
579.124	11002.72
579.485	11010.85
579.845	10961.59
580.206	10951.65
580.566	10967.69
580.927	10967.47
581.287	11040.01
581.648	10908.03
582.008	10972.44
582.368	10945.77
582.728	11026.22
583.089	10915.94
583.449	10939.67
583.809	10922.5
584.169	10949.16
584.529	10910.29
584.889	10912.1
585.249	10910.52
585.609	10866.45
585.969	10940.8
586.329	10810.18
586.688	10871.65
587.048	10808.6
587.408	10826.68
587.768	10862.38
588.127	10804.53
588.487	10740.13
588.846	10807.7
589.206	10765.89
589.565	10739.45
589.925	10782.84
590.284	10748.26
590.643	10763.18
591.003	10827.13
591.362	10793.46
591.721	10685.44
592.08	10736.06
592.44	10726.34
592.799	10743.97
593.158	10632.56
593.517	10709.17
593.876	10725.21
594.235	10724.99
594.593	10728.38
594.952	10728.83
595.311	10623.07
595.67	10660.58
596.029	10694.25
596.387	10680.47
596.746	10684.31
597.104	10686.34
597.463	10630.3
597.822	10641.37
598.18	10610.64
598.538	10598.66
598.897	10712.33
599.255	10616.51
599.613	10719.11
599.972	10674.14
600.33	10688.6
600.688	10606.35
601.046	10649.06
601.404	10630.07
601.762	10656.51
602.12	10692.67
602.478	10670.52
602.836	10673.91
603.194	10614.93
603.552	10682.05
603.91	10614.48
604.268	10589.4
604.625	10572.9
604.983	10627.59
605.341	10609.28
605.698	10626.46
606.056	10687.25
606.413	10611.54
606.771	10659.9
607.128	10671.65
607.485	10601.83
607.843	10620.81
608.2	10644.31
608.557	10642.5
608.914	10666
609.272	10715.27
609.629	10706.46
609.986	10775.83
610.343	10691.31
610.7	10735.16
611.057	10726.79
611.414	10640.69
611.771	10656.97
612.127	10708.49
612.484	10776.74
612.841	10787.36
613.198	10701.94
613.554	10741.03
613.911	10734.93
614.267	10765.21
614.624	10755.72
614.98	10770.86
615.337	10841.82
615.693	10747.36
616.05	10728.83
616.406	10852.89
616.762	10762.05
617.118	10821.71
617.475	10759.56
617.831	10848.82
618.187	10758.88
618.543	10842.27
618.899	10879.33
619.255	10808.15
619.611	10873.68
619.967	10925.89
620.323	10911.65
620.678	10856.28
621.034	10822.38
621.39	10881.82
621.746	10789.62
622.101	10917.98
622.457	10863.97
622.812	10846.79
623.168	10896.96
623.523	10793.01
623.879	10951.42
624.234	10853.12
624.589	10897.41
624.945	10842.72
625.3	10903.29
625.655	10885.89
626.01	10865.55
626.365	10917.98
626.72	10866.68
627.075	10800.92
627.43	10816.51
627.785	10805.89
628.14	10836.17
628.495	10851.31
628.85	10799.11
629.205	10789.17
629.559	10807.02
629.914	10802.95
630.269	10788.94
630.623	10792.56
630.978	10718.43
631.332	10832.55
631.687	10790.3
632.041	10697.42
632.396	10716.4
632.75	10696.74
633.104	10743.52
633.459	10659.23
633.813	10588.72
634.167	10663.75
634.521	10592.79
634.875	10677.08
635.229	10696.74
635.583	10572.9
635.937	10566.8
636.291	10588.04
636.645	10648.15
636.999	10498.55
637.352	10577.19
637.706	10484.77
638.06	10600.02
638.413	10480.47
638.767	10517.53
639.121	10523.64
639.474	10419.01
639.828	10411.1
640.181	10480.47
640.534	10436.18
640.888	10419.91
641.241	10332.91
641.594	10417.2
641.947	10402.51
642.301	10337.2
642.654	10375.39
643.007	10349.85
643.36	10309.18
643.713	10340.82
644.066	10404.77
644.419	10268.28
644.771	10224.66
645.124	10121.16
645.477	10190.09
645.83	10118.67
646.182	10052.01
646.535	10039.58
646.888	10044.78
647.24	9971.56
647.593	10008.4
647.945	9994.38
648.298	9943.09
648.65	9908.96
649.002	9935.63
649.355	10001.84
649.707	9966.36
650.059	10040.94
650.411	10097.88
650.763	10072.12
651.115	10154.15
651.467	10161.61
651.819	10201.84
652.171	10232.57
652.523	10137.88
652.875	10140.82
653.227	10031.67
653.578	10167.94
653.93	10166.81
654.282	10161.39
654.633	10140.82
654.985	10187.15
655.337	10181.27
655.688	10192.8
656.039	10226.47
656.391	10123.42
656.742	10148.73
657.094	10164.1
657.445	10202.51
657.796	10179.92
658.147	10181.5
658.498	10192.12
658.849	10233.02
659.2	10161.84
659.551	10145.57
659.902	10175.62
660.253	10173.36
660.604	10122.97
660.955	10084.78
661.306	10254.72
661.656	10138.56
662.007	10221.95
662.358	10213.36
662.708	10203.87
663.059	10241.84
663.409	10122.52
663.76	10191.22
664.11	10200.25
664.461	10253.81
664.811	10230.54
665.161	10227.37
665.511	10247.71
665.862	10274.6
666.212	10226.47
666.562	10296.75
666.912	10181.95
667.262	10225.56
667.612	10232.8
667.962	10258.33
668.312	10151.44
668.662	10285.68
669.011	10181.27
669.361	10181.05
669.711	10221.27
670.06	10160.71
670.41	10178.33
670.76	10167.26
671.109	10197.99
671.459	10166.81
671.808	10128.84
672.157	10195.06
672.507	10155.06
672.856	10063.76
673.205	10175.17
673.554	10107.38
673.904	10121.16
674.253	10086.13
674.602	10118.9
674.951	9931.79
675.3	9960.49
675.649	10039.35
675.998	10074.16
676.346	10094.95
676.695	10025.12
677.044	9992.58
677.393	10021.5
677.741	10082.07
678.09	9967.04
678.438	9940.15
678.787	9931.56
679.135	10001.16
679.484	9925.01
679.832	10007.04
680.181	9907.38
680.529	9957.1
680.877	9867.16
681.225	9878.23
681.573	9877.55
681.922	9812.02
682.27	9853.82
682.618	9774.95
682.966	9767.27
683.314	9748.74
683.661	9718.01
684.009	9662.19
684.357	9644.11
684.705	9644.56
685.053	9664.45
685.4	9700.83
685.748	9569.54
686.095	9604.11
686.443	9493.38
686.79	9558.69
687.138	9592.59
687.485	9508.75
687.832	9437.56
688.18	9550.33
688.527	9495.87
688.874	9419.94
689.221	9485.7
689.568	9358.69
689.915	9367.73
690.262	9335.64
690.609	9315.76
690.956	9196.66
691.303	9228.98
691.65	9200.28
691.997	9194.86
692.344	9186.72
692.69	9059.49
693.037	9081.41
693.383	9027.86
693.73	8990.12
694.077	9024.24
694.423	9012.04
694.769	8956.67
695.116	8885.03
695.462	8908.54
695.808	8892.94
696.155	8887.07
696.501	8791.48
696.847	8881.87
697.193	8683.68
697.539	8740.63
697.885	8703.34
698.231	8660.86
698.577	8614.08
698.923	8627.87
699.269	8542.22
699.614	8506.29
699.96	8464.93
700.306	8495.67
700.651	8469.68
700.997	8405.73
701.342	8377.25
701.688	8320.76
702.033	8351.26
702.379	8271.27
702.724	8309.23
703.069	8314.2
703.415	8218.84
703.76	8195.56
704.105	8205.28
704.45	8135.45
704.795	8127.09
705.14	8109.24
705.485	8017.71
705.83	8038.28
706.175	8014.55
706.52	8007.32
706.865	7950.6
707.209	7887.77
707.554	7891.39
707.899	7904.72
708.243	7876.7
708.588	7880.32
708.932	7865.85
709.277	7798.28
709.621	7800.54
709.966	7753.99
710.31	7708.34
710.654	7709.02
710.998	7726.2
711.342	7692.07
711.687	7638.51
712.031	7629.25
712.375	7570.04
712.719	7628.34
713.063	7621.57
713.407	7678.51
713.75	7543.38
714.094	7513.32
714.438	7494.34
714.782	7518.97
715.125	7460.21
715.469	7411.4
715.812	7449.82
716.156	7356.26
716.499	7423.83
716.843	7436.71
717.186	7373.44
717.53	7424.51
717.873	7361.01
718.216	7377.5
718.559	7355.36
718.902	7291.86
719.246	7291.86
719.589	7333.21
719.932	7257.96
720.275	7278.07
720.617	7280.56
720.96	7266.55
721.303	7232.65
721.646	7243.72
721.989	7297.96
722.331	7278.75
722.674	7248.24
723.016	7214.8
723.359	7260.67
723.701	7260.67
724.044	7176.38
724.386	7180.67
724.729	7153.1
725.071	7191.29
725.413	7179.99
725.755	7160.33
726.097	7118.75
726.439	7084.4
726.782	7113.56
727.124	7128.24
727.465	7123.73
727.807	7074.69
728.149	7137.96
728.491	7148.58
728.833	7095.93
729.175	7095.03
729.516	7090.51
729.858	7050.51
730.199	7087.12
730.541	7098.87
730.882	7091.64
731.224	7140.22
731.565	7112.43
731.906	7078.08
732.248	7116.49
732.589	7048.7
732.93	7056.16
733.271	7078.98
733.612	7084.63
733.953	7090.96
734.294	7068.81
734.635	7076.27
734.976	7039.66
735.317	7030.62
735.658	7055.25
735.999	7043.28
736.339	7066.78
736.68	7070.85
737.021	7127.11
737.361	7099.09
737.702	7128.02
738.042	7084.63
738.383	7072.2
738.723	7140.67
739.063	7105.19
739.404	7158.53
739.744	7145.19
740.084	7189.26
740.424	7158.3
740.764	7179.77
741.104	7214.34
741.444	7173.89
741.784	7184.06
742.124	7229.26
742.464	7194.01
742.804	7211.63
743.143	7184.06
743.483	7309.48
743.823	7228.58
744.162	7303.83
744.502	7313.32
744.841	7302.03
745.181	7379.76
745.52	7357.84
745.86	7420.89
746.199	7506.09
746.538	7435.81
746.877	7544.96
747.216	7546.76
747.556	7598.74
747.895	7697.04
748.234	7680.32
748.573	7742.69
748.911	7796.48
749.25	7878.73
749.589	7916.47
749.928	7965.96
750.267	8071.04
750.605	8027.66
750.944	8145.85
751.283	8197.37
751.621	8295.22
751.96	8291.38
752.298	8463.12
752.636	8532.5
752.975	8600.07
753.313	8660.86
753.651	8767.75
753.989	8825.15
754.327	8939.5
754.666	9025.14
755.004	9163.22
755.342	9294.74
755.679	9430.78
756.017	9493.15
756.355	9690.89
756.693	9763.2
757.031	9929.3
757.368	9947.61
757.706	10115.51
758.044	10294.26
758.381	10488.61
758.719	10623.97
759.056	10796.85
759.394	10928.37
759.731	10996.17
760.068	11211.3
760.405	11303.5
760.743	11406.78
761.08	11674.79
761.417	11751.85
761.754	11947.78
762.091	12168.34
762.428	12213.76
762.765	12328.56
763.102	12530.81
763.438	12689.68
763.775	12812.84
764.112	13026.17
764.449	13245.15
764.785	13282.66
765.122	13471.81
765.458	13592.93
765.795	13737.79
766.131	13928.52
766.467	13949.76
766.804	14205.12
767.14	14293.03
767.476	14497.09
767.812	14626.8
768.148	14723.75
768.485	14803.75
768.821	14932.33
769.157	15085.1
769.492	15166.45
769.828	15304.75
770.164	15359.67
770.5	15481.92
770.836	15646.89
771.171	15641.24
771.507	15849.82
771.842	15836.72
772.178	16068.8
772.513	16110.16
772.849	16171.85
773.184	16184.73
773.519	16511.73
773.855	16472.41
774.19	16510.6
774.525	16639.63
774.86	16654.77
775.195	16765.96
775.53	16767.31
775.865	16805.5
776.2	16793.98
776.535	16829.01
776.87	16826.29
777.205	16974.31
777.539	16982.22
777.874	17125.27
778.209	16990.13
778.543	17102.22
778.878	17136.57
779.212	17203.46
779.547	17113.07
779.881	17357.13
780.215	17202.33
780.55	17362.33
780.884	17231.26
781.218	17387.86
781.552	17290.69
781.886	17404.13
782.22	17304.93
782.554	17332.27
782.888	17308.99
783.222	17311.25
783.556	17171.82
783.889	17184.25
784.223	17230.13
784.557	17267.64
784.89	17225.15
785.224	17255.66
785.557	17221.54
785.891	17186.51
786.224	17207.08
786.558	17220.18
786.891	17073.75
787.224	17064.25
787.557	17096.57
787.891	17145.83
788.224	17197.36
788.557	17206.85
788.89	17124.14
789.223	17055.44
789.556	17034.65
789.888	17043.46
790.221	17048.21
790.554	16997.36
790.887	16879.85
791.219	16876.69
791.552	16935.67
791.884	16915.56
792.217	16843.02
792.549	16894.09
792.882	16695.9
793.214	16715.11
793.546	16789.23
793.879	16714.89
794.211	16555.57
794.543	16643.93
794.875	16608
795.207	16626.07
795.539	16563.7
795.871	16664.72
796.203	16523.25
796.535	16396.7
796.867	16447.77
797.198	16434.44
797.53	16226.31
797.862	16259.08
798.193	16326.65
798.525	16139.76
798.856	16267.67
799.188	16111.06
799.519	16146.09
799.85	15969.59
800.182	16049.14
800.513	16016.6
800.844	16018.41
801.175	15979.54
801.506	16017.05
801.837	15822.03
802.168	15893.44
802.499	15746.32
802.83	15746.55
803.161	15697.74
803.491	15684.18
803.822	15704.52
804.153	15651.86
804.483	15553.11
804.814	15479.66
805.145	15543.62
805.475	15493.45
805.805	15436.05
806.136	15451.64
806.466	15392.89
806.796	15469.27
807.126	15253.91
807.457	15259.56
807.787	15324.87
808.117	15183.63
808.447	15138.88
808.777	15262.72
809.107	15121.93
809.436	15124.64
809.766	15109.96
810.096	14960.36
810.426	14961.71
810.755	15056.4
811.085	15027.7
811.414	14935.27
811.744	14829.29
812.073	14864.76
812.403	14772.11
812.732	14717.2
813.061	14757.65
813.39	14663.64
813.719	14667.71
814.049	14705.67
814.378	14634.26
814.707	14610.99
815.036	14569.18
815.365	14606.69
815.693	14410.77
816.022	14490.99
816.351	14426.36
816.68	14442.63
817.008	14473.59
817.337	14271.33
817.665	14340.03
817.994	14345
818.322	14315.85
818.651	14224.33
818.979	14180.49
819.307	14182.3
819.636	14210.09
819.964	14156.31
820.292	14155.4
820.62	14129.64
820.948	14237.89
821.276	14172.58
821.604	14130.09
821.932	14126.7
822.259	14149.98
822.587	14168.06
822.915	14109.3
823.243	14211.45
823.57	14183.88
823.898	14121.73
824.225	14059.81
824.553	14107.5
824.88	14113.82
825.207	14190.43
825.535	14191.34
825.862	14133.71
826.189	14029.76
826.516	14162.41
826.843	14192.69
827.17	14210.77
827.497	14165.12
827.824	14182.97
828.151	14290.77
828.478	14203.31
828.805	14285.12
829.131	14197.44
829.458	14208.28
829.785	14138.68
830.111	14118.57
830.438	14299.13
830.764	14242.18
831.09	14179.58
831.417	14070.21
831.743	14274.27
832.069	14172.35
832.395	14054.16
832.722	14080.15
833.048	14082.64
833.374	14109.08
833.7	14033.37
834.026	14139.81
834.351	14074.73
834.677	14054.16
835.003	14078.8
835.329	14069.08
835.654	14040.83
835.98	13951.57
836.306	13916.54
836.631	13942.08
836.956	14027.05
837.282	13999.7
837.607	13844.45
837.932	13853.49
838.258	13918.12
838.583	13904.34
838.908	13831.8
839.233	13834.96
839.558	13739.37
839.883	13784.11
840.208	13701.41
840.533	13684.23
840.858	13707.73
841.182	13699.6
841.507	13685.36
841.832	13599.04
842.156	13602.2
842.481	13588.87
842.805	13559.94
843.13	13407.18
843.454	13514.29
843.778	13364.69
844.103	13416.44
844.427	13410.11
844.751	13368.98
845.075	13318.82
845.399	13293.28
845.723	13220.97
846.047	13188.65
846.371	13068.88
846.695	13103.68
847.019	12946.17
847.343	12986.85
847.666	12942.33
847.99	12763.8
848.313	12787.31
848.637	12795.21
848.96	12742.79
849.284	12685.39
849.607	12610.36
849.931	12628.89
850.254	12486.52
850.577	12514.32
850.9	12381.89
851.223	12292.18
851.546	12331.05
851.869	12355.45
852.192	12271.61
852.515	12126.31
852.838	12075.23
853.161	12102.13
853.483	12093.76
853.806	11992.98
854.129	11963.15
854.451	11954.11
854.774	11880.21
855.096	11884.96
855.419	11851.51
855.741	11766.99
856.063	11744.85
856.385	11714.56
856.708	11756.82
857.03	11665.53
857.352	11604.96
857.674	11605.64
857.996	11508.02
858.318	11478.86
858.64	11498.07
858.961	11457.85
859.283	11418.98
859.605	11345.54
859.926	11420.56
860.248	11330.17
860.57	11270.06
860.891	11231.64
861.212	11258.08
861.534	11173.79
861.855	11158.65
862.176	11146.67
862.498	11144.86
862.819	11206.1
863.14	11143.05
863.461	11088.37
863.782	11014.92
864.103	11084.52
864.424	11001.36
864.745	11028.48
865.065	10926.79
865.386	10950.97
865.707	10940.57
866.027	10942.83
866.348	10871.65
866.668	10919.11
866.989	10868.94
867.309	10744.19
867.63	10895.83
867.95	10810.86
868.27	10705.78
868.59	10799.11
868.91	10779
869.23	10757.75
869.55	10686.57
869.87	10787.36
870.19	10684.31
870.51	10706.46
870.83	10739.45
871.15	10681.37
871.469	10592.79
871.789	10711.43
872.109	10630.53
872.428	10532.68
872.748	10595.05
873.067	10552.56
873.386	10514.6
873.706	10501.04
874.025	10469.85
874.344	10446.58
874.663	10475.73
874.982	10403.86
875.301	10411.77
875.62	10431.66
875.939	10408.38
876.258	10431.66
876.577	10271.66
876.896	10315.73
877.214	10343.75
877.533	10281.16
877.852	10365.22
878.17	10316.18
878.489	10221.72
878.807	10265.34
879.125	10252.46
879.444	10194.83
879.762	10142.63
880.08	10120.93
880.398	10125.23
880.716	10069.64
881.034	10144.66
881.352	10088.84
881.67	10066.47
881.988	10013.14
882.306	10059.69
882.624	9923.43
882.941	9897.44
883.259	9916.87
883.577	9911.9
883.894	9877.1
884.212	9940.15
884.529	9845.46
884.846	9866.48
885.164	9797.1
885.481	9792.81
885.798	9816.99
886.115	9735.63
886.432	9733.6
886.75	9723.66
887.067	9698.12
887.383	9605.47
887.7	9665.35
888.017	9637.33
888.334	9590.33
888.651	9574.28
888.967	9565.24
889.284	9544.68
889.6	9483.21
889.917	9478.01
890.233	9402.08
890.55	9412.7
890.866	9365.93
891.182	9335.42
891.498	9276.89
891.815	9370.67
892.131	9284.8
892.447	9254.06
892.763	9234.63
893.079	9145.82
893.395	9159.83
893.71	9139.27
894.026	9102.88
894.342	9084.13
894.657	9039.15
894.973	9012.26
895.289	8998.7
895.604	8997.8
895.92	8915.54
896.235	8873.74
896.55	8818.82
896.865	8836.67
897.181	8839.16
897.496	8800.97
897.811	8752.61
898.126	8701.76
898.441	8680.97
898.756	8673.29
899.071	8591.71
899.386	8571.6
899.7	8471.03
900.015	8546.74
900.33	8431.49
900.644	8418.15
900.959	8481.43
901.273	8394.43
901.588	8362.79
901.902	8354.2
902.216	8269.91
902.531	8259.29
902.845	8233.75
903.159	8191.95
903.473	8182.23
903.787	8187.43
904.101	8116.47
904.415	8134.09
904.729	8025.4
905.042	7941.78
905.356	8010.26
905.67	7940.2
905.984	7927.55
906.297	7940.88
906.611	7934.78
906.924	7824.95
907.237	7832.41
907.551	7804.84
907.864	7729.58
908.177	7746.99
908.491	7736.36
908.804	7693.43
909.117	7668.57
909.43	7515.13
909.743	7479.65
910.056	7551.96
910.368	7525.3
910.681	7455.24
910.994	7403.94
911.307	7420.89
911.619	7339.09
911.932	7391.51
912.244	7238.07
912.557	7304.29
912.869	7233.33
913.181	7250.95
913.494	7200.11
913.806	7138.64
914.118	7135.02
914.43	7093.22
914.742	7113.78
915.054	7019.77
915.366	7072.88
915.678	6973.22
915.99	6968.47
916.302	6899.78
916.613	6946.55
916.925	6937.06
917.236	6877.18
917.548	6820
917.859	6810.74
918.171	6753.11
918.482	6711.53
918.794	6714.02
919.105	6637.18
919.416	6559.67
919.727	6633.79
920.038	6588.37
920.349	6524.64
920.66	6530.07
920.971	6520.58
921.282	6565.32
921.593	6476.51
921.903	6416.85
922.214	6471.99
922.525	6385.21
922.835	6375.95
923.146	6382.05
923.456	6393.8
923.767	6258.89
924.077	6321.94
924.387	6203.98
924.697	6227.25
925.008	6223.18
925.318	6195.39
925.628	6164.2
925.938	6092.11
926.248	6086.01
926.558	6085.33
926.867	6046.69
927.177	6048.73
927.487	6010.31
927.796	5914.72
928.106	5962.17
928.416	5920.82
928.725	5947.48
929.034	5856.19
929.344	5843.76
929.653	5842.18
929.962	5763.76
930.271	5745.23
930.581	5778.22
930.89	5754.27
931.199	5657.55
931.508	5667.49
931.817	5618
932.125	5684.67
932.434	5659.58
932.743	5598.79
933.051	5567.61
933.36	5565.12
933.669	5530.32
933.977	5536.65
934.286	5466.37
934.594	5442.87
934.902	5408.74
935.21	5374.17
935.519	5423.66
935.827	5374.39
936.135	5319.7
936.443	5294.17
936.751	5246.49
937.059	5281.51
937.367	5259.14
937.674	5226.83
937.982	5203.32
938.29	5111.57
938.597	5180.05
938.905	5121.97
939.213	5105.02
939.52	5073.38
939.827	5094.85
940.135	5064.57
940.442	5034.06
940.749	5003.78
941.056	5035.42
941.363	4955.42
941.67	4947.51
941.977	4910.9
942.284	4884.91
942.591	4872.94
942.898	4860.51
943.205	4825.25
943.511	4820.96
943.818	4796.33
944.125	4779.15
944.431	4753.39
944.738	4717.46
945.044	4732.6
945.35	4636.33
945.657	4631.59
945.963	4671.13
946.269	4616.67
946.575	4645.6
946.881	4550.01
947.187	4586.39
947.493	4565.83
947.799	4536.45
948.105	4523.12
948.41	4477.69
948.716	4466.39
949.022	4477.47
949.327	4403.34
949.633	4397.24
949.938	4395.66
950.244	4388.43
950.549	4354.53
950.854	4324.7
951.16	4323.57
951.465	4327.19
951.77	4293.52
952.075	4303.46
952.38	4270.92
952.685	4219.39
952.99	4203.35
953.294	4214.42
953.599	4183.24
953.904	4181.43
954.209	4177.14
954.513	4150.7
954.818	4129.45
955.122	4159.74
955.426	4054.88
955.731	4111.37
956.035	4022.11
956.339	4059.4
956.643	4028.67
956.948	3994.32
957.252	3962.9
957.556	3962.23
957.86	3949.8
958.163	3937.14
958.467	3939.63
958.771	3897.82
959.075	3898.73
959.378	3891.72
959.682	3809.24
959.985	3862.34
960.289	3813.53
960.592	3774.89
960.896	3802
961.199	3779.18
961.502	3711.84
961.805	3730.59
962.108	3740.76
962.411	3718.16
962.714	3681.33
963.017	3709.58
963.32	3666.64
963.623	3637.49
963.926	3703.02
964.228	3597.94
964.531	3597.72
964.833	3631.84
965.136	3537.38
965.438	3556.36
965.741	3534.21
966.043	3561.78
966.345	3517.49
966.648	3503.26
966.95	3496.7
967.252	3441.56
967.554	3482.01
967.856	3413.99
968.158	3379.87
968.46	3416.25
968.761	3386.87
969.063	3395.46
969.365	3397.27
969.666	3342.13
969.968	3343.03
970.269	3309.14
970.571	3297.61
970.872	3317.27
971.174	3304.62
971.475	3272.3
971.776	3223.26
972.077	3228.01
972.378	3229.14
972.679	3237.73
972.98	3188.01
973.281	3173.32
973.582	3181.23
973.883	3144.62
974.183	3103.49
974.484	3106.2
974.785	3108.24
975.085	3068.46
975.386	3098.07
975.686	3053.1
975.986	3042.02
976.287	3031.18
976.587	3038.86
976.887	3016.71
977.187	3011.06
977.487	3014.45
977.787	2991.4
978.087	2939.43
978.387	2929.94
978.687	2920.22
978.987	2920.67
979.286	2921.35
979.586	2904.85
979.885	2861.46
980.185	2878.41
980.484	2874.35
980.784	2822.14
981.083	2819.21
981.382	2823.05
981.682	2847.45
981.981	2808.36
982.28	2778.53
982.579	2778.3
982.878	2788.92
983.177	2772.43
983.475	2758.19
983.774	2709.6
984.073	2691.3
984.372	2691.3
984.67	2657.63
984.969	2677.74
985.267	2690.62
985.566	2652.66
985.864	2630.74
986.162	2634.8
986.461	2600.91
986.759	2596.84
987.057	2540.57
987.355	2543.51
987.653	2567.91
987.951	2541.47
988.249	2573.79
988.547	2542.6
988.844	2509.84
989.142	2496.05
989.44	2485.2
989.737	2485.88
990.035	2470.51
990.332	2439.33
990.63	2440.68
990.927	2435.03
991.224	2477.52
991.521	2409.27
991.819	2394.58
992.116	2385.77
992.413	2366.34
992.71	2386.45
993.006	2363.85
993.303	2307.58
993.6	2347.13
993.897	2367.24
994.193	2298.99
994.49	2323.4
994.787	2273.23
995.083	2293.57
995.379	2263.29
995.676	2264.64
995.972	2252.44
996.268	2245.21
996.565	2234.59
996.861	2207.47
997.157	2258.77
997.453	2203.85
997.749	2193.91
998.044	2197.53
998.34	2176.74
998.636	2157.53
998.932	2120.01
999.227	2144.87
999.523	2119.79
999.818	2096.06
1000.114	2100.13
1000.409	2064.65
1000.704	2056.74
1001	2050.19
1001.295	2047.25
1001.59	2022.84
1001.885	2060.36
1002.18	2017.42
1002.475	2001.15
1002.77	2025.1
1003.065	1960.25
1003.359	1998.66
1003.654	1981.26
1003.949	1950.08
1004.243	1972.67
1004.538	1927.7
1004.832	1918.44
1005.127	1932.68
1005.421	1894.26
1005.715	1887.93
1006.009	1905.11
1006.304	1858.78
1006.598	1860.13
1006.892	1880.02
1007.186	1849.29
1007.48	1844.09
1007.773	1832.79
1008.067	1805.9
1008.361	1805.67
1008.655	1800.02
1008.948	1770.65
1009.242	1763.87
1009.535	1750.08
1009.829	1748.27
1010.122	1737.2
1010.415	1720.7
1010.708	1704.43
1011.001	1702.62
1011.295	1679.8
1011.588	1675.96
1011.881	1645.9
1012.173	1689.97
1012.466	1662.63
1012.759	1665.56
1013.052	1625.79
1013.344	1632.12
1013.637	1616.07
1013.93	1616.75
1014.222	1607.26
1014.514	1583.08
1014.807	1572.23
1015.099	1595.51
1015.391	1573.59
1015.683	1562.06
1015.976	1568.84
1016.268	1539.92
1016.56	1528.84
1016.851	1506.7
1017.143	1518.45
1017.435	1523.65
1017.727	1526.36
1018.018	1511.22
1018.31	1463.99
1018.602	1454.04
1018.893	1485.23
1019.185	1465.79
1019.476	1452.01
1019.767	1438.68
1020.058	1432.35
1020.35	1395.97
1020.641	1389.64
1020.932	1395.06
1021.223	1395.29
1021.514	1348.06
1021.804	1342.63
1022.095	1369.98
1022.386	1332.24
1022.677	1360.94
1022.967	1339.7
1023.258	1327.04
1023.548	1331.11
1023.839	1313.03
1024.129	1305.8
1024.419	1296.99
1024.709	1282.97
1025	1287.04
1025.29	1262.41
1025.58	1240.49
1025.87	1236.2
1026.16	1264.44
1026.449	1241.39
1026.739	1240.04
1027.029	1214.05
1027.319	1208.17
1027.608	1195.52
1027.898	1187.16
1028.187	1215.63
1028.477	1189.42
1028.766	1178.57
1029.055	1171.57
1029.344	1138.8
1029.634	1142.19
1029.923	1153.26
1030.212	1113.49
1030.501	1118.91
1030.79	1103.32
1031.078	1106.03
1031.367	1110.1
1031.656	1088.4
1031.945	1080.49
1032.233	1069.42
1032.522	1086.14
1032.81	1061.96
1033.099	1074.84
1033.387	1058.12
1033.675	1049.53
1033.963	1029.2
1034.251	1065.81
1034.54	1016.54
1034.828	1034.62
1035.116	1033.94
1035.403	1019.25
1035.691	999.14
1035.979	1006.6
1036.267	980.38
1036.554	1018.12
1036.842	976.32
1037.129	975.86
1037.417	952.36
1037.704	955.53
1037.992	987.84
1038.279	950.1
1038.566	936.77
1038.853	936.77
1039.14	936.77
