Data from hue_10_FLMS001491_48.txt Node
Date: Mon Feb 06 15:31:59 GMT 2017
User: dcchb
Spectrometer: FLMS00149
Trigger mode: 0
Integration Time (sec): 2.000000E-2
Scans to average: 10
Electric dark correction enabled: true
Nonlinearity correction enabled: false
Boxcar width: 0
XAxis mode: Wavelengths
Number of Pixels in Spectrum: 2048
>>>>>Begin Spectral Data<<<<<
341.393	-14.93
341.776	-14.93
342.16	-14.93
342.543	-60.8
342.927	-67.81
343.31	-76.17
343.693	-63.52
344.077	-77.98
344.46	-70.07
344.843	-44.53
345.226	-24.87
345.61	-40.24
345.993	-21.48
346.376	-9.73
346.759	13.09
347.142	23.26
347.525	48.12
347.908	50.38
348.291	89.93
348.674	78.18
349.057	125.63
349.44	118.63
349.823	151.17
350.206	165.63
350.588	202.47
350.971	192.3
351.354	237.27
351.737	237.72
352.119	248.57
352.502	267.78
352.884	269.13
353.267	281.11
353.65	287.21
354.032	309.58
354.414	310.49
354.797	316.59
355.179	306.87
355.562	333.99
355.944	330.37
356.326	344.16
356.709	334.21
357.091	331.05
357.473	336.93
357.855	345.51
358.238	368.56
358.62	336.93
359.002	351.39
359.384	333.54
359.766	340.54
360.148	334.44
360.53	351.39
360.912	330.6
361.294	340.09
361.676	320.43
362.057	321.33
362.439	331.5
362.821	330.37
363.203	331.73
363.584	311.39
363.966	311.84
364.348	333.31
364.729	319.3
365.111	306.64
365.493	317.04
365.874	320.43
366.256	309.58
366.637	345.74
367.019	308.68
367.4	307.77
367.781	312.97
368.163	330.37
368.544	324.72
368.925	287.66
369.306	290.6
369.688	303.48
370.069	316.59
370.45	303.93
370.831	327.66
371.212	319.07
371.593	292.86
371.974	301.67
372.355	311.84
372.736	312.52
373.117	322.01
373.498	316.59
373.879	321.79
374.26	330.6
374.641	318.4
375.021	325.63
375.402	309.13
375.783	336.7
376.163	323.82
376.544	314.55
376.925	331.05
377.305	323.59
377.686	323.59
378.066	321.79
378.447	329.47
378.827	322.01
379.208	327.43
379.588	318.4
379.968	333.31
380.349	327.43
380.729	324.95
381.109	326.98
381.489	304.16
381.87	337.38
382.25	345.06
382.63	350.26
383.01	330.37
383.39	336.47
383.77	322.92
384.15	330.15
384.53	313.2
384.91	341.22
385.29	354.1
385.67	338.73
386.049	334.89
386.429	347.77
386.809	340.77
387.189	339.19
387.568	332.86
387.948	340.09
388.328	339.86
388.707	338.06
389.087	340.99
389.466	358.85
389.846	360.43
390.225	346.87
390.605	358.39
390.984	328.56
391.363	353.65
391.743	350.26
392.122	347.32
392.501	364.95
392.881	376.25
393.26	383.48
393.639	363.82
394.018	348.68
394.397	373.76
394.776	373.31
395.155	369.92
395.534	361.33
395.913	368.34
396.292	360.43
396.671	372.18
397.05	358.62
397.429	359.3
397.808	368.79
398.186	374.44
398.565	370.15
398.944	378.73
399.323	400.2
399.701	390.03
400.08	395
400.458	360.43
400.837	385.96
401.215	393.42
401.594	366.08
401.972	388.9
402.351	395
402.729	363.14
403.107	412.63
403.486	387.77
403.864	378.96
404.242	385.06
404.62	404.5
404.999	400.43
405.377	399.3
405.755	393.87
406.133	393.42
406.511	404.5
406.889	399.07
407.267	419.86
407.645	388.22
408.023	398.62
408.401	402.24
408.779	422.57
409.156	421.22
409.534	419.64
409.912	422.35
410.29	414.66
410.667	435.91
411.045	436.81
411.422	412.4
411.8	433.87
412.178	429.81
412.555	436.13
412.933	442.01
413.31	446.75
413.687	466.19
414.065	444.04
414.442	445.4
414.819	440.43
415.197	470.71
415.574	454.44
415.951	447.88
416.328	450.14
416.705	445.17
417.082	481.78
417.46	476.36
417.837	482.91
418.214	452.63
418.591	469.8
418.967	475.45
419.344	455.12
419.721	471.39
420.098	490.14
420.475	483.81
420.852	501.44
421.228	494.89
421.605	499.63
421.982	486.07
422.358	509.13
422.735	506.19
423.111	492.18
423.488	499.41
423.864	512.97
424.241	480.65
424.617	528.11
424.994	533.53
425.37	516.58
425.746	533.76
426.123	523.14
426.499	532.63
426.875	513.64
427.251	538.5
427.627	548.45
428.003	538.05
428.379	557.03
428.756	569.24
429.132	566.98
429.507	567.43
429.883	551.38
430.259	571.27
430.635	580.54
431.011	565.17
431.387	584.6
431.763	588.22
432.138	578.05
432.514	583.25
432.89	594.55
433.265	613.08
433.641	597.71
434.016	599.07
434.392	616.92
434.767	614.43
435.143	598.61
435.518	619.63
435.894	632.29
436.269	634.55
436.644	642.68
437.02	650.82
437.395	644.49
437.77	648.1
438.145	651.49
438.52	676.35
438.895	652.62
439.271	653.3
439.646	677.71
440.021	689.23
440.395	691.72
440.77	662.12
441.145	679.74
441.52	699.4
441.895	710.93
442.27	691.04
442.645	707.54
443.019	698.27
443.394	721.77
443.769	705.05
444.143	717.03
444.518	713.87
444.892	712.28
445.267	726.75
445.641	723.58
446.016	723.58
446.39	716.13
446.764	747.31
447.139	743.02
447.513	724.49
447.887	739.85
448.262	767.88
448.636	738.5
449.01	749.12
449.384	766.52
449.758	762
450.132	754.32
450.506	776.01
450.88	780.98
451.254	783.69
451.628	766.52
452.002	776.69
452.376	775.33
452.75	800.64
453.123	786.41
453.497	823.24
453.871	833.18
454.244	817.14
454.618	823.69
454.992	800.19
455.365	827.53
455.739	847.65
456.112	856.69
456.486	863.69
456.859	864.6
457.232	865.73
457.606	887.65
457.979	879.96
458.352	894.2
458.725	890.81
459.099	936.01
459.472	950.02
459.845	915.22
460.218	933.97
460.591	925.39
460.964	936.23
461.337	944.37
461.71	986.17
462.083	992.5
462.456	949.11
462.829	1013.29
463.201	1015.55
463.574	992.95
463.947	1028.21
464.32	1047.64
464.692	1041.77
465.065	1033.86
465.438	1047.19
465.81	1074.76
466.183	1077.47
466.555	1105.95
466.928	1091.48
467.3	1121.31
467.672	1121.99
468.045	1148.88
468.417	1151.82
468.789	1140.52
469.161	1163.12
469.534	1195.43
469.906	1218.26
470.278	1240.86
470.65	1233.63
471.022	1251.03
471.394	1289.9
471.766	1303.45
472.138	1326.5
472.51	1349.1
472.882	1342.32
473.253	1365.15
473.625	1392.04
473.997	1419.61
474.369	1421.19
474.74	1438.59
475.112	1467.97
475.484	1512.26
475.855	1533.73
476.227	1554.75
476.598	1579.83
476.97	1586.38
477.341	1626.38
477.713	1640.39
478.084	1645.14
478.455	1704.35
478.827	1718.13
479.198	1758.36
479.569	1796.32
479.94	1828.41
480.311	1868.41
480.682	1915.42
481.053	1950.22
481.424	1975.75
481.795	2004.45
482.166	2017.11
482.537	2083.55
482.908	2107.5
483.279	2132.36
483.65	2197.22
484.021	2236.54
484.391	2258.91
484.762	2270.43
485.133	2297.55
485.503	2360.83
485.874	2367.83
486.244	2398.57
486.615	2478.34
486.985	2522.86
487.356	2552.01
487.726	2575.96
488.097	2641.72
488.467	2655.06
488.837	2736.41
489.207	2770.31
489.578	2791.1
489.948	2834.26
490.318	2875.39
490.688	2922.17
491.058	2935.05
491.428	2959.46
491.798	3032
492.168	3053.24
492.538	3123.52
492.908	3147.02
493.278	3185.89
493.648	3232.22
494.017	3232.22
494.387	3300.92
494.757	3277.64
495.126	3340.91
495.496	3359.67
495.866	3410.97
496.235	3445.77
496.605	3510.85
496.974	3493.23
497.344	3513.79
497.713	3556.95
498.082	3575.71
498.452	3662.49
498.821	3621.59
499.19	3667.69
499.559	3699.32
499.928	3759.44
500.298	3780.9
500.667	3716.05
501.036	3785.88
501.405	3822.94
501.774	3823.84
502.143	3850.05
502.512	3877.62
502.88	3933.67
503.249	3933.22
503.618	4015.25
503.987	3942.03
504.356	4012.99
504.724	4004.63
505.093	4033.33
505.462	4095.02
505.83	4040.56
506.199	4086.88
506.567	4153.55
506.936	4163.94
507.304	4209.37
507.672	4180.89
508.041	4217.28
508.409	4251.85
508.777	4265.64
509.145	4269.93
509.514	4305.41
509.882	4346.31
510.25	4323.04
510.618	4365.97
510.986	4322.58
511.354	4356.48
511.722	4412.3
512.09	4469.7
512.458	4465.63
512.826	4461.11
513.193	4467.21
513.561	4494.1
513.929	4515.8
514.297	4505.86
514.664	4527.1
515.032	4544.05
515.4	4581.56
515.767	4594.44
516.135	4636.7
516.502	4569.36
516.869	4648.68
517.237	4669.02
517.604	4640.54
517.972	4712.4
518.339	4703.82
518.706	4737.04
519.073	4731.39
519.44	4695
519.808	4829.92
520.175	4778.39
520.542	4846.64
520.909	4883.93
521.276	4866.07
521.643	4889.8
522.009	4934.55
522.376	4941.55
522.743	4915.56
523.11	4994.88
523.477	5024.26
523.843	4969.8
524.21	5094.54
524.577	5081.43
524.943	5101.77
525.31	5066.29
525.676	5141.77
526.043	5220.64
526.409	5207.53
526.776	5254.31
527.142	5237.81
527.508	5220.41
527.874	5286.85
528.241	5320.98
528.607	5357.81
528.973	5370.01
529.339	5388.32
529.705	5449.56
530.071	5462.44
530.437	5520.74
530.803	5461.54
531.169	5547.18
531.535	5493.63
531.901	5551.03
532.267	5605.04
532.632	5618.6
532.998	5610.69
533.364	5652.94
533.73	5684.13
534.095	5709.67
534.461	5681.87
534.826	5752.15
535.192	5741.76
535.557	5791.25
535.923	5801.87
536.288	5797.8
536.653	5879.61
537.019	5878.7
537.384	5935.2
537.749	5912.6
538.114	5947.63
538.479	5971.35
538.845	5995.53
539.21	6004.12
539.575	6008.42
539.94	6006.16
540.305	6064.91
540.67	6093.16
541.034	6057.23
541.399	6161.18
541.764	6144.91
542.129	6184.68
542.494	6197.79
542.858	6202.53
543.223	6242.53
543.587	6367.73
543.952	6310.33
544.316	6326.15
544.681	6358.01
545.045	6385.35
545.41	6421.06
545.774	6502.87
546.138	6463.77
546.503	6484.79
546.867	6508.52
547.231	6522.3
547.595	6518.68
547.959	6600.26
548.324	6634.16
548.688	6651.34
549.052	6727.94
549.416	6657.44
549.779	6690.21
550.143	6710.32
550.507	6748.28
550.871	6778.34
551.235	6755.97
551.599	6814.27
551.962	6807.72
552.326	6798.45
552.689	6881.39
553.053	6825.12
553.417	6906.47
553.78	6964.1
554.143	6979.01
554.507	6997.77
554.87	7028.28
555.234	7054.04
555.597	7043.87
555.96	7082.29
556.323	7167.93
556.686	7110.08
557.05	7160.7
557.413	7152.11
557.776	7167.26
558.139	7253.58
558.502	7185.33
558.865	7273.92
559.228	7260.36
559.59	7304.65
559.953	7314.6
560.316	7408.6
560.679	7359.57
561.041	7346.91
561.404	7406.34
561.767	7449.73
562.129	7430.98
562.492	7501.71
562.854	7500.35
563.217	7499
563.579	7601.14
563.941	7667.35
564.304	7609.73
564.666	7657.41
565.028	7704.87
565.39	7707.35
565.753	7732.89
566.115	7733.34
566.477	7778.99
566.839	7842.49
567.201	7862.38
567.563	7826.67
567.925	7907.57
568.287	7950.51
568.648	7938.99
569.01	7953
569.372	7974.47
569.734	7990.96
570.095	8077.06
570.457	8115.93
570.819	8204.52
571.18	8232.31
571.542	8223.95
571.903	8285.64
572.265	8328.81
572.626	8346.21
572.987	8441.8
573.349	8449.03
573.71	8520.44
574.071	8558.4
574.432	8581.68
574.794	8633.21
575.155	8685.18
575.516	8744.84
575.877	8801.11
576.238	8855.8
576.599	8907.1
576.96	9026.42
577.32	9075.91
577.681	9210.59
578.042	9216.24
578.403	9336.69
578.763	9482.9
579.124	9565.61
579.485	9623.24
579.845	9725.15
580.206	9826.85
580.566	9969.67
580.927	9990.01
581.287	10230.23
581.648	10338.02
582.008	10454.85
582.368	10558.13
582.728	10694.62
583.089	10861.4
583.449	11095.29
583.809	11181.84
584.169	11405.56
584.529	11500.7
584.889	11816.85
585.249	11960.8
585.609	12131.87
585.969	12471.07
586.329	12619.32
586.688	12798.97
587.048	13007.55
587.408	13305.4
587.768	13483.93
588.127	13650.7
588.487	14067.64
588.846	14352.6
589.206	14452.26
589.565	14751.69
589.925	15072.36
590.284	15376.08
590.643	15713.92
591.003	15983.97
591.362	16318.88
591.721	16508.03
592.08	16874.57
592.44	17233.88
592.799	17521.33
593.158	17762.46
593.517	18133.07
593.876	18446.28
594.235	18668.42
594.593	19114.06
594.952	19471.56
595.311	19749.98
595.67	20175.05
596.029	20617.3
596.387	20953.33
596.746	21191.75
597.104	21322.14
597.463	21900.2
597.822	22182.68
598.18	22484.82
598.538	22782.66
598.897	23235.53
599.255	23375.19
599.613	23943.31
599.972	24255.85
600.33	24645.44
600.688	24762.72
601.046	25115.48
601.404	25618.07
601.762	25803.83
602.12	26227.32
602.478	26593.86
602.836	26924.25
603.194	27170.34
603.552	27434.97
603.91	27774.17
604.268	28116.08
604.625	28281.5
604.983	28692.79
605.341	28862.5
605.698	29452.09
606.056	29669.49
606.413	29875.58
606.771	30163.49
607.128	30459.3
607.485	30628.79
607.843	30912.85
608.2	31426.73
608.557	31694.07
608.914	31796.66
609.272	32210.66
609.629	32576.53
609.986	32727.71
610.343	33061.26
610.7	33445.43
611.057	33611.53
611.414	33719.33
611.771	34034.12
612.127	34390.27
612.484	34487.21
612.841	34769.47
613.198	34749.58
613.554	35045.39
613.911	35453.52
614.267	35607.41
614.624	35798.37
614.98	35922.43
615.337	36326.04
615.693	36355.64
616.05	36497.33
616.406	36950.43
616.762	36814.16
617.118	37111.1
617.475	37301.38
617.831	37421.37
618.187	37660.01
618.543	37821.14
618.899	38285.76
619.255	38242.6
619.611	38264.06
619.967	38587.9
620.323	38808.01
620.678	38742.02
621.034	38908.34
621.39	38886.65
621.746	38999.86
622.101	39564.14
622.457	39323.7
622.812	39500.19
623.168	39852.5
623.523	39732.27
623.879	40002.1
624.234	39870.8
624.589	40046.16
624.945	40261.53
625.3	40367.06
625.655	40314.18
626.01	40622.42
626.365	40656.09
626.72	40650.89
627.075	40711.68
627.43	40896.54
627.785	40820.83
628.14	40985.12
628.495	41045.01
628.85	41031.68
629.205	41050.21
629.559	41211.78
629.914	41092.69
630.269	41239.58
630.623	41189.86
630.978	41149.19
631.332	41550.98
631.687	41527.71
632.041	41409.74
632.396	41470.31
632.75	41390.54
633.104	41594.37
633.459	41406.35
633.813	41577.42
634.167	41548.5
634.521	41444.32
634.875	41612.68
635.229	41628.72
635.583	41414.94
635.937	41495.84
636.291	41501.49
636.645	41516.41
636.999	41505.34
637.352	41753.46
637.706	41564.99
638.06	41662.17
638.413	41518.22
638.767	41534.26
639.121	41515.73
639.474	41273.7
639.828	41520.48
640.181	41449.97
640.534	41590.08
640.888	41453.59
641.241	41214.95
641.594	41397.99
641.947	41660.59
642.301	41409.52
642.654	41531.1
643.007	41532.68
643.36	41461.04
643.713	41428.28
644.066	41586.46
644.419	41285
644.771	41057.44
645.124	40647.73
645.477	40730.44
645.83	40487.51
646.182	40331.35
646.535	40306.72
646.888	40301.3
647.24	40181.08
647.593	40400.96
647.945	40214.75
648.298	40048.65
648.65	40078.03
649.002	40063.57
649.355	40149.44
649.707	40113.73
650.059	40179.04
650.411	40691.57
650.763	40823.32
651.115	41206.59
651.467	41094.27
651.819	41082.3
652.171	40915.29
652.523	40939.7
652.875	40943.54
653.227	40834.17
653.578	41177.66
653.93	40916.88
654.282	40920.72
654.633	40779.93
654.985	40846.14
655.337	40979.02
655.688	40819.93
656.039	40888.4
656.391	40596.66
656.742	40659.93
657.094	40697.22
657.445	40821.06
657.796	40675.3
658.147	40522.08
658.498	40672.81
658.849	40675.75
659.2	40768.18
659.551	40788.07
659.902	40836.2
660.253	40613.61
660.604	40762.76
660.955	40594.85
661.306	40765.24
661.656	40755.98
662.007	40592.14
662.358	40554.4
662.708	40538.35
663.059	40648.86
663.409	40407.74
663.76	40708.29
664.11	40626.26
664.461	40738.35
664.811	40591.01
665.161	40645.02
665.511	40571.57
665.862	40577.68
666.212	40729.76
666.562	40652.02
666.912	40507.17
667.262	40460.39
667.612	40535.87
667.962	40551.69
668.312	40572.48
668.662	40704
669.011	40555.98
669.361	40463.55
669.711	40367.29
670.06	40412.71
670.41	40449.32
670.76	40264.92
671.109	40437.11
671.459	40349.66
671.808	40359.15
672.157	40415.87
672.507	40215.65
672.856	40231.47
673.205	40200.51
673.554	40379.26
673.904	40314.63
674.253	40373.16
674.602	40294.52
674.951	39658.15
675.3	39628.77
675.649	40156.9
675.998	40123.68
676.346	40108.76
676.695	40283.9
677.044	39870.12
677.393	40056.33
677.741	40133.62
678.09	39944.47
678.438	39908.77
678.787	39871.93
679.135	39976.56
679.484	39674.65
679.832	39966.39
680.181	39748.77
680.529	39695.44
680.877	39694.08
681.225	39512.17
681.573	39959.61
681.922	39377.93
682.27	39461.77
682.618	39565.73
682.966	39284.83
683.314	39520.98
683.661	39366.63
684.009	39224.27
684.357	39143.36
684.705	38977.49
685.053	39150.14
685.4	38920.32
685.748	38909.92
686.095	38856.59
686.443	38730.27
686.79	38786.76
687.138	38798.51
687.485	38674.68
687.832	38544.96
688.18	38646.65
688.527	38373.89
688.874	38333.22
689.221	38305.19
689.568	38256.83
689.915	38092.32
690.262	38136.61
690.609	37960.57
690.956	38044.64
691.303	37912.44
691.65	37658.2
691.997	37754.7
692.344	37587.25
692.69	37477.42
693.037	37548.15
693.383	37296.86
693.73	37277.42
694.077	37150.42
694.423	37047.37
694.769	37013.02
695.116	36870.88
695.462	36860.49
695.808	36720.38
696.155	36879.24
696.501	36486.48
696.847	36572.81
697.193	36300.05
697.539	36441.06
697.885	36118.36
698.231	36081.97
698.577	36047.63
698.923	36007.63
699.269	35860.29
699.614	35640.4
699.96	35692.83
700.306	35772.6
700.651	35514.08
700.997	35349.79
701.342	35324.03
701.688	35363.58
702.033	35154.32
702.379	35150.25
702.724	34943.47
703.069	35057.37
703.415	34731.05
703.76	34778.96
704.105	34694.44
704.45	34613.09
704.795	34439.08
705.14	34189.14
705.485	34346.43
705.83	34153.44
706.175	34151.63
706.52	34108.47
706.865	33947.79
707.209	33984.18
707.554	33905.31
707.899	33802.94
708.243	33820.79
708.588	33615.37
708.932	33484.08
709.277	33491.08
709.621	33465.09
709.966	33117.99
710.31	33348.04
710.654	32965.22
710.998	33159.11
711.342	33084.31
711.687	33064.43
712.031	32828.5
712.375	32707.83
712.719	32901.72
713.063	32819.91
713.407	32757.09
713.75	32627.83
714.094	32638.9
714.438	32541.5
714.782	32482.97
715.125	32256.09
715.469	32414.73
715.812	32219.93
716.156	32005.25
716.499	32165.24
716.843	32088.86
717.186	31903.1
717.53	32098.12
717.873	32059.48
718.216	32006.83
718.559	31948.07
718.902	31605.26
719.246	31761.64
719.589	31598.48
719.932	31479.38
720.275	31605.48
720.617	31405.26
720.96	31534.98
721.303	31452.27
721.646	31395.54
721.989	31239.39
722.331	31245.94
722.674	31200.07
723.016	31151.94
723.359	31063.58
723.701	31042.79
724.044	30917.14
724.386	30711.04
724.729	30872.39
725.071	30718.05
725.413	30697.03
725.755	30703.59
726.097	30497.72
726.439	30380.2
726.782	30370.03
727.124	30536.81
727.465	30294.1
727.807	30402.58
728.149	30265.18
728.491	30242.35
728.833	30382.46
729.175	30186.99
729.516	30155.13
729.858	30045.52
730.199	30077.16
730.541	30041.46
730.882	30042.36
731.224	30076.48
731.565	29821.8
731.906	29844.17
732.248	29970.27
732.589	29697.96
732.93	29533.22
733.271	29632.43
733.612	29596.27
733.953	29649.83
734.294	29627.68
734.635	29375.26
734.976	29589.49
735.317	29368.71
735.658	29338.88
735.999	29413.22
736.339	29230.18
736.68	29432.88
737.021	29241.25
737.361	29065.66
737.702	29328.48
738.042	29123.06
738.383	29039.22
738.723	29083.29
739.063	29035.61
739.404	28966.68
739.744	28838.1
740.084	28818.21
740.424	28826.35
740.764	28735.73
741.104	28780.7
741.444	28617.09
741.784	28667.93
742.124	28562.85
742.464	28572.57
742.804	28482.4
743.143	28394.95
743.483	28366.25
743.823	28321.73
744.162	28415.96
744.502	28423.42
744.841	28152.01
745.181	28256.87
745.52	28188.4
745.86	28213.71
746.199	28118.34
746.538	28226.36
746.877	28180.71
747.216	28296.87
747.556	28008.74
747.895	28002.19
748.234	28038.34
748.573	27886.26
748.911	27823.44
749.25	27930.55
749.589	27710.44
749.928	27795.19
750.267	27821.85
750.605	27606.27
750.944	27716.09
751.283	27419.15
751.621	27642.87
751.96	27390.68
752.298	27498.25
752.636	27457.34
752.975	27345.71
753.313	27236.56
753.651	27321.53
753.989	27170.8
754.327	27183
754.666	26977.36
755.004	27065.71
755.342	27114.75
755.679	26931.71
756.017	26744.59
756.355	26902.56
756.693	26745.72
757.031	26770.36
757.368	26634.54
757.706	26778.26
758.044	26554.99
758.381	26590.02
758.719	26498.72
759.056	26515.45
759.394	26426.41
759.731	26141.67
760.068	26264.38
760.405	26103.48
760.743	25932.41
761.08	26155.46
761.417	25944.61
761.754	25944.39
762.091	25816.03
762.428	25819.19
762.765	25578.07
763.102	25708.69
763.438	25487
763.775	25360.45
764.112	25408.36
764.449	25381.92
764.785	25301.47
765.122	25170.85
765.458	24924.3
765.795	25071.19
766.131	24960.46
766.467	24869.61
766.804	24806.11
767.14	24659.68
767.476	24630.07
767.812	24577.64
768.148	24631.65
768.485	24409.29
768.821	24323.19
769.157	24237.77
769.492	24174.27
769.828	24242.29
770.164	23846.36
770.5	24032.12
770.836	23964.1
771.171	23703.54
771.507	23732.02
771.842	23599.59
772.178	23504.68
772.513	23454.06
772.849	23423.32
773.184	23332.03
773.519	23259.71
773.855	23223.33
774.19	23080.28
774.525	23024.24
774.86	23038.93
775.195	22923.9
775.53	22925.03
775.865	22650.46
776.2	22538.15
776.535	22371.6
776.87	22436.91
777.205	22304.94
777.539	22238.05
777.874	22279.4
778.209	22153.3
778.543	22037.37
778.878	21963.7
779.212	21870.82
779.547	21792.86
779.881	21819.07
780.215	21614.78
780.55	21575.01
780.884	21451.17
781.218	21401.68
781.552	21520.78
781.886	21310.61
782.22	21316.04
782.554	21197.62
782.888	21017.06
783.222	20986.33
783.556	20847.57
783.889	20849.83
784.223	20687.58
784.557	20649.39
784.89	20615.26
785.224	20564.19
785.557	20469.73
785.891	20336.63
786.224	20172.79
786.558	20282.39
786.891	20029.74
787.224	20059.57
787.557	20103.19
787.891	19953.81
788.224	19980.93
788.557	19917.43
788.89	19677.66
789.223	19720.6
789.556	19597.89
789.888	19607.61
790.221	19536.87
790.554	19365.13
790.887	19323.55
791.219	19315.64
791.552	19247.39
791.884	19108.86
792.217	19036.77
792.549	19031.35
792.882	18956.1
793.214	18722.88
793.546	18733.96
793.879	18634.75
794.211	18608.31
794.543	18609.44
794.875	18559.72
795.207	18715.88
795.539	18533.28
795.871	18483.12
796.203	18259.84
796.535	18147.31
796.867	18163.58
797.198	18113.41
797.53	18069.34
797.862	17924.03
798.193	17992.51
798.525	17912.51
798.856	17915.67
799.188	17713.42
799.519	17664.15
799.85	17607.21
800.182	17597.26
800.513	17582.57
800.844	17393.88
801.175	17509.58
801.506	17452.86
801.837	17385.07
802.168	17381.68
802.499	17322.92
802.83	17161.34
803.161	17164.96
803.491	17026.43
803.822	17061.68
804.153	17011.52
804.483	16937.39
804.814	16797.06
805.145	16909.82
805.475	16778.98
805.805	16770.62
806.136	16696.27
806.466	16644.29
806.796	16595.03
807.126	16528.59
807.457	16531.53
807.787	16450.4
808.117	16382.38
808.447	16225.1
808.777	16355.71
809.107	16233.91
809.436	16159.56
809.766	16146.23
810.096	16138.32
810.426	16126.34
810.755	16099
811.085	16060.81
811.414	16050.41
811.744	15806.58
812.073	15739.91
812.403	15830.53
812.732	15750.31
813.061	15706.01
813.39	15639.57
813.719	15590.08
814.049	15637.31
814.378	15594.15
814.707	15543.31
815.036	15515.51
815.365	15479.13
815.693	15374.5
816.022	15300.6
816.351	15291.56
816.68	15178.34
817.008	15276.19
817.337	15118.46
817.665	15086.82
817.994	15113.03
818.322	15080.49
818.651	14990.33
818.979	14947.39
819.307	15053.6
819.636	14919.59
819.964	14925.02
820.292	14892.25
820.62	14922.31
820.948	14907.39
821.276	14913.04
821.604	14840.5
821.932	14811.57
822.259	14873.95
822.587	14800.27
822.915	14727.96
823.243	14834.17
823.57	14743.55
823.898	14755.3
824.225	14748.52
824.553	14794.17
824.88	14803.44
825.207	14758.02
825.535	14778.35
825.862	14776.32
826.189	14637.12
826.516	14760.05
826.843	14827.84
827.17	14785.36
827.497	14800.05
827.824	14678.92
828.151	14761.18
828.478	14721.86
828.805	14726.83
829.131	14718.69
829.458	14713.95
829.785	14635.53
830.111	14684.8
830.438	14609.77
830.764	14672.37
831.09	14701.75
831.417	14645.7
831.743	14723.21
832.069	14711.69
832.395	14605.7
832.722	14616.55
833.048	14701.07
833.374	14647.96
833.7	14536.33
834.026	14584.01
834.351	14565.93
834.677	14562.09
835.003	14633.05
835.329	14600.96
835.654	14469.21
835.98	14409.55
836.306	14496.78
836.631	14453.62
836.956	14487.74
837.282	14372.49
837.607	14336.56
837.932	14388.53
838.258	14371.36
838.583	14239.84
838.908	14275.99
839.233	14198.48
839.558	14202.32
839.883	14203
840.208	14146.73
840.533	14111.93
840.858	14107.86
841.182	14122.55
841.507	14084.36
841.832	14045.27
842.156	13951.03
842.481	14028.77
842.805	13970.01
843.13	13892.73
843.454	13915.78
843.778	13832.62
844.103	13777.7
844.427	13769.12
844.751	13828.32
845.075	13720.98
845.399	13677.59
845.723	13573.87
846.047	13645.73
846.371	13439.86
846.695	13552.62
847.019	13393.76
847.343	13305.17
847.666	13215.01
847.99	13251.39
848.313	13159.19
848.637	13120.54
848.96	13109.47
849.284	13125.29
849.607	12999.42
849.931	12868.57
850.254	12862.92
850.577	12802.36
850.9	12763.49
851.223	12690.95
851.546	12563.5
851.869	12591.97
852.192	12546.77
852.515	12525.98
852.838	12508.58
853.161	12434.69
853.483	12344.07
853.806	12274.01
854.129	12348.81
854.451	12247.35
854.774	12226.11
855.096	12169.16
855.419	12151.08
855.741	12146.56
856.063	12056.17
856.385	12078.31
856.708	11897.07
857.03	11900.24
857.352	11960.58
857.674	11854.14
857.996	11851.2
858.318	11745.44
858.64	11719.23
858.961	11738.21
859.283	11735.27
859.605	11585.22
859.926	11643.3
860.248	11688.27
860.57	11515.39
860.891	11618.66
861.212	11537.31
861.534	11513.81
861.855	11457.76
862.176	11404.21
862.498	11468.16
862.819	11485.79
863.14	11309.07
863.461	11321.72
863.782	11286.92
864.103	11235.85
864.424	11271.33
864.745	11303.64
865.065	11219.35
865.386	11215.51
865.707	11123.54
866.027	11237.2
866.348	11204.89
866.668	11133.48
866.989	11132.35
867.309	11146.81
867.63	11049.41
867.95	11079.69
868.27	11031.56
868.59	11071.11
868.91	11038.34
869.23	10938.23
869.55	10861.62
869.87	11022.52
870.19	10915.63
870.51	10952.92
870.83	10946.14
871.15	10811.45
871.469	10801.28
871.789	10945.69
872.109	10842.86
872.428	10740.72
872.748	10773.71
873.067	10819.81
873.386	10854.62
873.706	10786.59
874.025	10723.77
874.344	10712.7
874.663	10687.16
874.982	10680.61
875.301	10584.57
875.62	10557
875.939	10568.07
876.258	10592.93
876.577	10438.36
876.896	10590.44
877.214	10469.77
877.533	10512.7
877.852	10524
878.17	10475.87
878.489	10534.62
878.807	10439.03
879.125	10409.88
879.444	10406.04
879.762	10375.98
880.08	10412.82
880.398	10276.33
880.716	10317.68
881.034	10231.81
881.352	10291.24
881.67	10299.38
881.988	10285.59
882.306	10263.9
882.624	10207.18
882.941	10121.75
883.259	10105.26
883.577	10152.26
883.894	10079.04
884.212	10101.64
884.529	10050.12
884.846	10042.21
885.164	10020.74
885.481	10000.4
885.798	10054.41
886.115	9929.67
886.432	9950.68
886.75	9883.79
887.067	9885.6
887.383	9891.7
887.7	9940.06
888.017	9753.18
888.334	9861.87
888.651	9805.15
888.967	9819.84
889.284	9750.01
889.6	9681.99
889.917	9650.13
890.233	9624.59
890.55	9559.28
890.866	9590.02
891.182	9573.07
891.498	9467.76
891.815	9553.41
892.131	9505.27
892.447	9351.15
892.763	9372.39
893.079	9376.24
893.395	9334.88
893.71	9341.44
894.026	9286.3
894.342	9246.07
894.657	9245.62
894.973	9199.29
895.289	9139.18
895.604	9160.2
895.92	9134.89
896.235	9050.37
896.55	9072.06
896.865	9037.26
897.181	8949.13
897.496	8967.66
897.811	8947.1
898.126	8880.2
898.441	8876.81
898.756	8904.16
899.071	8870.26
899.386	8812.86
899.7	8747.55
900.015	8691.06
900.33	8685.86
900.644	8689.25
900.959	8648.35
901.273	8595.69
901.588	8572.87
901.902	8518.86
902.216	8471.85
902.531	8531.74
902.845	8501.23
903.159	8360.22
903.473	8401.57
903.787	8353.21
904.101	8296.72
904.415	8260.56
904.729	8258.53
905.042	8221.46
905.356	8156.61
905.67	8168.81
905.984	8177.4
906.297	8174.91
906.611	8059.21
906.924	8068.7
907.237	8048.59
907.551	8024.63
907.864	7967.91
908.177	7927.69
908.491	7934.47
908.804	7844.53
909.117	7828.03
909.43	7818.09
909.743	7714.59
910.056	7813.57
910.368	7691.99
910.681	7676.85
910.994	7654.25
911.307	7577.64
911.619	7520.47
911.932	7564.31
912.244	7488.6
912.557	7521.82
912.869	7402.05
913.181	7374.48
913.494	7444.08
913.806	7343.3
914.118	7316.63
914.43	7261.49
914.742	7240.93
915.054	7204.99
915.366	7211.77
915.678	7152.34
915.99	7189.63
916.302	7070.76
916.613	7096.52
916.925	7042.51
917.236	6970.65
917.548	7032.8
917.859	6986.69
918.171	6946.7
918.482	6842.74
918.794	6829.64
919.105	6849.07
919.416	6815.63
919.727	6825.12
920.038	6802.74
920.349	6717.1
920.66	6703.99
920.971	6627.16
921.282	6651.56
921.593	6605.24
921.903	6544.45
922.214	6555.29
922.525	6549.87
922.835	6494.28
923.146	6482.53
923.456	6444.34
923.767	6421.29
924.077	6412.25
924.387	6434.17
924.697	6376.54
925.008	6367.73
925.318	6348.07
925.628	6281.18
925.938	6239.37
926.248	6210.9
926.558	6166.15
926.867	6128.86
927.177	6190.56
927.487	6096.1
927.796	6117.11
928.106	6089.77
928.416	6005.48
928.725	6062.2
929.034	5978.59
929.344	5973.84
929.653	5928.42
929.962	5867.4
930.271	5906.95
930.581	5882.54
930.89	5829.66
931.199	5776.78
931.508	5780.62
931.817	5746.95
932.125	5754.64
932.434	5741.76
932.743	5645.04
933.051	5654.75
933.36	5611.82
933.669	5610.01
933.977	5564.59
934.286	5592.61
934.594	5531.59
934.902	5473.74
935.21	5464.02
935.519	5470.8
935.827	5438.94
936.135	5396
936.443	5397.81
936.751	5393.29
937.059	5374.76
937.367	5307.19
937.674	5318.94
937.982	5280.75
938.29	5285.04
938.597	5252.73
938.905	5205.27
939.213	5269
939.52	5151.71
939.827	5181.32
940.135	5129.12
940.442	5123.69
940.749	5096.12
941.056	5096.12
941.363	5043.24
941.67	5005.5
941.977	4981.78
942.284	4964.6
942.591	4962.57
942.898	4959.63
943.205	4970.48
943.511	4925.51
943.818	4875.79
944.125	4877.37
944.431	4876.02
944.738	4827.88
945.044	4775
945.35	4743.14
945.657	4732.52
945.963	4678.96
946.269	4709.69
946.575	4695
946.881	4667.21
947.187	4648.45
947.493	4602.12
947.799	4564.84
948.105	4586.98
948.41	4560.09
948.716	4548.57
949.022	4571.17
949.327	4519.19
949.633	4487.1
949.938	4442.81
950.244	4441
950.549	4394.67
950.854	4395.35
951.16	4382.92
951.465	4364.16
951.77	4350.38
952.075	4321.68
952.38	4309.48
952.685	4297.95
952.99	4249.37
953.294	4252.08
953.599	4200.55
953.904	4212.98
954.209	4221.12
954.513	4181.34
954.818	4177.5
955.122	4149.93
955.426	4122.36
955.731	4164.85
956.035	4057.05
956.339	4086.21
956.643	4068.13
956.948	4047.34
957.252	4043.5
957.556	4041.46
957.86	4010.5
958.163	3964.4
958.467	3964.4
958.771	3960.33
959.075	3901.35
959.378	3904.97
959.682	3913.56
959.985	3852.09
960.289	3823.39
960.592	3822.94
960.896	3843.73
961.199	3809.38
961.502	3763.28
961.805	3767.8
962.108	3751.07
962.411	3726.44
962.714	3711.3
963.017	3697.06
963.32	3710.62
963.623	3658.42
963.926	3686.89
964.228	3649.16
964.531	3620
964.833	3631.98
965.136	3581.13
965.438	3561.47
965.741	3545.88
966.043	3559.89
966.345	3490.29
966.648	3511.76
966.95	3529.61
967.252	3483.96
967.554	3482.61
967.856	3438.54
968.158	3432.66
968.46	3415.49
968.761	3470.63
969.063	3392.67
969.365	3360.8
969.666	3396.28
969.968	3354.47
970.269	3334.59
970.571	3323.51
970.872	3309.28
971.174	3283.06
971.475	3250.75
971.776	3258.43
972.077	3233.57
972.378	3224.08
972.679	3194.03
972.98	3181.15
973.281	3204.2
973.582	3188.15
973.883	3155.16
974.183	3126.01
974.484	3109.28
974.785	3082.62
975.085	3100.24
975.386	3124.42
975.686	3082.62
975.986	3117.19
976.287	3060.92
976.587	3035.61
976.887	2996.52
977.187	2980.25
977.487	2993.81
977.787	3006.46
978.087	2982.96
978.387	2947.03
978.687	2910.87
978.987	2916.97
979.286	2907.71
979.586	2932.34
979.885	2878.55
980.185	2854.6
980.484	2858.44
980.784	2851.89
981.083	2859.8
981.382	2856.63
981.682	2789.07
981.981	2797.43
982.28	2775.05
982.579	2764.88
982.878	2758.56
983.177	2776.41
983.475	2756.07
983.774	2700.71
984.073	2722.85
984.372	2677.43
984.67	2728.95
984.969	2691.21
985.267	2671.33
985.566	2644.89
985.864	2650.76
986.162	2634.27
986.461	2587.49
986.759	2628.84
987.057	2592.23
987.355	2572.12
987.653	2574.16
987.951	2572.57
988.249	2573.48
988.547	2561.73
988.844	2556.53
989.142	2569.64
989.44	2502.97
989.737	2515.17
990.035	2511.33
990.332	2455.51
990.63	2496.42
990.927	2440.6
991.224	2426.36
991.521	2448.28
991.819	2436.31
992.116	2406.7
992.413	2378.45
992.71	2349.75
993.006	2368.74
993.303	2360.83
993.6	2330.32
993.897	2344.33
994.193	2314.5
994.49	2340.49
994.787	2311.79
995.083	2307.04
995.379	2298
995.676	2284.9
995.972	2279.7
996.268	2260.94
996.565	2234.5
996.861	2235.86
997.157	2221.17
997.453	2230.21
997.749	2180.04
998.044	2189.08
998.34	2149.31
998.636	2146.6
998.932	2171.45
999.227	2170.1
999.523	2134.17
999.818	2117.44
1000.114	2104.34
1000.409	2097.11
1000.704	2095.07
1001	2086.48
1001.295	2042.42
1001.59	2033.15
1001.885	2051.01
1002.18	2005.13
1002.475	2032.25
1002.77	2029.76
1003.065	1987.96
1003.359	1986.83
1003.654	1985.47
1003.949	1954.51
1004.243	1960.39
1004.538	1953.38
1004.832	1956.54
1005.127	1957.45
1005.421	1915.42
1005.715	1898.69
1006.009	1916.55
1006.304	1882.65
1006.598	1840.16
1006.892	1855.76
1007.186	1843.33
1007.48	1833.38
1007.773	1855.3
1008.067	1806.04
1008.361	1813.95
1008.655	1798.58
1008.948	1781.18
1009.242	1767.62
1009.535	1750
1009.829	1766.49
1010.122	1747.74
1010.415	1712.48
1010.708	1733.05
1011.001	1724.69
1011.295	1696.44
1011.588	1684.69
1011.881	1685.82
1012.173	1691.69
1012.466	1692.82
1012.759	1651.69
1013.052	1634.97
1013.344	1647.63
1013.637	1633.84
1013.93	1642.88
1014.222	1640.62
1014.514	1615.54
1014.807	1625.25
1015.099	1573.5
1015.391	1596.33
1015.683	1572.15
1015.976	1561.3
1016.268	1554.07
1016.56	1545.71
1016.851	1557.91
1017.143	1554.3
1017.435	1533.05
1017.727	1512.49
1018.018	1532.6
1018.31	1494.64
1018.602	1493.96
1018.893	1460.29
1019.185	1457.35
1019.476	1461.87
1019.767	1439.04
1020.058	1418.03
1020.35	1412.6
1020.641	1432.04
1020.932	1422.1
1021.223	1395.2
1021.514	1382.32
1021.804	1361.53
1022.095	1367.41
1022.386	1360.85
1022.677	1346.17
1022.967	1372.38
1023.258	1306.39
1023.548	1320.4
1023.839	1307.07
1024.129	1317.24
1024.419	1320.18
1024.709	1284.02
1025	1293.51
1025.29	1298.03
1025.58	1263.46
1025.87	1239.28
1026.16	1241.54
1026.449	1223.91
1026.739	1212.61
1027.029	1225.49
1027.319	1221.65
1027.608	1216.9
1027.898	1197.24
1028.187	1186.4
1028.477	1183.46
1028.766	1168.99
1029.055	1170.58
1029.344	1148.43
1029.634	1142.33
1029.923	1166.51
1030.212	1155.89
1030.501	1157.47
1030.79	1141.42
1031.078	1101.88
1031.367	1115.66
1031.656	1100.97
1031.945	1112.5
1032.233	1066.17
1032.522	1091.48
1032.81	1071.82
1033.099	1067.53
1033.387	1071.37
1033.675	1061.2
1033.963	1070.01
1034.251	1044.25
1034.54	1043.57
1034.828	1012.39
1035.116	1009.45
1035.403	1020.52
1035.691	996.34
1035.979	995.67
1036.267	968.1
1036.554	1000.86
1036.842	985.95
1037.129	955.67
1037.417	954.76
1037.704	970.13
1037.992	956.57
1038.279	950.24
1038.566	969.68
1038.853	969.68
1039.14	969.68
