Data from hue_00_FLMS001491_43.txt Node
Date: Mon Feb 06 15:29:45 GMT 2017
User: dcchb
Spectrometer: FLMS00149
Trigger mode: 0
Integration Time (sec): 2.000000E-2
Scans to average: 10
Electric dark correction enabled: true
Nonlinearity correction enabled: false
Boxcar width: 0
XAxis mode: Wavelengths
Number of Pixels in Spectrum: 2048
>>>>>Begin Spectral Data<<<<<
341.393	-16.51
341.776	-16.51
342.16	-16.51
342.543	-46.11
342.927	-70.52
343.31	-74.81
343.693	-77.07
344.077	-94.7
344.46	-50.18
344.843	-52.89
345.226	-41.59
345.61	-18.54
345.993	-18.09
346.376	-10.18
346.759	16.93
347.142	15.13
347.525	74.11
347.908	44.28
348.291	75.46
348.674	100.1
349.057	112.07
349.44	102.13
349.823	141.68
350.206	161.79
350.588	201.56
350.971	206.08
351.354	236.36
351.737	235.46
352.119	248.11
352.502	275.23
352.884	269.81
353.267	268.45
353.65	302.35
354.032	284.5
354.414	286.31
354.797	352.07
355.179	294.22
355.562	319.53
355.944	327.66
356.326	329.02
356.709	335.8
357.091	325.85
357.473	319.3
357.855	322.01
358.238	320.66
358.62	344.61
359.002	326.98
359.384	329.47
359.766	332.86
360.148	311.16
360.53	307.1
360.912	345.97
361.294	344.16
361.676	339.19
362.057	336.93
362.439	335.8
362.821	321.33
363.203	325.18
363.584	312.29
363.966	324.95
364.348	331.95
364.729	322.46
365.111	309.36
365.493	315.68
365.874	312.75
366.256	312.29
366.637	305.97
367.019	302.12
367.4	311.62
367.781	311.84
368.163	320.2
368.544	292.63
368.925	319.98
369.306	293.54
369.688	325.63
370.069	308
370.45	308.45
370.831	287.89
371.212	319.07
371.593	283.59
371.974	300.32
372.355	301.22
372.736	328.79
373.117	291.5
373.498	296.93
373.879	316.59
374.26	304.16
374.641	301.9
375.021	305.97
375.402	320.43
375.783	316.36
376.163	312.07
376.544	316.59
376.925	323.37
377.305	312.97
377.686	323.82
378.066	316.59
378.447	344.38
378.827	339.64
379.208	306.87
379.588	312.75
379.968	319.75
380.349	336.7
380.729	320.43
381.109	332.86
381.489	329.02
381.87	338.51
382.25	350.94
382.63	346.42
383.01	329.24
383.39	346.64
383.77	317.94
384.15	340.99
384.53	343.48
384.91	335.8
385.29	336.7
385.67	321.56
386.049	350.03
386.429	355
386.809	346.64
387.189	359.52
387.568	347.55
387.948	340.09
388.328	369.47
388.707	351.84
389.087	350.49
389.466	364.95
389.846	354.55
390.225	354.55
390.605	337.83
390.984	357.04
391.363	370.6
391.743	358.85
392.122	376.7
392.501	374.44
392.881	374.89
393.26	371.5
393.639	359.75
394.018	346.64
394.397	354.78
394.776	371.05
395.155	350.71
395.534	380.31
395.913	344.84
396.292	381.9
396.671	384.38
397.05	374.21
397.429	396.13
397.808	368.56
398.186	379.41
398.565	376.25
398.944	366.3
399.323	369.69
399.701	388.68
400.08	389.13
400.458	379.64
400.837	395
401.215	382.35
401.594	385.51
401.972	378.28
402.351	384.16
402.729	367.21
403.107	384.83
403.486	404.27
403.864	412.18
404.242	411.05
404.62	386.19
404.999	386.19
405.377	381.22
405.755	406.75
406.133	416.02
406.511	407.21
406.889	398.39
407.267	414.66
407.645	413.53
408.023	428.9
408.401	389.58
408.779	425.96
409.156	436.36
409.534	440.88
409.912	433.65
410.29	425.51
410.667	430.48
411.045	427.09
411.422	444.27
411.8	430.71
412.178	467.77
412.555	442.23
412.933	444.04
413.31	434.32
413.687	452.18
414.065	458.73
414.442	458.05
414.819	479.07
415.197	465.06
415.574	472.52
415.951	471.16
416.328	473.19
416.705	479.07
417.082	482.69
417.46	492.63
417.837	507.54
418.214	496.02
418.591	500.99
418.967	492.85
419.344	493.53
419.721	498.5
420.098	501.22
420.475	496.47
420.852	507.09
421.228	516.13
421.605	506.87
421.982	495.11
422.358	525.17
422.735	535.57
423.111	505.28
423.488	527.66
423.864	535.34
424.241	545.51
424.617	551.16
424.994	539.63
425.37	557.71
425.746	532.18
426.123	555.23
426.499	539.18
426.875	569.46
427.251	565.85
427.627	565.39
428.003	578.95
428.379	582.57
428.756	542.34
429.132	586.86
429.507	585.51
429.883	608.11
430.259	588.9
430.635	604.94
431.011	608.78
431.387	590.7
431.763	591.61
432.138	594.77
432.514	611.27
432.89	616.69
433.265	642.68
433.641	635.22
434.016	642.91
434.392	655.79
434.767	658.27
435.143	650.36
435.518	651.27
435.894	655.56
436.269	683.13
436.644	680.42
437.02	684.94
437.395	697.82
437.77	686.97
438.145	666.18
438.52	691.95
438.895	701.21
439.271	730.81
439.646	736.92
440.021	712.28
440.395	738.27
440.77	719.97
441.145	734.88
441.52	730.59
441.895	740.53
442.27	750.02
442.645	749.12
443.019	781.21
443.394	749.34
443.769	756.8
444.143	754.54
444.518	740.76
444.892	771.94
445.267	766.29
445.641	776.91
446.016	762.9
446.39	778.27
446.764	789.8
447.139	807.2
447.513	813.3
447.887	793.19
448.262	791.83
448.636	804.03
449.01	791.38
449.384	819.17
449.758	826.4
450.132	821.21
450.506	802.22
450.88	842.22
451.254	829.57
451.628	835.67
452.002	845.39
452.376	853.07
452.75	846.29
453.123	862.79
453.497	848.55
453.871	870.7
454.244	900.98
454.618	885.39
454.992	898.04
455.365	914.54
455.739	913.86
456.112	931.03
456.486	931.71
456.859	934.65
457.232	961.09
457.606	958.15
457.979	949.57
458.352	976.91
458.725	981.65
459.099	985.5
459.472	969.9
459.845	1018.49
460.218	1028.89
460.591	1001.77
460.964	1022.78
461.337	1059.39
461.71	1070.92
462.083	1065.95
462.456	1063.46
462.829	1077.92
463.201	1064.36
463.574	1091.26
463.947	1114.31
464.32	1128.77
464.692	1151.37
465.065	1146.85
465.438	1143.01
465.81	1158.37
466.183	1178.03
466.555	1200.18
466.928	1168.09
467.3	1203.57
467.672	1226.62
468.045	1282.21
468.417	1274.75
468.789	1248.77
469.161	1270.46
469.534	1290.35
469.906	1317.24
470.278	1344.13
470.65	1343
471.022	1373.96
471.394	1415.99
471.766	1374.86
472.138	1420.51
472.51	1454.86
472.882	1456.44
473.253	1486.27
473.625	1522.66
473.997	1525.37
474.369	1542.77
474.74	1572.37
475.112	1555.2
475.484	1601.3
475.855	1667.74
476.227	1640.62
476.598	1688.53
476.97	1726.72
477.341	1737.12
477.713	1795.19
478.084	1813.72
478.455	1831.58
478.827	1864.8
479.198	1891.91
479.569	1879.94
479.94	1983.21
480.311	1959.93
480.682	1982.08
481.053	2067.28
481.424	2098.46
481.795	2140.72
482.166	2168.06
482.537	2186.37
482.908	2227.5
483.279	2273.15
483.65	2299.59
484.021	2346.36
484.391	2358.57
484.762	2372.13
485.133	2422.97
485.503	2472.69
485.874	2502.29
486.244	2545
486.615	2598.56
486.985	2631.56
487.356	2658.67
487.726	2657.32
488.097	2716.52
488.467	2764.66
488.837	2792.45
489.207	2863.87
489.578	2929.17
489.948	2936.63
490.318	2986.8
490.688	2989.74
491.058	3052.33
491.428	3091.88
491.798	3092.79
492.168	3173.01
492.538	3187.02
492.908	3219.34
493.278	3296.17
493.648	3265.89
494.017	3328.49
494.387	3346.11
494.757	3371.2
495.126	3412.55
495.496	3421.82
495.866	3498.42
496.235	3499.78
496.605	3534.36
496.974	3595.15
497.344	3575.26
497.713	3590.63
498.082	3680.12
498.452	3708.59
498.821	3698.65
499.19	3692.77
499.559	3761.69
499.928	3763.28
500.298	3812.54
500.667	3873.78
501.036	3821.13
501.405	3804.18
501.774	3891.86
502.143	3906.78
502.512	3922.14
502.88	3937.28
503.249	3970.28
503.618	3972.31
503.987	4036.94
504.356	4000.56
504.724	4038.52
505.093	4090.95
505.462	4060.22
505.83	4082.14
506.199	4134.34
506.567	4147.45
506.936	4177.73
507.304	4199.42
507.672	4235.81
508.041	4236.94
508.409	4281.68
508.777	4308.35
509.145	4335.92
509.514	4342.02
509.882	4341.34
510.25	4325.75
510.618	4368.01
510.986	4377.27
511.354	4422.47
511.722	4424.05
512.09	4479.42
512.458	4468.79
512.826	4511.05
513.193	4443.26
513.561	4518.51
513.929	4520.09
514.297	4569.13
514.664	4599.86
515.032	4581.56
515.4	4640.09
515.767	4647.55
516.135	4671.28
516.502	4640.99
516.869	4695.91
517.237	4696.59
517.604	4701.33
517.972	4766.19
518.339	4772.29
518.706	4777.26
519.073	4791.72
519.44	4778.84
519.808	4819.07
520.175	4832.18
520.542	4885.73
520.909	4850.93
521.276	4891.38
521.643	4934.77
522.009	4972.28
522.376	4973.41
522.743	4975.45
523.11	5038.72
523.477	5070.81
523.843	5139.29
524.21	5109.91
524.577	5136.8
524.943	5198.27
525.31	5178.38
525.676	5191.71
526.043	5249.11
526.409	5257.7
526.776	5297.7
527.142	5311.03
527.508	5363.91
527.874	5390.13
528.241	5459.28
528.607	5429.9
528.973	5493.17
529.339	5461.76
529.705	5508.09
530.071	5559.16
530.437	5582.66
530.803	5539.5
531.169	5647.07
531.535	5642.78
531.901	5616.11
532.267	5620.18
532.632	5733.39
532.998	5717.8
533.364	5724.58
533.73	5795.09
534.095	5792.83
534.461	5820.85
534.826	5816.78
535.192	5824.69
535.557	5897.91
535.923	5895.88
536.288	5931.36
536.653	5981.07
537.019	5929.1
537.384	6029.21
537.749	5985.59
538.114	6029.88
538.479	6086.15
538.845	6122.76
539.21	6092.48
539.575	6112.14
539.94	6111.46
540.305	6175.19
540.67	6188.3
541.034	6240.95
541.399	6279.37
541.764	6248.41
542.129	6301.06
542.494	6307.84
542.858	6343.55
543.223	6337.9
543.587	6370.89
543.952	6368.41
544.316	6431.23
544.681	6438.91
545.045	6435.07
545.41	6520.94
545.774	6551.45
546.138	6547.38
546.503	6575.41
546.867	6601.85
547.231	6642.98
547.595	6607.27
547.959	6666.7
548.324	6644.1
548.688	6678.68
549.052	6758.23
549.416	6816.53
549.779	6785.57
550.143	6810.43
550.507	6897.66
550.871	6906.92
551.235	6826.02
551.599	6891.1
551.962	6934.27
552.326	6935.85
552.689	7023.98
553.053	6993.7
553.417	7003.19
553.78	7108.27
554.143	6997.77
554.507	7107.14
554.87	7123.87
555.234	7114.38
555.597	7126.13
555.96	7190.31
556.323	7207.03
556.686	7223.52
557.05	7233.69
557.413	7284.77
557.776	7328.61
558.139	7294.26
558.502	7321.38
558.865	7339.45
559.228	7389.17
559.59	7433.46
559.953	7367.93
560.316	7477.98
560.679	7459
561.041	7514.82
561.404	7516.4
561.767	7573.12
562.129	7627.58
562.492	7642.5
562.854	7661.71
563.217	7665.1
563.579	7691.31
563.941	7698.54
564.304	7809.27
564.666	7768.37
565.028	7836.84
565.39	7778.09
565.753	7861.47
566.115	7857.63
566.477	7882.04
566.839	7963.39
567.201	8008.14
567.563	7970.17
567.925	8039.32
568.287	8036.84
568.648	8092.43
569.01	8145.53
569.372	8134.69
569.734	8080.23
570.095	8224.85
570.457	8254.91
570.819	8275.25
571.18	8235.93
571.542	8297.85
571.903	8378.97
572.265	8385.53
572.626	8496.03
572.987	8487.67
573.349	8453.77
573.71	8582.13
574.071	8616.48
574.432	8706.88
574.794	8754.56
575.155	8790.94
575.516	8791.85
575.877	8931.95
576.238	8929.47
576.599	9053.76
576.96	9055.34
577.32	9116.58
577.681	9199.97
578.042	9277.93
578.403	9350.02
578.763	9500.75
579.124	9527.42
579.485	9617.13
579.845	9752.95
580.206	9783.46
580.566	9907.07
580.927	9976.67
581.287	10211.02
581.648	10246.04
582.008	10405.81
582.368	10531.46
582.728	10634.73
583.089	10806.71
583.449	10963.99
583.809	11090.32
584.169	11229.07
584.529	11423.87
584.889	11621.15
585.249	11703.41
585.609	11928.71
585.969	12142.04
586.329	12329.61
586.688	12511.3
587.048	12639.88
587.408	12873.09
587.768	13048.46
588.127	13301.78
588.487	13485.73
588.846	13778.83
589.206	13949.22
589.565	14149.9
589.925	14547.85
590.284	14663.78
590.643	14920.95
591.003	15100.38
591.362	15508.05
591.721	15729.97
592.08	16024.42
592.44	16241.82
592.799	16454.69
593.158	16818.07
593.517	17060.1
593.876	17279.08
594.235	17631.16
594.593	17952.73
594.952	18255.78
595.311	18324.93
595.67	18792.71
596.029	19126.71
596.387	19426.82
596.746	19785.91
597.104	19820.93
597.463	20283.75
597.822	20518.77
598.18	20729.61
598.538	21001.24
598.897	21378.41
599.255	21456.82
599.613	22053.87
599.972	22218.16
600.33	22583.35
600.688	22693.63
601.046	23057.23
601.404	23385.59
601.762	23628.97
602.12	24044.78
602.478	24290.19
602.836	24484.54
603.194	24654.93
603.552	24953.91
603.91	25099.66
604.268	25496.04
604.625	25690.61
604.983	26053.76
605.341	26214.66
605.698	26455.79
606.056	26823.69
606.413	26930.35
606.771	27294.41
607.128	27562.88
607.485	27614.4
607.843	27812.81
608.2	28221.62
608.557	28502.74
608.914	28490.54
609.272	28885.78
609.629	29161.25
609.986	29334.58
610.343	29503.84
610.7	29852.08
611.057	30025.64
611.414	30163.26
611.771	30399.86
612.127	30747.88
612.484	30765.5
612.841	31016.35
613.198	31092.28
613.554	31232.38
613.911	31683.22
614.267	31755.54
614.624	31942.2
614.98	32036.66
615.337	32402.3
615.693	32414.27
616.05	32494.05
616.406	32870.99
616.762	32866.92
617.118	33049.96
617.475	33005.9
617.831	33405.66
618.187	33450.41
618.543	33729.72
618.899	33915.25
619.255	34044.97
619.611	33994.35
619.967	34251.97
620.323	34270.27
620.678	34178.75
621.034	34349.59
621.39	34549.36
621.746	34667.55
622.101	34997.48
622.457	34828.45
622.812	35061.89
623.168	35313.63
623.523	35137.59
623.879	35469.56
624.234	35346.18
624.589	35545.27
624.945	35680.63
625.3	35807.86
625.655	35827.07
626.01	35662.1
626.365	35899.61
626.72	36068.64
627.075	35924.01
627.43	36036.55
627.785	36046.27
628.14	36239.94
628.495	36383.89
628.85	36267.28
629.205	36176.21
629.559	36526.03
629.914	36501.17
630.269	36605.13
630.623	36422.98
630.978	36461.4
631.332	36660.49
631.687	36721.51
632.041	36608.06
632.396	36643.32
632.75	36571.45
633.104	36629.53
633.459	36557.22
633.813	36608.06
634.167	36673.6
634.521	36747.04
634.875	36723.99
635.229	36790.66
635.583	36672.92
635.937	36772.58
636.291	36709.98
636.645	36641.06
636.999	36719.7
637.352	36840.6
637.706	36657.1
638.06	36753.6
638.413	36688.06
638.767	36513.15
639.121	36636.31
639.474	36601.96
639.828	36538.69
640.181	36770.32
640.534	36759.92
640.888	36626.82
641.241	36465.92
641.594	36592.24
641.947	36705.46
642.301	36576.88
642.654	36652.13
643.007	36670.89
643.36	36606.71
643.713	36476.77
644.066	36615.07
644.419	36326.26
644.771	36207.62
645.124	35969.89
645.477	35938.93
645.83	35724.47
646.182	35596.79
646.535	35504.59
646.888	35519.96
647.24	35307.08
647.593	35590.91
647.945	35534.42
648.298	35399.73
648.65	35230.47
649.002	35316.12
649.355	35354.76
649.707	35307.76
650.059	35490.58
650.411	35858.48
650.763	35907.74
651.115	36412.81
651.467	36270.9
651.819	36200.62
652.171	36272.93
652.523	36040.17
652.875	36036.1
653.227	35957.23
653.578	36171.46
653.93	36046.04
654.282	35876.33
654.633	35952.94
654.985	36008.76
655.337	36074.29
655.688	36035.87
656.039	36135.76
656.391	35797.46
656.742	35971.7
657.094	35819.16
657.445	35994.75
657.796	35874.52
658.147	35765.83
658.498	35817.8
658.849	35812.38
659.2	35790.23
659.551	35790.91
659.902	35902.77
660.253	35769.44
660.604	35917.46
660.955	35727.41
661.306	35970.11
661.656	35761.98
662.007	35689.67
662.358	35878.36
662.708	35677.24
663.059	35752.04
663.409	35654.64
663.76	35841.53
664.11	35878.82
664.461	35806.28
664.811	35890.57
665.161	35810.12
665.511	35799.04
665.862	35766.05
666.212	35896.44
666.562	35867.07
666.912	35741.19
667.262	35686.73
667.612	35700.97
667.962	35672.49
668.312	35622.33
668.662	35847.4
669.011	35755.2
669.361	35636.34
669.711	35699.84
670.06	35623.23
670.41	35628.88
670.76	35400.86
671.109	35637.69
671.459	35554.76
671.808	35522.22
672.157	35656
672.507	35371.26
672.856	35476.34
673.205	35462.33
673.554	35379.39
673.904	35497.58
674.253	35657.81
674.602	35498.04
674.951	35007.65
675.3	34720.88
675.649	35351.15
675.998	35314.76
676.346	35253.97
676.695	35443.8
677.044	35198.38
677.393	35358.15
677.741	35440.64
678.09	35242
678.438	35117.71
678.787	35291.49
679.135	35235.44
679.484	35016.92
679.832	35006.98
680.181	34966.52
680.529	35080.19
680.877	34932.4
681.225	34900.54
681.573	35109.8
681.922	34833.87
682.27	34767.89
682.618	34723.82
682.966	34673.65
683.314	34856.7
683.661	34689.24
684.009	34454.22
684.357	34563.37
684.705	34443.83
685.053	34487.21
685.4	34323.83
685.748	34268.46
686.095	34205.41
686.443	34163.83
686.79	34059.66
687.138	34099.65
687.485	34198.41
687.832	33930.17
688.18	33991.63
688.527	33903.95
688.874	33902.6
689.221	33725.2
689.568	33680.23
689.915	33621.25
690.262	33680.68
690.609	33474.36
690.956	33233.46
691.303	33292.22
691.65	33232.56
691.997	33230.07
692.344	33067.36
692.69	33052.45
693.037	32951.21
693.383	32683.65
693.73	32917.54
694.077	32689.52
694.423	32740.59
694.769	32621.28
695.116	32550.54
695.462	32560.94
695.808	32374.5
696.155	32471.45
696.501	32067.62
696.847	32158.69
697.193	31997.56
697.539	32080.5
697.885	31842.31
698.231	31760.51
698.577	31753.05
698.923	31597.35
699.269	31467.41
699.614	31304.02
699.96	31231.71
700.306	31249.33
700.651	31213.4
700.997	31184.93
701.342	31001.2
701.688	31010.47
702.033	30958.95
702.379	30860.64
702.724	30791.49
703.069	30838.05
703.415	30515.57
703.76	30463.14
704.105	30598.5
704.45	30436.25
704.795	30295.69
705.14	30312.86
705.485	30244.84
705.83	30198.97
706.175	30074.22
706.52	29923.94
706.865	29870.39
707.209	29892.08
707.554	29685.76
707.899	29834.23
708.243	29651.18
708.588	29698.64
708.932	29375.26
709.277	29457.52
709.621	29419.55
709.966	29254.13
710.31	29327.58
710.654	29029.73
710.998	29155.83
711.342	29147.24
711.687	28938.21
712.031	28753.13
712.375	28792
712.719	28866.35
713.063	28660.02
713.407	28880.36
713.75	28718.55
714.094	28670.19
714.438	28507.94
714.782	28577.54
715.125	28432.91
715.469	28497.09
715.812	28360.14
716.156	28184.1
716.499	28301.61
716.843	28274.95
717.186	28089.64
717.53	28198.79
717.873	28091.9
718.216	28172.8
718.559	27919.25
718.902	27831.34
719.246	27825.69
719.589	27759.03
719.932	27669.54
720.275	27682.2
720.617	27574.18
720.96	27593.38
721.303	27499.6
721.646	27560.39
721.989	27275.43
722.331	27428.64
722.674	27422.77
723.016	27405.14
723.359	27245.6
723.701	27213.28
724.044	27265.26
724.386	26996.34
724.729	27171.47
725.071	26943.01
725.413	26985.27
725.755	27091.48
726.097	26915.44
726.439	26733.75
726.782	26781.88
727.124	26963.8
727.465	26799.51
727.807	26788.89
728.149	26672.96
728.491	26540.3
728.833	26673.86
729.175	26570.59
729.516	26519.06
729.858	26467.76
730.199	26513.64
730.541	26416.24
730.882	26348.9
731.224	26499.63
731.565	26308.45
731.906	26320.65
732.248	26225.29
732.589	26224.61
732.93	25987.55
733.271	26030.71
733.612	26079.07
733.953	26109.13
734.294	25896.48
734.635	25789.36
734.976	25892.64
735.317	25869.14
735.658	25799.53
735.999	25801.79
736.339	25708.69
736.68	25780.1
737.021	25575.58
737.361	25616.71
737.702	25748.24
738.042	25620.1
738.383	25460.33
738.723	25675.47
739.063	25448.81
739.404	25536.49
739.744	25516.83
740.084	25233.22
740.424	25385.31
740.764	25298.3
741.104	25350.96
741.444	25286.78
741.784	25210.4
742.124	25174.24
742.464	25226.67
742.804	25197.97
743.143	25018.54
743.483	25068.48
743.823	25029.16
744.162	25001.59
744.502	24962.04
744.841	24835.04
745.181	24885.66
745.52	24762.72
745.86	24964.98
746.199	24832.1
746.538	24739.9
746.877	24807.92
747.216	24696.96
747.556	24600.24
747.895	24722.05
748.234	24588.72
748.573	24608.15
748.911	24484.99
749.25	24529.06
749.589	24404.54
749.928	24456.07
750.267	24507.36
750.605	24374.49
750.944	24230.08
751.283	24204.55
751.621	24336.52
751.96	24125.45
752.298	24265.11
752.636	24126.81
752.975	24070.54
753.313	23979.47
753.651	24048.17
753.989	23890.88
754.327	23935.63
754.666	23704
755.004	23860.83
755.342	23692.24
755.679	23705.58
756.017	23581.29
756.355	23713.71
756.693	23513.27
757.031	23576.77
757.368	23450.89
757.706	23527.73
758.044	23431.69
758.381	23322.54
758.719	23321.63
759.056	23355.08
759.394	23224.23
759.731	23015.2
760.068	23004.35
760.405	23000.96
760.743	22868.76
761.08	22962.32
761.417	22842.78
761.754	22715.09
762.091	22693.63
762.428	22718.94
762.765	22495.21
763.102	22651.59
763.438	22446.4
763.775	22353.75
764.112	22318.95
764.449	22351.71
764.785	22348.32
765.122	22038.05
765.458	22081.89
765.795	21926.41
766.131	22047.99
766.467	21788.79
766.804	21861.11
767.14	21681
767.476	21697.72
767.812	21756.02
768.148	21723.03
768.485	21472.19
768.821	21455.01
769.157	21317.17
769.492	21342.25
769.828	21213.67
770.164	21132.99
770.5	21014.35
770.836	21075.36
771.171	20914.01
771.507	20795.15
771.842	20737.07
772.178	20629.73
772.513	20723.96
772.849	20721.47
773.184	20496.62
773.519	20487.81
773.855	20396.29
774.19	20239.45
774.525	20349.96
774.86	20158.55
775.195	20156.29
775.53	20108.61
775.865	19833.36
776.2	19859.12
776.535	19627.72
776.87	19713.37
777.205	19631.79
777.539	19458.46
777.874	19585.91
778.209	19397.22
778.543	19355.86
778.878	19298.24
779.212	19282.64
779.547	19140.95
779.881	19232.02
780.215	19006.94
780.55	19075.19
780.884	18960.39
781.218	18890.34
781.552	18919.94
781.886	18743.67
782.22	18696.67
782.554	18624.81
782.888	18440.86
783.222	18468.65
783.556	18370.12
783.889	18135.33
784.223	18129.23
784.557	18115.89
784.89	18219.62
785.224	18078.83
785.557	17903.92
785.891	17957.71
786.224	17875.22
786.558	17859.86
786.891	17607.21
787.224	17624.38
787.557	17575.34
787.891	17557.04
788.224	17485.85
788.557	17468.23
788.89	17397.95
789.223	17427.32
789.556	17155.24
789.888	17190.27
790.221	17200.21
790.554	17077.05
790.887	16994.79
791.219	16911.41
791.552	16990.05
791.884	16862.37
792.217	16836.61
792.549	16777.4
792.882	16606.78
793.214	16585.76
793.546	16558.65
793.879	16487.24
794.211	16380.12
794.543	16360.01
794.875	16291.99
795.207	16323.4
795.539	16169.96
795.871	16214.93
796.203	16076.63
796.535	15960.7
796.867	15990.07
797.198	15976.97
797.53	15993.24
797.862	15813.58
798.193	15837.76
798.525	15746.24
798.856	15809.29
799.188	15618.78
799.519	15545.79
799.85	15505.11
800.182	15470.77
800.513	15466.02
800.844	15364.33
801.175	15453.59
801.506	15429.41
801.837	15374.5
802.168	15143.32
802.499	15312.58
802.83	15092.02
803.161	15087.95
803.491	15085.46
803.822	15068.74
804.153	14903.55
804.483	14887.28
804.814	14798.01
805.145	14706.04
805.475	14826.94
805.805	14725.93
806.136	14651.8
806.466	14687.06
806.796	14575.87
807.126	14403.9
807.457	14506.27
807.787	14510.79
808.117	14484.58
808.447	14408.87
808.777	14388.99
809.107	14256.79
809.436	14281.64
809.766	14248.65
810.096	14217.24
810.426	14160.07
810.755	14151.03
811.085	14167.3
811.414	14145.38
811.744	13956.68
812.073	13991.71
812.403	13941.09
812.732	13887.08
813.061	13847.31
813.39	13761.21
813.719	13807.53
814.049	13851.15
814.378	13777.25
814.707	13631.94
815.036	13639.63
815.365	13654.32
815.693	13483.02
816.022	13515.56
816.351	13455.23
816.68	13354.66
817.008	13433.3
817.337	13359.63
817.665	13270.37
817.994	13353.08
818.322	13318.05
818.651	13309.47
818.979	13150.6
819.307	13172.97
819.636	13141.11
819.964	13034.45
820.292	13211.84
820.62	13152.86
820.948	13078.74
821.276	13109.7
821.604	13083.94
821.932	13095.23
822.259	13077.38
822.587	13089.59
822.915	12971.4
823.243	13102.92
823.57	12976.82
823.898	13043.48
824.225	13021.34
824.553	12981.34
824.88	12961
825.207	13044.61
825.535	13024.05
825.862	13052.3
826.189	12977.95
826.516	12912.87
826.843	13069.47
827.17	13059.3
827.497	13032.64
827.824	12959.42
828.151	13044.39
828.478	13049.36
828.805	13054.56
829.131	12951.06
829.458	12941.11
829.785	12920.78
830.111	12860.89
830.438	13054.11
830.764	12984.05
831.09	13070.83
831.417	12821.34
831.743	13007.33
832.069	13004.39
832.395	12862.02
832.722	13048.68
833.048	12880.33
833.374	12908.12
833.7	12818.41
834.026	12841.91
834.351	12834.22
834.677	12885.3
835.003	12880.55
835.329	12858.63
835.654	12756.03
835.98	12736.37
836.306	12741.35
836.631	12714.68
836.956	12748.8
837.282	12734.57
837.607	12703.61
837.932	12661.12
838.258	12731.85
838.583	12621.8
838.908	12538.87
839.233	12572.54
839.558	12588.36
839.883	12511.3
840.208	12446.66
840.533	12496.15
840.858	12482.82
841.182	12394.01
841.507	12459.32
841.832	12380
842.156	12340.9
842.481	12338.42
842.805	12313.56
843.13	12280.57
843.454	12259.55
843.778	12173.68
844.103	12183.62
844.427	12130.97
844.751	12179.1
845.075	12075.37
845.399	12069.95
845.723	12020.23
846.047	12081.93
846.371	11939.11
846.695	11863.4
847.019	11841.26
847.343	11796.29
847.666	11731.88
847.99	11693.01
848.313	11686.91
848.637	11568.95
848.96	11530.08
849.284	11560.81
849.607	11475.39
849.931	11442.62
850.254	11268.84
850.577	11252.57
850.9	11223.65
851.223	11234.04
851.546	11156.3
851.869	11053.93
852.192	11155.4
852.515	11034.5
852.838	11058.23
853.161	11036.08
853.483	10917.21
853.806	10848.74
854.129	10873.82
854.451	10846.03
854.774	10719.03
855.096	10741.17
855.419	10719.03
855.741	10802.87
856.063	10656.88
856.385	10634.51
856.708	10590.22
857.03	10608.07
857.352	10546.83
857.674	10523.32
857.996	10495.53
858.318	10424.34
858.64	10375.98
858.961	10373.95
859.283	10374.63
859.605	10298.02
859.926	10302.99
860.248	10324.46
860.57	10247.4
860.891	10156.1
861.212	10194.75
861.534	10158.36
861.855	10079.95
862.176	10168.31
862.498	10166.27
862.819	10131.7
863.14	10062.09
863.461	10036.56
863.782	9970.35
864.103	10014.41
864.424	9961.53
864.745	10004.92
865.065	9941.65
865.386	9877.47
865.707	9942.1
866.027	9913.62
866.348	9864.36
866.668	9856.9
866.989	9879.73
867.309	9697.13
867.63	9775.77
867.95	9765.38
868.27	9763.12
868.59	9778.49
868.91	9707.75
869.23	9721.76
869.55	9650.35
869.87	9668.88
870.19	9665.04
870.51	9684.48
870.83	9630.24
871.15	9634.08
871.469	9557.93
871.789	9652.16
872.109	9601.32
872.428	9528.1
872.748	9606.74
873.067	9513.18
873.386	9549.79
873.706	9442
874.025	9450.81
874.344	9425.05
874.663	9498.04
874.982	9439.51
875.301	9390.25
875.62	9450.36
875.939	9386.86
876.258	9363.81
876.577	9277.48
876.896	9341.44
877.214	9287.88
877.533	9352.06
877.852	9321.77
878.17	9339.4
878.489	9278.61
878.807	9288.33
879.125	9235.45
879.444	9181.89
879.762	9179.41
880.08	9188.67
880.398	9155.68
880.716	9191.16
881.034	9182.34
881.352	9157.94
881.67	9145.28
881.988	9103.7
882.306	9085.62
882.624	8999.98
882.941	9006.3
883.259	9009.92
883.577	9028
883.894	8922.24
884.212	8921.56
884.529	8955.46
884.846	8850.83
885.164	8880.88
885.481	8831.39
885.798	8846.98
886.115	8820.77
886.432	8734.9
886.75	8686.54
887.067	8788
887.383	8698.74
887.7	8742.58
888.017	8715.01
888.334	8703.71
888.651	8628.01
888.967	8609.25
889.284	8605.64
889.6	8512.76
889.917	8518.63
890.233	8552.08
890.55	8530.16
890.866	8517.95
891.182	8412.87
891.498	8471.63
891.815	8369.26
892.131	8408.13
892.447	8376.26
892.763	8270.5
893.079	8238.64
893.395	8310.28
893.71	8255.81
894.026	8246.1
894.342	8186.66
894.657	8162.71
894.973	8153.44
895.289	8083.16
895.604	8087
895.92	8051.98
896.235	8030.74
896.55	8037.51
896.865	7980.34
897.181	8003.39
897.496	7949.61
897.811	7852.43
898.126	7816.5
898.441	7798.2
898.756	7816.5
899.071	7796.84
899.386	7824.19
899.7	7737.64
900.015	7666.45
900.33	7677.3
900.644	7654.93
900.959	7628.26
901.273	7618.77
901.588	7588.26
901.902	7583.74
902.216	7502.84
902.531	7485.89
902.845	7418.55
903.159	7452.67
903.473	7357.53
903.787	7374.26
904.101	7305.1
904.415	7317.76
904.729	7340.13
905.042	7312.34
905.356	7218.55
905.67	7259.46
905.984	7237.76
906.297	7186.24
906.611	7158.22
906.924	7124.32
907.237	7102.85
907.551	7075.28
907.864	7069.18
908.177	7076.86
908.491	7013.13
908.804	6915.06
909.117	6950.76
909.43	6900.6
909.743	6878
910.056	6851.11
910.368	6832.57
910.681	6860.14
910.994	6765.91
911.307	6763.42
911.619	6690.43
911.932	6697.44
912.244	6634.39
912.557	6712.13
912.869	6625.57
913.181	6511
913.494	6586.25
913.806	6578.12
914.118	6499.7
914.43	6465.8
914.742	6438.01
915.054	6421.06
915.366	6424.68
915.678	6373.38
915.99	6346.71
916.302	6361.63
916.613	6281.63
916.925	6294.51
917.236	6277.79
917.548	6184.23
917.859	6213.16
918.171	6160.95
918.482	6149.88
918.794	6135.87
919.105	6124.12
919.416	6047.06
919.727	6030.79
920.038	6040.73
920.349	5978.59
920.66	5953.5
920.971	5917.34
921.282	5968.64
921.593	5852.26
921.903	5828.31
922.214	5796.22
922.525	5838.25
922.835	5804.13
923.146	5814.52
923.456	5733.85
923.767	5710.12
924.077	5723.23
924.387	5688.42
924.697	5594.64
925.008	5610.69
925.318	5624.92
925.628	5604.13
925.938	5579.5
926.248	5518.03
926.558	5478.26
926.867	5511.71
927.177	5450.69
927.487	5457.24
927.796	5374.53
928.106	5414.31
928.416	5388.54
928.725	5379.51
929.034	5312.84
929.344	5286.85
929.653	5330.02
929.962	5273.07
930.271	5200.08
930.581	5212.28
930.89	5176.57
931.199	5167.31
931.508	5135.22
931.817	5175.67
932.125	5170.92
932.434	5060.42
932.743	5066.29
933.051	5008.67
933.36	5034.88
933.669	5023.81
933.977	4977.26
934.286	4935.45
934.594	4945.39
934.902	4909.24
935.21	4877.82
935.519	4874.66
935.827	4870.37
936.135	4824.04
936.443	4788.11
936.751	4802.35
937.059	4808.67
937.367	4742.46
937.674	4768.22
937.982	4707.21
938.29	4681.9
938.597	4688.45
938.905	4641.9
939.213	4651.16
939.52	4622.01
939.827	4653.2
940.135	4554.44
940.442	4569.58
940.749	4569.81
941.056	4548.79
941.363	4455.46
941.67	4520.09
941.977	4447.78
942.284	4412.53
942.591	4412.75
942.898	4424.95
943.205	4442.81
943.511	4316.71
943.818	4346.31
944.125	4339.08
944.431	4299.99
944.738	4318.06
945.044	4272.19
945.35	4234.45
945.657	4243.04
945.963	4214.79
946.269	4184.51
946.575	4165.07
946.881	4173.21
947.187	4151.06
947.493	4144.06
947.799	4112.42
948.105	4123.27
948.41	4049.82
948.716	4056.38
949.022	4013.67
949.327	4051.4
949.633	3982.71
949.938	3992.42
950.244	3963.27
950.549	3961.24
950.854	3930.28
951.16	3902.03
951.465	3916.27
951.77	3892.99
952.075	3841.01
952.38	3842.37
952.685	3839.66
952.99	3829.94
953.294	3796.04
953.599	3754.24
953.904	3736.16
954.209	3745.42
954.513	3723.28
954.818	3704.75
955.122	3698.42
955.426	3692.32
955.731	3676.73
956.035	3652.32
956.339	3655.71
956.643	3626.78
956.948	3619.55
957.252	3573.23
957.556	3588.59
957.86	3587.24
958.163	3583.17
958.467	3559.67
958.771	3520.57
959.075	3524.86
959.378	3493.91
959.682	3466.56
959.985	3461.59
960.289	3423.4
960.592	3440.8
960.896	3411.2
961.199	3401.48
961.502	3377.98
961.805	3389.05
962.108	3365.77
962.411	3379.56
962.714	3335.27
963.017	3333.91
963.32	3321.03
963.623	3247.36
963.926	3252.78
964.228	3262.27
964.531	3253.23
964.833	3212.78
965.136	3204.65
965.438	3202.61
965.741	3209.17
966.043	3167.81
966.345	3184.53
966.648	3144.99
966.95	3174.37
967.252	3137.3
967.554	3115.84
967.856	3104.99
968.158	3071.32
968.46	3068.61
968.761	3043.3
969.063	2984.77
969.365	3014.37
969.666	3066.57
969.968	2974.82
970.269	2992.45
970.571	2967.59
970.872	2995.39
971.174	2919.91
971.475	2900.25
971.776	2943.19
972.077	2943.41
972.378	2930.3
972.679	2882.62
972.98	2881.94
973.281	2887.37
973.582	2882.17
973.883	2830.19
974.183	2836.52
974.484	2817.09
974.785	2823.19
975.085	2785.45
975.386	2766.01
975.686	2759.24
975.986	2752.23
976.287	2770.53
976.587	2709.29
976.887	2717.65
977.187	2714.26
977.487	2725.34
977.787	2684.21
978.087	2678.56
978.387	2685.11
978.687	2664.1
978.987	2660.25
979.286	2622.06
979.586	2608.96
979.885	2609.41
980.185	2592.23
980.484	2554.04
980.784	2572.57
981.083	2537.55
981.382	2548.17
981.682	2549.75
981.981	2507.26
982.28	2484.89
982.579	2479.92
982.878	2489.64
983.177	2497.55
983.475	2511.56
983.774	2452.35
984.073	2417.55
984.372	2462.97
984.67	2454.38
984.969	2453.48
985.267	2394.5
985.566	2421.17
985.864	2385.46
986.162	2375.74
986.461	2365.57
986.759	2345.91
987.057	2352.01
987.355	2351.11
987.653	2313.37
987.951	2288.97
988.249	2289.64
988.547	2307.95
988.844	2286.25
989.142	2241.73
989.44	2259.14
989.737	2269.53
990.035	2232.47
990.332	2226.82
990.63	2232.92
990.927	2215.97
991.224	2188.4
991.521	2207.84
991.819	2234.96
992.116	2201.06
992.413	2179.82
992.71	2157.22
993.006	2159.25
993.303	2094.39
993.6	2138.23
993.897	2131.23
994.193	2116.31
994.49	2107.95
994.787	2093.26
995.083	2050.78
995.379	2106.82
995.676	2053.49
995.972	2024.11
996.268	2052.59
996.565	2029.76
996.861	2035.64
997.157	1999.71
997.453	2010.78
997.749	2007.39
998.044	1988.18
998.34	1940.5
998.636	1949.09
998.932	1934.17
999.227	1918.81
999.523	1950.67
999.818	1936.43
1000.114	1938.69
1000.409	1912.93
1000.704	1909.54
1001	1893.95
1001.295	1902.53
1001.59	1863.21
1001.885	1889.65
1002.18	1841.07
1002.475	1824.8
1002.77	1841.97
1003.065	1800.16
1003.359	1815.98
1003.654	1822.54
1003.949	1779.6
1004.243	1759.49
1004.538	1758.13
1004.832	1771.69
1005.127	1773.27
1005.421	1751.8
1005.715	1735.31
1006.009	1726.95
1006.304	1706.83
1006.598	1712.26
1006.892	1706.61
1007.186	1682.65
1007.48	1650.34
1007.773	1659.38
1008.067	1625.25
1008.361	1609.44
1008.655	1638.13
1008.948	1630
1009.242	1592.26
1009.535	1604.46
1009.829	1608.08
1010.122	1581.64
1010.415	1580.51
1010.708	1581.64
1011.001	1599.94
1011.295	1560.62
1011.588	1556.56
1011.881	1531.47
1012.173	1559.72
1012.466	1512.26
1012.759	1506.39
1013.052	1520.17
1013.344	1506.61
1013.637	1498.25
1013.93	1496.67
1014.222	1469.33
1014.514	1490.34
1014.807	1456.67
1015.099	1463.22
1015.391	1435.88
1015.683	1425.71
1015.976	1438.59
1016.268	1392.49
1016.56	1389.33
1016.851	1412.15
1017.143	1423.23
1017.435	1405.15
1017.727	1375.99
1018.018	1391.59
1018.31	1350.91
1018.602	1361.08
1018.893	1343.45
1019.185	1365.37
1019.476	1331.02
1019.767	1338.71
1020.058	1307.3
1020.35	1285.15
1020.641	1283.57
1020.932	1289.9
1021.223	1260.52
1021.514	1262.33
1021.804	1264.59
1022.095	1295.32
1022.386	1250.57
1022.677	1249.9
1022.967	1229.78
1023.258	1237.47
1023.548	1216
1023.839	1188.43
1024.129	1174.87
1024.419	1203.8
1024.709	1184.36
1025	1193.4
1025.29	1165.6
1025.58	1174.87
1025.87	1137.58
1026.16	1153.4
1026.449	1126.74
1026.739	1144.81
1027.029	1121.54
1027.319	1117.7
1027.608	1091.93
1027.898	1077.25
1028.187	1085.83
1028.477	1112.05
1028.766	1079.05
1029.055	1098.26
1029.344	1076.79
1029.634	1067.75
1029.923	1066.85
1030.212	1076.57
1030.501	1069.79
1030.79	1046.96
1031.078	1057.36
1031.367	1010.35
1031.656	1026.4
1031.945	1029.79
1032.233	993.41
1032.522	993.18
1032.81	986.63
1033.099	984.14
1033.387	1028.66
1033.675	981.88
1033.963	964.71
1034.251	971.03
1034.54	946.85
1034.828	939.17
1035.116	947.08
1035.403	926.52
1035.691	925.84
1035.979	926.74
1036.267	907.53
1036.554	924.71
1036.842	925.61
1037.129	904.59
1037.417	904.82
1037.704	887.65
1037.992	899.85
1038.279	884.71
1038.566	881.32
1038.853	881.32
1039.14	881.32
