Data from hue_280_FLMS001491_00016.txt Node
Date: Tue Feb 07 15:54:54 GMT 2017
User: dcchb
Spectrometer: FLMS00149
Trigger mode: 0
Integration Time (sec): 2.000000E-2
Scans to average: 10
Electric dark correction enabled: true
Nonlinearity correction enabled: false
Boxcar width: 0
XAxis mode: Wavelengths
Number of Pixels in Spectrum: 2048
>>>>>Begin Spectral Data<<<<<
341.393	-11.43
341.776	-11.43
342.16	-11.43
342.543	-55.49
342.927	-72.67
343.31	-61.14
343.693	-71.76
344.077	-52.33
344.46	-61.59
344.843	-65.21
345.226	-36.74
345.61	-14.36
345.993	-36.74
346.376	-8.94
346.759	7.1
347.142	29.93
347.525	28.35
347.908	52.07
348.291	87.33
348.674	87.1
349.057	116.93
349.44	111.73
349.823	139.53
350.206	161.22
350.588	196.25
350.971	210.94
351.354	232.64
351.737	229.7
352.119	251.84
352.502	253.65
352.884	267.21
353.267	264.27
353.65	286.42
354.032	293.2
354.414	305.18
354.797	312.63
355.179	328
355.562	300.88
355.944	316.25
356.326	297.72
356.709	327.77
357.091	324.16
357.473	337.49
357.855	339.07
358.238	344.95
358.62	350.37
359.002	353.54
359.384	332.75
359.766	327.77
360.148	335.01
360.53	327.1
360.912	339.75
361.294	315.57
361.676	322.12
362.057	313.99
362.439	329.81
362.821	338.85
363.203	331.84
363.584	332.29
363.966	331.16
364.348	325.51
364.729	304.27
365.111	317.15
365.493	332.07
365.874	306.08
366.256	331.84
366.637	330.03
367.019	299.98
367.4	318.73
367.781	307.44
368.163	316.47
368.544	300.2
368.925	317.15
369.306	329.36
369.688	289.36
370.069	306.53
370.45	307.44
370.831	314.89
371.212	317.38
371.593	313.08
371.974	310.83
372.355	309.24
372.736	320.99
373.117	316.02
373.498	306.53
373.879	308.57
374.26	308.79
374.641	307.66
375.021	303.14
375.402	327.55
375.783	328.23
376.163	330.94
376.544	323.48
376.925	318.73
377.305	332.52
377.686	329.36
378.066	316.47
378.447	311.28
378.827	327.55
379.208	332.52
379.588	330.03
379.968	330.71
380.349	339.98
380.729	335.01
381.109	334.78
381.489	319.86
381.87	355.8
382.25	340.65
382.63	344.95
383.01	344.27
383.39	339.52
383.77	341.11
384.15	336.59
384.53	340.2
384.91	331.84
385.29	359.86
385.67	351.95
386.049	343.59
386.429	350.37
386.809	363.03
387.189	348.11
387.568	346.08
387.948	358.28
388.328	351.28
388.707	359.19
389.087	345.85
389.466	361.22
389.846	361.45
390.225	360.77
390.605	355.8
390.984	369.13
391.363	366.42
391.743	365.96
392.122	372.29
392.501	404.61
392.881	381.33
393.26	373.65
393.639	370.48
394.018	376.13
394.397	383.37
394.776	402.8
395.155	390.82
395.534	387.43
395.913	405.74
396.292	391.73
396.671	387.89
397.05	410.48
397.429	411.16
397.808	404.16
398.186	400.54
398.565	408.22
398.944	429.01
399.323	424.04
399.701	403.03
400.08	401.22
400.458	410.03
400.837	416.59
401.215	438.05
401.594	454.78
401.972	422.01
402.351	462.69
402.729	436.02
403.107	452.74
403.486	441.44
403.864	450.26
404.242	436.02
404.62	447.09
404.999	449.8
405.377	460.88
405.755	460.2
406.133	471.05
406.511	470.59
406.889	460.43
407.267	480.54
407.645	494.55
408.023	473.08
408.401	482.57
408.779	502.68
409.156	494.55
409.534	508.33
409.912	505.85
410.29	495.45
410.667	526.41
411.045	526.86
411.422	572.74
411.8	546.98
412.178	545.4
412.555	545.62
412.933	559.41
413.31	553.76
413.687	588.56
414.065	621.55
414.442	597.15
414.819	599.63
415.197	619.07
415.574	603.02
415.951	626.07
416.328	616.13
416.705	660.19
417.082	650.48
417.46	652.96
417.837	656.8
418.214	666.75
418.591	667.2
418.967	684.83
419.344	686.86
419.721	720.08
420.098	716.24
420.475	723.24
420.852	718.27
421.228	742.9
421.605	737.93
421.982	733.64
422.358	760.53
422.735	774.32
423.111	782.23
423.488	779.06
423.864	775.22
424.241	828.78
424.617	825.61
424.994	850.92
425.37	838.49
425.746	871.26
426.123	873.97
426.499	854.77
426.875	899.28
427.251	887.31
427.627	892.05
428.003	912.17
428.379	941.32
428.756	911.49
429.132	949.68
429.507	940.64
429.883	969.34
430.259	991.71
430.635	970.92
431.011	976.57
431.387	1030.81
431.763	1021.54
432.138	1054.08
432.514	1043.24
432.89	1058.15
433.265	1068.32
433.641	1106.28
434.016	1131.82
434.392	1124.14
434.767	1139.5
435.143	1134.08
435.518	1160.07
435.894	1180.41
436.269	1188.54
436.644	1218.82
437.02	1224.47
437.395	1228.09
437.77	1269.44
438.145	1280.52
438.52	1304.92
438.895	1297.69
439.271	1313.51
439.646	1362.1
440.021	1356.9
440.395	1369.78
440.77	1312.38
441.145	1384.92
441.52	1365.26
441.895	1377.01
442.27	1377.24
442.645	1383.34
443.019	1409.1
443.394	1395.32
443.769	1444.35
444.143	1422.66
444.518	1476.44
444.892	1456.33
445.267	1465.6
445.641	1503.11
446.016	1481.64
446.39	1508.31
446.764	1511.02
447.139	1519.38
447.513	1535.43
447.887	1526.61
448.262	1503.79
448.636	1544.24
449.01	1555.76
449.384	1572.94
449.758	1577.91
450.132	1587.4
450.506	1564.35
450.88	1605.03
451.254	1603.22
451.628	1603.67
452.002	1645.25
452.376	1620.4
452.75	1685.7
453.123	1683.9
453.497	1665.59
453.871	1710.34
454.244	1713.95
454.618	1720.05
454.992	1765.7
455.365	1768.87
455.739	1792.14
456.112	1849.77
456.486	1790.11
456.859	1819.03
457.232	1855.64
457.606	1803.89
457.979	1862.87
458.352	1894.29
458.725	1886.15
459.099	1916.88
459.472	1956.21
459.845	1953.95
460.218	1946.71
460.591	1968.86
460.964	2009.31
461.337	2026.03
461.71	2033.49
462.083	2059.48
462.456	2077.56
462.829	2058.58
463.201	2106.94
463.574	2101.96
463.947	2138.12
464.32	2191.23
464.692	2189.87
465.065	2191
465.438	2208.4
465.81	2270.1
466.183	2258.12
466.555	2303.54
466.928	2319.59
467.3	2298.57
467.672	2357.55
468.045	2392.8
468.417	2407.27
468.789	2373.82
469.161	2415.63
469.534	2453.59
469.906	2485.01
470.278	2529.75
470.65	2530.65
471.022	2596.87
471.394	2613.36
471.766	2640.93
472.138	2622.85
472.51	2684.55
472.882	2724.32
473.253	2730.42
473.625	2777.88
473.997	2799.35
474.369	2825.56
474.74	2833.7
475.112	2889.29
475.484	2901.04
475.855	2935.39
476.227	2996.18
476.598	3042.05
476.97	3077.53
477.341	3119.34
477.713	3156.85
478.084	3172.9
478.455	3241.37
478.827	3276.62
479.198	3322.27
479.569	3324.31
479.94	3402.04
480.311	3416.28
480.682	3479.1
481.053	3559.55
481.424	3574.24
481.795	3610.63
482.166	3645.65
482.537	3714.58
482.908	3743.5
483.279	3772.66
483.65	3798.87
484.021	3892.88
484.391	3932.42
484.762	3941.69
485.133	3942.37
485.503	3976.27
485.874	4078.64
486.244	4109.82
486.615	4164.06
486.985	4227.33
487.356	4237.95
487.726	4303.94
488.097	4333.77
488.467	4384.16
488.837	4399.31
489.207	4411.06
489.578	4515.46
489.948	4505.74
490.318	4533.99
490.688	4605.4
491.058	4631.84
491.428	4710.48
491.798	4731.95
492.168	4790.71
492.538	4801.1
492.908	4854.21
493.278	4892.4
493.648	4884.49
494.017	4945.96
494.387	4966.07
494.757	5041.1
495.126	5091.04
495.496	5081.77
495.866	5138.27
496.235	5129.23
496.605	5203.8
496.974	5226.63
497.344	5227.98
497.713	5243.12
498.082	5300.07
498.452	5342.78
498.821	5342.78
499.19	5305.27
499.559	5399.05
499.928	5419.62
500.298	5428.88
500.667	5462.78
501.036	5461.42
501.405	5489.67
501.774	5526.96
502.143	5576.45
502.512	5542.1
502.88	5595.21
503.249	5555.21
503.618	5607.18
503.987	5640.63
504.356	5690.57
504.724	5644.24
505.093	5689.21
505.462	5694.19
505.83	5760.85
506.199	5811.7
506.567	5823.67
506.936	5798.59
507.304	5884.01
507.672	5864.13
508.041	5880.62
508.409	5940.51
508.777	5979.15
509.145	5975.31
509.514	5959.04
509.882	5965.14
510.25	6030.9
510.618	6037
510.986	6089.88
511.354	6110.67
511.722	6088.98
512.09	6147.51
512.458	6133.5
512.826	6192.03
513.193	6208.52
513.561	6201.07
513.929	6243.1
514.297	6237.22
514.664	6269.99
515.032	6271.35
515.4	6353.83
515.767	6339.14
516.135	6308.86
516.502	6292.36
516.869	6445.81
517.237	6358.12
517.604	6430.66
517.972	6420.72
518.339	6448.74
518.706	6439.93
519.073	6496.2
519.44	6471.57
519.808	6559.93
520.175	6475.18
520.542	6587.72
520.909	6616.42
521.276	6619.13
521.643	6655.07
522.009	6713.59
522.376	6702.97
522.743	6693.93
523.11	6766.25
523.477	6781.39
523.843	6902.52
524.21	6916.08
524.577	6882.63
524.943	6892.57
525.31	6921.05
525.676	6945
526.043	6975.51
526.409	6990.88
526.776	7083.98
527.142	7047.15
527.508	7104.32
527.874	7180.7
528.241	7179.8
528.607	7197.65
528.973	7208.95
529.339	7234.03
529.705	7231.55
530.071	7306.57
530.437	7327.14
530.803	7369.85
531.169	7328.95
531.535	7403.97
531.901	7384.09
532.267	7428.38
532.632	7448.94
532.998	7504.53
533.364	7504.53
533.73	7503.18
534.095	7569.84
534.461	7593.8
534.826	7549.05
535.192	7601.48
535.557	7751.31
535.923	7610.29
536.288	7657.07
536.653	7723.06
537.019	7679.67
537.384	7714.25
537.749	7718.31
538.114	7691.65
538.479	7747.69
538.845	7734.58
539.21	7766
539.575	7760.8
539.94	7797.18
540.305	7839.89
540.67	7844.19
541.034	7841.93
541.399	7935.48
541.764	7916.73
542.129	7921.02
542.494	7947.69
542.858	8001.02
543.223	7945.65
543.587	7977.52
543.952	8034.92
544.316	8016.16
544.681	8011.87
545.045	8057.06
545.41	8028.14
545.774	8091.86
546.138	8114.01
546.503	8104.29
546.867	8112.43
547.231	8180.45
547.595	8128.25
547.959	8208.92
548.324	8137.51
548.688	8154.69
549.052	8155.36
549.416	8215.7
549.779	8255.02
550.143	8196.04
550.507	8303.61
550.871	8299.32
551.235	8315.13
551.599	8346.09
551.962	8368.69
552.326	8379.09
552.689	8382.7
553.053	8337.51
553.417	8344.96
553.78	8422.93
554.143	8446.88
554.507	8449.37
554.87	8449.82
555.234	8572.53
555.597	8497.95
555.96	8500.44
556.323	8502.47
556.686	8525.3
557.05	8610.72
557.413	8586.09
557.776	8643.94
558.139	8647.1
558.502	8643.71
558.865	8689.59
559.228	8736.37
559.59	8728
559.953	8751.73
560.316	8821.34
560.679	8850.94
561.041	8823.82
561.404	8911.28
561.767	8992.4
562.129	8948.56
562.492	8959.86
562.854	8965.96
563.217	8994.21
563.579	8988.11
563.941	9046.19
564.304	9103.14
564.666	9111.95
565.028	9185.39
565.39	9173.19
565.753	9200.53
566.115	9190.14
566.477	9271.49
566.839	9272.62
567.201	9365.95
567.563	9361.43
567.925	9430.59
568.287	9402.34
568.648	9451.6
569.01	9466.29
569.372	9573.18
569.734	9589.9
570.095	9557.81
570.457	9600.98
570.819	9666.06
571.18	9640.07
571.542	9686.85
571.903	9655.21
572.265	9811.82
572.626	9798.26
572.987	9801.42
573.349	9828.99
573.71	9916.67
574.071	9888.43
574.432	9941.76
574.794	10101.75
575.155	10051.81
575.516	10021.08
575.877	10125.26
576.238	10156.44
576.599	10177.23
576.96	10233.95
577.32	10216.78
577.681	10318.47
578.042	10362.99
578.403	10330
578.763	10340.84
579.124	10390.79
579.485	10457.68
579.845	10577.9
580.206	10567.5
580.566	10638.24
580.927	10695.64
581.287	10787.16
581.648	10731.57
582.008	10824.45
582.368	10776.09
582.728	10907.16
583.089	10930.21
583.449	11026.93
583.809	10972.92
584.169	11083.88
584.529	11148.05
584.889	11217.66
585.249	11208.62
585.609	11251.1
585.969	11379.46
586.329	11392.12
586.688	11469.85
587.048	11590.53
587.408	11633.01
587.768	11613.58
588.127	11767.02
588.487	11848.15
588.846	11922.27
589.206	11889.5
589.565	11986.45
589.925	12080.23
590.284	12090.85
590.643	12240.45
591.003	12221.7
591.362	12379.89
591.721	12378.76
592.08	12475.7
592.44	12528.13
592.799	12589.82
593.158	12678.18
593.517	12723.38
593.876	12768.58
594.235	12818.74
594.593	12933.09
594.952	12977.38
595.311	12951.17
595.67	13068.68
596.029	13248.34
596.387	13242.24
596.746	13355.68
597.104	13416.7
597.463	13379.18
597.822	13519.07
598.18	13525.39
598.538	13510.25
598.897	13683.35
599.255	13573.3
599.613	13835.67
599.972	13817.59
600.33	13857.36
600.688	13830.7
601.046	14037.7
601.404	14111.82
601.762	14096.68
602.12	14194.98
602.478	14170.12
602.836	14218.03
603.194	14165.6
603.552	14302.55
603.91	14252.15
604.268	14401.08
604.625	14320.17
604.983	14462.32
605.341	14439.49
605.698	14489.89
606.056	14571.69
606.413	14589.55
606.771	14598.81
607.128	14581.41
607.485	14592.71
607.843	14659.15
608.2	14743.89
608.557	14801.97
608.914	14855.3
609.272	14930.33
609.629	14933.72
609.986	14994.05
610.343	14989.08
610.7	15105.01
611.057	15093.04
611.414	15066.37
611.771	15088.74
612.127	15196.99
612.484	15191.11
612.841	15281.5
613.198	15154.5
613.554	15347.72
613.911	15396.3
614.267	15356.08
614.624	15357.89
614.98	15429.52
615.337	15530.54
615.693	15500.48
616.05	15447.15
616.406	15600.59
616.762	15568.96
617.118	15648.73
617.475	15554.27
617.831	15611.89
618.187	15705.45
618.543	15793.58
618.899	15863.64
619.255	15732.57
619.611	15672
619.967	15709.97
620.323	15881.26
620.678	15768.05
621.034	15850.98
621.39	15786.58
621.746	15741.61
622.101	15959.91
622.457	15872
622.812	15950.19
623.168	15951.32
623.523	15895.95
623.879	16019.56
624.234	15833.35
624.589	16023.41
624.945	15991.99
625.3	16025.67
625.655	15987.93
626.01	15911.77
626.365	15919.91
626.72	16011.88
627.075	15985.22
627.43	15994.25
627.785	16001.94
628.14	16006.91
628.495	16076.29
628.85	16042.61
629.205	15893.24
629.559	16065.89
629.914	15888.95
630.269	15955.39
630.623	15899.12
630.978	15842.39
631.332	15933.69
631.687	15926.69
632.041	15918.32
632.396	15944.54
632.75	15849.63
633.104	15846.24
633.459	15830.87
633.813	15815.05
634.167	15773.7
634.521	15829.29
634.875	15762.62
635.229	15840.81
635.583	15683.3
635.937	15782.73
636.291	15734.6
636.645	15747.03
636.999	15641.04
637.352	15681.04
637.706	15635.39
638.06	15665.9
638.413	15559.92
638.767	15682.85
639.121	15697.77
639.474	15530.99
639.828	15531.44
640.181	15599.24
640.534	15582.29
640.888	15576.86
641.241	15494.61
641.594	15496.87
641.947	15512.23
642.301	15473.36
642.654	15452.8
643.007	15437.21
643.36	15451.9
643.713	15434.5
644.066	15532.35
644.419	15385.91
644.771	15297.1
645.124	15118.12
645.477	15129.64
645.83	15049.19
646.182	15016.65
646.535	14893.27
646.888	15039.48
647.24	14869.76
647.593	14985.02
647.945	14945.24
648.298	14899.37
648.65	14903.44
649.002	14822.08
649.355	15056.88
649.707	14971.46
650.059	15092.13
650.411	15205.35
650.763	15260.71
651.115	15357.66
651.467	15330.54
651.819	15310.66
652.171	15283.31
652.523	15271.11
652.875	15275.4
653.227	15223.2
653.578	15321.5
653.93	15340.94
654.282	15250.32
654.633	15292.13
654.985	15255.29
655.337	15293.26
655.688	15296.65
656.039	15348.17
656.391	15283.09
656.742	15297.1
657.094	15290.32
657.445	15353.14
657.796	15266.36
658.147	15302.52
658.498	15198.34
658.849	15264.56
659.2	15243.09
659.551	15268.17
659.902	15421.39
660.253	15304.78
660.604	15325.35
660.955	15206.48
661.306	15348.17
661.656	15274.27
662.007	15308.62
662.358	15351.56
662.708	15318.34
663.059	15345.68
663.409	15292.35
663.76	15423.65
664.11	15385.23
664.461	15462.74
664.811	15418.9
665.161	15338.9
665.511	15354.27
665.862	15316.31
666.212	15319.7
666.562	15389.98
666.912	15409.19
667.262	15330.54
667.612	15379.13
667.962	15444.89
668.312	15307.49
668.662	15493.25
669.011	15342.97
669.361	15341.16
669.711	15356.98
670.06	15378.45
670.41	15296.19
670.76	15299.58
671.109	15389.98
671.459	15271.56
671.808	15302.52
672.157	15282.41
672.507	15114.5
672.856	15246.48
673.205	15284.22
673.554	15318.11
673.904	15147.05
674.253	15309.07
674.602	15197.67
674.951	15110.21
675.3	14968.29
675.649	15188.4
675.998	15106.14
676.346	15224.33
676.695	15186.82
677.044	15014.62
677.393	15158.8
677.741	15078.35
678.09	15029.08
678.438	15035.18
678.787	15019.59
679.135	15121.28
679.484	14869.54
679.832	15047.39
680.181	14974.85
680.529	15044.68
680.877	14860.27
681.225	14934.62
681.573	14990.89
681.922	14887.84
682.27	14818.92
682.618	14866.37
682.966	14834.06
683.314	14859.6
683.661	14765.36
684.009	14672.93
684.357	14694.18
684.705	14566.27
685.053	14631.58
685.4	14597.23
685.748	14582.77
686.095	14582.09
686.443	14494.63
686.79	14500.96
687.138	14443.79
687.485	14458.25
687.832	14445.37
688.18	14464.13
688.527	14336.45
688.874	14324.69
689.221	14282.21
689.568	14203.12
689.915	14138.48
690.262	14134.19
690.609	14071.14
690.956	13993.4
691.303	14147.75
691.65	13924.93
691.997	13935.55
692.344	13854.42
692.69	13828.66
693.037	13827.76
693.383	13758.61
693.73	13732.39
694.077	13664.82
694.423	13622.79
694.769	13650.81
695.116	13627.99
695.462	13548.22
695.808	13550.03
696.155	13507.77
696.501	13292.4
696.847	13332.4
697.193	13251.28
697.539	13317.71
697.885	13099.19
698.231	13115.23
698.577	13108.45
698.923	13069.59
699.269	13063.94
699.614	12903.26
699.96	12818.29
700.306	12844.51
700.651	12833.89
700.997	12720.22
701.342	12711.18
701.688	12735.36
702.033	12578.07
702.379	12585.3
702.724	12593.89
703.069	12532.65
703.415	12377.63
703.76	12414.24
704.105	12438.19
704.45	12371.07
704.795	12256.73
705.14	12231.19
705.485	12260.12
705.83	12152.1
706.175	12164.3
706.52	12135.6
706.865	12052.89
707.209	12093.34
707.554	12024.64
707.899	12031.65
708.243	11922.72
708.588	11924.31
708.932	11734.48
709.277	11832.1
709.621	11855.38
709.966	11798.43
710.31	11736.74
710.654	11689.51
710.998	11632.11
711.342	11665.1
711.687	11623.3
712.031	11539.91
712.375	11537.2
712.719	11583.07
713.063	11524.99
713.407	11593.24
713.75	11574.03
714.094	11474.37
714.438	11482.06
714.782	11428.05
715.125	11368.16
715.469	11399.57
715.812	11307.6
716.156	11274.83
716.499	11350.53
716.843	11341.5
717.186	11294.49
717.53	11275.51
717.873	11281.61
718.216	11212.46
718.559	11215.62
718.902	11156.19
719.246	11148.96
719.589	11125.68
719.932	11091.78
720.275	11066.47
720.617	11056.53
720.96	11064.67
721.303	11005.01
721.646	11044.33
721.989	10943.54
722.331	11035.74
722.674	10959.81
723.016	10919.36
723.359	10913.03
723.701	10935.18
724.044	10906.25
724.386	10859.02
724.729	10879.59
725.071	10840.49
725.413	10844.79
725.755	10910.77
726.097	10794.62
726.439	10768.4
726.782	10795.97
727.124	10915.97
727.465	10806.37
727.807	10776.54
728.149	10818.35
728.491	10791.23
728.833	10779.48
729.175	10699.48
729.516	10733.83
729.858	10734.28
730.199	10744.68
730.541	10788.74
730.882	10739.03
731.224	10857.89
731.565	10686.82
731.906	10726.37
732.248	10733.83
732.589	10693.83
732.93	10668.07
733.271	10704.9
733.612	10717.78
733.953	10724.79
734.294	10707.16
734.635	10623.77
734.976	10732.02
735.317	10685.02
735.658	10734.28
735.999	10729.99
736.339	10732.7
736.68	10721.17
737.021	10729.76
737.361	10648.41
737.702	10773.6
738.042	10720.04
738.383	10750.78
738.723	10806.82
739.063	10650.44
739.404	10822.87
739.744	10808.18
740.084	10742.64
740.424	10756.88
740.764	10775.41
741.104	10769.53
741.444	10792.36
741.784	10784
742.124	10827.84
742.464	10822.41
742.804	10845.92
743.143	10899.93
743.483	10908.96
743.823	10903.99
744.162	10930.43
744.502	10983.99
744.841	10941.96
745.181	11009.98
745.52	11085.23
745.86	11119.58
746.199	11153.93
746.538	11188.51
746.877	11306.24
747.216	11370.65
747.556	11328.16
747.895	11381.95
748.234	11424.66
748.573	11513.69
748.911	11502.4
749.25	11589.4
749.589	11617.42
749.928	11706.23
750.267	11821.26
750.605	11838.66
750.944	12034.36
751.283	11997.3
751.621	12128.82
751.96	12162.49
752.298	12227.12
752.636	12389.38
752.975	12448.13
753.313	12573.78
753.651	12685.19
753.989	12665.75
754.327	12782.59
754.666	12886.77
755.004	13115.23
755.342	13273.65
755.679	13322.91
756.017	13481.55
756.355	13620.76
756.693	13706.63
757.031	13880.19
757.368	13978.94
757.706	14088.77
758.044	14166.73
758.381	14406.5
758.719	14424.35
759.056	14659.6
759.394	14790.44
759.731	14919.71
760.068	15000.16
760.405	15221.85
760.743	15289.64
761.08	15505
761.417	15553.36
761.754	15796.29
762.091	15932.79
762.428	16023.86
762.765	16154.48
763.102	16302.95
763.438	16495.26
763.775	16521.25
764.112	16746.78
764.449	16924.4
764.785	16962.59
765.122	17097.73
765.458	17196.03
765.795	17272.41
766.131	17519.86
766.467	17582.69
766.804	17516.7
767.14	17722.12
767.476	17890.02
767.812	17909.01
768.148	18077.14
768.485	18191.71
768.821	18139.96
769.157	18329.11
769.492	18400.74
769.828	18522.55
770.164	18431.93
770.5	18647.74
770.836	18720.96
771.171	18653.85
771.507	18860.17
771.842	18838.7
772.178	18908.3
772.513	19030.33
772.849	19035.53
773.184	19000.05
773.519	19245.24
773.855	19141.06
774.19	19174.96
774.525	19179.48
774.86	19279.14
775.195	19297.22
775.53	19263.55
775.865	19303.32
776.2	19234.4
776.535	19291.12
776.87	19238.69
777.205	19209.31
777.539	19318.23
777.874	19419.48
778.209	19351.45
778.543	19299.03
778.878	19321.17
779.212	19366.6
779.547	19249.76
779.881	19422.64
780.215	19268.07
780.55	19361.85
780.884	19420.83
781.218	19368.4
781.552	19481.17
781.886	19364.79
782.22	19255.86
782.554	19172.25
782.888	19141.29
783.222	19079.6
783.556	19027.4
783.889	19075.3
784.223	19049.09
784.557	19065.59
784.89	19132.7
785.224	19008.86
785.557	18982.88
785.891	18906.49
786.224	18903.78
786.558	18880.73
786.891	18738.14
787.224	18774.97
787.557	18696.1
787.891	18697.01
788.224	18702.88
788.557	18746.27
788.89	18723.67
789.223	18724.13
789.556	18556.45
789.888	18527.75
790.221	18432.83
790.554	18314.65
790.887	18370.92
791.219	18290.24
791.552	18279.17
791.884	18224.03
792.217	18137.02
792.549	18277.13
792.882	18071.49
793.214	18055.9
793.546	17993.98
793.879	17972.51
794.211	17958.72
794.543	17889.8
794.875	17854.77
795.207	17927.31
795.539	17752.63
795.871	17809.8
796.203	17692.29
796.535	17565.29
796.867	17557.6
797.198	17603.48
797.53	17526.64
797.862	17435.57
798.193	17532.29
798.525	17348.12
798.856	17415.01
799.188	17230.38
799.519	17175.24
799.85	17096.82
800.182	17121.23
800.513	17174.56
800.844	17090.04
801.175	17149.03
801.506	17046.88
801.837	16935.92
802.168	16937.73
802.499	16902.03
802.83	16780
803.161	16708.13
803.491	16837.17
803.822	16796.72
804.153	16722.37
804.483	16604.18
804.814	16518.31
805.145	16500.91
805.475	16443.73
805.805	16387.01
806.136	16467.69
806.466	16350.4
806.796	16375.94
807.126	16274.47
807.457	16224.08
807.787	16156.28
808.117	16076.06
808.447	16044.65
808.777	16120.58
809.107	15993.8
809.436	16040.13
809.766	15992.22
810.096	15906.12
810.426	15939.11
810.755	15971.43
811.085	15841.94
811.414	15811.43
811.744	15684.88
812.073	15674.26
812.403	15741.15
812.732	15645.79
813.061	15696.64
813.39	15532.57
813.719	15441.27
814.049	15504.55
814.378	15585
814.707	15542.06
815.036	15467.26
815.365	15290.54
815.693	15306.36
816.022	15228.63
816.351	15192.47
816.68	15182.52
817.008	15212.35
817.337	15099.36
817.665	15054.39
817.994	14996.77
818.322	15112.47
818.651	14955.41
818.979	14967.39
819.307	14981.4
819.636	14989.76
819.964	14827.96
820.292	14936.88
820.62	14965.81
820.948	14846.49
821.276	14877.9
821.604	14797
821.932	14859.37
822.259	14872.7
822.587	14857.79
822.915	14798.58
823.243	14904.57
823.57	14796.55
823.898	14819.14
824.225	14815.98
824.553	14813.27
824.88	14872.25
825.207	14842.65
825.535	14802.87
825.862	14911.35
826.189	14816.88
826.516	14782.08
826.843	14924.9
827.17	14854.62
827.497	14870.89
827.824	14797.9
828.151	14905.92
828.478	14786.38
828.805	14941.4
829.131	14822.99
829.458	14771.01
829.785	14800.84
830.111	14796.77
830.438	14837.9
830.764	14858.24
831.09	14839.26
831.417	14689.88
831.743	14843.1
832.069	14868.18
832.395	14729.66
832.722	14813.27
833.048	14677.91
833.374	14810.56
833.7	14632.48
834.026	14679.94
834.351	14730.33
834.677	14569.89
835.003	14686.27
835.329	14694.63
835.654	14624.35
835.98	14581.18
836.306	14629.54
836.631	14581.86
836.956	14586.83
837.282	14522.2
837.607	14520.4
837.932	14573.28
838.258	14514.97
838.583	14501.19
838.908	14341.64
839.233	14413.28
839.558	14439.04
839.883	14326.5
840.208	14278.14
840.533	14286.73
840.858	14266.39
841.182	14314.07
841.507	14350.68
841.832	14199.27
842.156	14180.97
842.481	14228.88
842.805	14093.06
843.13	14126.96
843.454	14031.37
843.778	13999.28
844.103	14046.96
844.427	14020.3
844.751	14011.93
845.075	13912.5
845.399	13898.49
845.723	13758.61
846.047	13857.59
846.371	13736.69
846.695	13643.36
847.019	13522.23
847.343	13480.42
847.666	13427.99
847.99	13377.37
848.313	13386.64
848.637	13261.45
848.96	13218.06
849.284	13235.23
849.607	13139.41
849.931	13142.8
850.254	12954.11
850.577	13025.75
850.9	12868.24
851.223	12877.05
851.546	12808.58
851.869	12748.69
852.192	12800.89
852.515	12717.28
852.838	12574.01
853.161	12621.46
853.483	12579.2
853.806	12536.27
854.129	12532.65
854.451	12495.14
854.774	12396.84
855.096	12369.72
855.419	12286.56
855.741	12344.86
856.063	12190.74
856.385	12231.64
856.708	12174.69
857.03	12042.95
857.352	12176.95
857.674	12127.01
857.996	12110.29
858.318	11985.09
858.64	11984.19
858.961	12000.01
859.283	11884.31
859.605	11823.52
859.926	11857.19
860.248	11788.26
860.57	11745.1
860.891	11804.76
861.212	11732.9
861.534	11660.81
861.855	11664.65
862.176	11697.19
862.498	11655.61
862.819	11652.22
863.14	11535.16
863.461	11538.1
863.782	11520.93
864.103	11528.84
864.424	11493.13
864.745	11487.03
865.065	11400.03
865.386	11413.36
865.707	11429.4
866.027	11367.94
866.348	11398.67
866.668	11379.46
866.989	11353.47
867.309	11286.36
867.63	11338.33
867.95	11277.54
868.27	11176.08
868.59	11224.89
868.91	11230.54
869.23	11204.32
869.55	11086.14
869.87	11193.7
870.19	11152.57
870.51	11080.03
870.83	11074.84
871.15	10983.76
871.469	11102.41
871.789	11080.94
872.109	11023.09
872.428	10961.39
872.748	10976.76
873.067	10986.02
873.386	10968.17
873.706	10970.88
874.025	10914.16
874.344	10922.07
874.663	10899.25
874.982	10871.68
875.301	10885.69
875.62	10765.47
875.939	10777.22
876.258	10779.7
876.577	10711.23
876.896	10801.85
877.214	10670.78
877.533	10766.6
877.852	10689.99
878.17	10767.95
878.489	10715.52
878.807	10705.13
879.125	10607.28
879.444	10629.88
879.762	10524.34
880.08	10612.7
880.398	10514.62
880.716	10524.57
881.034	10527.28
881.352	10547.17
881.67	10534.29
881.988	10447.28
882.306	10490.9
882.624	10391.24
882.941	10279.6
883.259	10327.28
883.577	10365.48
883.894	10311.01
884.212	10250.68
884.529	10271.69
884.846	10239.6
885.164	10221.75
885.481	10100.62
885.798	10177.68
886.115	10090
886.432	10094.52
886.75	10085.26
887.067	10068.08
887.383	9951.48
887.7	9993.73
888.017	9971.81
888.334	10022.43
888.651	9934.07
888.967	9925.26
889.284	9835.09
889.6	9803
889.917	9805.94
890.233	9781.99
890.55	9700.18
890.866	9740.18
891.182	9682.78
891.498	9647.53
891.815	9644.14
892.131	9595.78
892.447	9624.48
892.763	9549.23
893.079	9518.27
893.395	9533.18
893.71	9479.4
894.026	9507.87
894.342	9440.08
894.657	9341.55
894.973	9310.59
895.289	9360.3
895.604	9346.75
895.92	9295.22
896.235	9222.23
896.55	9192.63
896.865	9193.53
897.181	9103.81
897.496	9150.37
897.811	9036.92
898.126	9038.28
898.441	9032.4
898.756	9017.94
899.071	8929.36
899.386	8959.86
899.7	8847.78
900.015	8887.77
900.33	8740.66
900.644	8782.01
900.959	8753.32
901.273	8748.34
901.588	8687.78
901.902	8654.11
902.216	8665.41
902.531	8546.54
902.845	8595.58
903.159	8511.74
903.473	8420.67
903.787	8455.92
904.101	8429.26
904.415	8405.53
904.729	8361.23
905.042	8288.69
905.356	8324.85
905.67	8277.85
905.984	8242.59
906.297	8212.54
906.611	8177.28
906.924	8154.46
907.237	8136.83
907.551	8155.59
907.864	8078.76
908.177	8072.65
908.491	7986.56
908.804	7916.5
909.117	7916.5
909.43	7857.75
909.743	7819.78
910.056	7776.17
910.368	7822.94
910.681	7796.5
910.994	7736.17
911.307	7731.2
911.619	7690.07
911.932	7669.95
912.244	7571.65
912.557	7550.41
912.869	7518.55
913.181	7535.95
913.494	7504.76
913.806	7401.49
914.118	7441.49
914.43	7368.49
914.742	7363.3
915.054	7317.42
915.366	7291.66
915.678	7183.64
915.99	7208.72
916.302	7243.3
916.613	7158.78
916.925	7147.26
917.236	7069.74
917.548	7126.01
917.859	7115.62
918.171	7049.86
918.482	6954.72
918.794	6945.68
919.105	6931.89
919.416	6923.76
919.727	6900.26
920.038	6845.57
920.349	6802.63
920.66	6803.08
920.971	6799.02
921.282	6797.43
921.593	6683.99
921.903	6721.05
922.214	6699.13
922.525	6605.8
922.835	6631.11
923.146	6586.59
923.456	6552.24
923.767	6521.06
924.077	6486.26
924.387	6425.01
924.697	6445.13
925.008	6465.92
925.318	6368.74
925.628	6416.65
925.938	6379.59
926.248	6283.55
926.558	6284.91
926.867	6269.76
927.177	6225.02
927.487	6201.52
927.796	6152.25
928.106	6128.98
928.416	6106.83
928.725	6042.2
929.034	6067.51
929.344	6138.24
929.653	6010.34
929.962	6008.08
930.271	5970.34
930.581	5970.79
930.89	5925.82
931.199	5884.46
931.508	5908.64
931.817	5864.35
932.125	5890.79
932.434	5847.63
932.743	5798.82
933.051	5719.5
933.36	5709.1
933.669	5787.52
933.977	5698.25
934.286	5606.51
934.594	5602.66
934.902	5624.58
935.21	5596.56
935.519	5559.95
935.827	5566.05
936.135	5500.29
936.443	5491.25
936.751	5437.47
937.059	5478.15
937.367	5409.45
937.674	5405.15
937.982	5410.13
938.29	5362.9
938.597	5391.6
938.905	5265.5
939.213	5275.89
939.52	5248.32
939.827	5271.82
940.135	5230.47
940.442	5223.46
940.749	5180.08
941.056	5201.77
941.363	5152.51
941.67	5146.18
941.977	5051.27
942.284	5020.76
942.591	5036.12
942.898	5030.48
943.205	4997.48
943.511	4988.67
943.818	4981.66
944.125	4909.8
944.431	4906.86
944.738	4888.78
945.044	4885.85
945.35	4854.21
945.657	4771.95
945.963	4734.66
946.269	4777.37
946.575	4798.62
946.881	4739.64
947.187	4730.37
947.493	4708.68
947.799	4689.47
948.105	4693.76
948.41	4652.18
948.716	4669.35
949.022	4623.48
949.327	4625.74
949.633	4549.58
949.938	4560.2
950.244	4575.35
950.549	4520.21
950.854	4527.44
951.16	4468.23
951.465	4453.54
951.77	4401.79
952.075	4427.33
952.38	4416.93
952.685	4374.45
952.99	4368.35
953.294	4325.41
953.599	4320.44
953.904	4274.79
954.209	4263.94
954.513	4258.07
954.818	4242.25
955.122	4211.97
955.426	4234.79
955.731	4164.28
956.035	4151.63
956.339	4136.04
956.643	4127.45
956.948	4064.4
957.252	4046.55
957.556	4067.56
957.86	4025.3
958.163	4075.7
958.467	4025.76
958.771	4040.44
959.075	4000.9
959.378	3970.84
959.682	3956.83
959.985	3952.31
960.289	3915.25
960.592	3924.52
960.896	3872.99
961.199	3846.78
961.502	3841.81
961.805	3821.92
962.108	3812.2
962.411	3786.89
962.714	3795.03
963.017	3736.72
963.32	3752.99
963.623	3735.14
963.926	3714.8
964.228	3695.59
964.531	3697.85
964.833	3701.02
965.136	3658.08
965.438	3620.12
965.741	3607.46
966.043	3589.38
966.345	3581.47
966.648	3571.76
966.95	3574.69
967.252	3512.55
967.554	3531.98
967.856	3491.31
968.158	3454.92
968.46	3474.36
968.761	3428.94
969.063	3496.73
969.365	3440.69
969.666	3405.66
969.968	3373.57
970.269	3393.68
970.571	3375.6
970.872	3398.88
971.174	3338.54
971.475	3315.49
971.776	3325.21
972.077	3286.79
972.378	3317.98
972.679	3262.84
972.98	3249.96
973.281	3244.76
973.582	3226.45
973.883	3213.8
974.183	3185.55
974.484	3189.39
974.785	3183.07
975.085	3150.07
975.386	3201.37
975.686	3176.29
975.986	3135.16
976.287	3129.73
976.587	3109.4
976.887	3091.09
977.187	3044.31
977.487	3089.74
977.787	3075.27
978.087	3026.01
978.387	3012
978.687	3023.07
978.987	2989.62
979.286	2943.75
979.586	2970.64
979.885	2948.72
980.185	2932.68
980.484	2905.79
980.784	2880.02
981.083	2870.08
981.382	2867.82
981.682	2883.86
981.981	2874.37
982.28	2852
982.579	2844.77
982.878	2788.05
983.177	2829.4
983.475	2811.1
983.774	2756.18
984.073	2741.95
984.372	2748.5
984.67	2734.26
984.969	2697.43
985.267	2709.41
985.566	2699.01
985.864	2674.83
986.162	2685.68
986.461	2661.95
986.759	2708.95
987.057	2609.52
987.355	2602.52
987.653	2620.37
987.951	2606.58
988.249	2610.88
988.547	2610.43
988.844	2570.88
989.142	2568.39
989.44	2515.29
989.737	2513.03
990.035	2510.99
990.332	2518.22
990.63	2506.93
990.927	2494.27
991.224	2462.63
991.521	2457.66
991.819	2447.27
992.116	2454.27
992.413	2463.76
992.71	2449.07
993.006	2409.08
993.303	2435.52
993.6	2374.05
993.897	2376.31
994.193	2363.43
994.49	2361.84
994.787	2304.45
995.083	2328.17
995.379	2322.75
995.676	2338.57
995.972	2289.08
996.268	2298.8
996.565	2263.99
996.861	2257.89
997.157	2257.89
997.453	2232.36
997.749	2204.33
998.044	2243.66
998.34	2187.16
998.636	2181.06
998.932	2181.96
999.227	2163.21
999.523	2132.92
999.818	2157.1
1000.114	2147.84
1000.409	2111.46
1000.704	2123.66
1001	2108.97
1001.295	2114.39
1001.59	2054.73
1001.885	2090.21
1002.18	2015.19
1002.475	2002.08
1002.77	2028.07
1003.065	2047.5
1003.359	2019.48
1003.654	2026.03
1003.949	2005.02
1004.243	1954.62
1004.538	1958.69
1004.832	1978.35
1005.127	1964.12
1005.421	1933.38
1005.715	1940.84
1006.009	1915.75
1006.304	1924.12
1006.598	1915.53
1006.892	1886.83
1007.186	1879.37
1007.48	1854.51
1007.773	1852.93
1008.067	1838.92
1008.361	1820.84
1008.655	1840.28
1008.948	1826.72
1009.242	1785.14
1009.535	1771.58
1009.829	1739.94
1010.122	1756.21
1010.415	1752.82
1010.708	1747.17
1011.001	1728.42
1011.295	1727.51
1011.588	1730.67
1011.881	1729.77
1012.173	1670.11
1012.466	1676.89
1012.759	1687.51
1013.052	1683.67
1013.344	1645.71
1013.637	1663.33
1013.93	1656.55
1014.222	1637.57
1014.514	1623.33
1014.807	1589.89
1015.099	1610.9
1015.391	1600.96
1015.683	1597.35
1015.976	1577.91
1016.268	1574.75
1016.56	1543.11
1016.851	1557.35
1017.143	1529.1
1017.435	1514.41
1017.727	1500.17
1018.018	1507.63
1018.31	1511.02
1018.602	1508.31
1018.893	1478.48
1019.185	1466.05
1019.476	1453.62
1019.767	1447.74
1020.058	1463.34
1020.35	1414.3
1020.641	1417.01
1020.932	1391.02
1021.223	1408.65
1021.514	1395.32
1021.804	1364.81
1022.095	1383.79
1022.386	1350.12
1022.677	1395.77
1022.967	1340.18
1023.258	1347.63
1023.548	1350.12
1023.839	1320.52
1024.129	1317.35
1024.419	1306.51
1024.709	1268.54
1025	1278.26
1025.29	1254.53
1025.58	1282.1
1025.87	1255.66
1026.16	1246.62
1026.449	1216.34
1026.739	1266.05
1027.029	1242.55
1027.319	1224.02
1027.608	1202.1
1027.898	1187.86
1028.187	1181.54
1028.477	1194.19
1028.766	1172.5
1029.055	1168.2
1029.344	1150.13
1029.634	1133.4
1029.923	1152.61
1030.212	1152.84
1030.501	1162.55
1030.79	1118.49
1031.078	1125.49
1031.367	1103.57
1031.656	1123.69
1031.945	1098.83
1032.233	1114.65
1032.522	1095.89
1032.81	1115.78
1033.099	1073.52
1033.387	1083.01
1033.675	1033.74
1033.963	1036.68
1034.251	1068.09
1034.54	1019.73
1034.828	1040.3
1035.116	1021.99
1035.403	1043.91
1035.691	1008.21
1035.979	999.62
1036.267	999.17
1036.554	993.52
1036.842	995.1
1037.129	965.27
1037.417	987.87
1037.704	987.42
1037.992	962.56
1038.279	984.93
1038.566	982.45
1038.853	982.45
1039.14	982.45
