Data from hue_26_FLMS001491_00007.txt Node
Date: Tue Feb 07 17:13:29 GMT 2017
User: dcchb
Spectrometer: FLMS00149
Trigger mode: 0
Integration Time (sec): 2.000000E-2
Scans to average: 10
Electric dark correction enabled: true
Nonlinearity correction enabled: false
Boxcar width: 0
XAxis mode: Wavelengths
Number of Pixels in Spectrum: 2048
>>>>>Begin Spectral Data<<<<<
341.393	-13.78
341.776	-13.78
342.16	-13.78
342.543	-56.04
342.927	-57.85
343.31	-60.79
343.693	-83.39
344.077	-88.13
344.46	-58.3
344.843	-57.63
345.226	-43.61
345.61	-28.93
345.993	-0.9
346.376	-1.81
346.759	18.98
347.142	11.3
347.525	64.86
347.908	56.27
348.291	72.77
348.674	89.94
349.057	109.38
349.44	114.35
349.823	130.62
350.206	147.11
350.588	193.67
350.971	222.14
351.354	216.94
351.737	257.39
352.119	245.64
352.502	286.55
352.884	265.98
353.267	274.34
353.65	307.11
354.032	298.3
354.414	312.99
354.797	311.18
355.179	322.25
355.562	317.28
355.944	304.4
356.326	324.74
356.709	329.03
357.091	331.52
357.473	328.8
357.855	345.75
358.238	342.14
358.62	337.39
359.002	330.16
359.384	367.67
359.766	336.94
360.148	354.34
360.53	338.52
360.912	321.35
361.294	324.96
361.676	320.67
362.057	316.15
362.439	320.22
362.821	346.88
363.203	324.96
363.584	326.77
363.966	319.77
364.348	315.47
364.729	320.67
365.111	326.77
365.493	325.87
365.874	340.78
366.256	311.86
366.637	322.03
367.019	296.04
367.4	316.6
367.781	307.11
368.163	322.25
368.544	297.17
368.925	303.04
369.306	323.38
369.688	310.5
370.069	298.98
370.45	293.1
370.831	301.24
371.212	318.18
371.593	304.4
371.974	301.69
372.355	311.4
372.736	330.39
373.117	312.53
373.498	317.51
373.879	320.9
374.26	284.51
374.641	323.61
375.021	313.44
375.402	310.05
375.783	341.46
376.163	342.59
376.544	292.87
376.925	309.6
377.305	328.58
377.686	312.53
378.066	307.11
378.447	334
378.827	321.35
379.208	357.28
379.588	326.09
379.968	341.23
380.349	305.53
380.729	326.32
381.109	344.62
381.489	339.43
381.87	339.2
382.25	334
382.63	345.75
383.01	335.58
383.39	353.21
383.77	348.24
384.15	329.71
384.53	336.04
384.91	331.74
385.29	335.13
385.67	340.78
386.049	367.22
386.429	346.88
386.809	369.71
387.189	350.95
387.568	344.85
387.948	357.73
388.328	333.55
388.707	360.44
389.087	354.57
389.466	342.36
389.846	366.54
390.225	351.86
390.605	388.46
390.984	360.67
391.363	367
391.743	376.26
392.122	353.21
392.501	366.09
392.881	383.27
393.26	395.7
393.639	392.31
394.018	365.41
394.397	372.19
394.776	389.59
395.155	382.81
395.534	371.97
395.913	373.1
396.292	357.28
396.671	391.63
397.05	379.43
397.429	381.01
397.808	398.41
398.186	371.74
398.565	387.33
398.944	379.65
399.323	395.92
399.701	394.34
400.08	401.8
400.458	406.09
400.837	379.65
401.215	404.74
401.594	409.48
401.972	395.47
402.351	371.29
402.729	401.35
403.107	405.87
403.486	410.16
403.864	418.75
404.242	406.54
404.62	404.28
404.999	432.31
405.377	439.31
405.755	423.72
406.133	437.95
406.511	433.43
406.889	410.38
407.267	430.5
407.645	416.49
408.023	435.02
408.401	414.45
408.779	435.47
409.156	463.04
409.534	460.78
409.912	449.48
410.29	432.08
410.667	456.03
411.045	475.92
411.422	448.8
411.8	464.17
412.178	462.13
412.555	477.95
412.933	462.81
413.31	455.58
413.687	465.75
414.065	482.7
414.442	460.33
414.819	466.43
415.197	474.34
415.574	499.65
415.951	483.83
416.328	509.14
416.705	483.38
417.082	511.62
417.46	503.94
417.837	506.88
418.214	496.26
418.591	509.59
418.967	501
419.344	510.95
419.721	530.16
420.098	524.73
420.475	491.96
420.852	515.47
421.228	519.31
421.605	527.67
421.982	515.24
422.358	552.75
422.735	516.37
423.111	530.83
423.488	535.81
423.864	541.91
424.241	534.45
424.617	564.05
424.994	527.9
425.37	546.65
425.746	546.2
426.123	563.6
426.499	550.04
426.875	567.89
427.251	579.42
427.627	566.99
428.003	588.69
428.379	566.99
428.756	588.46
429.132	609.02
429.507	597.5
429.883	611.51
430.259	595.92
430.635	608.8
431.011	601.57
431.387	617.16
431.763	635.24
432.138	607.67
432.514	661.23
432.89	638.85
433.265	644.95
433.641	655.35
434.016	648.8
434.392	652.64
434.767	668.23
435.143	680.66
435.518	683.82
435.894	674.11
436.269	706.42
436.644	710.26
437.02	700.32
437.395	679.3
437.77	708.46
438.145	713.65
438.52	720.43
438.895	735.8
439.271	716.37
439.646	728.57
440.021	748.23
440.395	734.67
440.77	734.67
441.145	757.04
441.52	771.73
441.895	766.08
442.27	765.18
442.645	774.67
443.019	794.78
443.394	771.73
443.769	793.2
444.143	783.71
444.518	785.97
444.892	775.8
445.267	790.04
445.641	785.06
446.016	795.91
446.39	796.14
446.764	802.24
447.139	819.64
447.513	802.24
447.887	815.35
448.262	784.39
448.636	803.37
449.01	817.83
449.384	852.63
449.758	827.1
450.132	853.08
450.506	832.97
450.88	863.03
451.254	864.84
451.628	850.83
452.002	848.79
452.376	895.12
452.75	899.19
453.123	910.48
453.497	898.51
453.871	916.13
454.244	915.46
454.618	944.38
454.992	945.96
455.365	947.55
455.739	943.03
456.112	960.43
456.486	965.85
456.859	982.35
457.232	999.52
457.606	1002.46
457.979	1026.64
458.352	1004.27
458.725	1024.83
459.099	1024.38
459.472	1032.29
459.845	1067.32
460.218	1082.23
460.591	1078.84
460.964	1083.36
461.337	1112.06
461.71	1084.94
462.083	1112.51
462.456	1119.97
462.829	1122.46
463.201	1149.8
463.574	1167.88
463.947	1164.72
464.32	1192.74
464.692	1206.52
465.065	1199.97
465.438	1218.27
465.81	1252.85
466.183	1262.79
466.555	1261.21
466.928	1296.92
467.3	1309.34
467.672	1296.24
468.045	1322.45
468.417	1365.84
468.789	1322.9
469.161	1363.81
469.534	1375.33
469.906	1409.45
470.278	1418.04
470.65	1447.42
471.022	1465.27
471.394	1474.99
471.766	1477.02
472.138	1548.66
472.51	1552.95
472.882	1556.8
473.253	1595.89
473.625	1631.82
473.997	1621.88
474.369	1647.41
474.74	1673.18
475.112	1731.25
475.484	1731.93
475.855	1744.36
476.227	1776.9
476.598	1813.74
476.97	1890.57
477.341	1907.07
477.713	1910.91
478.084	1953.62
478.455	1971.02
478.827	2025.48
479.198	2084.24
479.569	2077.69
479.94	2147.06
480.311	2179.15
480.682	2215.76
481.053	2283.56
481.424	2307.51
481.795	2334.18
482.166	2374.17
482.537	2405.36
482.908	2476.55
483.279	2530.1
483.65	2541.4
484.021	2603.1
484.391	2667.5
484.762	2721.28
485.133	2699.82
485.503	2772.36
485.874	2825.69
486.244	2865.24
486.615	2899.13
486.985	2973.71
487.356	3043.99
487.726	3086.47
488.097	3133.48
488.467	3175.96
488.837	3228.16
489.207	3228.84
489.578	3319.23
489.948	3363.08
490.318	3425.67
490.688	3418.89
491.058	3493.69
491.428	3547.03
491.798	3544.31
492.168	3702.5
492.538	3730.52
492.908	3756.74
493.278	3783.4
493.648	3782.05
494.017	3859.33
494.387	3934.81
494.757	3954.02
495.126	4013.68
495.496	4058.42
495.866	4082.38
496.235	4100.46
496.605	4158.99
496.974	4193.56
497.344	4238.53
497.713	4243.96
498.082	4267.68
498.452	4333.22
498.821	4331.86
499.19	4376.83
499.559	4448.92
499.928	4452.99
500.298	4490.73
500.667	4551.74
501.036	4563.95
501.405	4533.21
501.774	4572.54
502.143	4663.83
502.512	4650.27
502.88	4757.16
503.249	4763.94
503.618	4804.17
503.987	4756.49
504.356	4805.3
504.724	4889.59
505.093	4874
505.462	4951.96
505.83	4940.89
506.199	4958.51
506.567	5041.9
506.936	5017.04
507.304	5092.97
507.672	5104.95
508.041	5134.33
508.409	5212.52
508.777	5196.93
509.145	5210.94
509.514	5220.2
509.882	5259.52
510.25	5237.38
510.618	5360.31
510.986	5334.77
511.354	5406.19
511.722	5397.6
512.09	5434.66
512.458	5390.82
512.826	5501.32
513.193	5487.77
513.561	5542.23
513.929	5561.21
514.297	5557.82
514.664	5642.79
515.032	5620.87
515.4	5746.97
515.767	5671.49
516.135	5641.21
516.502	5651.6
516.869	5782.67
517.237	5797.14
517.604	5786.51
517.972	5853.63
518.339	5904.25
518.706	5839.85
519.073	5901.54
519.44	5892.95
519.808	5972.5
520.175	5966.85
520.542	6025.15
520.909	6053.4
521.276	6066.06
521.643	6173.4
522.009	6137.01
522.376	6134.53
522.743	6177.24
523.11	6249.78
523.477	6289.78
523.843	6283
524.21	6405.71
524.577	6433.28
524.943	6431.47
525.31	6389.44
525.676	6448.42
526.043	6516.89
526.409	6562.99
526.776	6631.69
527.142	6630.33
527.508	6649.32
527.874	6687.96
528.241	6720.95
528.607	6783.32
528.973	6809.31
529.339	6809.54
529.705	6880.72
530.071	6934.05
530.437	7002.08
530.803	6975.41
531.169	7017.44
531.535	7016.54
531.901	7067.38
532.267	7097.21
532.632	7093.37
532.998	7245.23
533.364	7186.25
533.73	7208.62
534.095	7297.44
534.461	7332.24
534.826	7319.36
535.192	7303.76
535.557	7427.6
535.923	7370.43
536.288	7467.6
536.653	7501.05
537.019	7504.21
537.384	7433.48
537.749	7560.71
538.114	7573.59
538.479	7583.53
538.845	7688.16
539.21	7636.18
539.575	7710.08
539.94	7826.91
540.305	7743.75
540.67	7829.85
541.034	7863.52
541.399	7811.77
541.764	7860.58
542.129	7846.35
542.494	7951.43
542.858	7972.22
543.223	7984.87
543.587	8085.66
543.952	8064.42
544.316	8089.96
544.681	8094.93
545.045	8121.82
545.41	8215.6
545.774	8196.85
546.138	8268.03
546.503	8255.6
546.867	8247.01
547.231	8388.25
547.595	8365.88
547.959	8463.96
548.324	8403.39
548.688	8488.36
549.052	8521.36
549.416	8534.69
549.779	8514.13
550.143	8553.9
550.507	8627.57
550.871	8623.5
551.235	8541.92
551.599	8691.3
551.962	8694.46
552.326	8762.93
552.689	8808.58
553.053	8775.81
553.417	8816.49
553.78	8930.61
554.143	8782.82
554.507	8878.64
554.87	8939.88
555.234	8986.88
555.597	8962.48
555.96	8980.55
556.323	9039.99
556.686	9047.9
557.05	9099.87
557.413	9139.42
557.776	9139.19
558.139	9253.09
558.502	9254.22
558.865	9241.34
559.228	9283.6
559.59	9346.19
559.953	9360.66
560.316	9460.99
560.679	9467.1
561.041	9450.6
561.404	9487.43
561.767	9610.59
562.129	9545.29
562.492	9686.75
562.854	9590.93
563.217	9677.71
563.579	9634.77
563.941	9750.7
564.304	9810.59
564.666	9827.09
565.028	9861.44
565.39	9829.35
565.753	9891.72
566.115	9960.42
566.477	9945.5
566.839	10040.41
567.201	10117.02
567.563	10108.89
567.925	10147.98
568.287	10179.39
568.648	10154.99
569.01	10256.45
569.372	10334.42
569.734	10328.54
570.095	10388.65
570.457	10427.75
570.819	10450.12
571.18	10499.61
571.542	10538.93
571.903	10541.87
572.265	10715.65
572.626	10652.6
572.987	10657.35
573.349	10718.59
573.71	10855.31
574.071	10885.59
574.432	10956.1
574.794	11060.5
575.155	11088.75
575.516	11084.23
575.877	11173.04
576.238	11234.51
576.599	11312.7
576.96	11407.61
577.32	11433.82
577.681	11575.74
578.042	11668.17
578.403	11684.44
578.763	11791.33
579.124	11929.86
579.485	11994.26
579.845	12116.29
580.206	12225.67
580.566	12342.05
580.927	12406.23
581.287	12600.12
581.648	12738.87
582.008	12860.23
582.368	13046.21
582.728	13216.38
583.089	13287.11
583.449	13459.31
583.809	13679.19
584.169	13895.45
584.529	13940.65
584.889	14280.3
585.249	14434.87
585.609	14433.97
585.969	14828.31
586.329	14948.08
586.688	15207.74
587.048	15484.79
587.408	15615.63
587.768	15810.66
588.127	15988.96
588.487	16299.91
588.846	16622.16
589.206	16726.11
589.565	17033.68
589.925	17362.03
590.284	17552.08
590.643	17809.93
591.003	18139.41
591.362	18554.99
591.721	18738.94
592.08	19025.49
592.44	19293.96
592.799	19533.5
593.158	19747.5
593.517	20087.38
593.876	20366.7
594.235	20542.96
594.593	20894.82
594.952	21283.28
595.311	21564.18
595.67	21898.18
596.029	22330.03
596.387	22612.74
596.746	22916.23
597.104	23140.63
597.463	23440.97
597.822	23805.93
598.18	24076.88
598.538	24339.47
598.897	24711.21
599.255	24913.7
599.613	25440.01
599.972	25641.13
600.33	25923.39
600.688	26176.49
601.046	26537.83
601.404	26905.73
601.762	27052.62
602.12	27467.75
602.478	27825.03
602.836	28115.87
603.194	28134.63
603.552	28424.11
603.91	28712.92
604.268	29077.2
604.625	29269.96
604.983	29547.47
605.341	29751.31
605.698	30195.59
606.056	30507.9
606.413	30574.11
606.771	30964.61
607.128	31277.14
607.485	31285.96
607.843	31549.68
608.2	32065.15
608.557	32360.05
608.914	32462.42
609.272	32703.55
609.629	33033.48
609.986	33366.13
610.343	33310.31
610.7	33747.59
611.057	33900.35
611.414	34145.77
611.771	34293.34
612.127	34621.24
612.484	34758.63
612.841	35084.05
613.198	35186.19
613.554	35232.07
613.911	35537.14
614.267	35760.64
614.624	35999.73
614.98	36194.3
615.337	36328.54
615.693	36539.83
616.05	36515.88
616.406	36964.23
616.762	37037.9
617.118	37150.89
617.475	37274.95
617.831	37546.81
618.187	37739.35
618.543	37846.69
618.899	38163.06
619.255	38168.71
619.611	38241.48
619.967	38531.42
620.323	38750.62
620.678	38593.56
621.034	38760.56
621.39	38907.68
621.746	38795.59
622.101	39381.56
622.457	39130.5
622.812	39399.19
623.168	39566.64
623.523	39548.34
623.879	39817.94
624.234	39645.29
624.589	39800.99
624.945	39976.35
625.3	40038.5
625.655	40160.3
626.01	40147.19
626.365	40319.39
626.72	40240.07
627.075	40382.67
627.43	40495.43
627.785	40388.09
628.14	40572.27
628.495	40752.37
628.85	40748.76
629.205	40823.56
629.559	40971.58
629.914	40925.48
630.269	40999.15
630.623	40792.83
630.978	40831.24
631.332	41013.84
631.687	41078.02
632.041	41000.5
632.396	41221.51
632.75	41017.9
633.104	41128.41
633.459	41037.57
633.813	41180.84
634.167	41189.2
634.521	41160.27
634.875	41125.7
635.229	41126.83
635.583	40997.57
635.937	41125.92
636.291	41150.33
636.645	41069.2
636.999	41104.91
637.352	41215.64
637.706	40970.67
638.06	41162.08
638.413	41153.04
638.767	41021.97
639.121	41218.13
639.474	40971.13
639.828	41049.09
640.181	41120.05
640.534	41015.87
640.888	41045.25
641.241	40961.18
641.594	41033.72
641.947	41083.44
642.301	41065.36
642.654	41108.52
643.007	41051.12
643.36	41125.7
643.713	40992.14
644.066	41049.32
644.419	40853.39
644.771	40630.57
645.124	40377.47
645.477	40309.9
645.83	40029.46
646.182	39840.99
646.535	39765.51
646.888	39929.35
647.24	39625.85
647.593	39994.43
647.945	39920.76
648.298	39740.88
648.65	39761.44
649.002	39621.33
649.355	39856.81
649.707	39640.31
650.059	40101.32
650.411	40383.8
650.763	40413.63
651.115	40763.45
651.467	40647.29
651.819	40677.35
652.171	40577.24
652.523	40483.91
652.875	40590.8
653.227	40246.4
653.578	40624.47
653.93	40569.78
654.282	40396
654.633	40494.08
654.985	40393.06
655.337	40427.64
655.688	40426.06
656.039	40615.66
656.391	40207.08
656.742	40390.12
657.094	40416.79
657.445	40440.52
657.796	40513.74
658.147	40366.85
658.498	40329.34
658.849	40527.3
659.2	40489.33
659.551	40242.33
659.902	40433.29
660.253	40315.1
660.604	40283.01
660.955	40243.01
661.306	40208.21
661.656	40230.58
662.007	40258.38
662.358	40248.66
662.708	40267.87
663.059	40234.87
663.409	40029
663.76	40209.79
664.11	40119.62
664.461	40208.89
664.811	40245.27
665.161	40234.65
665.511	40164.59
665.862	40204.82
666.212	40332.05
666.562	40233.97
666.912	40106.06
667.262	40147.87
667.612	40132.28
667.962	40280.75
668.312	40097.48
668.662	40353.29
669.011	40137.02
669.361	40166.63
669.711	40093.86
670.06	40098.15
670.41	40013.64
670.76	40026.07
671.109	40197.36
671.459	40066.97
671.808	39997.14
672.157	40076.23
672.507	39844.15
672.856	39863.13
673.205	39885.05
673.554	40033.52
673.904	39897.03
674.253	39940.42
674.602	39953.53
674.951	39379.53
675.3	39151.96
675.649	39929.12
675.998	39883.47
676.346	39769.8
676.695	39937.48
677.044	39574.1
677.393	39690.71
677.741	39738.16
678.09	39559.86
678.438	39507.21
678.787	39610.03
679.135	39655.91
679.484	39363.03
679.832	39515.8
680.181	39347.21
680.529	39406.2
680.877	39252.3
681.225	39337.27
681.573	39395.12
681.922	39189.25
682.27	39135.24
682.618	39162.36
682.966	38990.84
683.314	39181.34
683.661	38892.08
684.009	38769.15
684.357	38760.34
684.705	38671.75
685.053	38919.2
685.4	38793.56
685.748	38668.14
686.095	38535.94
686.443	38496.39
686.79	38379.33
687.138	38407.58
687.485	38438.99
687.832	38332.55
688.18	38292.55
688.527	38182.5
688.874	38034.71
689.221	37946.35
689.568	37902.05
689.915	37737.76
690.262	37838.55
690.609	37579.12
690.956	37599.01
691.303	37545.23
691.65	37411.67
691.997	37405.34
692.344	37241.28
692.69	37206.71
693.037	37040.16
693.383	36837
693.73	36935.07
694.077	36698.92
694.423	36764.68
694.769	36751.58
695.116	36700.96
695.462	36561.07
695.808	36436.78
696.155	36701.18
696.501	36298.71
696.847	36309.55
697.193	36047.19
697.539	36105.72
697.885	35947.3
698.231	35917.47
698.577	35805.61
698.923	35864.82
699.269	35616.46
699.614	35527.43
699.96	35518.39
700.306	35421.67
700.651	35176.02
700.997	35107.55
701.342	35207.21
701.688	35050.83
702.033	34958.63
702.379	34907.56
702.724	34768.58
703.069	34854
703.415	34568.36
703.76	34473.44
704.105	34549.37
704.45	34403.84
704.795	34277.52
705.14	34092.66
705.485	34240.23
705.83	34059.22
706.175	34135.15
706.52	33962.72
706.865	34009.95
707.209	33869.17
707.554	33792.33
707.899	33791.65
708.243	33513.02
708.588	33482.51
708.932	33341.72
709.277	33344.21
709.621	33277.09
709.966	33016.08
710.31	33104.44
710.654	32859.47
710.998	32878.01
711.342	32960.04
711.687	32770.21
712.031	32792.81
712.375	32532.25
712.719	32546.26
713.063	32559.6
713.407	32590.33
713.75	32560.95
714.094	32428.53
714.438	32283.44
714.782	32370
715.125	32144.24
715.469	32178.59
715.812	32067.86
716.156	31955.54
716.499	31839.39
716.843	32028.31
717.186	31833.06
717.53	31956.45
717.873	31968.65
718.216	31855.43
718.559	31572.73
718.902	31523.46
719.246	31673.07
719.589	31449.34
719.932	31349.91
720.275	31305.17
720.617	31347.88
720.96	31206.64
721.303	31242.79
721.646	31205.51
721.989	31047.32
722.331	31151.5
722.674	31093.42
723.016	31027.43
723.359	30963.03
723.701	30930.03
724.044	30705.41
724.386	30796.7
724.729	30855.69
725.071	30617.05
725.413	30782.02
725.755	30627.67
726.097	30518.97
726.439	30440.78
726.782	30329.82
727.124	30588.57
727.465	30328.69
727.807	30314.23
728.149	30307.23
728.491	30153.78
728.833	30278.07
729.175	30130.73
729.516	30178.42
729.858	30043.96
730.199	30148.81
730.541	29925.09
730.882	29895.71
731.224	30045.09
731.565	29752.21
731.906	29755.6
732.248	29732.33
732.589	29654.14
732.93	29618.88
733.271	29605.78
733.612	29557.64
733.953	29565.78
734.294	29499.34
734.635	29380.02
734.976	29468.6
735.317	29341.38
735.658	29349.51
735.999	29339.79
736.339	29220.47
736.68	29312
737.021	29182.74
737.361	29067.71
737.702	29194.71
738.042	29076.98
738.383	28890.54
738.723	29036.3
739.063	28964.44
739.404	29045.11
739.744	28923.99
740.084	28938.45
740.424	28818.45
740.764	28749.98
741.104	28890.77
741.444	28726.25
741.784	28638.12
742.124	28668.62
742.464	28659.59
742.804	28438.35
743.143	28551.79
743.483	28462.08
743.823	28258.47
744.162	28434.51
744.502	28324.45
744.841	28170.11
745.181	28338.92
745.52	28313.83
745.86	28204.46
746.199	28094.85
746.538	28067.06
746.877	28144.8
747.216	28074.06
747.556	28142.31
747.895	27990.9
748.234	27968.08
748.573	27738.71
748.911	27879.49
749.25	27896.44
749.589	27700.29
749.928	27631.59
750.267	27771.93
750.605	27579.61
750.944	27680.18
751.283	27479.96
751.621	27550.24
751.96	27455.32
752.298	27325.16
752.636	27330.58
752.975	27223.46
753.313	27252.16
753.651	27298.72
753.989	27148.21
754.327	27221.88
754.666	27018.05
755.004	27056.24
755.342	27065.73
755.679	26887.2
756.017	26824.15
756.355	26931.95
756.693	26663.93
757.031	26779.86
757.368	26623.25
757.706	26614.67
758.044	26484.73
758.381	26637.27
758.719	26343.26
759.056	26308.91
759.394	26350.27
759.731	26215.13
760.068	26226.66
760.405	26043.61
760.743	26052.42
761.08	26047.9
761.417	25863.5
761.754	25890.39
762.091	25790.51
762.428	25690.85
762.765	25573.34
763.102	25673.22
763.438	25551.19
763.775	25456.51
764.112	25435.26
764.449	25447.01
764.785	25156.85
765.122	25211.99
765.458	25114.82
765.795	25056.52
766.131	24987.59
766.467	24851.32
766.804	24820.59
767.14	24738.56
767.476	24648.39
767.812	24579.01
768.148	24542.18
768.485	24319.59
768.821	24271.23
769.157	24372.92
769.492	24165.92
769.828	24198.23
770.164	23869.88
770.5	23861.29
770.836	23828.07
771.171	23832.37
771.507	23829.66
771.842	23513.28
772.178	23530.68
772.513	23483.22
772.849	23439.38
773.184	23289.33
773.519	23380.85
773.855	23146.96
774.19	23106.74
774.525	22963.92
774.86	23115.78
775.195	22960.07
775.53	22774.77
775.865	22733.19
776.2	22492.06
776.535	22353.08
776.87	22459.52
777.205	22349.92
777.539	22233.99
777.874	22205.52
778.209	22110.61
778.543	22088.46
778.878	21880.1
779.212	21928.69
779.547	21758.3
779.881	21836.94
780.215	21657.51
780.55	21688.02
780.884	21522.37
781.218	21529.83
781.552	21437.63
781.886	21250.74
782.22	21142.04
782.554	21144.53
782.888	20981.37
783.222	20783.86
783.556	20903.63
783.889	20847.36
784.223	20639.23
784.557	20616.18
784.89	20666.8
785.224	20439.24
785.557	20379.8
785.891	20359.24
786.224	20281.05
786.558	20291.22
786.891	20169.64
787.224	20038.12
787.557	19936.65
787.891	19938.68
788.224	19900.04
788.557	19927.39
788.89	19814.17
789.223	19747.28
789.556	19607.17
789.888	19546.38
790.221	19421.41
790.554	19342.54
790.887	19337.34
791.219	19352.03
791.552	19218.93
791.884	19190.46
792.217	19042.89
792.549	19087.18
792.882	18828.43
793.214	18841.31
793.546	18766.96
793.879	18746.63
794.211	18649.23
794.543	18651.49
794.875	18640.19
795.207	18543.69
795.539	18458.05
795.871	18418.27
796.203	18232.06
796.535	18254.44
796.867	18246.98
797.198	18088.34
797.53	18214.66
797.862	17979.41
798.193	17973.54
798.525	17930.15
798.856	17899.87
799.188	17695.81
799.519	17653.77
799.85	17605.19
800.182	17668.24
800.513	17559.76
800.844	17450.16
801.175	17595.02
801.506	17400.22
801.837	17356.15
802.168	17364.74
802.499	17319.54
802.83	17190.06
803.161	17213.56
803.491	17099.89
803.822	17108.02
804.153	17049.5
804.483	16921.59
804.814	16874.58
805.145	16899.89
805.475	16696.06
805.805	16725.66
806.136	16709.17
806.466	16670.97
806.796	16604.08
807.126	16434.37
807.457	16500.36
807.787	16512.56
808.117	16407.7
808.447	16373.35
808.777	16386.01
809.107	16298.33
809.436	16212.68
809.766	16266.46
810.096	16121.84
810.426	16140.37
810.755	16145.56
811.085	16055.4
811.414	15991.9
811.744	15921.16
812.073	15895.4
812.403	15905.12
812.732	15741.96
813.061	15673.49
813.39	15630.32
813.719	15582.64
814.049	15638.01
814.378	15632.58
814.707	15583.55
815.036	15604.79
815.365	15390.78
815.693	15379.48
816.022	15272.82
816.351	15307.17
816.68	15215.65
817.008	15282.99
817.337	15178.13
817.665	15147.62
817.994	15099.04
818.322	15103.33
818.651	15046.61
818.979	15022.66
819.307	15014.29
819.636	14965.48
819.964	14925.48
820.292	14961.41
820.62	14918.48
820.948	14871.25
821.276	14930.91
821.604	14761.19
821.932	14824.02
822.259	14843.23
822.587	14843
822.915	14848.65
823.243	14840.97
823.57	14720.97
823.898	14797.58
824.225	14740.18
824.553	14718.48
824.88	14798.03
825.207	14824.92
825.535	14720.29
825.862	14742.89
826.189	14708.31
826.516	14797.8
826.843	14847.29
827.17	14810.46
827.497	14853.85
827.824	14760.74
828.151	14822.21
828.478	14738.37
828.805	14821.31
829.131	14719.84
829.458	14661.76
829.785	14687.98
830.111	14709.44
830.438	14764.36
830.764	14744.47
831.09	14792.83
831.417	14625.6
831.743	14764.58
832.069	14688.88
832.395	14649.33
832.722	14711.93
833.048	14575.44
833.374	14625.6
833.7	14551.71
834.026	14577.24
834.351	14575.44
834.677	14674.42
835.003	14589.67
835.329	14536.11
835.654	14444.14
835.98	14453.41
836.306	14505.61
836.631	14447.76
836.956	14523.91
837.282	14523.46
837.607	14406.85
837.932	14363.92
838.258	14380.41
838.583	14378.83
838.908	14255.67
839.233	14269.91
839.558	14289.57
839.883	14124.6
840.208	14236.46
840.533	14167.09
840.858	14172.51
841.182	14211.15
841.507	14148.33
841.832	14085.73
842.156	13999.86
842.481	14002.8
842.805	14026.98
843.13	13983.14
843.454	13936.58
843.778	13928.22
844.103	13848.22
844.427	13858.84
844.751	13822.69
845.075	13769.13
845.399	13700.66
845.723	13638.06
846.047	13637.38
846.371	13555.12
846.695	13548.34
847.019	13406.65
847.343	13420.66
847.666	13251.18
847.99	13301.8
848.313	13274.68
848.637	13084.63
848.96	13133.21
849.284	13126.21
849.607	13055.93
849.931	13014.35
850.254	12855.71
850.577	12855.03
850.9	12751.53
851.223	12798.99
851.546	12725.09
851.869	12614.13
852.192	12625.2
852.515	12529.39
852.838	12518.31
853.161	12467.69
853.483	12418.66
853.806	12319.9
854.129	12387.24
854.451	12342.05
854.774	12304.08
855.096	12184.54
855.419	12194.48
855.741	12147.7
856.063	12107.25
856.385	12069.51
856.708	12074.48
857.03	11988.39
857.352	12011.21
857.674	11900.48
857.996	11999.46
858.318	11826.36
858.64	11825.45
858.961	11777.77
859.283	11742.74
859.605	11623.2
859.926	11695.06
860.248	11618.9
860.57	11641.28
860.891	11620.03
861.212	11559.47
861.534	11614.38
861.855	11481.28
862.176	11531.22
862.498	11535.29
862.819	11483.09
863.14	11402.64
863.461	11334.17
863.782	11347.05
864.103	11365.58
864.424	11255.3
864.745	11367.84
865.065	11287.61
865.386	11183.89
865.707	11207.39
866.027	11196.77
866.348	11194.73
866.668	11166.94
866.989	11179.82
867.309	11037.9
867.63	11074.06
867.95	11140.5
868.27	11040.84
868.59	11046.72
868.91	10952.93
869.23	10969.88
869.55	10976.89
869.87	10975.08
870.19	11002.42
870.51	10938.47
870.83	11022.99
871.15	10917.23
871.469	10969.43
871.789	10918.58
872.109	10858.25
872.428	10831.35
872.748	10820.51
873.067	10844.01
873.386	10846.27
873.706	10809.89
874.025	10742.54
874.344	10737.8
874.663	10766.04
874.982	10708.87
875.301	10724.01
875.62	10640.4
875.939	10637.91
876.258	10653.28
876.577	10581.64
876.896	10581.42
877.214	10574.19
877.533	10460.29
877.852	10553.85
878.17	10575.32
878.489	10485.37
878.807	10524.92
879.125	10407.64
879.444	10433.85
879.762	10397.92
880.08	10405.38
880.398	10340.52
880.716	10408.54
881.034	10368.77
881.352	10324.25
881.67	10287.19
881.988	10305.94
882.306	10223.69
882.624	10242.89
882.941	10221.65
883.259	10132.39
883.577	10103.69
883.894	10096.46
884.212	10125.84
884.529	10065.05
884.846	10116.8
885.164	10056.46
885.481	9957.93
885.798	10056.23
886.115	9911.6
886.432	9914.32
886.75	9918.84
887.067	9853.3
887.383	9844.49
887.7	9856.69
888.017	9794.54
888.334	9804.04
888.651	9795.22
888.967	9817.14
889.284	9736.92
889.6	9759.74
889.917	9668.22
890.233	9679.75
890.55	9634.55
890.866	9590.26
891.182	9587.77
891.498	9625.74
891.815	9462.35
892.131	9481.56
892.447	9436.59
892.763	9470.03
893.079	9463.03
893.395	9365.86
893.71	9378.28
894.026	9355.23
894.342	9294.9
894.657	9222.58
894.973	9219.19
895.289	9219.87
895.604	9243.6
895.92	9072.76
896.235	9093.77
896.55	9025.07
896.865	9042.7
897.181	9045.86
897.496	9112.53
897.811	8965.41
898.126	8917.05
898.441	8919.77
898.756	8875.25
899.071	8792.99
899.386	8814.46
899.7	8784.85
900.015	8708.47
900.33	8708.25
900.644	8630.28
900.959	8682.48
901.273	8581.02
901.588	8530.62
901.902	8572.43
902.216	8538.53
902.531	8491.75
902.845	8480.23
903.159	8466.22
903.473	8400.01
903.787	8397.75
904.101	8333.79
904.415	8325.88
904.729	8247.01
905.042	8255.6
905.356	8228.26
905.67	8223.29
905.984	8181.71
906.297	8172.44
906.611	8116.4
906.924	8086.57
907.237	8131.76
907.551	8069.84
907.864	7982.39
908.177	7985.55
908.491	7924.54
908.804	7901.49
909.117	7807.25
909.43	7795.5
909.743	7773.81
910.056	7770.64
910.368	7748.5
910.681	7647.48
910.994	7638.67
911.307	7629.18
911.619	7543.08
911.932	7626.47
912.244	7556.41
912.557	7539.46
912.869	7495.62
913.181	7468.05
913.494	7384.89
913.806	7379.92
914.118	7368.39
914.43	7309.19
914.742	7297.66
915.054	7265.57
915.366	7221.73
915.678	7186.25
915.99	7194.16
916.302	7181.05
916.613	7139.02
916.925	7125.69
917.236	7074.62
917.548	6998.91
917.859	7009.99
918.171	7013.15
918.482	6970.66
918.794	6887.05
919.105	6969.31
919.416	6850.44
919.727	6893.15
920.038	6848.41
920.349	6752.36
920.66	6693.16
920.971	6693.84
921.282	6733.61
921.593	6642.09
921.903	6548.75
922.214	6621.97
922.525	6579.94
922.835	6542.2
923.146	6544.01
923.456	6455.2
923.767	6490.9
924.077	6482.77
924.387	6405.71
924.697	6309.89
925.008	6396.67
925.318	6308.76
925.628	6305.37
925.938	6276.9
926.248	6214.53
926.558	6212.94
926.867	6180.85
927.177	6192.83
927.487	6147.41
927.796	6069.9
928.106	6114.42
928.416	6095.21
928.725	6050.91
929.034	6025.6
929.344	6018.6
929.653	5979.73
929.962	5916
930.271	5920.75
930.581	5916.91
930.89	5852.73
931.199	5837.36
931.508	5831.03
931.817	5770.47
932.125	5743.8
932.434	5713.75
932.743	5670.36
933.051	5668.78
933.36	5652.51
933.669	5636.24
933.977	5654.54
934.286	5581.32
934.594	5580.64
934.902	5586.52
935.21	5497.03
935.519	5518.05
935.827	5470.36
936.135	5410.71
936.443	5361.44
936.751	5322.12
937.059	5356.02
937.367	5369.35
937.674	5350.37
937.982	5317.15
938.29	5277.6
938.597	5282.57
938.905	5208.9
939.213	5229.47
939.52	5179.3
939.827	5222.46
940.135	5112.41
940.442	5124.16
940.749	5168
941.056	5117.83
941.363	5010.49
941.67	5051.84
941.977	4970.49
942.284	4985.86
942.591	4972.52
942.898	4948.12
943.205	4938.4
943.511	4936.82
943.818	4897.95
944.125	4865.18
944.431	4864.73
944.738	4867.67
945.044	4827.9
945.35	4790.83
945.657	4750.84
945.963	4748.58
946.269	4725.07
946.575	4699.09
946.881	4690.05
947.187	4687.33
947.493	4659.54
947.799	4626.77
948.105	4589.48
948.41	4560.78
948.716	4549.48
949.022	4525.3
949.327	4544.74
949.633	4474.23
949.938	4480.79
950.244	4446.44
950.549	4441.01
950.854	4455.48
951.16	4370.73
951.465	4393.1
951.77	4337.74
952.075	4316.95
952.38	4349.04
952.685	4372.99
952.99	4262.71
953.294	4225.65
953.599	4251.41
953.904	4251.41
954.209	4201.25
954.513	4200.57
954.818	4169.16
955.122	4091.87
955.426	4141.81
955.731	4097.97
956.035	4116.73
956.339	4121.25
956.643	4061.59
956.948	4015.49
957.252	4040.8
957.556	4050.51
957.86	3998.31
958.163	3997.63
958.467	3966.68
958.771	3938.43
959.075	3917.86
959.378	3906.34
959.682	3919.44
959.985	3902.27
960.289	3869.28
960.592	3823.18
960.896	3827.7
961.199	3794.02
961.502	3797.87
961.805	3754.48
962.108	3780.69
962.411	3750.18
962.714	3749.96
963.017	3678.77
963.32	3722.16
963.623	3707.93
963.926	3655.05
964.228	3633.58
964.531	3631.54
964.833	3621.37
965.136	3587.02
965.438	3553.58
965.741	3588.38
966.043	3577.99
966.345	3571.88
966.648	3504.77
966.95	3543.41
967.252	3472.45
967.554	3484.65
967.856	3483.52
968.158	3435.39
968.46	3446.24
968.761	3410.76
969.063	3412.11
969.365	3400.59
969.666	3356.52
969.968	3324.21
970.269	3365.34
970.571	3330.31
970.872	3305.22
971.174	3297.54
971.475	3290.53
971.776	3275.39
972.077	3270.2
972.378	3244.66
972.679	3221.16
972.98	3238.56
973.281	3219.35
973.582	3206.92
973.883	3163.31
974.183	3159.92
974.484	3148.62
974.785	3147.94
975.085	3172.35
975.386	3118.11
975.686	3089.41
975.986	3095.96
976.287	3093.25
976.587	3051.9
976.887	3062.97
977.187	3074.72
977.487	3029.07
977.787	2994.27
978.087	2982.07
978.387	2945.01
978.687	2964.67
978.987	2942.52
979.286	2906.59
979.586	2873.6
979.885	2941.84
980.185	2904.1
980.484	2857.1
980.784	2883.77
981.083	2836.08
981.382	2852.35
981.682	2823.2
981.981	2827.72
982.28	2799.7
982.579	2780.04
982.878	2781.4
983.177	2799.93
983.475	2757.44
983.774	2777.33
984.073	2737.33
984.372	2696.88
984.67	2715.86
984.969	2679.7
985.267	2702.53
985.566	2700.27
985.864	2654.85
986.162	2663.21
986.461	2650.55
986.759	2616.65
987.057	2606.26
987.355	2602.19
987.653	2603.1
987.951	2601.29
988.249	2593.38
988.547	2570.1
988.844	2545.7
989.142	2563.77
989.44	2519.48
989.737	2486.94
990.035	2487.62
990.332	2464.57
990.63	2496.88
990.927	2469.99
991.224	2429.77
991.521	2426.83
991.819	2411.46
992.116	2421.86
992.413	2427.96
992.71	2424.79
993.006	2417.56
993.303	2383.44
993.6	2371.01
993.897	2358.36
994.193	2339.83
994.49	2342.54
994.787	2312.48
995.083	2297.79
995.379	2308.64
995.676	2338.7
995.972	2302.31
996.268	2305.93
996.565	2248.3
996.861	2240.17
997.157	2264.35
997.453	2242.2
997.749	2234.52
998.044	2185.71
998.34	2191.81
998.636	2186.38
998.932	2152.03
999.227	2155.2
999.523	2125.37
999.818	2154.75
1000.114	2097.12
1000.409	2098.02
1000.704	2110.9
1001	2101.64
1001.295	2072.04
1001.59	2088.08
1001.885	2065.03
1002.18	2056.9
1002.475	2053.28
1002.77	2038.36
1003.065	2030.23
1003.359	2002.43
1003.654	1990.91
1003.949	1964.92
1004.243	1965.37
1004.538	1935.77
1004.832	1929.67
1005.127	1924.24
1005.421	1921.98
1005.715	1951.59
1006.009	1909.1
1006.304	1892.83
1006.598	1867.3
1006.892	1861.42
1007.186	1833.17
1007.48	1868.43
1007.773	1858.71
1008.067	1841.08
1008.361	1805.15
1008.655	1825.71
1008.948	1787.52
1009.242	1778.48
1009.535	1791.59
1009.829	1783.23
1010.122	1760.41
1010.415	1768.32
1010.708	1751.82
1011.001	1733.74
1011.295	1726.51
1011.588	1740.07
1011.881	1693.74
1012.173	1692.38
1012.466	1692.84
1012.759	1653.52
1013.052	1653.06
1013.344	1643.57
1013.637	1643.8
1013.93	1632.73
1014.222	1638.83
1014.514	1642.22
1014.807	1614.42
1015.099	1603.57
1015.391	1578.04
1015.683	1580.07
1015.976	1583.91
1016.268	1569.9
1016.56	1559.73
1016.851	1538.26
1017.143	1538.72
1017.435	1561.54
1017.727	1529.68
1018.018	1502.79
1018.31	1505.27
1018.602	1499.4
1018.893	1473.18
1019.185	1475.67
1019.476	1485.61
1019.767	1456.23
1020.058	1449.23
1020.35	1422.34
1020.641	1446.06
1020.932	1395.44
1021.223	1390.47
1021.514	1389.34
1021.804	1374.88
1022.095	1359.06
1022.386	1369.68
1022.677	1351.83
1022.967	1342.79
1023.258	1351.83
1023.548	1314.32
1023.839	1340.08
1024.129	1313.41
1024.419	1308.67
1024.709	1300.08
1025	1306.18
1025.29	1270.25
1025.58	1255.79
1025.87	1227.76
1026.16	1249.46
1026.449	1234.54
1026.739	1240.65
1027.029	1230.93
1027.319	1209.91
1027.608	1217.82
1027.898	1231.83
1028.187	1190.25
1028.477	1223.24
1028.766	1205.17
1029.055	1168.78
1029.344	1166.52
1029.634	1177.6
1029.923	1160.2
1030.212	1149.8
1030.501	1148.9
1030.79	1166.75
1031.078	1125.17
1031.367	1117.71
1031.656	1099.63
1031.945	1125.85
1032.233	1100.76
1032.522	1100.99
1032.81	1077.94
1033.099	1089.01
1033.387	1072.51
1033.675	1081.78
1033.963	1092.17
1034.251	1044.04
1034.54	1033.42
1034.828	1048.11
1035.116	995.23
1035.403	1011.27
1035.691	1007.66
1035.979	983.02
1036.267	1018.28
1036.554	993.87
1036.842	1001.33
1037.129	988.22
1037.417	958.39
1037.704	967.21
1037.992	978.28
1038.279	949.35
1038.566	948.45
1038.853	948.45
1039.14	948.45
