Data from hue_120_FLMS001491_00019.txt Node
Date: Tue Feb 07 16:59:00 GMT 2017
User: dcchb
Spectrometer: FLMS00149
Trigger mode: 0
Integration Time (sec): 2.000000E-2
Scans to average: 10
Electric dark correction enabled: true
Nonlinearity correction enabled: false
Boxcar width: 0
XAxis mode: Wavelengths
Number of Pixels in Spectrum: 2048
>>>>>Begin Spectral Data<<<<<
341.393	-19.42
341.776	-19.42
342.16	-19.42
342.543	-81.79
342.927	-52.19
343.31	-68.68
343.693	-82.92
344.077	-68.46
344.46	-67.1
344.843	-65.97
345.226	-32.08
345.61	-41.79
345.993	7.47
346.376	4.31
346.759	34.59
347.142	30.97
347.525	46.34
347.908	36.4
348.291	73.68
348.674	98.99
349.057	94.25
349.44	115.72
349.823	135.15
350.206	146.22
350.588	184.42
350.971	223.51
351.354	235.71
351.737	214.92
352.119	260.35
352.502	265.09
352.884	270.29
353.267	286.56
353.65	273
354.032	294.92
354.414	288.37
354.797	328.59
355.179	313.9
355.562	306.22
355.944	319.78
356.326	344.64
356.709	343.06
357.091	340.8
357.473	333.79
357.855	336.95
358.238	337.41
358.62	355.03
359.002	342.38
359.384	327.24
359.766	333.34
360.148	359.78
360.53	337.63
360.912	322.94
361.294	321.81
361.676	327.46
362.057	320.01
362.439	296.05
362.821	330.17
363.203	302.61
363.584	340.57
363.966	338.54
364.348	325.43
364.729	305.32
365.111	313.68
365.493	332.66
365.874	302.61
366.256	319.1
366.637	300.57
367.019	309.38
367.4	306.22
367.781	313.68
368.163	319.33
368.544	301.48
368.925	301.25
369.306	303.96
369.688	303.06
370.069	305.99
370.45	307.35
370.831	303.96
371.212	315.71
371.593	319.1
371.974	322.27
372.355	310.51
372.736	295.6
373.117	307.58
373.498	322.49
373.879	297.63
374.26	299.89
374.641	341.47
375.021	318.42
375.402	328.82
375.783	327.24
376.163	348.71
376.544	297.63
376.925	322.27
377.305	344.41
377.686	339.67
378.066	332.21
378.447	330.4
378.827	331.76
379.208	325.2
379.588	326.33
379.968	336.95
380.349	337.63
380.729	324.98
381.109	329.27
381.489	329.5
381.87	324.53
382.25	341.25
382.63	339.67
383.01	350.06
383.39	341.47
383.77	349.16
384.15	348.03
384.53	360
384.91	350.06
385.29	355.03
385.67	365.2
386.049	371.76
386.429	374.47
386.809	347.8
387.189	373.79
387.568	351.64
387.948	366.33
388.328	361.59
388.707	365.2
389.087	363.17
389.466	378.08
389.846	373.11
390.225	349.16
390.605	363.39
390.984	381.92
391.363	371.08
391.743	379.21
392.122	370.85
392.501	381.92
392.881	379.44
393.26	390.29
393.639	390.51
394.018	372.43
394.397	393
394.776	395.26
395.155	393.68
395.534	394.58
395.913	383.28
396.292	393
396.671	401.59
397.05	388.48
397.429	383.51
397.808	418.08
398.186	397.29
398.565	397.52
398.944	414.01
399.323	404.07
399.701	403.62
400.08	393.9
400.458	400.91
400.837	397.97
401.215	424.41
401.594	438.65
401.972	416.95
402.351	416.73
402.729	422.83
403.107	395.48
403.486	435.48
403.864	419.44
404.242	427.57
404.62	447.46
404.999	436.16
405.377	416.27
405.755	450.4
406.133	432.09
406.511	422.15
406.889	461.24
407.267	454.47
407.645	461.24
408.023	467.8
408.401	454.24
408.779	470.28
409.156	463.28
409.534	460.12
409.912	449.72
410.29	468.93
410.667	501.47
411.045	490.62
411.422	460.12
411.8	490.4
412.178	491.75
412.555	481.13
412.933	510.74
413.31	506.89
413.687	534.01
414.065	516.61
414.442	524.07
414.819	520.9
415.197	498.76
415.574	517.51
415.951	537.4
416.328	516.61
416.705	530.17
417.082	544.86
417.46	533.11
417.837	542.15
418.214	552.77
418.591	567.68
418.967	551.41
419.344	555.03
419.721	560.45
420.098	570.39
420.475	578.53
420.852	589.38
421.228	569.72
421.605	550.06
421.982	581.92
422.358	577.4
422.735	603.61
423.111	603.16
423.488	604.74
423.864	580.79
424.241	615.14
424.617	609.72
424.994	634.35
425.37	602.48
425.746	642.71
426.123	616.5
426.499	636.83
426.875	634.12
427.251	667.12
427.627	662.37
428.003	649.26
428.379	649.71
428.756	663.27
429.132	681.35
429.507	685.19
429.883	674.12
430.259	696.94
430.635	696.72
431.011	685.19
431.387	705.31
431.763	710.5
432.138	704.63
432.514	710.5
432.89	713.44
433.265	734.01
433.641	748.24
434.016	774.91
434.392	767.45
434.767	760.9
435.143	783.5
435.518	783.5
435.894	783.27
436.269	802.25
436.644	798.19
437.02	805.19
437.395	809.26
437.77	832.99
438.145	829.14
438.52	833.44
438.895	840.67
439.271	837.05
439.646	850.16
440.021	872.31
440.395	866.66
440.77	872.76
441.145	903.49
441.52	890.16
441.895	880.89
442.27	911.4
442.645	888.35
443.019	913.21
443.394	907.79
443.769	939.65
444.143	931.06
444.518	945.07
444.892	918.41
445.267	939.2
445.641	941.46
446.016	955.24
446.39	961.57
446.764	953.66
447.139	971.97
447.513	984.85
447.887	985.07
448.262	1001.8
448.636	986.65
449.01	1010.38
449.384	1032.98
449.758	1012.19
450.132	1044.28
450.506	1025.98
450.88	1042.02
451.254	1042.7
451.628	1060.55
452.002	1059.42
452.376	1094.22
452.75	1082.47
453.123	1114.34
453.497	1122.92
453.871	1104.39
454.244	1134
454.618	1164.73
454.992	1154.11
455.365	1172.19
455.739	1173.77
456.112	1199.08
456.486	1231.85
456.859	1226.42
457.232	1232.75
457.606	1253.99
457.979	1254.22
458.352	1282.01
458.725	1293.09
459.099	1307.78
459.472	1317.95
459.845	1362.69
460.218	1377.15
460.591	1389.13
460.964	1380.32
461.337	1389.36
461.71	1416.02
462.083	1456.25
462.456	1465.29
462.829	1462.12
463.201	1512.52
463.574	1489.69
463.947	1522.46
464.32	1558.39
464.692	1587.99
465.065	1579.18
465.438	1622.12
465.81	1636.36
466.183	1664.15
466.555	1675.68
466.928	1701.21
467.3	1712.96
467.672	1783.02
468.045	1794.54
468.417	1823.69
468.789	1820.98
469.161	1875.45
469.534	1894.88
469.906	1913.64
470.278	1953.18
470.65	2001.54
471.022	2042.67
471.394	2103.46
471.766	2106.85
472.138	2124.7
472.51	2157.25
472.882	2220.52
473.253	2274.3
473.625	2279.95
473.997	2408.31
474.369	2394.75
474.74	2457.8
475.112	2526.95
475.484	2570.12
475.855	2660.74
476.227	2673.84
476.598	2778.47
476.97	2834.52
477.341	2880.16
477.713	2941.86
478.084	2975.08
478.455	3153.15
478.827	3165.81
479.198	3264.11
479.569	3354.05
479.94	3449.64
480.311	3476.08
480.682	3614.61
481.053	3760.37
481.424	3809.41
481.795	3900.48
482.166	4017.54
482.537	4092.56
482.908	4255.72
483.279	4301.37
483.65	4467.02
484.021	4601.25
484.391	4683.05
484.762	4772.09
485.133	4870.39
485.503	4970.28
485.874	5169.6
486.244	5242.14
486.615	5343.83
486.985	5533.88
487.356	5662.69
487.726	5821.78
488.097	5944.94
488.467	5989.24
488.837	6210.92
489.207	6346.51
489.578	6497.02
489.948	6638.94
490.318	6744.92
490.688	6860.4
491.058	7041.86
491.428	7144.46
491.798	7320.05
492.168	7518.46
492.538	7607.05
492.908	7755.97
493.278	7971.78
493.648	8073.47
494.017	8197.31
494.387	8284.99
494.757	8510.52
495.126	8689.28
495.496	8647.92
495.866	8863.06
496.235	9006.33
496.605	9094.46
496.974	9204.52
497.344	9352.08
497.713	9465.08
498.082	9592.76
498.452	9716.37
498.821	9844.5
499.19	9912.97
499.559	10100.31
499.928	10169.01
500.298	10242.91
500.667	10385.73
501.036	10546.63
501.405	10597.93
501.774	10625.5
502.143	10727.42
502.512	10857.36
502.88	10983.45
503.249	11042.89
503.618	11112.72
503.987	11212.15
504.356	11334.41
504.724	11378.92
505.093	11491.24
505.462	11552.03
505.83	11688.52
506.199	11751.8
506.567	11896.88
506.936	11922.86
507.304	12049.41
507.672	12147.04
508.041	12122.86
508.409	12312.68
508.777	12362.63
509.145	12466.13
509.514	12533.47
509.882	12607.14
510.25	12638.1
510.618	12681.94
510.986	12739.34
511.354	12855.5
511.722	12951.76
512.09	13057.07
512.458	13009.62
512.826	13068.37
513.193	13123.28
513.561	13160.35
513.929	13305.65
514.297	13425.2
514.664	13387.01
515.032	13490.28
515.4	13562.14
515.767	13622.25
516.135	13612.76
516.502	13475.82
516.869	13851.18
517.237	13840.55
517.604	13743.38
517.972	13839.88
518.339	13961.23
518.706	13926.88
519.073	13938.18
519.44	13974.56
519.808	14135.46
520.175	14097.95
520.542	14228.57
520.909	14210.04
521.276	14178.62
521.643	14308.79
522.009	14361.44
522.376	14377.26
522.743	14434.44
523.11	14578.61
523.477	14603.25
523.843	14670.81
524.21	14684.15
524.577	14777.25
524.943	14786.52
525.31	14776.8
525.676	14937.7
526.043	14872.17
526.409	14920.98
526.776	14972.95
527.142	14995.78
527.508	15017.92
527.874	15173.4
528.241	15140.86
528.607	15086.4
528.973	15166.85
529.339	15204.13
529.705	15213.17
530.071	15264.02
530.437	15327.52
530.803	15287.52
531.169	15339.27
531.535	15282.1
531.901	15332.27
532.267	15340.63
532.632	15306.5
532.998	15321.87
533.364	15340.4
533.73	15264.02
534.095	15365.49
534.461	15379.72
534.826	15337.69
535.192	15382.21
535.557	15351.93
535.923	15274.19
536.288	15311.48
536.653	15318.03
537.019	15163.91
537.384	15339.05
537.749	15369.1
538.114	15207.52
538.479	15258.6
538.845	15240.29
539.21	15098.37
539.575	15154.42
539.94	15072.84
540.305	15109.9
540.67	15085.95
541.034	15108.54
541.399	15071.26
541.764	15087.3
542.129	14974.08
542.494	14960.75
542.858	14983.8
543.223	14955.33
543.587	14958.72
543.952	14979.06
544.316	14923.01
544.681	14732.06
545.045	14906.51
545.41	14828.32
545.774	14749.23
546.138	14725.5
546.503	14829.23
546.867	14727.54
547.231	14750.36
547.595	14673.53
547.959	14636.01
548.324	14636.01
548.688	14526.64
549.052	14620.87
549.416	14595.79
549.779	14504.27
550.143	14480.54
550.507	14538.84
550.871	14520.99
551.235	14410.03
551.599	14476.47
551.962	14378.85
552.326	14365.29
552.689	14393.31
553.053	14299.75
553.417	14291.62
553.78	14453.65
554.143	14290.26
554.507	14317.6
554.87	14293.65
555.234	14369.13
555.597	14358.51
555.96	14367.55
556.323	14318.51
556.686	14303.59
557.05	14332.29
557.413	14246.19
557.776	14316.02
558.139	14303.37
558.502	14244.39
558.865	14221.34
559.228	14236.7
559.59	14292.29
559.953	14220.66
560.316	14318.51
560.679	14241.22
561.041	14351.95
561.404	14365.06
561.767	14370.26
562.129	14332.52
562.492	14362.57
562.854	14326.19
563.217	14317.83
563.579	14354.44
563.941	14406.87
564.304	14434.21
564.666	14391.05
565.028	14455.91
565.39	14354.66
565.753	14511.72
566.115	14606.86
566.477	14578.39
566.839	14476.47
567.201	14509.46
567.563	14589.69
567.925	14635.56
568.287	14595.11
568.648	14619.52
569.01	14707.42
569.372	14812.96
569.734	14706.97
570.095	14748.33
570.457	14770.7
570.819	14772.51
571.18	14758.95
571.542	14808.89
571.903	14807.31
572.265	14810.47
572.626	14830.13
572.987	14867.87
573.349	14912.84
573.71	14923.24
574.071	14839.17
574.432	14926.4
574.794	15018.15
575.155	14989.45
575.516	14863.13
575.877	15011.37
576.238	14900.87
576.599	14988.32
576.96	14992.84
577.32	14989.22
577.681	14994.87
578.042	15009.34
578.403	15019.28
578.763	14911.94
579.124	15072.16
579.485	15165.27
579.845	15127.98
580.206	15061.99
580.566	14971.6
580.927	15063.35
581.287	15113.74
581.648	14979.73
582.008	15015.66
582.368	14988.77
582.728	15073.74
583.089	14969.11
583.449	15015.44
583.809	15026.74
584.169	15011.82
584.529	15025.83
584.889	15085.49
585.249	15004.37
585.609	14929.34
585.969	14977.7
586.329	14927.53
586.688	14992.61
587.048	14919.17
587.408	14958.04
587.768	14902
588.127	14861.09
588.487	14871.94
588.846	14989.68
589.206	14885.95
589.565	14812.96
589.925	14905.38
590.284	14894.99
590.643	14886.18
591.003	14857.25
591.362	14908.32
591.721	14864.93
592.08	14869.68
592.44	14897.93
592.799	14859.06
593.158	14879.17
593.517	14792.85
593.876	14871.49
594.235	14831.94
594.593	14817.03
594.952	14766.63
595.311	14744.94
595.67	14719.18
596.029	14876.46
596.387	14791.49
596.746	14855.89
597.104	14840.08
597.463	14754.88
597.822	14867.87
598.18	14765.5
598.538	14789.46
598.897	14771.6
599.255	14717.82
599.613	14778.61
599.972	14798.72
600.33	14877.14
600.688	14785.84
601.046	14802.11
601.404	14853.86
601.762	14772.51
602.12	14842.11
602.478	14872.84
602.836	14836.01
603.194	14790.59
603.552	14885.95
603.91	14743.36
604.268	14949
604.625	14847.53
604.983	14842.56
605.341	14744.26
605.698	14845.73
606.056	14807.53
606.413	14860.19
606.771	14873.97
607.128	14898.15
607.485	14830.58
607.843	14738.38
608.2	14932.95
608.557	14940.41
608.914	14902.22
609.272	14886.85
609.629	14941.54
609.986	14927.53
610.343	14944.93
610.7	15017.47
611.057	14916.01
611.414	15020.41
611.771	14873.07
612.127	14956.91
612.484	14994.65
612.841	15107.41
613.198	15045.72
613.554	15022.67
613.911	15026.51
614.267	15075.78
614.624	15101.09
614.98	15146.28
615.337	15094.76
615.693	15096.34
616.05	15109
616.406	15141.54
616.762	15176.56
617.118	15106.28
617.475	15075.32
617.831	15211.59
618.187	15277.35
618.543	15231.03
618.899	15259.27
619.255	15214.76
619.611	15245.26
619.967	15231.7
620.323	15283.45
620.678	15266.05
621.034	15097.92
621.39	15220.63
621.746	15346.73
622.101	15402.55
622.457	15225.83
622.812	15285.71
623.168	15288.43
623.523	15248.88
623.879	15303.11
624.234	15256.56
624.589	15236.22
624.945	15304.24
625.3	15218.6
625.655	15291.36
626.01	15271.03
626.365	15235.77
626.72	15252.04
627.075	15216.34
627.43	15291.36
627.785	15253.62
628.14	15198.94
628.495	15161.88
628.85	15186.28
629.205	15145.6
629.559	15303.57
629.914	15204.81
630.269	15161.65
630.623	15100.86
630.978	15130.01
631.332	15160.52
631.687	15147.64
632.041	15127.3
632.396	15166.4
632.75	15070.8
633.104	15160.07
633.459	14983.8
633.813	15011.14
634.167	15025.38
634.521	15013.63
634.875	15013.63
635.229	15000.98
635.583	14970.92
635.937	14902.67
636.291	14939.28
636.645	14892.5
636.999	14848.66
637.352	14880.53
637.706	14853.18
638.06	14908.1
638.413	14776.57
638.767	14771.15
639.121	14868.32
639.474	14628.33
639.828	14797.59
640.181	14698.61
640.534	14734.77
640.888	14716.92
641.241	14670.14
641.594	14689.12
641.947	14712.17
642.301	14618.16
642.654	14683.02
643.007	14626.3
643.36	14683.02
643.713	14650.93
644.066	14625.17
644.419	14496.36
644.771	14430.37
645.124	14343.82
645.477	14351.05
645.83	14248.68
646.182	14265.18
646.535	14130.26
646.888	14139.08
647.24	14157.61
647.593	14145.63
647.945	14121.68
648.298	14094.56
648.65	14118.96
649.002	14005.75
649.355	14166.65
649.707	14043.94
650.059	14212.75
650.411	14329.13
650.763	14306.76
651.115	14421.78
651.467	14340.65
651.819	14429.01
652.171	14423.36
652.523	14349.69
652.875	14396.02
653.227	14305.17
653.578	14389.47
653.93	14391.73
654.282	14301.56
654.633	14283.48
654.985	14370.94
655.337	14338.39
655.688	14459.29
656.039	14441.22
656.391	14294.55
656.742	14431.27
657.094	14311.95
657.445	14459.07
657.796	14422.46
658.147	14400.09
658.498	14294.33
658.849	14472.4
659.2	14395.57
659.551	14241
659.902	14373.87
660.253	14305.4
660.604	14474.44
660.955	14338.62
661.306	14411.16
661.656	14427.66
662.007	14432.85
662.358	14460.65
662.708	14378.17
663.059	14325.06
663.409	14316.7
663.76	14405.06
664.11	14355.12
664.461	14465.85
664.811	14386.75
665.161	14378.62
665.511	14518.95
665.862	14351.95
666.212	14423.14
666.562	14485.96
666.912	14478.5
667.262	14466.75
667.612	14401.22
667.962	14360.77
668.312	14382.01
668.662	14456.36
669.011	14456.81
669.361	14354.89
669.711	14353.08
670.06	14334.55
670.41	14391.05
670.76	14335.91
671.109	14351.73
671.459	14332.29
671.808	14299.75
672.157	14372.29
672.507	14273.99
672.856	14368.68
673.205	14306.08
673.554	14411.61
673.904	14282.12
674.253	14321.67
674.602	14276.47
674.951	14109.93
675.3	13968.91
675.649	14243.26
675.998	14224.72
676.346	14240.77
676.695	14211.62
677.044	14102.02
677.393	14184.05
677.741	14194.44
678.09	14022.47
678.438	14108.8
678.787	14030.61
679.135	14139.98
679.484	14001.23
679.832	14046.2
680.181	13887.78
680.529	14071.06
680.877	13879.42
681.225	13939.08
681.573	14056.59
681.922	13941.34
682.27	13885.98
682.618	13812.31
682.966	13849.59
683.314	13844.62
683.661	13796.49
684.009	13717.62
684.357	13642.82
684.705	13734.79
685.053	13688.69
685.4	13661.35
685.748	13507.23
686.095	13619.99
686.443	13369.15
686.79	13522.6
687.138	13511.3
687.485	13508.36
687.832	13396.05
688.18	13516.04
688.527	13325.54
688.874	13399.89
689.221	13405.09
689.568	13258.65
689.915	13332.09
690.262	13267.91
690.609	13180.46
690.956	13146.34
691.303	13075.6
691.65	13010.07
691.997	13064.53
692.344	12993.12
692.69	12968.94
693.037	12965.32
693.383	12810.98
693.73	12905.66
694.077	12790.19
694.423	12789.51
694.769	12745.44
695.116	12629.96
695.462	12678.32
695.808	12613.47
696.155	12598.1
696.501	12487.82
696.847	12456.64
697.193	12442.4
697.539	12413.02
697.885	12286.24
698.231	12340.25
698.577	12239.92
698.923	12280.37
699.269	12174.38
699.614	12046.48
699.96	12096.42
700.306	12086.7
700.651	11989.3
700.997	11891.9
701.342	11848.52
701.688	11897.55
702.033	11868.63
702.379	11785.01
702.724	11799.48
703.069	11794.28
703.415	11667.73
703.76	11691.01
704.105	11662.98
704.45	11641.52
704.795	11544.12
705.14	11511.58
705.485	11497.34
705.83	11332.82
706.175	11378.92
706.52	11384.35
706.865	11365.37
707.209	11345.93
707.554	11251.47
707.899	11278.59
708.243	11192.94
708.588	11172.15
708.932	11109.1
709.277	11089.21
709.621	11122.89
709.966	10971.03
710.31	11102.77
710.654	10956.56
710.998	10967.41
711.342	10925.15
711.687	10929.9
712.031	10865.04
712.375	10794.53
712.719	10860.97
713.063	10822.55
713.407	10858.49
713.75	10757.25
714.094	10752.5
714.438	10666.63
714.782	10756.57
715.125	10670.69
715.469	10702.33
715.812	10581.88
716.156	10572.39
716.499	10592.5
716.843	10562
717.186	10516.12
717.53	10575.56
717.873	10583.92
718.216	10533.3
718.559	10404.03
718.902	10403.58
719.246	10452.39
719.589	10441.77
719.932	10412.17
720.275	10439.06
720.617	10375.56
720.96	10402.45
721.303	10328.78
721.646	10364.71
721.989	10334.21
722.331	10397.93
722.674	10371.04
723.016	10408.1
723.359	10282.23
723.701	10299.4
724.044	10238.61
724.386	10184.83
724.729	10187.77
725.071	10161.55
725.413	10224.83
725.755	10173.98
726.097	10155.68
726.439	10075
726.782	10182.57
727.124	10149.35
727.465	10114.78
727.807	10081.56
728.149	10097.38
728.491	10077.49
728.833	10106.19
729.175	10052.41
729.516	10096.7
729.858	10101.67
730.199	10040.2
730.541	10039.52
730.882	10117.94
731.224	10012.86
731.565	10020.32
731.906	10039.52
732.248	10032.97
732.589	9972.63
732.93	9982.58
733.271	9992.52
733.612	9980.99
733.953	10066.64
734.294	10002.24
734.635	10009.47
734.976	10005.4
735.317	9915.69
735.658	9980.54
735.999	9972.18
736.339	10000.66
736.68	10048.11
737.021	10021.9
737.361	9919.53
737.702	10096.25
738.042	9962.24
738.383	9938.06
738.723	10112.74
739.063	9970.37
739.404	10057.6
739.744	10040.88
740.084	10022.8
740.424	10029.81
740.764	9975.35
741.104	10114.1
741.444	10035.23
741.784	10094.66
742.124	10131.05
742.464	10108.67
742.804	10122.69
743.143	10161.33
743.483	10190.48
743.823	10162.68
744.162	10160.65
744.502	10303.25
744.841	10234.77
745.181	10327.88
745.52	10346.18
745.86	10367.88
746.199	10331.95
746.538	10397.71
746.877	10462.11
747.216	10569.91
747.556	10554.54
747.895	10649.23
748.234	10613.75
748.573	10637.25
748.911	10734.42
749.25	10823.01
749.589	10807.87
749.928	10969.22
750.267	11026.39
750.605	11028.2
750.944	11044.02
751.283	11120.17
751.621	11264.8
751.96	11191.13
752.298	11373.73
752.636	11501.41
752.975	11499.15
753.313	11614.62
753.651	11808.74
753.989	11763.55
754.327	11918.8
754.666	12020.04
755.004	12149.07
755.342	12282.4
755.679	12431.1
756.017	12443.3
756.355	12616.63
756.693	12764.2
757.031	13018.43
757.368	13077.64
757.706	13166.45
758.044	13330.74
758.381	13473.56
758.719	13630.84
759.056	13720.33
759.394	13912.87
759.731	14044.16
760.068	14222.01
760.405	14325.51
760.743	14498.39
761.08	14686.41
761.417	14817.93
761.754	14934.54
762.091	15096.57
762.428	15285.26
762.765	15393.51
763.102	15637.57
763.438	15715.08
763.775	15764.57
764.112	16092.47
764.449	16270.77
764.785	16363.2
765.122	16532.23
765.458	16583.76
765.795	16689.07
766.131	16944.2
766.467	17040.24
766.804	17129.73
767.14	17291.76
767.476	17527.46
767.812	17392.33
768.148	17670.28
768.485	17723.84
768.821	17846.78
769.157	17882.26
769.492	18050.16
769.828	18193.21
770.164	18274.79
770.5	18372.19
770.836	18430.04
771.171	18434.11
771.507	18603.37
771.842	18586.64
772.178	18794.1
772.513	18885.62
772.849	18966.75
773.184	18920.87
773.519	19148.44
773.855	19061.89
774.19	19112.51
774.525	19119.29
774.86	19301.43
775.195	19399.96
775.53	19324.25
775.865	19284.03
776.2	19429.11
776.535	19376
776.87	19471.82
777.205	19300.3
777.539	19390.24
777.874	19542.55
778.209	19484.93
778.543	19520.86
778.878	19479.73
779.212	19505.49
779.547	19573.28
779.881	19565.15
780.215	19531.03
780.55	19566.51
780.884	19583.23
781.218	19605.37
781.552	19540.97
781.886	19605.83
782.22	19523.79
782.554	19421.2
782.888	19486.51
783.222	19473.4
783.556	19364.93
783.889	19441.31
784.223	19288.55
784.557	19398.6
784.89	19427.3
785.224	19352.73
785.557	19296.68
785.891	19264.37
786.224	19297.81
786.558	19393.4
786.891	19241.77
787.224	19177.14
787.557	19170.58
787.891	19153.63
788.224	19197.02
788.557	19126.29
788.89	19011.49
789.223	19149.12
789.556	18951.83
789.888	18987.31
790.221	18985.96
790.554	18865.96
790.887	18898.05
791.219	18726.98
791.552	18870.25
791.884	18825.73
792.217	18715.23
792.549	18628.9
792.882	18525.63
793.214	18474.56
793.546	18547.78
793.879	18435.91
794.211	18405.63
794.543	18502.8
794.875	18375.35
795.207	18425.07
795.539	18304.39
795.871	18395.24
796.203	18117.05
796.535	18184.17
796.867	18158.86
797.198	18042.48
797.53	17997.06
797.862	18025.98
798.193	18114.34
798.525	17883.61
798.856	17990.5
799.188	17779.66
799.519	17696.5
799.85	17688.36
800.182	17776.04
800.513	17727.91
800.844	17605.43
801.175	17728.36
801.506	17661.02
801.837	17541.25
802.168	17561.81
802.499	17488.59
802.83	17377.86
803.161	17410.4
803.491	17426.45
803.822	17287.47
804.153	17187.13
804.483	17109.39
804.814	17152.78
805.145	17136.96
805.475	17056.06
805.805	17010.87
806.136	17085.67
806.466	17001.6
806.796	17042.5
807.126	16884.09
807.457	16761.38
807.787	16921.6
808.117	16746.24
808.447	16762.51
808.777	16756.86
809.107	16641.61
809.436	16609.29
809.766	16545.57
810.096	16524.33
810.426	16487.49
810.755	16440.26
811.085	16497.43
811.414	16422.86
811.744	16276.2
812.073	16302.64
812.403	16282.3
812.732	16156.65
813.061	16139.48
813.39	16139.7
813.719	16171.79
814.049	16198.23
814.378	16152.13
814.707	16109.87
815.036	15985.13
815.365	15936.09
815.693	15900.61
816.022	15920.95
816.351	15826.94
816.68	15729.54
817.008	15752.37
817.337	15685.03
817.665	15642.99
817.994	15579.49
818.322	15634.86
818.651	15622.43
818.979	15596.67
819.307	15559.15
819.636	15583.11
819.964	15483.9
820.292	15480.51
820.62	15534.07
820.948	15507.85
821.276	15512.15
821.604	15424.24
821.932	15566.38
822.259	15485.71
822.587	15509.89
822.915	15419.5
823.243	15466.95
823.57	15383.11
823.898	15391.25
824.225	15391.02
824.553	15377.01
824.88	15370.01
825.207	15502.88
825.535	15400.97
825.862	15467.63
826.189	15458.82
826.516	15485.26
826.843	15462.88
827.17	15515.09
827.497	15488.65
827.824	15564.35
828.151	15441.19
828.478	15506.73
828.805	15526.16
829.131	15356.45
829.458	15434.64
829.785	15408.87
830.111	15439.38
830.438	15428.76
830.764	15443.22
831.09	15472.6
831.417	15374.3
831.743	15502.43
832.069	15369.33
832.395	15377.69
832.722	15409.1
833.048	15333.62
833.374	15403
833.7	15335.66
834.026	15325.26
834.351	15340.18
834.677	15370.46
835.003	15317.13
835.329	15308.54
835.654	15221.53
835.98	15260.18
836.306	15315.32
836.631	15214.08
836.956	15274.19
837.282	15247.52
837.607	15173.17
837.932	15144.7
838.258	15116
838.583	15095.66
838.908	14967.98
839.233	15109.22
839.558	15034.65
839.883	14968.66
840.208	14967.53
840.533	14953.52
840.858	14889.11
841.182	14895.89
841.507	14906.97
841.832	14790.81
842.156	14746.52
842.481	14706.75
842.805	14727.76
843.13	14689.12
843.454	14677.82
843.778	14610.25
844.103	14589.24
844.427	14509.24
844.751	14542.46
845.075	14546.98
845.399	14445.51
845.723	14385.62
846.047	14315.34
846.371	14303.59
846.695	14257.49
847.019	14185.4
847.343	14123.48
847.666	14054.79
847.99	13944.73
848.313	13972.08
848.637	13867.45
848.96	13942.7
849.284	13905.19
849.607	13721.01
849.931	13705.87
850.254	13703.38
850.577	13591.75
850.9	13452.54
851.223	13546.1
851.546	13395.14
851.869	13265.43
852.192	13324.41
852.515	13352.21
852.838	13157.86
853.161	13276.5
853.483	13198.99
853.806	13024.76
854.129	13041.03
854.451	12919.9
854.774	12941.59
855.096	12934.36
855.419	12825.21
855.741	12855.27
856.063	12768.49
856.385	12751.54
856.708	12626.8
857.03	12618.67
857.352	12731.43
857.674	12573.02
857.996	12621.6
858.318	12505.67
858.64	12493.92
858.961	12424.32
859.283	12382.51
859.605	12344.77
859.926	12411.21
860.248	12271.1
860.57	12251.22
860.891	12263.65
861.212	12225
861.534	12199.92
861.855	12210.09
862.176	12075.85
862.498	12128.96
862.819	12152.69
863.14	12071.34
863.461	12108.4
863.782	11935.52
864.103	12025.91
864.424	12046.25
864.745	12033.82
865.065	11867.27
865.386	11881.74
865.707	11881.51
866.027	11896.2
866.348	11795.86
866.668	11820.04
866.989	11747.28
867.309	11679.71
867.63	11781.17
867.95	11718.12
868.27	11729.2
868.59	11740.72
868.91	11671.57
869.23	11637
869.55	11585.92
869.87	11626.6
870.19	11616.66
870.51	11532.82
870.83	11620.05
871.15	11545.02
871.469	11617.34
871.789	11545.47
872.109	11563.33
872.428	11467.06
872.748	11488.3
873.067	11399.26
873.386	11509.99
873.706	11407.85
874.025	11328.53
874.344	11353.61
874.663	11346.38
874.982	11322.2
875.301	11350.22
875.62	11266.16
875.939	11287.63
876.258	11327.4
876.577	11264.35
876.896	11297.8
877.214	11166.95
877.533	11145.48
877.852	11197.46
878.17	11150.46
878.489	11217.57
878.807	11121.3
879.125	11145.03
879.444	11045.6
879.762	11018.93
880.08	11044.92
880.398	11054.41
880.716	10971.7
881.034	10920.86
881.352	10985.26
881.67	10900.74
881.988	10905.72
882.306	10885.6
882.624	10847.19
882.941	10858.94
883.259	10781.65
883.577	10771.93
883.894	10713.4
884.212	10759.73
884.529	10777.36
884.846	10718.15
885.164	10688.55
885.481	10651.94
885.798	10654.2
886.115	10515.67
886.432	10547.53
886.75	10562.9
887.067	10546.18
887.383	10487.42
887.7	10521.32
888.017	10469.8
888.334	10474.99
888.651	10345.73
888.967	10373.07
889.284	10227.99
889.6	10252.85
889.917	10252.85
890.233	10246.3
890.55	10174.66
890.866	10145.06
891.182	10141.22
891.498	10088.11
891.815	10074.33
892.131	10063.48
892.447	9996.59
892.763	9928.79
893.079	9973.54
893.395	9908.68
893.71	9837.72
894.026	9856.03
894.342	9923.6
894.657	9808.8
894.973	9752.3
895.289	9784.62
895.604	9738.06
895.92	9624.39
896.235	9569.48
896.55	9625.07
896.865	9583.26
897.181	9527.45
897.496	9556.6
897.811	9452.87
898.126	9390.05
898.441	9411.29
898.756	9418.98
899.071	9386.66
899.386	9305.08
899.7	9214.91
900.015	9237.51
900.33	9164.97
900.644	9141.47
900.959	9242.03
901.273	9109.61
901.588	9068.02
901.902	9051.98
902.216	9035.71
902.531	8981.92
902.845	8912.1
903.159	8904.41
903.473	8884.53
903.787	8821.25
904.101	8780.57
904.415	8823.28
904.729	8793.46
905.042	8725.89
905.356	8682.72
905.67	8631.43
905.984	8613.12
906.297	8634.59
906.611	8578.32
906.924	8516.63
907.237	8507.59
907.551	8502.39
907.864	8442.05
908.177	8383.52
908.491	8360.02
908.804	8336.52
909.117	8281.83
909.43	8240.7
909.743	8213.58
910.056	8172
910.368	8117.31
910.681	8099.01
910.994	8127.94
911.307	8099.69
911.619	8039.12
911.932	8080.03
912.244	7900.6
912.557	7957.32
912.869	7894.04
913.181	7782.86
913.494	7866.47
913.806	7762.97
914.118	7816.08
914.43	7698.12
914.742	7699.47
915.054	7679.81
915.366	7639.36
915.678	7571.34
915.99	7577.44
916.302	7604.56
916.613	7468.97
916.925	7492.02
917.236	7436.88
917.548	7413.6
917.859	7366.6
918.171	7316.21
918.482	7311.46
918.794	7289.09
919.105	7238.69
919.416	7218.58
919.727	7226.04
920.038	7217.45
920.349	7098.81
920.66	7114.63
920.971	7127.06
921.282	7082.77
921.593	7027.17
921.903	6974.75
922.214	7003.9
922.525	6925.48
922.835	6897.01
923.146	6963.67
923.456	6837.8
923.767	6842.55
924.077	6874.18
924.387	6744.24
924.697	6719.84
925.008	6686.17
925.318	6722.78
925.628	6615.43
925.938	6610.91
926.248	6586.06
926.558	6592.38
926.867	6590.8
927.177	6551.48
927.487	6477.58
927.796	6449.79
928.106	6413.86
928.416	6450.01
928.725	6433.07
929.034	6354.2
929.344	6352.16
929.653	6344.03
929.962	6257.7
930.271	6199.85
930.581	6237.14
930.89	6177.25
931.199	6156.91
931.508	6153.98
931.817	6105.84
932.125	6068.1
932.434	6102.23
932.743	6030.14
933.051	5998.5
933.36	5953.08
933.669	5945.62
933.977	5941.55
934.286	5917.37
934.594	5902.91
934.902	5817.71
935.21	5835.57
935.519	5817.94
935.827	5786.75
936.135	5748.56
936.443	5696.36
936.751	5681.67
937.059	5699.53
937.367	5655.46
937.674	5670.6
937.982	5595.12
938.29	5598.74
938.597	5603.71
938.905	5583.6
939.213	5539.3
939.52	5469.25
939.827	5509.7
940.135	5496.59
940.442	5433.32
940.749	5435.13
941.056	5392.64
941.363	5348.12
941.67	5339.31
941.977	5281.01
942.284	5253.89
942.591	5295.24
942.898	5251.85
943.205	5237.62
943.511	5174.57
943.818	5222.02
944.125	5162.36
944.431	5141.12
944.738	5139.09
945.044	5101.8
945.35	5088.92
945.657	4974.35
945.963	5023.61
946.269	4993.33
946.575	4973.44
946.881	5036.72
947.187	4998.75
947.493	4927.57
947.799	4913.56
948.105	4871.3
948.41	4871.52
948.716	4857.97
949.022	4832.43
949.327	4802.6
949.633	4781.36
949.938	4738.65
950.244	4802.83
950.549	4764.86
950.854	4692.77
951.16	4713.34
951.465	4653
951.77	4649.16
952.075	4629.04
952.38	4603.28
952.685	4617.97
952.99	4566.22
953.294	4547.01
953.599	4527.58
953.904	4475.15
954.209	4493.46
954.513	4458.65
954.818	4437.64
955.122	4425.43
955.426	4407.36
955.731	4357.19
956.035	4350.18
956.339	4329.39
956.643	4388.6
956.948	4338.88
957.252	4288.26
957.556	4293.23
957.86	4230.19
958.163	4273.35
958.467	4220.92
958.771	4172.11
959.075	4177.31
959.378	4194.48
959.682	4182.73
959.985	4135.95
960.289	4104.09
960.592	4112
960.896	4060.92
961.199	4070.42
961.502	4065.67
961.805	4020.25
962.108	3997.65
962.411	4017.76
962.714	3953.36
963.017	3986.8
963.32	3951.1
963.623	3893.02
963.926	3927.82
964.228	3860.48
964.531	3877.43
964.833	3848.73
965.136	3804.89
965.438	3768.5
965.741	3763.08
966.043	3759.01
966.345	3759.46
966.648	3760.37
966.95	3754.72
967.252	3697.09
967.554	3705.91
967.856	3680.37
968.158	3687.15
968.46	3655.29
968.761	3677.43
969.063	3623.65
969.365	3603.31
969.666	3597.89
969.968	3550.2
970.269	3597.21
970.571	3503.2
970.872	3532.58
971.174	3519.02
971.475	3507.49
971.776	3523.76
972.077	3472.24
972.378	3396.99
972.679	3450.77
972.98	3428.4
973.281	3409.42
973.582	3420.49
973.883	3400.83
974.183	3388.4
974.484	3361.73
974.785	3340.27
975.085	3326.71
975.386	3352.69
975.686	3326.93
975.986	3270.21
976.287	3273.83
976.587	3273.6
976.887	3278.57
977.187	3196.31
977.487	3216.43
977.787	3215.07
978.087	3199.48
978.387	3171.46
978.687	3165.58
978.987	3154.73
979.286	3148.41
979.586	3117.9
979.885	3033.15
980.185	3074.06
980.484	3053.27
980.784	3048.97
981.083	3023.44
981.382	3022.53
981.682	2989.31
981.981	3001.74
982.28	2976.21
982.579	3014.4
982.878	2945.02
983.177	2936.66
983.475	2939.15
983.774	2889.88
984.073	2891.24
984.372	2917.9
984.67	2891.01
984.969	2881.75
985.267	2858.24
985.566	2819.15
985.864	2798.36
986.162	2820.28
986.461	2800.62
986.759	2770.56
987.057	2791.58
987.355	2750.9
987.653	2729.21
987.951	2737.8
988.249	2735.08
988.547	2719.72
988.844	2689.66
989.142	2684.69
989.44	2682.43
989.737	2635.43
990.035	2650.34
990.332	2619.38
990.63	2619.15
990.927	2613.5
991.224	2592.04
991.521	2565.6
991.819	2560.62
992.116	2593.62
992.413	2564.92
992.71	2542.55
993.006	2528.99
993.303	2536.9
993.6	2484.02
993.897	2510
994.193	2486.28
994.49	2462.55
994.787	2456.67
995.083	2457.12
995.379	2454.64
995.676	2408.09
995.972	2397.69
996.268	2440.4
996.565	2403.79
996.861	2357.92
997.157	2353.62
997.453	2362.44
997.749	2343
998.044	2327.18
998.34	2324.25
998.636	2286.06
998.932	2307.75
999.227	2250.58
999.523	2292.16
999.818	2237.47
1000.114	2216.9
1000.409	2218.49
1000.704	2208.54
1001	2219.62
1001.295	2185.95
1001.59	2213.29
1001.885	2174.42
1002.18	2165.83
1002.475	2123.8
1002.77	2136.91
1003.065	2106.17
1003.359	2126.29
1003.654	2083.35
1003.949	2108.43
1004.243	2063.91
1004.538	2041.54
1004.832	2070.02
1005.127	2042.22
1005.421	2035.44
1005.715	2036.34
1006.009	2024.37
1006.304	1984.14
1006.598	1968.32
1006.892	1967.19
1007.186	1953.18
1007.48	1965.39
1007.773	1948.66
1008.067	1910.47
1008.361	1902.56
1008.655	1936.23
1008.948	1903.01
1009.242	1887.65
1009.535	1842
1009.829	1865.28
1010.122	1845.39
1010.415	1855.56
1010.708	1816.24
1011.001	1804.26
1011.295	1809.01
1011.588	1784.6
1011.881	1749.57
1012.173	1782.11
1012.466	1757.71
1012.759	1771.27
1013.052	1759.97
1013.344	1743.7
1013.637	1720.19
1013.93	1708.44
1014.222	1693.3
1014.514	1693.98
1014.807	1669.8
1015.099	1666.86
1015.391	1654.21
1015.683	1652.63
1015.976	1670.93
1016.268	1632.51
1016.56	1650.59
1016.851	1604.72
1017.143	1617.15
1017.435	1585.74
1017.727	1589.8
1018.018	1581.22
1018.31	1562.23
1018.602	1538.96
1018.893	1527.21
1019.185	1557.26
1019.476	1520.65
1019.767	1556.36
1020.058	1510.71
1020.35	1499.41
1020.641	1440.88
1020.932	1488.11
1021.223	1466.64
1021.514	1454.44
1021.804	1448.34
1022.095	1441.11
1022.386	1444.27
1022.677	1413.99
1022.967	1396.14
1023.258	1389.81
1023.548	1396.36
1023.839	1357.72
1024.129	1379.64
1024.419	1363.14
1024.709	1349.81
1025	1375.35
1025.29	1346.42
1025.58	1319.98
1025.87	1305.74
1026.16	1322.47
1026.449	1300.54
1026.739	1292.41
1027.029	1293.09
1027.319	1291.05
1027.608	1275.46
1027.898	1297.38
1028.187	1297.38
1028.477	1266.87
1028.766	1237.95
1029.055	1226.87
1029.344	1251.96
1029.634	1197.72
1029.923	1225.97
1030.212	1216.03
1030.501	1188.23
1030.79	1161.57
1031.078	1155.69
1031.367	1185.97
1031.656	1165.86
1031.945	1157.72
1032.233	1173.09
1032.522	1159.53
1032.81	1141
1033.099	1103.26
1033.387	1120.66
1033.675	1115.24
1033.963	1110.49
1034.251	1110.95
1034.54	1083.15
1034.828	1087.22
1035.116	1069.36
1035.403	1049.7
1035.691	1052.42
1035.979	1042.02
1036.267	1048.35
1036.554	1040.44
1036.842	1032.08
1037.129	1027.78
1037.417	1015.13
1037.704	1016.26
1037.992	994.79
1038.279	996.6
1038.566	992.08
1038.853	992.08
1039.14	992.08
