Data from hue_240_FLMS001491_00028.txt Node
Date: Tue Feb 07 16:35:16 GMT 2017
User: dcchb
Spectrometer: FLMS00149
Trigger mode: 0
Integration Time (sec): 2.000000E-2
Scans to average: 10
Electric dark correction enabled: true
Nonlinearity correction enabled: false
Boxcar width: 0
XAxis mode: Wavelengths
Number of Pixels in Spectrum: 2048
>>>>>Begin Spectral Data<<<<<
341.393	1.6
341.776	1.6
342.16	1.6
342.543	-58.97
342.927	-64.62
343.31	-59.65
343.693	-63.71
344.077	-52.41
344.46	-71.62
344.843	-70.04
345.226	-61.23
345.61	-29.82
345.993	-11.96
346.376	-3.6
346.759	32.1
347.142	19.22
347.525	47.24
347.908	44.31
348.291	93.12
348.674	91.31
349.057	96.73
349.44	141.93
349.823	137.64
350.206	153.23
350.588	195.72
350.971	194.59
351.354	188.26
351.737	229.84
352.119	216.05
352.502	277.75
352.884	254.47
353.267	271.42
353.65	259.44
354.032	297.41
354.414	301.93
354.797	302.38
355.179	313.9
355.562	317.07
355.944	310.06
356.326	327.92
356.709	343.06
357.091	322.72
357.473	338.31
357.855	316.62
358.238	342.15
358.62	336.95
359.002	331.53
359.384	303.51
359.766	332.66
360.148	325.43
360.53	329.5
360.912	351.87
361.294	316.84
361.676	313.68
362.057	333.56
362.439	330.63
362.821	318.2
363.203	313.9
363.584	305.54
363.966	307.8
364.348	330.63
364.729	313.45
365.111	315.03
365.493	335.15
365.874	300.35
366.256	310.06
366.637	295.83
367.019	297.18
367.4	317.07
367.781	319.55
368.163	303.28
368.544	286.56
368.925	303.28
369.306	298.76
369.688	319.33
370.069	295.83
370.45	294.7
370.831	290.18
371.212	305.77
371.593	301.93
371.974	309.16
372.355	297.63
372.736	310.29
373.117	314.13
373.498	303.06
373.879	303.96
374.26	306.67
374.641	322.94
375.021	316.62
375.402	307.58
375.783	329.5
376.163	315.49
376.544	311.42
376.925	306.9
377.305	316.16
377.686	307.12
378.066	326.33
378.447	350.74
378.827	319.33
379.208	303.28
379.588	321.14
379.968	328.37
380.349	305.77
380.729	312.55
381.109	325.88
381.489	340.57
381.87	330.63
382.25	332.43
382.63	318.2
383.01	304.41
383.39	324.75
383.77	317.52
384.15	364.75
384.53	325.43
384.91	332.21
385.29	354.13
385.67	339.44
386.049	356.16
386.429	342.38
386.809	346.67
387.189	326.56
387.568	338.76
387.948	346.67
388.328	352.32
388.707	343.06
389.087	347.35
389.466	349.84
389.846	364.52
390.225	362.72
390.605	360.68
390.984	361.13
391.363	356.39
391.743	372.66
392.122	353.9
392.501	363.39
392.881	375.6
393.26	380.57
393.639	365.65
394.018	384.86
394.397	384.41
394.776	387.57
395.155	373.11
395.534	379.21
395.913	378.08
396.292	357.29
396.671	414.69
397.05	371.08
397.429	400
397.808	397.29
398.186	385.54
398.565	398.42
398.944	383.96
399.323	374.69
399.701	388.48
400.08	381.92
400.458	417.4
400.837	404.98
401.215	400.46
401.594	397.07
401.972	421.47
402.351	428.03
402.729	414.47
403.107	414.92
403.486	429.16
403.864	404.07
404.242	411.08
404.62	440.45
404.999	413.56
405.377	433.9
405.755	450.17
406.133	445.65
406.511	458.08
406.889	453.79
407.267	447.91
407.645	456.73
408.023	476.61
408.401	442.94
408.779	465.99
409.156	480
409.534	463.96
409.912	486.56
410.29	483.17
410.667	510.51
411.045	508.02
411.422	511.19
411.8	532.43
412.178	501.47
412.555	522.49
412.933	536.72
413.31	544.86
413.687	533.79
414.065	545.54
414.442	546.21
414.819	590.73
415.197	555.71
415.574	579.21
415.951	570.17
416.328	592.09
416.705	597.29
417.082	598.42
417.46	584.86
417.837	608.36
418.214	632.31
418.591	621.24
418.967	610.39
419.344	622.82
419.721	622.6
420.098	644.52
420.475	640.45
420.852	674.57
421.228	663.5
421.605	674.57
421.982	679.09
422.358	682.03
422.735	705.76
423.111	694.46
423.488	715.48
423.864	736.94
424.241	767.45
424.617	732.65
424.994	768.13
425.37	765.64
425.746	794.34
426.123	786.43
426.499	784.4
426.875	807.22
427.251	809.94
427.627	825.98
428.003	839.99
428.379	832.99
428.756	866.66
429.132	855.36
429.507	865.75
429.883	890.39
430.259	880.22
430.635	907.33
431.011	876.15
431.387	919.09
431.763	912.31
432.138	953.44
432.514	945.07
432.89	962.02
433.265	961.12
433.641	984.17
434.016	974.9
434.392	1002.93
434.767	1036.37
435.143	1012.87
435.518	1048.8
435.894	1045.64
436.269	1049.93
436.644	1112.98
437.02	1121.11
437.395	1119.76
437.77	1160.21
438.145	1148.46
438.52	1191.62
438.895	1212.86
439.271	1204.05
439.646	1229.59
440.021	1229.59
440.395	1241.79
440.77	1284.05
441.145	1273.43
441.52	1291.05
441.895	1283.6
442.27	1309.81
442.645	1304.84
443.019	1343.26
443.394	1338.51
443.769	1335.57
444.143	1359.98
444.518	1401.33
444.892	1378.73
445.267	1405.4
445.641	1389.81
446.016	1406.53
446.39	1404.72
446.764	1450.15
447.139	1428.68
447.513	1443.37
447.887	1469.13
448.262	1447.43
448.636	1465.29
449.01	1472.97
449.384	1496.25
449.758	1508.9
450.132	1523.36
450.506	1527.66
450.88	1511.84
451.254	1543.7
451.628	1589.58
452.002	1583.02
452.376	1624.6
452.75	1630.03
453.123	1628.9
453.497	1657.37
453.871	1671.38
454.244	1693.53
454.618	1703.02
454.992	1732.4
455.365	1726.3
455.739	1741.44
456.112	1785.05
456.486	1756.8
456.859	1804.71
457.232	1825.05
457.606	1842.45
457.979	1855.78
458.352	1883.35
458.725	1907.76
459.099	1890.13
459.472	1929.23
459.845	1935.56
460.218	1948.89
460.591	1995.67
460.964	2008.1
461.337	2042.9
461.71	2056.01
462.083	2091.26
462.456	2076.57
462.829	2102.33
463.201	2119.05
463.574	2134.2
463.947	2181.88
464.32	2209.22
464.692	2220.07
465.065	2277.24
465.438	2300.07
465.81	2327.18
466.183	2340.97
466.555	2383
466.928	2376
467.3	2392.04
467.672	2414.41
468.045	2463.68
468.417	2466.62
468.789	2471.14
469.161	2538.25
469.534	2545.26
469.906	2605.6
470.278	2578.25
470.65	2627.74
471.022	2728.08
471.394	2758.81
471.766	2762.88
472.138	2758.59
472.51	2832.93
472.882	2873.38
473.253	2923.55
473.625	2948.41
473.997	2987.28
474.369	3040.61
474.74	3044.45
475.112	3089.42
475.484	3145.92
475.855	3178.69
476.227	3168.07
476.598	3279.7
476.97	3297.1
477.341	3350.21
477.713	3392.69
478.084	3443.54
478.455	3528.96
478.827	3545.23
479.198	3659.35
479.569	3607.15
479.94	3702.74
480.311	3728.73
480.682	3795.85
481.053	3853.92
481.424	3955.84
481.795	3968.72
482.166	4027.25
482.537	4048.95
482.908	4145.44
483.279	4162.84
483.65	4208.94
484.021	4309.73
484.391	4346.34
484.762	4395.6
485.133	4408.71
485.503	4479.22
485.874	4571.42
486.244	4575.49
486.615	4697.29
486.985	4742.04
487.356	4726.67
487.726	4778.42
488.097	4901.13
488.467	4901.13
488.837	4923.73
489.207	5053.89
489.578	5116.26
489.948	5156.94
490.318	5215.24
490.688	5165.75
491.058	5272.87
491.428	5324.85
491.798	5395.8
492.168	5487.78
492.538	5547.21
492.908	5586.99
493.278	5572.97
493.648	5667.44
494.017	5653.42
494.387	5752.41
494.757	5742.24
495.126	5811.39
495.496	5811.84
495.866	5888.67
496.235	5935
496.605	5894.32
496.974	5989.91
497.344	6007.77
497.713	6008.67
498.082	6055.22
498.452	6169.57
498.821	6137.71
499.19	6138.61
499.559	6246.63
499.928	6172.28
500.298	6314.88
500.667	6345.38
501.036	6258.61
501.405	6387.64
501.774	6361.65
502.143	6454.76
502.512	6416.79
502.88	6512.39
503.249	6466.28
503.618	6498.83
503.987	6541.09
504.356	6633.51
504.724	6596.9
505.093	6659.05
505.462	6657.69
505.83	6667.18
506.199	6730.68
506.567	6763
506.936	6747.86
507.304	6820.63
507.672	6794.41
508.041	6815.65
508.409	6872.83
508.777	6886.61
509.145	6970
509.514	6896.78
509.882	6985.37
510.25	6988.53
510.618	6996.89
510.986	7010.9
511.354	7064.24
511.722	7087.29
512.09	7150.56
512.458	7130
512.826	7175.19
513.193	7168.41
513.561	7231.91
513.929	7233.27
514.297	7224.23
514.664	7275.98
515.032	7282.08
515.4	7330.22
515.767	7384.23
516.135	7324.79
516.502	7356.2
516.869	7398.92
517.237	7355.75
517.604	7415.19
517.972	7474.62
518.339	7455.41
518.706	7417.22
519.073	7501.74
519.44	7500.83
519.808	7548.06
520.175	7516.88
520.542	7619.7
520.909	7616.99
521.276	7660.83
521.643	7705.12
522.009	7724.56
522.376	7729.53
522.743	7738.57
523.11	7773.6
523.477	7876.42
523.843	7823.54
524.21	7893.59
524.577	7908.51
524.943	7880.48
525.31	7954.61
525.676	7924.33
526.043	7961.39
526.409	8022.4
526.776	8053.59
527.142	8018.11
527.508	8086.58
527.874	8061.72
528.241	8127.26
528.607	8117.54
528.973	8165.22
529.339	8130.87
529.705	8176.75
530.071	8265.33
530.437	8225.56
530.803	8247.71
531.169	8256.07
531.535	8283.41
531.901	8210.19
532.267	8237.09
532.632	8229.18
532.998	8287.48
533.364	8268.5
533.73	8275.28
534.095	8225.56
534.461	8311.89
534.826	8288.38
535.192	8284.09
535.557	8373.35
535.923	8347.59
536.288	8346.91
536.653	8357.76
537.019	8278.89
537.384	8330.42
537.749	8340.81
538.114	8327.93
538.479	8324.77
538.845	8331.32
539.21	8265.11
539.575	8285.67
539.94	8262.17
540.305	8330.87
540.67	8278.89
541.034	8277.08
541.399	8289.06
541.764	8254.94
542.129	8244.54
542.494	8285.22
542.858	8314.15
543.223	8303.07
543.587	8343.07
543.952	8276.63
544.316	8259.46
544.681	8269.63
545.045	8256.29
545.41	8249.74
545.774	8241.61
546.138	8260.14
546.503	8327.48
546.867	8228.27
547.231	8254.49
547.595	8304.88
547.959	8226.92
548.324	8235.73
548.688	8282.96
549.052	8293.81
549.416	8325.22
549.779	8296.52
550.143	8195.28
550.507	8266.46
550.871	8276.18
551.235	8228.05
551.599	8221.94
551.962	8265.33
552.326	8237.99
552.689	8252.9
553.053	8236.41
553.417	8173.81
553.78	8271.66
554.143	8268.72
554.507	8269.4
554.87	8309.4
555.234	8299.46
555.597	8230.53
555.96	8263.53
556.323	8279.12
556.686	8301.26
557.05	8327.25
557.413	8344.43
557.776	8331.77
558.139	8379.23
558.502	8376.97
558.865	8262.17
559.228	8370.42
559.59	8434.14
559.953	8465.1
560.316	8460.13
560.679	8454.48
561.041	8513.01
561.404	8499.9
561.767	8535.83
562.129	8506.01
562.492	8559.79
562.854	8543.52
563.217	8455.61
563.579	8537.87
563.941	8569.73
564.304	8639.56
564.666	8666.45
565.028	8654.93
565.39	8668.26
565.753	8717.07
566.115	8738.09
566.477	8728.15
566.839	8760.24
567.201	8807.47
567.563	8793.46
567.925	8910.29
568.287	8848.6
568.648	8881.36
569.01	8979.89
569.372	8973.11
569.734	8928.37
570.095	8984.64
570.457	8993.68
570.819	8989.83
571.18	9071.41
571.542	9088.59
571.903	9076.16
572.265	9075.26
572.626	9128.36
572.987	9128.81
573.349	9136.95
573.71	9178.3
574.071	9200
574.432	9251.75
574.794	9342.59
575.155	9244.97
575.516	9211.07
575.877	9290.39
576.238	9293.56
576.599	9321.35
576.96	9350.95
577.32	9387.79
577.681	9411.97
578.042	9432.53
578.403	9418.52
578.763	9459.43
579.124	9462.14
579.485	9461.23
579.845	9530.39
580.206	9514.34
580.566	9519.99
580.927	9555.47
581.287	9557.73
581.648	9602.47
582.008	9629.59
582.368	9591.4
582.728	9616.03
583.089	9661.23
583.449	9671.85
583.809	9721.34
584.169	9615.13
584.529	9592.3
584.889	9662.36
585.249	9604.73
585.609	9654
585.969	9719.08
586.329	9727.89
586.688	9722.92
587.048	9719.53
587.408	9749.81
587.768	9704.39
588.127	9751.17
588.487	9706.65
588.846	9812.19
589.206	9742.81
589.565	9752.98
589.925	9742.36
590.284	9810.83
590.643	9745.52
591.003	9829.59
591.362	9862.58
591.721	9802.47
592.08	9802.92
592.44	9900.54
592.799	9859.64
593.158	9891.51
593.517	9772.86
593.876	9842.47
594.235	9897.16
594.593	9837.5
594.952	9881.56
595.311	9938.74
595.67	9890.6
596.029	9958.4
596.387	9938.74
596.746	9951.84
597.104	9910.71
597.463	9960.88
597.822	9937.83
598.18	9941.45
598.538	9928.79
598.897	9919.08
599.255	9948.68
599.613	10015.34
599.972	10010.37
600.33	10008.56
600.688	9950.03
601.046	9938.06
601.404	10036.81
601.762	9973.31
602.12	10011.95
602.478	10057.83
602.836	10039.52
603.194	9943.93
603.552	10022.8
603.91	10013.99
604.268	10051.95
604.625	9986.64
604.983	10069.35
605.341	10035.23
605.698	10128.34
606.056	10028.45
606.413	10021.22
606.771	10112.74
607.128	10079.07
607.485	10041.78
607.843	10075
608.2	10125.4
608.557	10173.76
608.914	10120.65
609.272	10131.73
609.629	10148
609.986	10230.25
610.343	10193.64
610.7	10189.58
611.057	10226.64
611.414	10234.77
611.771	10226.19
612.127	10305.51
612.484	10236.81
612.841	10234.32
613.198	10224.6
613.554	10249.69
613.911	10286.3
614.267	10321.78
614.624	10254.66
614.98	10313.19
615.337	10335.11
615.693	10349.57
616.05	10328.78
616.406	10407.2
616.762	10334.43
617.118	10368.78
617.475	10329.46
617.831	10364.04
618.187	10388.67
618.543	10438.38
618.899	10434.77
619.255	10379.63
619.611	10479.06
619.967	10513.18
620.323	10509.12
620.678	10443.81
621.034	10440.64
621.39	10381.21
621.746	10416.24
622.101	10424.82
622.457	10450.13
622.812	10380.76
623.168	10401.55
623.523	10430.7
623.879	10443.13
624.234	10430.47
624.589	10389.8
624.945	10456.69
625.3	10460.53
625.655	10412.4
626.01	10436.58
626.365	10417.59
626.72	10397.03
627.075	10482.22
627.43	10464.15
627.785	10426.86
628.14	10416.01
628.495	10402.68
628.85	10425.95
629.205	10382.34
629.559	10424.37
629.914	10373.75
630.269	10358.61
630.623	10351.38
630.978	10300.31
631.332	10349.35
631.687	10396.8
632.041	10276.58
632.396	10377.59
632.75	10312.74
633.104	10233.42
633.459	10259.41
633.813	10252.4
634.167	10235
634.521	10280.65
634.875	10255.34
635.229	10229.12
635.583	10184.38
635.937	10192.29
636.291	10184.83
636.645	10188.9
636.999	10110.03
637.352	10115.23
637.706	10087.43
638.06	10151.16
638.413	10114.1
638.767	10065.74
639.121	10119.97
639.474	10090.6
639.828	10013.31
640.181	10012.41
640.534	10051.05
640.888	9989.36
641.241	9972.18
641.594	10066.19
641.947	10011.05
642.301	9989.58
642.654	10044.04
643.007	10003.14
643.36	9963.82
643.713	9915.23
644.066	9947.1
644.419	9921.79
644.771	9865.74
645.124	9708.46
645.477	9696.48
645.83	9651.06
646.182	9672.53
646.535	9593.66
646.888	9623.49
647.24	9565.64
647.593	9601.34
647.945	9559.76
648.298	9502.59
648.65	9564.28
649.002	9454.91
649.355	9534.23
649.707	9552.53
650.059	9587.11
650.411	9695.8
650.763	9674.34
651.115	9859.87
651.467	9764.5
651.819	9810.15
652.171	9830.49
652.523	9812.19
652.875	9739.19
653.227	9701.45
653.578	9750.94
653.93	9790.94
654.282	9726.31
654.633	9641.12
654.985	9710.49
655.337	9702.58
655.688	9746.88
656.039	9721.34
656.391	9596.82
656.742	9712.53
657.094	9681.79
657.445	9738.29
657.796	9783.26
658.147	9652.19
658.498	9676.6
658.849	9696.93
659.2	9718.85
659.551	9675.24
659.902	9706.2
660.253	9692.41
660.604	9676.37
660.955	9658.52
661.306	9707.78
661.656	9663.04
662.007	9666.88
662.358	9710.27
662.708	9710.72
663.059	9728.12
663.409	9608.58
663.76	9744.16
664.11	9707.1
664.461	9700.32
664.811	9620.55
665.161	9687.22
665.511	9651.29
665.862	9667.56
666.212	9632.3
666.562	9761.34
666.912	9609.7
667.262	9695.8
667.612	9665.75
667.962	9650.38
668.312	9638.63
668.662	9661.23
669.011	9622.59
669.361	9679.31
669.711	9636.37
670.06	9596.6
670.41	9600.21
670.76	9574
671.109	9584.17
671.459	9593.66
671.808	9615.58
672.157	9593.66
672.507	9511.18
672.856	9519.09
673.205	9600.67
673.554	9659.65
673.904	9616.48
674.253	9568.58
674.602	9554.34
674.951	9438.41
675.3	9434.34
675.649	9565.19
675.998	9524.28
676.346	9478.86
676.695	9536.94
677.044	9456.71
677.393	9534.9
677.741	9474.57
678.09	9514.57
678.438	9388.47
678.787	9433.44
679.135	9521.57
679.484	9376.26
679.832	9477.51
680.181	9403.61
680.529	9428.92
680.877	9351.18
681.225	9313.22
681.573	9327.23
681.922	9316.15
682.27	9322.93
682.618	9282.71
682.966	9311.63
683.314	9297.17
683.661	9249.26
684.009	9177.17
684.357	9205.65
684.705	9145.54
685.053	9189.6
685.4	9151.64
685.748	9093.79
686.095	9097.4
686.443	8990.29
686.79	9040.23
687.138	9065.31
687.485	9039.78
687.832	9031.42
688.18	8971.08
688.527	8978.76
688.874	8944.64
689.221	8981.25
689.568	8910.06
689.915	8859.44
690.262	8801.14
690.609	8915.71
690.956	8778.77
691.303	8808.14
691.65	8780.35
691.997	8741.48
692.344	8744.64
692.69	8757.3
693.037	8725.66
693.383	8712.55
693.73	8683.85
694.077	8601.6
694.423	8561.14
694.769	8567.25
695.116	8497.42
695.462	8501.94
695.808	8439.11
696.155	8506.68
696.501	8446.12
696.847	8428.72
697.193	8308.72
697.539	8396.18
697.885	8366.8
698.231	8311.21
698.577	8316.18
698.923	8286.35
699.269	8216.3
699.614	8176.07
699.96	8176.52
700.306	8191.21
700.651	8130.2
700.997	8123.42
701.342	8107.37
701.688	8111.44
702.033	8010.42
702.379	8028.96
702.724	7932.01
703.069	7979.69
703.415	7864.67
703.76	7928.39
704.105	7883.65
704.45	7898.79
704.795	7821.05
705.14	7790.54
705.485	7776.31
705.83	7743.54
706.175	7773.6
706.52	7668.29
706.865	7703.09
707.209	7646.14
707.554	7647.95
707.899	7628.29
708.243	7554.62
708.588	7580.38
708.932	7528.86
709.277	7462.87
709.621	7561.17
709.966	7545.58
710.31	7522.75
710.654	7366.83
710.998	7426.71
711.342	7468.52
711.687	7385.13
712.031	7353.49
712.375	7367.5
712.719	7416.09
713.063	7335.64
713.407	7282.08
713.75	7295.64
714.094	7253.83
714.438	7286.6
714.782	7290.9
715.125	7244.34
715.469	7269.43
715.812	7261.74
716.156	7178.13
716.499	7214.97
716.843	7259.26
717.186	7158.7
717.53	7176.55
717.873	7181.29
718.216	7159.83
718.559	7161.18
718.902	7065.37
719.246	7108.08
719.589	7099.71
719.932	7110.34
720.275	7074.63
720.617	7051.58
720.96	7047.29
721.303	7016.33
721.646	7044.57
721.989	6981.3
722.331	6967.97
722.674	6978.14
723.016	7006.16
723.359	6938.59
723.701	6972.03
724.044	6971.58
724.386	6909.66
724.729	6912.6
725.071	6904.47
725.413	6940.85
725.755	6905.6
726.097	6881.87
726.439	6894.3
726.782	6869.89
727.124	6965.03
727.465	6874.41
727.807	6840.74
728.149	6831.92
728.491	6846.39
728.833	6843.9
729.175	6781.3
729.516	6861.08
729.858	6820.4
730.199	6852.49
730.541	6782.89
730.882	6850.23
731.224	6788.54
731.565	6798.03
731.906	6786.5
732.248	6755.09
732.589	6744.24
732.93	6767.07
733.271	6759.16
733.612	6798.71
733.953	6811.81
734.294	6732.27
734.635	6754.86
734.976	6807.29
735.317	6755.09
735.658	6739.27
735.999	6757.12
736.339	6790.12
736.68	6795.54
737.021	6740.18
737.361	6720.52
737.702	6795.77
738.042	6721.87
738.383	6788.31
738.723	6817.46
739.063	6796.22
739.404	6758.03
739.744	6824.02
740.084	6772.04
740.424	6800.06
740.764	6795.99
741.104	6798.03
741.444	6805.94
741.784	6802.1
742.124	6781.08
742.464	6819.04
742.804	6809.33
743.143	6826.5
743.483	6888.19
743.823	6829.67
744.162	6870.34
744.502	6897.91
744.841	6876.44
745.181	6940.85
745.52	6959.83
745.86	6942.88
746.199	6941.53
746.538	6948.53
746.877	6979.94
747.216	7053.39
747.556	7007.29
747.895	7068.08
748.234	7110.11
748.573	7136.1
748.911	7113.73
749.25	7216.55
749.589	7146.49
749.928	7185.59
750.267	7324.79
750.605	7288.86
750.944	7361.4
751.283	7284.57
751.621	7397.11
751.96	7492.25
752.298	7548.29
752.636	7555.3
752.975	7587.84
753.313	7609.08
753.651	7753.93
753.989	7763.2
754.327	7780.37
754.666	7860.6
755.004	7967.49
755.342	8034.83
755.679	8085.68
756.017	8102.63
756.355	8277.54
756.693	8303.52
757.031	8408.61
757.368	8489.51
757.706	8488.83
758.044	8573.57
758.381	8700.12
758.719	8793.23
759.056	8882.04
759.394	9012.66
759.731	9051.98
760.068	9178.76
760.405	9127.46
760.743	9254.46
761.08	9407.22
761.417	9480.22
761.754	9571.06
762.091	9662.81
762.428	9726.54
762.765	9846.31
763.102	9964.27
763.438	9992.75
763.775	10117.49
764.112	10164.49
764.449	10230.03
764.785	10343.02
765.122	10302.34
765.458	10412.62
765.795	10520.19
766.131	10673.63
766.467	10669.11
766.804	10754.53
767.14	10836.79
767.476	10957.01
767.812	10925.6
768.148	11000.18
768.485	11067.75
768.821	11082.21
769.157	11248.53
769.492	11270.68
769.828	11352.71
770.164	11365.82
770.5	11387.96
770.836	11398.81
771.171	11486.04
771.507	11507.73
771.842	11519.49
772.178	11578.24
772.513	11608.07
772.849	11662.31
773.184	11708.41
773.519	11698.24
773.855	11711.34
774.19	11751.57
774.525	11822.75
774.86	11836.77
775.195	11933.71
775.53	11848.74
775.865	11815.52
776.2	11779.59
776.535	11832.47
776.87	11847.16
777.205	11873.15
777.539	11914.73
777.874	11945.91
778.209	11887.84
778.543	11990.89
778.878	11852.58
779.212	11973.26
779.547	11944.78
779.881	11945.69
780.215	11885.13
780.55	11980.94
780.884	11921.51
781.218	11915.18
781.552	12012.35
781.886	11883.09
782.22	11895.75
782.554	11960.15
782.888	11863.66
783.222	11794.28
783.556	11819.14
783.889	11840.38
784.223	11693.94
784.557	11768.07
784.89	11818.23
785.224	11747.5
785.557	11679.71
785.891	11681.51
786.224	11715.41
786.558	11724.23
786.891	11607.17
787.224	11606.26
787.557	11600.39
787.891	11605.36
788.224	11562.65
788.557	11543.67
788.89	11504.34
789.223	11580.95
789.556	11605.36
789.888	11504.34
790.221	11435.42
790.554	11400.39
790.887	11383.9
791.219	11306.84
791.552	11434.97
791.884	11279.94
792.217	11307.06
792.549	11320.39
792.882	11203.79
793.214	11299.6
793.546	11264.58
793.879	11201.98
794.211	11053.28
794.543	11207.86
794.875	11151.59
795.207	11142.09
795.539	11045.6
795.871	11058.25
796.203	10993.17
796.535	10937.58
796.867	10970.57
797.198	10912.95
797.53	10923.34
797.862	10952.95
798.193	10827.75
798.525	10834.98
798.856	10790.24
799.188	10737.13
799.519	10840.41
799.85	10680.86
800.182	10664.14
800.513	10623.46
800.844	10523.13
801.175	10672.05
801.506	10596.57
801.837	10566.06
802.168	10576.01
802.499	10530.36
802.83	10489.46
803.161	10393.41
803.491	10476.12
803.822	10463.24
804.153	10304.6
804.483	10297.6
804.814	10273.19
805.145	10302.79
805.475	10284.49
805.805	10252.85
806.136	10332.62
806.466	10270.93
806.796	10225.06
807.126	10202.01
807.457	10111.84
807.787	10144.61
808.117	10054.21
808.447	10118.62
808.777	10130.82
809.107	10069.13
809.436	9997.49
809.766	10000.2
810.096	9954.55
810.426	9975.57
810.755	9995.91
811.085	9910.04
811.414	9919.75
811.744	9839.53
812.073	9865.52
812.403	9831.85
812.732	9741.45
813.061	9772.64
813.39	9749.59
813.719	9712.98
814.049	9793.65
814.378	9654.22
814.707	9699.87
815.036	9691.28
815.365	9615.35
815.693	9592.76
816.022	9541.01
816.351	9499.65
816.68	9468.92
817.008	9514.11
817.337	9496.26
817.665	9443.38
817.994	9433.44
818.322	9431.63
818.651	9365.64
818.979	9320.22
819.307	9422.14
819.636	9373.33
819.964	9349.15
820.292	9370.62
820.62	9394.34
820.948	9318.87
821.276	9414
821.604	9307.57
821.932	9303.95
822.259	9344.85
822.587	9317.51
822.915	9264.63
823.243	9413.1
823.57	9354.12
823.898	9291.75
824.225	9269.83
824.553	9313.67
824.88	9278.87
825.207	9301.92
825.535	9352.76
825.862	9301.24
826.189	9343.95
826.516	9422.37
826.843	9352.76
827.17	9354.12
827.497	9310.28
827.824	9384.63
828.151	9367.68
828.478	9300.33
828.805	9431.86
829.131	9333.33
829.458	9371.75
829.785	9341.92
830.111	9361.35
830.438	9370.84
830.764	9431.86
831.09	9373.1
831.417	9297.17
831.743	9371.97
832.069	9370.16
832.395	9275.93
832.722	9385.98
833.048	9290.62
833.374	9340.56
833.7	9237.96
834.026	9264.63
834.351	9297.4
834.677	9256.04
835.003	9287.45
835.329	9197.74
835.654	9229.38
835.98	9172.2
836.306	9201.81
836.631	9160.23
836.956	9221.24
837.282	9230.28
837.607	9187.8
837.932	9151.64
838.258	9141.24
838.583	9138.08
838.908	9141.47
839.233	9127.46
839.558	9012.43
839.883	9049.95
840.208	9018.76
840.533	9093.33
840.858	9042.49
841.182	9062.37
841.507	8982.83
841.832	8959.55
842.156	8966.56
842.481	8923.17
842.805	8967.69
843.13	8933.34
843.454	8868.71
843.778	8823.51
844.103	8834.13
844.427	8895.83
844.751	8847.47
845.075	8812.66
845.399	8799.56
845.723	8726.34
846.047	8757.75
846.371	8720.24
846.695	8682.5
847.019	8622.16
847.343	8628.04
847.666	8505.33
847.99	8487.02
848.313	8485.21
848.637	8421.94
848.96	8479.34
849.284	8384.2
849.607	8374.71
849.931	8339.91
850.254	8275.05
850.577	8276.86
850.9	8239.57
851.223	8123.64
851.546	8097.65
851.869	8078.22
852.192	8062.63
852.515	8074.15
852.838	8060.14
853.161	8033.7
853.483	7974.49
853.806	7962.97
854.129	7986.02
854.451	7905.12
854.774	7853.59
855.096	7884.33
855.419	7874.38
855.741	7809.07
856.063	7803.88
856.385	7704.22
856.708	7762.97
857.03	7668.51
857.352	7716.87
857.674	7740.38
857.996	7638.46
858.318	7588.74
858.64	7565.46
858.961	7591.9
859.283	7501.96
859.605	7588.29
859.926	7574.73
860.248	7527.73
860.57	7458.8
860.891	7520.04
861.212	7474.17
861.534	7469.65
861.855	7416.54
862.176	7359.59
862.498	7408.41
862.819	7422.64
863.14	7384
863.461	7332.7
863.782	7345.13
864.103	7342.65
864.424	7298.13
864.745	7325.25
865.065	7291.57
865.386	7261.74
865.707	7214.06
866.027	7275.98
866.348	7274.17
866.668	7218.81
866.989	7223.55
867.309	7206.83
867.63	7174.97
867.95	7227.17
868.27	7111.69
868.59	7111.92
868.91	7201.41
869.23	7082.77
869.55	7101.75
869.87	7132.48
870.19	7089.32
870.51	7116.66
870.83	7010
871.15	7045.25
871.469	7070.56
871.789	7084.35
872.109	7040.51
872.428	7035.31
872.748	7089.77
873.067	7012.71
873.386	7005.48
873.706	6979.72
874.025	6988.53
874.344	6935.2
874.663	7006.16
874.982	6948.31
875.301	6946.27
875.62	6923.22
875.939	6955.54
876.258	6853.85
876.577	6844.13
876.896	6887.06
877.214	6813.39
877.533	6888.65
877.852	6879.16
878.17	6833.28
878.489	6809.55
878.807	6838.7
879.125	6748.76
879.444	6772.94
879.762	6761.19
880.08	6794.86
880.398	6770.23
880.716	6733.85
881.034	6698.6
881.352	6718.93
881.67	6713.06
881.988	6694.75
882.306	6638.03
882.624	6669.67
882.941	6649.56
883.259	6624.02
883.577	6630.57
883.894	6592.38
884.212	6600.07
884.529	6531.37
884.846	6531.37
885.164	6566.85
885.481	6544.7
885.798	6565.72
886.115	6460.64
886.432	6500.86
886.75	6468.09
887.067	6452.05
887.383	6428.09
887.7	6385.83
888.017	6424.93
888.334	6433.29
888.651	6470.58
888.967	6398.94
889.284	6339.96
889.6	6338.6
889.917	6284.82
890.233	6309.23
890.55	6318.49
890.866	6334.31
891.182	6240.08
891.498	6234.43
891.815	6240.98
892.131	6241.21
892.447	6173.86
892.763	6139.29
893.079	6125.28
893.395	6194.43
893.71	6094.54
894.026	6117.59
894.342	6120.31
894.657	6023.58
894.973	6021.32
895.289	6018.39
895.604	6007.09
895.92	5927.54
896.235	5946.98
896.55	5978.84
896.865	5917.15
897.181	5897.49
897.496	5922.57
897.811	5906.3
898.126	5846.41
898.441	5819.75
898.756	5784.27
899.071	5775.23
899.386	5806.64
899.7	5704.95
900.015	5727.77
900.33	5644.61
900.644	5647.55
900.959	5692.75
901.273	5643.03
901.588	5624.05
901.902	5636.7
902.216	5588.57
902.531	5570.04
902.845	5575.91
903.159	5524.61
903.473	5499.53
903.787	5515.12
904.101	5455.24
904.415	5459.76
904.729	5402.58
905.042	5417.05
905.356	5373.88
905.67	5370.95
905.984	5363.04
906.297	5303.6
906.611	5297.5
906.924	5290.04
907.237	5260.44
907.551	5296.82
907.864	5220.67
908.177	5200.78
908.491	5219.99
908.804	5141.8
909.117	5149.26
909.43	5095.02
909.743	5137.96
910.056	5116.72
910.368	5063.16
910.681	5061.12
910.994	5083.27
911.307	5007.57
911.619	4953.78
911.932	5003.72
912.244	4973.22
912.557	4958.75
912.869	4905.65
913.181	4889.38
913.494	4848.25
913.806	4848.7
914.118	4850.96
914.43	4811.19
914.742	4780.45
915.054	4806.89
915.366	4773
915.678	4746.56
915.99	4735.93
916.302	4716.27
916.613	4696.84
916.925	4675.82
917.236	4682.38
917.548	4651.42
917.859	4688.03
918.171	4627.46
918.482	4562.61
918.794	4574.58
919.105	4605.77
919.416	4544.75
919.727	4524.41
920.038	4515.6
920.349	4502.49
920.66	4434.93
920.971	4499.56
921.282	4452.55
921.593	4398.32
921.903	4417.07
922.214	4399.9
922.525	4384.76
922.835	4338.21
923.146	4289.62
923.456	4292.1
923.767	4312.9
924.077	4255.5
924.387	4239.45
924.697	4251.88
925.008	4253.46
925.318	4220.92
925.628	4244.2
925.938	4253.69
926.248	4125.56
926.558	4207.14
926.867	4138.21
927.177	4126.91
927.487	4081.94
927.796	4072.22
928.106	4109.28
928.416	4086.01
928.725	4042.85
929.034	4017.54
929.344	3992
929.653	3994.49
929.962	3977.54
930.271	3961.27
930.581	3897.54
930.89	3897.31
931.199	3909.52
931.508	3939.12
931.817	3876.07
932.125	3907.03
932.434	3850.53
932.743	3825
933.051	3819.35
933.36	3800.37
933.669	3771.21
933.977	3760.59
934.286	3761.95
934.594	3719.01
934.902	3711.78
935.21	3686.92
935.519	3701.84
935.827	3690.09
936.135	3703.19
936.443	3623.2
936.751	3644.66
937.059	3633.59
937.367	3625.68
937.674	3586.36
937.982	3586.81
938.29	3559.02
938.597	3521.05
938.905	3500.04
939.213	3524.22
939.52	3469.08
939.827	3516.53
940.135	3479.02
940.442	3482.18
940.749	3459.13
941.056	3471.79
941.363	3417.33
941.67	3405.35
941.977	3380.49
942.284	3385.01
942.591	3348.85
942.898	3329.87
943.205	3377.33
943.511	3311.11
943.818	3319.93
944.125	3293.94
944.431	3234.05
944.738	3256.43
945.044	3298.01
945.35	3205.81
945.657	3212.36
945.963	3206.94
946.269	3227.73
946.575	3172.81
946.881	3186.6
947.187	3183.89
947.493	3135.52
947.799	3166.26
948.105	3108.18
948.41	3103.44
948.716	3124.23
949.022	3152.93
949.327	3088.97
949.633	3082.19
949.938	3094.4
950.244	3062.53
950.549	3013.95
950.854	3020.95
951.16	3031.35
951.465	2987.96
951.77	2986.83
952.075	2973.04
952.38	2959.48
952.685	2978.92
952.99	2916.55
953.294	2918.36
953.599	2896.89
953.904	2912.71
954.209	2881.29
954.513	2853.95
954.818	2857.79
955.122	2859.83
955.426	2848.07
955.731	2789.77
956.035	2827.28
956.339	2841.75
956.643	2818.02
956.948	2793.61
957.252	2780.28
957.556	2747.51
957.86	2718.36
958.163	2704.12
958.467	2720.39
958.771	2698.02
959.075	2717.91
959.378	2682.43
959.682	2701.64
959.985	2679.49
960.289	2637.23
960.592	2655.76
960.896	2618.48
961.199	2631.13
961.502	2600.17
961.805	2622.32
962.108	2574.18
962.411	2557.69
962.714	2541.64
963.017	2540.29
963.32	2565.37
963.623	2547.74
963.926	2511.81
964.228	2514.07
964.531	2503.9
964.833	2526.5
965.136	2490.57
965.438	2477.46
965.741	2459.61
966.043	2461.64
966.345	2426.39
966.648	2435.88
966.95	2440.85
967.252	2383.68
967.554	2390.69
967.856	2403.11
968.158	2379.39
968.46	2407.63
968.761	2386.62
969.063	2380.74
969.365	2336.22
969.666	2330.12
969.968	2331.48
970.269	2283.8
970.571	2294.87
970.872	2304.59
971.174	2274.98
971.475	2280.63
971.776	2275.43
972.077	2261.65
972.378	2263.23
972.679	2258.26
972.98	2265.94
973.281	2234.53
973.582	2230.24
973.883	2225.04
974.183	2228.88
974.484	2198.83
974.785	2159.51
975.085	2189.79
975.386	2192.5
975.686	2147.08
975.986	2136.23
976.287	2129
976.587	2114.08
976.887	2121.77
977.187	2093.29
977.487	2117.02
977.787	2102.56
978.087	2106.63
978.387	2077.7
978.687	2089
978.987	2074.08
979.286	2040.41
979.586	1990.02
979.885	2011.71
980.185	2003.35
980.484	1999.51
980.784	2009.45
981.083	1993.18
981.382	1973.97
981.682	1987.31
981.981	1961.32
982.28	1992.73
982.579	1982.79
982.878	1988.21
983.177	1956.8
983.475	1957.25
983.774	1922.45
984.073	1933.07
984.372	1919.51
984.67	1889.23
984.969	1900.3
985.267	1921.09
985.566	1884.03
985.864	1892.85
986.162	1869.57
986.461	1842
986.759	1847.88
987.057	1843.81
987.355	1840.19
987.653	1830.47
987.951	1807.42
988.249	1780.98
988.547	1797.03
988.844	1801.55
989.142	1788.67
989.44	1772.17
989.737	1764.04
990.035	1727.43
990.332	1751.83
990.63	1786.63
990.927	1732.4
991.224	1720.19
991.521	1708.44
991.819	1746.86
992.116	1717.03
992.413	1700.76
992.71	1697.37
993.006	1664.38
993.303	1654.66
993.6	1671.61
993.897	1645.85
994.193	1677.26
994.49	1663.25
994.787	1620.54
995.083	1658.5
995.379	1607.88
995.676	1637.71
995.972	1628.67
996.268	1606.98
996.565	1599.97
996.861	1612.4
997.157	1592.51
997.453	1591.16
997.749	1563.59
998.044	1569.46
998.34	1571.27
998.636	1559.97
998.932	1537.83
999.227	1532.18
999.523	1540.31
999.818	1545.51
1000.114	1513.87
1000.409	1509.8
1000.704	1490.82
1001	1487.43
1001.295	1474.55
1001.59	1499.64
1001.885	1485.62
1002.18	1445.63
1002.475	1451.5
1002.77	1440.2
1003.065	1431.84
1003.359	1442.91
1003.654	1451.5
1003.949	1429.13
1004.243	1432.97
1004.538	1414.89
1004.832	1395.01
1005.127	1404.05
1005.421	1370.6
1005.715	1369.02
1006.009	1373.09
1006.304	1371.05
1006.598	1345.97
1006.892	1351.39
1007.186	1322.24
1007.48	1340.54
1007.773	1343.93
1008.067	1301.67
1008.361	1310.04
1008.655	1300.09
1008.948	1314.78
1009.242	1297.16
1009.535	1286.31
1009.829	1292.41
1010.122	1258.96
1010.415	1267.55
1010.708	1280.66
1011.001	1244.95
1011.295	1260.09
1011.588	1253.09
1011.881	1246.76
1012.173	1207.67
1012.466	1221.68
1012.759	1218.29
1013.052	1202.92
1013.344	1226.42
1013.637	1192.53
1013.93	1212.86
1014.222	1178.29
1014.514	1163.83
1014.807	1167.89
1015.099	1155.92
1015.391	1142.81
1015.683	1181.45
1015.976	1181.45
1016.268	1136.26
1016.56	1130.83
1016.851	1118.18
1017.143	1127.89
1017.435	1105.3
1017.727	1076.6
1018.018	1112.53
1018.31	1107.1
1018.602	1098.06
1018.893	1128.57
1019.185	1083.15
1019.476	1109.14
1019.767	1062.59
1020.058	1089.03
1020.35	1061.91
1020.641	1024.17
1020.932	1076.6
1021.223	1027.33
1021.514	1035.02
1021.804	1043.6
1022.095	1015.81
1022.386	1003.38
1022.677	1021.46
1022.967	995.02
1023.258	996.37
1023.548	983.04
1023.839	997.95
1024.129	1001.8
1024.419	980.1
1024.709	961.57
1025	944.62
1025.29	925.19
1025.58	957.05
1025.87	949.14
1026.16	941.68
1026.449	930.39
1026.739	906.2
1027.029	941.23
1027.319	910.72
1027.608	921.57
1027.898	878.41
1028.187	912.76
1028.477	912.08
1028.766	896.04
1029.055	900.1
1029.344	877.96
1029.634	882.7
1029.923	852.65
1030.212	879.54
1030.501	838.18
1030.79	834.79
1031.078	861.01
1031.367	850.16
1031.656	832.08
1031.945	854.91
1032.233	831.86
1032.522	825.76
1032.81	840.44
1033.099	823.72
1033.387	822.82
1033.675	822.59
1033.963	807.9
1034.251	823.72
1034.54	799.99
1034.828	799.77
1035.116	761.8
1035.403	805.64
1035.691	783.72
1035.979	787.34
1036.267	773.55
1036.554	747.11
1036.842	748.47
1037.129	754.34
1037.417	750.5
1037.704	747.57
1037.992	740.11
1038.279	751.18
1038.566	731.29
1038.853	731.29
1039.14	731.29
