Data from hue_300_FLMS001491_00078.txt Node
Date: Tue Feb 07 15:51:12 GMT 2017
User: dcchb
Spectrometer: FLMS00149
Trigger mode: 0
Integration Time (sec): 2.000000E-2
Scans to average: 10
Electric dark correction enabled: true
Nonlinearity correction enabled: false
Boxcar width: 0
XAxis mode: Wavelengths
Number of Pixels in Spectrum: 2048
>>>>>Begin Spectral Data<<<<<
341.393	-7.74
341.776	-7.74
342.16	-7.74
342.543	-57.46
342.927	-77.57
343.31	-64.01
343.693	-75.08
344.077	-100.84
344.46	-57.68
344.843	-55.42
345.226	-30.56
345.61	-34.63
345.993	-14.75
346.376	9.21
346.759	14.86
347.142	24.8
347.525	35.65
347.908	55.31
348.291	84.01
348.674	87.17
349.057	121.97
349.44	114.29
349.823	136.66
350.206	161.07
350.588	185.7
350.971	199.49
351.354	218.24
351.737	213.5
352.119	257.34
352.502	244.91
352.884	263.21
353.267	261.18
353.65	299.6
354.032	302.99
354.414	311.12
354.797	299.82
355.179	308.18
355.562	300.5
355.944	304.12
356.326	305.47
356.709	334.62
357.091	338.24
357.473	342.08
357.855	317.45
358.238	322.19
358.62	332.59
359.002	328.3
359.384	341.86
359.766	334.85
360.148	345.7
360.53	339.14
360.912	331.46
361.294	331.91
361.676	335.3
362.057	314.74
362.439	301.18
362.821	309.99
363.203	320.84
363.584	333.04
363.966	322.19
364.348	311.8
364.729	325.58
365.111	307.28
365.493	309.54
365.874	306.15
366.256	291.69
366.637	305.92
367.019	303.44
367.4	307.05
367.781	324.91
368.163	308.41
368.544	294.63
368.925	287.62
369.306	305.47
369.688	287.39
370.069	326.26
370.45	313.38
370.831	326.49
371.212	293.95
371.593	304.12
371.974	299.14
372.355	319.71
372.736	327.84
373.117	324.91
373.498	307.96
373.879	331.46
374.26	293.5
374.641	317.68
375.021	312.93
375.402	315.19
375.783	319.71
376.163	329.65
376.544	327.39
376.925	333.04
377.305	343.89
377.686	326.26
378.066	325.58
378.447	339.82
378.827	319.48
379.208	318.13
379.588	338.92
379.968	324.45
380.349	333.49
380.729	303.44
381.109	314.96
381.489	347.28
381.87	336.43
382.25	326.94
382.63	336.66
383.01	342.99
383.39	312.93
383.77	334.17
384.15	331.69
384.53	340.5
384.91	358.58
385.29	337.56
385.67	353.83
386.049	354.28
386.429	346.15
386.809	357.22
387.189	355.87
387.568	351.12
387.948	352.7
388.328	336.88
388.707	358.13
389.087	379.14
389.466	356.77
389.846	361.52
390.225	355.41
390.605	362.87
390.984	350.67
391.363	363.32
391.743	373.94
392.122	362.87
392.501	370.33
392.881	371.23
393.26	362.65
393.639	369.88
394.018	366.04
394.397	385.02
394.776	385.24
395.155	389.54
395.534	374.62
395.913	402.42
396.292	396.54
396.671	381.18
397.05	380.5
397.429	388.63
397.808	408.75
398.186	397.67
398.565	385.47
398.944	396.32
399.323	421.85
399.701	407.62
400.08	374.62
400.458	410.1
400.837	397.22
401.215	427.73
401.594	431.12
401.972	422.76
402.351	406.26
402.729	436.09
403.107	436.32
403.486	422.31
403.864	420.95
404.242	434.06
404.62	437.9
404.999	420.72
405.377	436.54
405.755	446.03
406.133	450.78
406.511	458.01
406.889	453.49
407.267	479.03
407.645	444.68
408.023	480.61
408.401	465.69
408.779	481.96
409.156	493.72
409.534	466.37
409.912	512.47
410.29	502.53
410.667	530.55
411.045	521.29
411.422	568.74
411.8	534.17
412.178	526.94
412.555	577.78
412.933	582.08
413.31	564.45
413.687	578.01
414.065	587.27
414.442	574.39
414.819	604.67
415.197	623.2
415.574	611.9
415.951	632.24
416.328	631.11
416.705	656.2
417.082	641.28
417.46	665.01
417.837	665.69
418.214	671.11
418.591	670.21
418.967	702.98
419.344	715.86
419.721	703.2
420.098	687.61
420.475	720.83
420.852	738.68
421.228	703.43
421.605	745.46
421.982	752.47
422.358	766.03
422.735	795.18
423.111	782.07
423.488	781.39
423.864	808.74
424.241	823.2
424.617	822.97
424.994	810.09
425.37	849.41
425.746	849.41
426.123	846.7
426.499	861.62
426.875	866.36
427.251	877.21
427.627	915.4
428.003	911.33
428.379	927.15
428.756	944.33
429.132	926.92
429.507	950.2
429.883	956.75
430.259	963.99
430.635	986.58
431.011	976.87
431.387	994.72
431.763	1003.98
432.138	1028.84
432.514	1040.59
432.89	1053.7
433.265	1062.74
433.641	1093.93
434.016	1101.38
434.392	1093.47
434.767	1123.3
435.143	1115.39
435.518	1176.41
435.894	1142.74
436.269	1152.91
436.644	1190.87
437.02	1201.49
437.395	1195.39
437.77	1178.44
438.145	1220.7
438.52	1220.02
438.895	1228.39
439.271	1219.8
439.646	1288.72
440.021	1260.93
440.395	1272.45
440.77	1269.97
441.145	1274.26
441.52	1314.03
441.895	1284.66
442.27	1319.68
442.645	1298.67
443.019	1320.81
443.394	1313.13
443.769	1327.82
444.143	1315.84
444.518	1342.96
444.892	1359.23
445.267	1339.8
445.641	1394.94
446.016	1379.34
446.39	1366.69
446.764	1383.41
447.139	1383.86
447.513	1381.38
447.887	1410.3
448.262	1403.52
448.636	1396.06
449.01	1397.87
449.384	1414.6
449.758	1418.44
450.132	1418.21
450.506	1460.24
450.88	1441.49
451.254	1440.58
451.628	1494.14
452.002	1502.28
452.376	1481.26
452.75	1478.55
453.123	1492.79
453.497	1491.66
453.871	1516.06
454.244	1525.33
454.618	1538.89
454.992	1541.15
455.365	1547.25
455.739	1580.47
456.112	1574.59
456.486	1575.95
456.859	1580.47
457.232	1611.2
457.606	1606.68
457.979	1636.51
458.352	1656.17
458.725	1663.4
459.099	1672.89
459.472	1721.48
459.845	1698.2
460.218	1725.1
460.591	1726.68
460.964	1729.62
461.337	1728.94
461.71	1767.35
462.083	1782.72
462.456	1783.63
462.829	1811.87
463.201	1809.61
463.574	1805.09
463.947	1828.37
464.32	1869.95
464.692	1869.72
465.065	1867.24
465.438	1889.84
465.81	1870.85
466.183	1935.03
466.555	1944.3
466.928	1935.71
467.3	1966.9
467.672	1963.73
468.045	2035.37
468.417	2026.56
468.789	2013.45
469.161	2040.12
469.534	2067.69
469.906	2091.41
470.278	2082.6
470.65	2118.53
471.022	2177.51
471.394	2183.84
471.766	2196.04
472.138	2187.46
472.51	2252.99
472.882	2228.36
473.253	2284.4
473.625	2309.26
473.997	2288.24
474.369	2330.5
474.74	2328.92
475.112	2385.87
475.484	2394
475.855	2425.87
476.227	2451.86
476.598	2503.15
476.97	2499.54
477.341	2552.64
477.713	2535.7
478.084	2552.19
478.455	2645.98
478.827	2665.18
479.198	2708.12
479.569	2689.36
479.94	2724.39
480.311	2771.17
480.682	2815.01
481.053	2844.61
481.424	2860.89
481.795	2875.8
482.166	2906.53
482.537	2910.38
482.908	2942.24
483.279	2972.29
483.65	3034.89
484.021	3047.55
484.391	3100.65
484.762	3135.68
485.133	3118.73
485.503	3120.54
485.874	3196.92
486.244	3235.11
486.615	3232.4
486.985	3275.34
487.356	3346.07
487.726	3342.45
488.097	3407.54
488.467	3381.1
488.837	3457.71
489.207	3463.58
489.578	3518.04
489.948	3537.93
490.318	3544.94
490.688	3600.75
491.058	3592.84
491.428	3636.01
491.798	3693.86
492.168	3740.18
492.538	3761.43
492.908	3743.35
493.278	3804.14
493.648	3768.21
494.017	3827.19
494.387	3893.63
494.757	3894.08
495.126	3915.32
495.496	3923.46
495.866	3958.71
496.235	3951.03
496.605	4004.81
496.974	4000.52
497.344	4025.37
497.713	4028.99
498.082	4114.64
498.452	4078.25
498.821	4123.45
499.19	4101.98
499.559	4151.7
499.928	4185.37
500.298	4201.19
500.667	4201.87
501.036	4168.87
501.405	4208.19
501.774	4188.53
502.143	4266.5
502.512	4283.9
502.88	4306.27
503.249	4317.8
503.618	4302.88
503.987	4319.15
504.356	4323.67
504.724	4350.79
505.093	4419.71
505.462	4364.12
505.83	4368.19
506.199	4393.5
506.567	4503.1
506.936	4405.48
507.304	4517.11
507.672	4515.53
508.041	4482.76
508.409	4518.69
508.777	4588.98
509.145	4570.22
509.514	4599.14
509.882	4577
510.25	4597.11
510.618	4630.33
510.986	4629.88
511.354	4636.66
511.722	4692.48
512.09	4653.83
512.458	4671.23
512.826	4706.94
513.193	4707.62
513.561	4754.17
513.929	4725.24
514.297	4803.66
514.664	4802.53
515.032	4834.17
515.4	4858.57
515.767	4824.22
516.135	4824.9
516.502	4839.59
516.869	4876.2
517.237	4845.01
517.604	4831.68
517.972	4895.18
518.339	4926.82
518.706	4944.67
519.073	4955.97
519.44	4964.33
519.808	4956.2
520.175	4953.71
520.542	4999.13
520.909	5078
521.276	5020.15
521.643	5047.95
522.009	5101.28
522.376	5110.77
522.743	5075.74
523.11	5165.68
523.477	5200.71
523.843	5211.78
524.21	5254.49
524.577	5253.36
524.943	5320.26
525.31	5269.41
525.676	5325
526.043	5313.48
526.409	5363.64
526.776	5415.62
527.142	5393.25
527.508	5416.52
527.874	5470.53
528.241	5523.19
528.607	5494.26
528.973	5510.31
529.339	5539.01
529.705	5503.75
530.071	5608.84
530.437	5601.6
530.803	5677.53
531.169	5674.82
531.535	5704.88
531.901	5757.31
532.267	5728.15
532.632	5743.97
532.998	5760.92
533.364	5802.95
533.73	5863.29
534.095	5903.74
534.461	5915.27
534.826	5922.5
535.192	5953.23
535.557	5981.93
535.923	5922.95
536.288	6026
536.653	5999.56
537.019	6017.64
537.384	6026.23
537.749	6085.43
538.114	6068.71
538.479	6118.65
538.845	6120.91
539.21	6156.84
539.575	6141.25
539.94	6233.9
540.305	6194.36
540.67	6189.16
541.034	6228.71
541.399	6280.46
541.764	6263.96
542.129	6337.63
542.494	6355.48
542.858	6347.12
543.223	6424.18
543.587	6530.85
543.952	6411.75
544.316	6489.04
544.681	6504.86
545.045	6506.44
545.41	6557.96
545.774	6599.32
546.138	6574.91
546.503	6666.89
546.867	6619.43
547.231	6738.07
547.595	6716.83
547.959	6744.85
548.324	6717.28
548.688	6785.53
549.052	6767.22
549.416	6832.76
549.779	6821.91
550.143	6825.3
550.507	6873.66
550.871	6906.65
551.235	6934.45
551.599	6942.36
551.962	6955.01
552.326	6976.03
552.689	7023.94
553.053	7040.21
553.417	6989.59
553.78	7086.08
554.143	7089.02
554.507	7102.36
554.87	7127.89
555.234	7130.83
555.597	7104.39
555.96	7184.84
556.323	7185.07
556.686	7122.69
557.05	7217.38
557.413	7313.2
557.776	7226.87
558.139	7318.62
558.502	7318.17
558.865	7323.14
559.228	7377.83
559.59	7386.19
559.953	7380.77
560.316	7488.79
560.679	7466.41
561.041	7446.08
561.404	7522.68
561.767	7616.01
562.129	7543.47
562.492	7616.92
562.854	7598.39
563.217	7617.37
563.579	7642.68
563.941	7724.26
564.304	7698.95
564.666	7782.34
565.028	7810.13
565.39	7793.64
565.753	7860.08
566.115	7872.5
566.477	7829.12
566.839	7924.93
567.201	7915.89
567.563	7962.67
567.925	8052.61
568.287	8053.07
568.648	8048.55
569.01	8023.24
569.372	8097.58
569.734	8093.52
570.095	8168.32
570.457	8149.79
570.819	8216.45
571.18	8194.98
571.542	8347.52
571.903	8321.08
572.265	8332.83
572.626	8412.6
572.987	8419.38
573.349	8542.09
573.71	8537.35
574.071	8545.48
574.432	8659.15
574.794	8708.87
575.155	8764.68
575.516	8739.15
575.877	8826.38
576.238	8896.88
576.599	8995.64
576.96	9029.99
577.32	9166.26
577.681	9270.21
578.042	9296.65
578.403	9305.01
578.763	9463.42
579.124	9553.36
579.485	9716.3
579.845	9850.08
580.206	9957.42
580.566	10017.08
580.927	10089.17
581.287	10321.71
581.648	10436.05
582.008	10600.12
582.368	10681.47
582.728	10956.49
583.089	11064.29
583.449	11183.15
583.809	11354
584.169	11631.28
584.529	11785.4
584.889	12008.67
585.249	12119.17
585.609	12325.5
585.969	12568.88
586.329	12719.84
586.688	12899.94
587.048	13185.81
587.408	13431.23
587.768	13602.75
588.127	13920.26
588.487	14132.91
588.846	14530.86
589.206	14600.01
589.565	14884.3
589.925	15241.12
590.284	15393.66
590.643	15691.28
591.003	16001.1
591.362	16283.58
591.721	16544.59
592.08	16759.28
592.44	17216.67
592.799	17476.09
593.158	17623.43
593.517	18066.59
593.876	18385.9
594.235	18582.28
594.593	18895.04
594.952	19235.37
595.311	19399.89
595.67	19842.36
596.029	20154.67
596.387	20403.02
596.746	20790.81
597.104	20954.65
597.463	21329.55
597.822	21646.83
598.18	21876.2
598.538	22119.59
598.897	22591.44
599.255	22682.96
599.613	23303.06
599.972	23370.63
600.33	23702.37
600.688	24001.8
601.046	24402.24
601.404	24631.61
601.762	24826.64
602.12	25226.85
602.478	25554.3
602.836	25796.33
603.194	25933.95
603.552	26276.09
603.91	26372.81
604.268	26733.7
604.625	26993.58
604.983	27261.83
605.341	27381.14
605.698	27749.04
606.056	28102.93
606.413	28270.61
606.771	28718.06
607.128	28826.08
607.485	28833.99
607.843	29157.37
608.2	29466.29
608.557	29789.22
608.914	29862.66
609.272	30181.97
609.629	30436.88
609.986	30631
610.343	30782.86
610.7	31138.11
611.057	31335.16
611.414	31344.88
611.771	31624.42
612.127	31992.32
612.484	31914.13
612.841	32408.81
613.198	32416.72
613.554	32548.69
613.911	32988.23
614.267	32984.16
614.624	33107.1
614.98	33380.53
615.337	33717.48
615.693	33730.81
616.05	33827.75
616.406	34014.42
616.762	34034.3
617.118	34379.6
617.475	34456.66
617.831	34566.94
618.187	34776.43
618.543	34918.8
618.899	35051.9
619.255	35141.62
619.611	35282.86
619.967	35413.02
620.323	35700.25
620.678	35505.45
621.034	35641.27
621.39	35840.58
621.746	35998.77
622.101	36333
622.457	36260.23
622.812	36260.91
623.168	36440.57
623.523	36497.74
623.879	36723.05
624.234	36628.81
624.589	36627.68
624.945	36953.77
625.3	37028.57
625.655	37018.63
626.01	37067.22
626.365	37323.26
626.72	37233.09
627.075	37324.39
627.43	37419.07
627.785	37403.48
628.14	37448.22
628.495	37438.51
628.85	37481.67
629.205	37512.63
629.559	37701.55
629.914	37601.21
630.269	37693.42
630.623	37516.02
630.978	37565.74
631.332	37745.39
631.687	37936.12
632.041	37654.09
632.396	37873.75
632.75	37777.93
633.104	37843.92
633.459	37652.96
633.813	37687.31
634.167	37776.35
634.521	37900.87
634.875	37900.19
635.229	37922.34
635.583	37709.01
635.937	37949.91
636.291	37922.34
636.645	37890.7
636.999	37762.57
637.352	37992.39
637.706	37700.2
638.06	37910.13
638.413	37805.5
638.767	37744.94
639.121	37961.21
639.474	37771.61
639.828	37687.99
640.181	37866.74
640.534	37778.16
640.888	37723.92
641.241	37673.08
641.594	37778.84
641.947	37859.29
642.301	37607.09
642.654	37750.59
643.007	37737.93
643.36	37818.61
643.713	37885.28
644.066	37900.64
644.419	37590.14
644.771	37532.06
645.124	37114.67
645.477	37062.02
645.83	36885.3
646.182	36713.55
646.535	36766.66
646.888	36641.92
647.24	36523.95
647.593	36881.01
647.945	36768.92
648.298	36629.49
648.65	36571.64
649.002	36511.98
649.355	36664.29
649.707	36589.26
650.059	36739.09
650.411	37158.29
650.763	37108.57
651.115	37537.71
651.467	37422.46
651.819	37376.36
652.171	37309.7
652.523	37215.69
652.875	37276.93
653.227	37163.71
653.578	37543.59
653.93	37266.31
654.282	37209.81
654.633	37168.68
654.985	37195.8
655.337	37326.65
655.688	37260.21
656.039	37288.45
656.391	36986.09
656.742	37196.25
657.094	37209.13
657.445	37289.58
657.796	37191.28
658.147	37327.1
658.498	37189.7
658.849	37173.43
659.2	37205.74
659.551	37066.99
659.902	37279.42
660.253	37107.22
660.604	37215.91
660.955	36929.82
661.306	37120.32
661.656	37066.99
662.007	37267.89
662.358	37123.04
662.708	37034.68
663.059	37075.13
663.409	36925.07
663.76	37074.45
664.11	37069.25
664.461	36966.2
664.811	37089.59
665.161	36976.6
665.511	36999.42
665.862	37151.74
666.212	37119.65
666.562	37223.37
666.912	37052.53
667.262	37007.33
667.612	37014.56
667.962	37015.69
668.312	37059.31
668.662	37167.33
669.011	37188.8
669.361	37105.86
669.711	36862.03
670.06	37003.49
670.41	36891.63
670.76	36830.16
671.109	36999.87
671.459	36965.53
671.808	36902.25
672.157	36847.56
672.507	36651.18
672.856	36673.56
673.205	36755.14
673.554	36784.51
673.904	36714.01
674.253	36943.6
674.602	36709.49
674.951	36199.67
675.3	36161.48
675.649	36709.03
675.998	36500.45
676.346	36599.43
676.695	36754.91
677.044	36439.44
677.393	36561.69
677.741	36538.42
678.09	36564.18
678.438	36395.37
678.787	36422.71
679.135	36584.29
679.484	36200.12
679.832	36358.54
680.181	36076.74
680.529	36173.68
680.877	36106.11
681.225	36251.87
681.573	36416.16
681.922	36139.78
682.27	35980.24
682.618	35938.66
682.966	35760.36
683.314	36034.93
683.661	35984.53
684.009	35744.77
684.357	35603.53
684.705	35676.97
685.053	35619.35
685.4	35672
685.748	35484.89
686.095	35434.27
686.443	35308.62
686.79	35287.6
687.138	35511.1
687.485	35336.64
687.832	35259.36
688.18	35202.18
688.527	35025.01
688.874	34879.48
689.221	34883.55
689.568	34810.33
689.915	34719.71
690.262	34708.64
690.609	34544.57
690.956	34690.78
691.303	34504.35
691.65	34364.24
691.997	34492.6
692.344	34266.16
692.69	34148.65
693.037	34280.62
693.383	33843.8
693.73	34058.71
694.077	33768.77
694.423	33841.31
694.769	33870.47
695.116	33661.66
695.462	33609.46
695.808	33556.12
696.155	33584.6
696.501	33254.21
696.847	33279.75
697.193	33072.29
697.539	33255.11
697.885	32950.72
698.231	32868.01
698.577	32878.4
698.923	32665.07
699.269	32679.08
699.614	32542.36
699.96	32326.55
700.306	32423.72
700.651	32252.43
700.997	32116.61
701.342	32121.36
701.688	32141.92
702.033	31955.26
702.379	32021.7
702.724	31819.9
703.069	31792.78
703.415	31558.44
703.76	31599.11
704.105	31552.33
704.45	31423.3
704.795	31256.97
705.14	31140.14
705.485	31137.88
705.83	31087.71
706.175	31152.12
706.52	31037.55
706.865	30816.53
707.209	30883.65
707.554	30856.76
707.899	30849.98
708.243	30541.51
708.588	30613.83
708.932	30410.67
709.277	30383.33
709.621	30551.68
709.966	30270.33
710.31	30285.7
710.654	30050.68
710.998	30043.67
711.342	30122.09
711.687	29936.56
712.031	29816.33
712.375	29692.04
712.719	29848.42
713.063	29867.63
713.407	29944.01
713.75	29746.05
714.094	29660.41
714.438	29586.28
714.782	29491.37
715.125	29334.99
715.469	29523.91
715.812	29358.95
716.156	29139.06
716.499	29139.29
716.843	29140.19
717.186	29096.58
717.53	29161.66
717.873	29046.64
718.216	29072.17
718.559	28937.04
718.902	28673.77
719.246	28866.08
719.589	28815.23
719.932	28619.76
720.275	28641.22
720.617	28598.51
720.96	28501.79
721.303	28507.22
721.646	28424.51
721.989	28344.51
722.331	28363.04
722.674	28335.7
723.016	28275.58
723.359	28190.61
723.701	28255.92
724.044	28086.21
724.386	28083.05
724.729	28115.14
725.071	28010.51
725.413	27932.09
725.755	28045.53
726.097	27825.88
726.439	27724.19
726.782	27697.97
727.124	28009.6
727.465	27639.89
727.807	27603.29
728.149	27610.06
728.491	27609.39
728.833	27593.79
729.175	27541.59
729.516	27533.46
729.858	27428.6
730.199	27556.73
730.541	27455.04
730.882	27469.96
731.224	27368.26
731.565	27387.47
731.906	27230.64
732.248	27347.47
732.589	27182.05
732.93	27074.26
733.271	27234.71
733.612	27089.85
733.953	27168.72
734.294	26996.97
734.635	26859.8
734.976	26945.68
735.317	26737.32
735.658	26856.41
735.999	26811.89
736.339	26845.57
736.68	26802.85
737.021	26710.43
737.361	26612.58
737.702	26760.82
738.042	26472.92
738.383	26641.95
738.723	26639.02
739.063	26423.2
739.404	26659.13
739.744	26530.55
740.084	26439.47
740.424	26482.19
740.764	26349.08
741.104	26579.81
741.444	26278.35
741.784	26225.92
742.124	26345.24
742.464	26279.93
742.804	26229.76
743.143	26118.58
743.483	26226.37
743.823	25931.92
744.162	26042.65
744.502	26045.36
744.841	25871.35
745.181	25981.86
745.52	25886.27
745.86	25932.14
746.199	25967.17
746.538	25925.36
746.877	25963.78
747.216	25897.34
747.556	25791.13
747.895	25851.92
748.234	25779.6
748.573	25758.36
748.911	25678.14
749.25	25720.4
749.589	25482.44
749.928	25738.93
750.267	25661.64
750.605	25546.39
750.944	25508.88
751.283	25420.52
751.621	25447.64
751.96	25381.42
752.298	25239.73
752.636	25483.12
752.975	25318.37
753.313	25181.65
753.651	25371.93
753.989	25164.93
754.327	25103.24
754.666	25058.72
755.004	25147.08
755.342	25041.54
755.679	25176.23
756.017	24985.95
756.355	25098.49
756.693	24906.18
757.031	24957.93
757.368	24855.79
757.706	24804.94
758.044	24677.71
758.381	24826.18
758.719	24657.83
759.056	24759.97
759.394	24743.47
759.731	24522.46
760.068	24416.48
760.405	24347.33
760.743	24418.28
761.08	24399.98
761.417	24237.5
761.754	24268.23
762.091	24160.44
762.428	24149.82
762.765	23955.47
763.102	23990.95
763.438	23997.5
763.775	23824.63
764.112	23925.19
764.449	23885.19
764.785	23828.24
765.122	23678.19
765.458	23587.35
765.795	23570.4
766.131	23485.88
766.467	23426.9
766.804	23378.54
767.14	23293.34
767.476	23260.12
767.812	23117.53
768.148	23144.65
768.485	22967.48
768.821	23053.12
769.157	22955.95
769.492	22763.86
769.828	22811.32
770.164	22668.5
770.5	22663.08
770.836	22630.99
771.171	22512.35
771.507	22335.18
771.842	22247.95
772.178	22316.42
772.513	22213.6
772.849	22177.21
773.184	22077.1
773.519	22000.27
773.855	21910.55
774.19	21715.08
774.525	21713.95
774.86	21810.22
775.195	21646.38
775.53	21566.16
775.865	21421.75
776.2	21363.45
776.535	21178.6
776.87	21281.19
777.205	21063.57
777.539	21035.55
777.874	21085.72
778.209	20889.56
778.543	20832.39
778.878	20715.78
779.212	20664.71
779.547	20609.12
779.881	20635.11
780.215	20528.67
780.55	20575.22
780.884	20324.61
781.218	20379.75
781.552	20344.04
781.886	20148.57
782.22	20144.27
782.554	19930.94
782.888	19860.89
783.222	19895.01
783.556	19741.12
783.889	19633.33
784.223	19601.01
784.557	19512.2
784.89	19625.64
785.224	19437.17
785.557	19347.46
785.891	19344.52
786.224	19265.88
786.558	19251.87
786.891	19088.03
787.224	19041.25
787.557	18895.49
787.891	18933.91
788.224	18957.86
788.557	18836.51
788.89	18782.73
789.223	18666.12
789.556	18688.04
789.888	18460.25
790.221	18437.88
790.554	18326.24
790.887	18300.71
791.219	18288.73
791.552	18242.18
791.884	18192.91
792.217	18165.57
792.549	18090.77
792.882	17809.19
793.214	17870.43
793.546	17898.46
793.879	17715.18
794.211	17606.71
794.543	17719.48
794.875	17668.18
795.207	17626.82
795.539	17491.46
795.871	17632.47
796.203	17381.18
796.535	17280.85
796.867	17199.04
797.198	17203.56
797.53	17224.58
797.862	17112.71
798.193	17143.22
798.525	17077.23
798.856	17038.37
799.188	16915.66
799.519	16882.21
799.85	16696.23
800.182	16777.58
800.513	16675.89
800.844	16616
801.175	16616.23
801.506	16504.37
801.837	16552.5
802.168	16438.61
802.499	16360.19
802.83	16241.78
803.161	16187.77
803.491	16180.31
803.822	16168.78
804.153	16052.18
804.483	16004.72
804.814	15957.04
805.145	15937.83
805.475	15914.55
805.805	15871.39
806.136	15867.1
806.466	15800.21
806.796	15786.65
807.126	15663.94
807.457	15613.09
807.787	15652.87
808.117	15570.16
808.447	15451.97
808.777	15519.08
809.107	15405.64
809.436	15312.31
809.766	15407.22
810.096	15326.55
810.426	15237.73
810.755	15289.71
811.085	15154.8
811.414	15195.25
811.744	15087.91
812.073	15022.37
812.403	15008.14
812.732	14946.9
813.061	14964.52
813.39	14785.54
813.719	14825.99
814.049	14794.13
814.378	14768.37
814.707	14654.25
815.036	14740.12
815.365	14583.97
815.693	14523.86
816.022	14557.07
816.351	14501.94
816.68	14412.9
817.008	14545.55
817.337	14296.29
817.665	14299
817.994	14356.85
818.322	14303.97
818.651	14237.99
818.979	14216.97
819.307	14327.02
819.636	14247.48
819.964	14146.69
820.292	14203.64
820.62	14138.78
820.948	14087.26
821.276	14166.58
821.604	14018.33
821.932	14110.08
822.259	14110.31
822.587	14007.03
822.915	14028.95
823.243	14109.63
823.57	13971.1
823.898	14053.36
824.225	14027.6
824.553	13999.8
824.88	13997.99
825.207	14027.15
825.535	13971.33
825.862	14016.52
826.189	13861.27
826.516	14031.44
826.843	14045
827.17	14012.23
827.497	14035.96
827.824	14051.55
828.151	13982.4
828.478	13993.93
828.805	14073.25
829.131	14003.64
829.458	13906.02
829.785	13881.39
830.111	13930.88
830.438	14000.03
830.764	13924.1
831.09	13968.62
831.417	13888.39
831.743	13989.18
832.069	13869.41
832.395	13812.24
832.722	13888.62
833.048	13871.9
833.374	13904.44
833.7	13790.09
834.026	13924.32
834.351	13897.66
834.677	13835.29
835.003	13792.58
835.329	13835.74
835.654	13733.14
835.98	13703.31
836.306	13745.8
836.631	13705.8
836.956	13741.96
837.282	13796.42
837.607	13748.06
837.932	13640.26
838.258	13655.63
838.583	13574.5
838.908	13532.92
839.233	13539.47
839.558	13554.84
839.883	13441.4
840.208	13468.97
840.533	13417.67
840.858	13489.08
841.182	13428.97
841.507	13422.19
841.832	13362.98
842.156	13336.09
842.481	13248.63
842.805	13272.14
843.13	13138.58
843.454	13176.77
843.778	13162.99
844.103	13100.16
844.427	13109.43
844.751	13126.38
845.075	13076.44
845.399	12969.09
845.723	12919.15
846.047	12938.81
846.371	12832.37
846.695	12852.94
847.019	12785.14
847.343	12723.9
847.666	12616.56
847.99	12583.12
848.313	12590.8
848.637	12465.83
848.96	12525.49
849.284	12395.1
849.607	12295.44
849.931	12297.7
850.254	12261.54
850.577	12144.93
850.9	12170.47
851.223	12074.43
851.546	12057.25
851.869	11976.35
852.192	12051.6
852.515	11865.85
852.838	11882.57
853.161	11810.71
853.483	11731.61
853.806	11690.94
854.129	11699.3
854.451	11674.89
854.774	11656.81
855.096	11564.16
855.419	11499.3
855.741	11522.8
856.063	11460.43
856.385	11487.78
856.708	11391.06
857.03	11275.81
857.352	11346.54
857.674	11271.29
857.996	11204.17
858.318	11186.77
858.64	11192.19
858.961	11151.74
859.283	11116.49
859.605	11072.65
859.926	11146.32
860.248	10998.3
860.57	10978.86
860.891	11030.39
861.212	10944.29
861.534	10956.04
861.855	10945.19
862.176	10879.43
862.498	10907.23
862.819	10831.3
863.14	10797.4
863.461	10838.53
863.782	10758.08
864.103	10762.6
864.424	10762.15
864.745	10851.41
865.065	10744.97
865.386	10674.47
865.707	10709.49
866.027	10656.61
866.348	10656.39
866.668	10572.32
866.989	10587.46
867.309	10509.5
867.63	10550.63
867.95	10546.11
868.27	10502.27
868.59	10537.52
868.91	10493.68
869.23	10397.86
869.55	10393.57
869.87	10452.78
870.19	10404.64
870.51	10457.3
870.83	10381.82
871.15	10299.11
871.469	10330.75
871.789	10374.81
872.109	10307.24
872.428	10190.64
872.748	10268.37
873.067	10214.82
873.386	10252.56
873.706	10278.09
874.025	10133.24
874.344	10128.26
874.663	10184.76
874.982	10156.96
875.301	10153.57
875.62	10119.23
875.939	10140.92
876.258	10086.68
876.577	10008.27
876.896	10012.79
877.214	10036.52
877.533	10062.28
877.852	9996.74
878.17	10000.58
878.489	9943.41
878.807	9935.5
879.125	9909.51
879.444	9912.68
879.762	9864.09
880.08	9919.23
880.398	9809.18
880.716	9838.78
881.034	9824.32
881.352	9819.57
881.67	9756.98
881.988	9808.5
882.306	9673.59
882.624	9669.97
882.941	9662.97
883.259	9737.77
883.577	9606.47
883.894	9645.79
884.212	9608.05
884.529	9587.04
884.846	9511.56
885.164	9520.6
885.481	9538.45
885.798	9490.77
886.115	9444.21
886.432	9420.94
886.75	9448.51
887.067	9497.55
887.383	9370.32
887.7	9342.3
888.017	9268.17
888.334	9269.08
888.651	9349.08
888.967	9291.68
889.284	9217.1
889.6	9211.45
889.917	9157.89
890.233	9161.06
890.55	9098.91
890.866	9080.61
891.182	9088.74
891.498	9092.81
891.815	9040.38
892.131	8986.83
892.447	8954.28
892.763	8933.72
893.079	8894.85
893.395	8908.41
893.71	8829.99
894.026	8861.86
894.342	8790.9
894.657	8747.51
894.973	8719.26
895.289	8742.99
895.604	8733.05
895.92	8668.87
896.235	8628.64
896.55	8656.89
896.865	8648.53
897.181	8557.68
897.496	8594.75
897.811	8482.21
898.126	8492.15
898.441	8358.59
898.756	8419.84
899.071	8335.09
899.386	8393.4
899.7	8253.51
900.015	8231.59
900.33	8180.52
900.644	8184.59
900.959	8217.35
901.273	8141.42
901.588	8123.12
901.902	8115.44
902.216	8097.58
902.531	8104.36
902.845	8059.84
903.159	7990.92
903.473	7926.51
903.787	7879.74
904.101	7905.5
904.415	7831.15
904.729	7790.7
905.042	7812.85
905.356	7770.59
905.67	7753.64
905.984	7720.42
906.297	7725.16
906.611	7648.33
906.924	7679.06
907.237	7642
907.551	7565.85
907.864	7594.32
908.177	7532.4
908.491	7541.67
908.804	7492.18
909.117	7466.19
909.43	7448.79
909.743	7355
910.056	7310.26
910.368	7324.5
910.681	7282.92
910.994	7223.03
911.307	7245.63
911.619	7134.45
911.932	7241.56
912.244	7132.64
912.557	7090.6
912.869	7072.3
913.181	7042.92
913.494	7045.41
913.806	6988.69
914.118	6974.45
914.43	6974.68
914.742	6904.17
915.054	6872.98
915.366	6812.42
915.678	6818.52
915.99	6763.61
916.302	6736.04
916.613	6658.3
916.925	6758.41
917.236	6705.53
917.548	6652.42
917.859	6664.4
918.171	6585.53
918.482	6548.47
918.794	6496.27
919.105	6555.93
919.416	6445.65
919.727	6487.91
920.038	6416.95
920.349	6425.31
920.66	6378.76
920.971	6358.19
921.282	6361.81
921.593	6251.3
921.903	6222.6
922.214	6257.63
922.525	6233.45
922.835	6199.78
923.146	6127.92
923.456	6110.97
923.767	6082.95
924.077	6082.04
924.387	6072.33
924.697	6043.4
925.008	5976.28
925.318	6004.53
925.628	5958.43
925.938	5922.5
926.248	5844.76
926.558	5919.79
926.867	5789.17
927.177	5831.88
927.487	5801.37
927.796	5743.3
928.106	5777.42
928.416	5783.07
928.725	5710.3
929.034	5688.38
929.344	5674.37
929.653	5687.93
929.962	5580.14
930.271	5613.13
930.581	5542.85
930.89	5490.42
931.199	5475.51
931.508	5474.6
931.817	5500.14
932.125	5509.18
932.434	5475.73
932.743	5341.05
933.051	5348.05
933.36	5350.76
933.669	5308.96
933.977	5344.89
934.286	5275.06
934.594	5255.85
934.902	5219.24
935.21	5222.41
935.519	5217.21
935.827	5186.93
936.135	5152.8
936.443	5102.18
936.751	5070.54
937.059	5099.92
937.367	5075.74
937.674	5070.54
937.982	4984.67
938.29	4985.8
938.597	5013.6
938.905	4960.27
939.213	4964.78
939.52	4890.44
939.827	4981.96
940.135	4929.53
940.442	4801.85
940.749	4838.46
941.056	4812.02
941.363	4760.5
941.67	4734.51
941.977	4716.66
942.284	4727.05
942.591	4734.28
942.898	4657.22
943.205	4662.87
943.511	4657.9
943.818	4652.7
944.125	4591.91
944.431	4570.44
944.738	4588.07
945.044	4479.6
945.35	4516.21
945.657	4485.02
945.963	4418.36
946.269	4476.66
946.575	4442.99
946.881	4420.39
947.187	4356.21
947.493	4390.34
947.799	4414.52
948.105	4354.63
948.41	4323.22
948.716	4304.24
949.022	4288.42
949.327	4272.83
949.633	4261.53
949.938	4237.8
950.244	4271.7
950.549	4185.37
950.854	4174.52
951.16	4179.72
951.465	4160.51
951.77	4091.59
952.075	4126.16
952.38	4072.83
952.685	4073.51
952.99	4045.94
953.294	4039.84
953.599	4032.83
953.904	3953.74
954.209	3946.51
954.513	3985.6
954.818	3934.76
955.122	3927.52
955.426	3943.57
955.731	3903.57
956.035	3871.93
956.339	3866.96
956.643	3883.91
956.948	3793.29
957.252	3801.88
957.556	3814.76
957.86	3778.83
958.163	3771.37
958.467	3767.08
958.771	3728.66
959.075	3715.33
959.378	3698.6
959.682	3725.95
959.985	3648.44
960.289	3701.32
960.592	3656.12
960.896	3594.88
961.199	3622.9
961.502	3586.06
961.805	3579.28
962.108	3522.79
962.411	3568.89
962.714	3516.01
963.017	3520.75
963.32	3561.88
963.623	3496.12
963.926	3502.45
964.228	3448.67
964.531	3445.5
964.833	3420.42
965.136	3381.55
965.438	3382.68
965.741	3398.5
966.043	3345.84
966.345	3355.11
966.648	3337.48
966.95	3335.22
967.252	3305.17
967.554	3307.43
967.856	3263.13
968.158	3254.32
968.46	3254.55
968.761	3203.93
969.063	3217.26
969.365	3215
969.666	3175
969.968	3159.18
970.269	3160.31
970.571	3134.78
970.872	3163.7
971.174	3128.67
971.475	3099.97
971.776	3110.82
972.077	3104.27
972.378	3063.82
972.679	3083.93
972.98	3042.8
973.281	3018.4
973.582	3033.54
973.883	2990.15
974.183	2993.31
974.484	3000.09
974.785	2944.05
975.085	2940.21
975.386	2987.21
975.686	2942.92
975.986	2926.42
976.287	2907.66
976.587	2871.73
976.887	2871.96
977.187	2888.23
977.487	2895.01
977.787	2823.6
978.087	2815.91
978.387	2804.16
978.687	2793.77
978.987	2763.49
979.286	2751.96
979.586	2777.05
979.885	2743.37
980.185	2766.42
980.484	2696.37
980.784	2714.9
981.083	2683.49
981.382	2715.58
981.682	2659.31
981.981	2693.66
982.28	2647.56
982.579	2582.93
982.878	2661.79
983.177	2599.2
983.475	2605.98
983.774	2624.28
984.073	2577.05
984.372	2564.62
984.67	2546.09
984.969	2554.68
985.267	2536.15
985.566	2513.55
985.864	2488.47
986.162	2490.95
986.461	2463.61
986.759	2477.39
987.057	2436.49
987.355	2450.73
987.653	2454.12
987.951	2409.37
988.249	2395.59
988.547	2422.48
988.844	2403.5
989.142	2390.62
989.44	2365.08
989.737	2372.99
990.035	2364.4
990.332	2352.65
990.63	2329.15
990.927	2319.43
991.224	2321.01
991.521	2290.5
991.819	2291.18
992.116	2289.83
992.413	2267.91
992.71	2265.42
993.006	2213.67
993.303	2232.65
993.6	2237.17
993.897	2240.34
994.193	2210.05
994.49	2215.25
994.787	2225.2
995.083	2187.68
995.379	2164.18
995.676	2187.68
995.972	2111.3
996.268	2151.3
996.565	2119.44
996.861	2124.18
997.157	2060.23
997.453	2065.43
997.749	2086.44
998.044	2078.53
998.34	2051.41
998.636	2048.93
998.932	2032.21
999.227	2022.72
999.523	2048.7
999.818	2015.03
1000.114	2021.59
1000.409	1965.32
1000.704	1969.84
1001	2005.31
1001.295	1967.8
1001.59	1942.04
1001.885	1928.25
1002.18	1946.33
1002.475	1939.1
1002.77	1905.43
1003.065	1922.38
1003.359	1900.46
1003.654	1881.02
1003.949	1881.93
1004.243	1861.14
1004.538	1815.94
1004.832	1835.15
1005.127	1821.14
1005.421	1813.23
1005.715	1804.64
1006.009	1818.65
1006.304	1789.95
1006.598	1785.21
1006.892	1752.67
1007.186	1761.48
1007.48	1750.63
1007.773	1746.34
1008.067	1727.81
1008.361	1714.25
1008.655	1688.03
1008.948	1693.91
1009.242	1663.63
1009.535	1667.47
1009.829	1654.14
1010.122	1652.1
1010.415	1673.12
1010.708	1638.09
1011.001	1672.44
1011.295	1652.33
1011.588	1589.96
1011.881	1562.16
1012.173	1627.92
1012.466	1620.24
1012.759	1617.53
1013.052	1598.77
1013.344	1564.42
1013.637	1538.66
1013.93	1513.58
1014.222	1528.26
1014.514	1517.19
1014.807	1538.89
1015.099	1492.56
1015.391	1472.22
1015.683	1497.98
1015.976	1483.75
1016.268	1476.74
1016.56	1459.34
1016.851	1463.41
1017.143	1460.24
1017.435	1440.58
1017.727	1446.01
1018.018	1437.19
1018.31	1422.96
1018.602	1386.8
1018.893	1416.18
1019.185	1405.56
1019.476	1369.85
1019.767	1362.62
1020.058	1373.47
1020.35	1334.15
1020.641	1324.43
1020.932	1309.29
1021.223	1305.9
1021.514	1308.16
1021.804	1264.09
1022.095	1298.44
1022.386	1292.56
1022.677	1304.54
1022.967	1265.45
1023.258	1274.71
1023.548	1286.69
1023.839	1272.68
1024.129	1222.06
1024.419	1231.32
1024.709	1236.75
1025	1196.07
1025.29	1188.61
1025.58	1196.75
1025.87	1172.34
1026.16	1177.31
1026.449	1184.32
1026.739	1153.59
1027.029	1136.64
1027.319	1145
1027.608	1168.73
1027.898	1168.5
1028.187	1125.11
1028.477	1146.58
1028.766	1114.49
1029.055	1117.2
1029.344	1112.46
1029.634	1096.86
1029.923	1107.26
1030.212	1092.57
1030.501	1069.29
1030.79	1051.67
1031.078	1030.88
1031.367	1070.2
1031.656	1057.99
1031.945	1055.73
1032.233	1038.11
1032.522	1042.4
1032.81	1030.88
1033.099	1001.95
1033.387	1008.5
1033.675	981.39
1033.963	1005.57
1034.251	1007.37
1034.54	980.93
1034.828	989.52
1035.116	971.67
1035.403	964.44
1035.691	977.09
1035.979	969.64
1036.267	968.28
1036.554	963.31
1036.842	955.62
1037.129	920.82
1037.417	922.86
1037.704	902.74
1037.992	929.41
1038.279	914.95
1038.566	893.25
1038.853	893.25
1039.14	893.25
