Data from hue_100_FLMS001491_00023.txt Node
Date: Tue Feb 07 17:02:55 GMT 2017
User: dcchb
Spectrometer: FLMS00149
Trigger mode: 0
Integration Time (sec): 2.000000E-2
Scans to average: 10
Electric dark correction enabled: true
Nonlinearity correction enabled: false
Boxcar width: 0
XAxis mode: Wavelengths
Number of Pixels in Spectrum: 2048
>>>>>Begin Spectral Data<<<<<
341.393	-15.56
341.776	-15.56
342.16	-15.56
342.543	-58.05
342.927	-77.03
343.31	-63.7
343.693	-65.05
344.077	-91.72
344.46	-63.47
344.843	-35.45
345.226	-51.04
345.61	-35.9
345.993	-15.79
346.376	-18.73
346.759	2.29
347.142	25.11
347.525	39.8
347.908	82.06
348.291	90.42
348.674	85.45
349.057	115.73
349.44	132.68
349.823	139.01
350.206	152.34
350.588	200.93
350.971	210.42
351.354	231.43
351.737	252.23
352.119	252.68
352.502	271.66
352.884	264.88
353.267	287.93
353.65	287.7
354.032	280.02
354.414	320.47
354.797	311.88
355.179	310.53
355.562	334.93
355.944	313.24
356.326	343.97
356.709	332.67
357.091	332
357.473	360.7
357.855	337.65
358.238	355.27
358.62	350.53
359.002	334.26
359.384	336.52
359.766	322.05
360.148	348.49
360.53	359.79
360.912	343.75
361.294	339.68
361.676	324.77
362.057	339.45
362.439	357.53
362.821	333.35
363.203	323.18
363.584	334.48
363.966	304.88
364.348	326.57
364.729	335.16
365.111	318.89
365.493	324.99
365.874	338.32
366.256	337.87
366.637	311.88
367.019	328.16
367.4	316.86
367.781	307.82
368.163	302.17
368.544	334.03
368.925	323.64
369.306	338.78
369.688	318.21
370.069	326.35
370.45	296.07
370.831	296.97
371.212	320.7
371.593	322.96
371.974	334.71
372.355	324.31
372.736	335.39
373.117	308.27
373.498	327.93
373.879	337.19
374.26	317.08
374.641	325.67
375.021	300.81
375.402	333.58
375.783	331.77
376.163	326.57
376.544	327.25
376.925	322.51
377.305	343.3
377.686	332.9
378.066	327.93
378.447	343.3
378.827	332.22
379.208	362.28
379.588	328.16
379.968	341.71
380.349	341.26
380.729	343.75
381.109	337.19
381.489	348.04
381.87	327.03
382.25	357.76
382.63	357.53
383.01	356.86
383.39	344.88
383.77	368.38
384.15	361.15
384.53	350.08
384.91	346.91
385.29	358.89
385.67	365.44
386.049	388.72
386.429	363.63
386.809	381.71
387.189	376.97
387.568	377.65
387.948	381.94
388.328	366.8
388.707	372
389.087	357.08
389.466	364.54
389.846	391.2
390.225	377.65
390.605	362.96
390.984	362.28
391.363	392.56
391.743	406.8
392.122	387.14
392.501	379.23
392.881	410.86
393.26	389.17
393.639	386.68
394.018	408.38
394.397	395.05
394.776	400.02
395.155	392.56
395.534	402.96
395.913	387.59
396.292	412.67
396.671	415.38
397.05	403.18
397.429	399.79
397.808	394.82
398.186	422.16
398.565	392.79
398.944	436.17
399.323	433.69
399.701	432.33
400.08	412.9
400.458	418.32
400.837	411.32
401.215	417.87
401.594	412.67
401.972	439.79
402.351	427.59
402.729	433.69
403.107	447.02
403.486	419.23
403.864	427.59
404.242	433.46
404.62	448.38
404.999	471.43
405.377	455.61
405.755	456.51
406.133	460.13
406.511	437.76
406.889	443.41
407.267	461.94
407.645	478.21
408.023	465.55
408.401	481.82
408.779	484.76
409.156	480.92
409.534	508.26
409.912	483.18
410.29	481.15
410.667	496.74
411.045	505.78
411.422	509.17
411.8	497.19
412.178	510.75
412.555	497.87
412.933	530.18
413.31	524.99
413.687	534.48
414.065	528.15
414.442	536.29
414.819	536.96
415.197	528.6
415.574	541.26
415.951	546.91
416.328	526.79
416.705	548.49
417.082	562.27
417.46	554.82
417.837	530.18
418.214	560.47
418.591	564.08
418.967	571.31
419.344	581.93
419.721	604.08
420.098	581.03
420.475	587.81
420.852	586.91
421.228	611.76
421.605	585.78
421.982	609.96
422.358	597.53
422.735	595.04
423.111	607.02
423.488	628.03
423.864	616.74
424.241	651.54
424.617	638.88
424.994	647.02
425.37	623.06
425.746	642.5
426.123	656.28
426.499	644.31
426.875	674.81
427.251	660.58
427.627	679.78
428.003	648.6
428.379	668.94
428.756	678.2
429.132	687.24
429.507	685.89
429.883	719.56
430.259	699.9
430.635	726.79
431.011	743.06
431.387	741.25
431.763	734.92
432.138	751.42
432.514	747.58
432.89	746.45
433.265	776.73
433.641	780.8
434.016	784.41
434.392	786.45
434.767	794.81
435.143	785.09
435.518	814.47
435.894	812.21
436.269	810.18
436.644	835.71
437.02	832.55
437.395	845.2
437.77	855.6
438.145	871.42
438.52	876.16
438.895	895.82
439.271	881.14
439.646	896.28
440.021	903.73
440.395	921.59
440.77	928.14
441.145	915.26
441.52	937.63
441.895	918.87
442.27	903.28
442.645	935.6
443.019	940.34
443.394	942.83
443.769	974.24
444.143	941.47
444.518	964.52
444.892	977.4
445.267	953.45
445.641	976.73
446.016	985.54
446.39	1003.17
446.764	998.87
447.139	1006.78
447.513	1009.27
447.887	1016.5
448.262	1025.54
448.636	1038.65
449.01	1049.04
449.384	1028.25
449.758	1072.09
450.132	1060.79
450.506	1074.8
450.88	1069.38
451.254	1086.55
451.628	1124.52
452.002	1124.97
452.376	1119.09
452.75	1111.19
453.123	1109.83
453.497	1144.86
453.871	1159.55
454.244	1167.23
454.618	1192.54
454.992	1211.07
455.365	1183.95
455.739	1214.91
456.112	1246.32
456.486	1238.41
456.859	1281.12
457.232	1285.64
457.606	1287
457.979	1311.86
458.352	1337.17
458.725	1342.14
459.099	1344.85
459.472	1364.29
459.845	1376.94
460.218	1400.44
460.591	1391.86
460.964	1408.35
461.337	1482.48
461.71	1456.04
462.083	1504.85
462.456	1509.37
462.829	1519.99
463.201	1539.65
463.574	1565.86
463.947	1564.73
464.32	1634.11
464.692	1634.79
465.065	1624.84
465.438	1651.28
465.81	1706.65
466.183	1733.54
466.555	1761.11
466.928	1783.71
467.3	1784.16
467.672	1816.25
468.045	1857.38
468.417	1873.2
468.789	1937.38
469.161	1902.8
469.534	1995
469.906	2045.85
470.278	2045.17
470.65	2028.45
471.022	2114.32
471.394	2139.41
471.766	2208.11
472.138	2223.47
472.51	2294.88
472.882	2330.36
473.253	2388.89
473.625	2442.22
473.997	2496.91
474.369	2511.15
474.74	2549.79
475.112	2591.6
475.484	2671.82
475.855	2737.36
476.227	2799.73
476.598	2896
476.97	2919.5
477.341	3010.12
477.713	3057.12
478.084	3140.06
478.455	3270.22
478.827	3281.98
479.198	3488.3
479.569	3467.06
479.94	3608.52
480.311	3654.62
480.682	3774.17
481.053	3902.75
481.424	3999.25
481.795	4118.11
482.166	4170.31
482.537	4323.08
482.908	4443.98
483.279	4549.97
483.65	4669.28
484.021	4711.09
484.391	4894.36
484.762	5002.61
485.133	5106.11
485.503	5272.66
485.874	5468.36
486.244	5509.71
486.615	5660.44
486.985	5786.99
487.356	5931.17
487.726	6063.6
488.097	6251.16
488.467	6311.95
488.837	6536.35
489.207	6648.22
489.578	6850.47
489.948	7013.86
490.318	7133.17
490.688	7283.9
491.058	7476.22
491.428	7654.74
491.798	7774.51
492.168	8030.78
492.538	8068.29
492.908	8277.32
493.278	8478.22
493.648	8482.29
494.017	8702.62
494.387	8845.22
494.757	9010.19
495.126	9113.23
495.496	9216.06
495.866	9466.67
496.235	9581.02
496.605	9713.22
496.974	9792.54
497.344	9985.3
497.713	10157.05
498.082	10215.8
498.452	10486.31
498.821	10464.16
499.19	10631.39
499.559	10776.02
499.928	10949.34
500.298	11034.54
500.667	11219.85
501.036	11207.42
501.405	11403.8
501.774	11430.91
502.143	11662.77
502.512	11668.65
502.88	11767.18
503.249	11875.42
503.618	12061.18
503.987	12109.31
504.356	12240.84
504.724	12337.1
505.093	12389.08
505.462	12544.78
505.83	12577.55
506.199	12763.08
506.567	12882.85
506.936	12893.7
507.304	13076.75
507.672	13113.58
508.041	13262.96
508.409	13366.23
508.777	13398.32
509.145	13507.24
509.514	13554.25
509.882	13575.94
510.25	13719.44
510.618	13819.1
510.986	13808.7
511.354	13973.45
511.722	14079.66
512.09	14206.89
512.458	14161.92
512.826	14390.16
513.193	14295.92
513.561	14367.56
513.929	14476.26
514.297	14664.05
514.664	14644.84
515.032	14725.97
515.4	14734.33
515.767	14799.64
516.135	14888
516.502	14725.52
516.869	14995.11
517.237	15031.5
517.604	14984.27
517.972	15170.93
518.339	15108.78
518.706	15250.93
519.073	15206.18
519.44	15312.85
519.808	15478.04
520.175	15391.94
520.542	15519.85
520.909	15609.34
521.276	15627.41
521.643	15670.8
522.009	15706.28
522.376	15830.12
522.743	15875.32
523.11	15993.28
523.477	16039.83
523.843	16095.88
524.21	16221.97
524.577	16293.84
524.943	16238.7
525.31	16258.13
525.676	16334.51
526.043	16452.7
526.409	16464
526.776	16627.16
527.142	16549.88
527.508	16601.17
527.874	16591.68
528.241	16649.31
528.607	16705.35
528.973	16750.77
529.339	16751.45
529.705	16796.65
530.071	16796.42
530.437	16830.77
530.803	16927.04
531.169	16890.66
531.535	16811.56
531.901	16918.23
532.267	16951.67
532.632	16900.15
532.998	16834.61
533.364	16929.98
533.73	16934.5
534.095	16991.67
534.461	17007.94
534.826	16973.59
535.192	16995.97
535.557	17036.87
535.923	16928.4
536.288	17047.04
536.653	17016.98
537.019	16876.65
537.384	16827.38
537.749	16972.46
538.114	16837.78
538.479	16878.23
538.845	16717.33
539.21	16756.65
539.575	16733.6
539.94	16775.18
540.305	16747.38
540.67	16769.08
541.034	16770.89
541.399	16749.19
541.764	16721.17
542.129	16649.99
542.494	16599.37
542.858	16613.38
543.223	16631
543.587	16595.98
543.952	16635.75
544.316	16520.5
544.681	16488.41
545.045	16487.73
545.41	16470.78
545.774	16407.73
546.138	16320.73
546.503	16424.46
546.867	16312.82
547.231	16443.44
547.595	16395.76
547.959	16323.89
548.324	16294.74
548.688	16265.36
549.052	16281.63
549.416	16232.6
549.779	16139.94
550.143	16120.28
550.507	16233.27
550.871	16198.02
551.235	16010.68
551.599	16142.43
551.962	16029.44
552.326	16053.84
552.689	16129.1
553.053	15996.44
553.417	16055.88
553.78	16118.93
554.143	15915.99
554.507	16017.69
554.87	15957.8
555.234	16043.45
555.597	16019.04
555.96	15951.25
556.323	15923
556.686	15893.85
557.05	15975.2
557.413	16022.21
557.776	15930.46
558.139	16017.01
558.502	15991.47
558.865	15887.52
559.228	15974.75
559.59	16008.42
559.953	15957.35
560.316	16041.64
560.679	15955.31
561.041	16091.13
561.404	16120.28
561.767	16101.75
562.129	15990.79
562.492	16071.47
562.854	16072.83
563.217	16020.62
563.579	16028.31
563.941	16176.78
564.304	16092.26
564.666	16121.86
565.028	16137.68
565.39	16153.28
565.753	16165.25
566.115	16205.7
566.477	16261.97
566.839	16228.98
567.201	16297.45
567.563	16281.63
567.925	16278.47
568.287	16379.48
568.648	16258.13
569.01	16382.65
569.372	16404.34
569.734	16318.92
570.095	16413.83
570.457	16525.92
570.819	16466.26
571.18	16422.42
571.542	16583.55
571.903	16476.21
572.265	16532.47
572.626	16571.57
572.987	16572.25
573.349	16660.61
573.71	16606.82
574.071	16620.61
574.432	16651.79
574.794	16740.61
575.155	16739.25
575.516	16592.59
575.877	16714.62
576.238	16682.53
576.599	16760.49
576.96	16739.93
577.32	16664.22
577.681	16736.76
578.042	16816.54
578.403	16783.09
578.763	16732.47
579.124	16830.55
579.485	16853.37
579.845	16929.07
580.206	16871
580.566	16827.16
580.927	16798.23
581.287	16946.93
581.648	16749.19
582.008	16830.09
582.368	16839.36
582.728	16754.62
583.089	16806.82
583.449	16779.47
583.809	16773.37
584.169	16811.79
584.529	16704.22
584.889	16835.52
585.249	16620.16
585.609	16636.88
585.969	16729.53
586.329	16756.88
586.688	16703.32
587.048	16709.87
587.408	16598.91
587.768	16742.41
588.127	16698.8
588.487	16667.39
588.846	16712.36
589.206	16584.68
589.565	16676.2
589.925	16676.65
590.284	16625.35
590.643	16499.71
591.003	16564.56
591.362	16614.73
591.721	16521.63
592.08	16610.89
592.44	16600.72
592.799	16575.41
593.158	16523.21
593.517	16453.15
593.876	16565.47
594.235	16461.97
594.593	16468.97
594.952	16641.4
595.311	16523.89
595.67	16459.71
596.029	16619.7
596.387	16508.97
596.746	16497.22
597.104	16520.72
597.463	16490.44
597.822	16527.28
598.18	16487.96
598.538	16457
598.897	16520.05
599.255	16423.1
599.613	16616.99
599.972	16490.44
600.33	16482.08
600.688	16333.84
601.046	16422.87
601.404	16469.2
601.762	16505.58
602.12	16585.81
602.478	16611.34
602.836	16501.52
603.194	16362.31
603.552	16485.92
603.91	16401.63
604.268	16534.96
604.625	16514.17
604.983	16554.85
605.341	16323.44
605.698	16500.39
606.056	16526.6
606.413	16584.22
606.771	16541.74
607.128	16522.53
607.485	16516.88
607.843	16490.44
608.2	16484.11
608.557	16510.78
608.914	16596.65
609.272	16620.61
609.629	16642.98
609.986	16704.22
610.343	16705.13
610.7	16729.76
611.057	16642.75
611.414	16574.51
611.771	16600.04
612.127	16723.88
612.484	16724.56
612.841	16751.45
613.198	16726.14
613.554	16720.04
613.911	16923.88
614.267	16766.37
614.624	16758.91
614.98	16825.57
615.337	16896.08
615.693	16778.8
616.05	16912.35
616.406	16950.99
616.762	16748.74
617.118	16876.65
617.475	16864.22
617.831	16887.95
618.187	16935.4
618.543	16992.35
618.899	17007.72
619.255	17024.44
619.611	16927.72
619.967	17033.7
620.323	17013.14
620.678	17042.97
621.034	17005.46
621.39	16977.89
621.746	16960.03
622.101	17047.04
622.457	16963.42
622.812	17070.77
623.168	17074.16
623.523	17045.68
623.879	17153.25
624.234	16942.41
624.589	17020.15
624.945	17040.71
625.3	17000.03
625.655	17014.95
626.01	16939.02
626.365	16958.23
626.72	17027.6
627.075	16985.57
627.43	16927.72
627.785	16923.88
628.14	16963.42
628.495	17021.73
628.85	16953.71
629.205	16961.16
629.559	16977.66
629.914	16886.59
630.269	16911
630.623	16881.17
630.978	16862.18
631.332	16855.86
631.687	16878.68
632.041	16842.52
632.396	16908.96
632.75	16735.18
633.104	16806.37
633.459	16739.02
633.813	16729.31
634.167	16680.27
634.521	16825.12
634.875	16680.49
635.229	16651.79
635.583	16618.8
635.937	16614.05
636.291	16614.51
636.645	16636.65
636.999	16517.79
637.352	16530.67
637.706	16491.8
638.06	16504.68
638.413	16473.27
638.767	16426.04
639.121	16487.96
639.474	16375.19
639.828	16400.95
640.181	16422.2
640.534	16420.84
640.888	16348.75
641.241	16323.44
641.594	16295.87
641.947	16324.34
642.301	16283.89
642.654	16297.68
643.007	16280.96
643.36	16318.7
643.713	16246.61
644.066	16297
644.419	16200.73
644.771	16156.21
645.124	16002.77
645.477	15901.53
645.83	15849.33
646.182	15720.07
646.535	15796.22
646.888	15752.61
647.24	15630.58
647.593	15686.85
647.945	15713.06
648.298	15579.51
648.65	15546.29
649.002	15589.67
649.355	15637.58
649.707	15676.23
650.059	15779.5
650.411	15925.26
650.763	15918.93
651.115	16098.81
651.467	16024.69
651.819	16069.21
652.171	16035.54
652.523	16008.87
652.875	16056.78
653.227	15895.88
653.578	16072.6
653.93	16012.71
654.282	15929.33
654.633	15959.61
654.985	15941.98
655.337	16003.45
655.688	16034.41
656.039	16050
656.391	16004.35
656.742	16026.95
657.094	16076.89
657.445	16039.38
657.796	15999.83
658.147	16018.14
658.498	15985.82
658.849	16081.87
659.2	16078.02
659.551	16012.71
659.902	16112.37
660.253	16087.97
660.604	16114.86
660.955	15946.5
661.306	16021.08
661.656	15991.47
662.007	16111.92
662.358	16073.05
662.708	16064.69
663.059	16073.05
663.409	15945.37
663.76	16084.35
664.11	16165.7
664.461	16132.94
664.811	16055.65
665.161	16065.59
665.511	16063.11
665.862	16006.16
666.212	16083.67
666.562	16071.47
666.912	16178.59
667.262	16040.28
667.612	16007.29
667.962	16135.42
668.312	16101.98
668.662	16130
669.011	16109.21
669.361	16035.09
669.711	16033.73
670.06	16092.94
670.41	15967.29
670.76	16031.02
671.109	16052.04
671.459	15956.22
671.808	15964.13
672.157	15959.16
672.507	15873.96
672.856	15939.04
673.205	15993.28
673.554	15957.57
673.904	15897.24
674.253	16040.74
674.602	15922.77
674.951	15784.25
675.3	15564.59
675.649	15866.73
675.998	15801.65
676.346	15775.43
676.695	15894.98
677.044	15741.76
677.393	15821.76
677.741	15870.12
678.09	15774.3
678.438	15719.16
678.787	15713.51
679.135	15766.85
679.484	15500.41
679.832	15554.42
680.181	15575.89
680.529	15692.72
680.877	15470.81
681.225	15523.01
681.573	15580.18
681.922	15482.33
682.27	15469.23
682.618	15409.57
682.966	15360.53
683.314	15488.66
683.661	15292.73
684.009	15227.65
684.357	15186.97
684.705	15142.23
685.053	15229.91
685.4	15245.96
685.748	15085.96
686.095	15103.13
686.443	15089.35
686.79	14945.62
687.138	15104.94
687.485	15016.81
687.832	14997.6
688.18	15012.06
688.527	14879.86
688.874	14828.34
689.221	14823.37
689.568	14774.33
689.915	14749.7
690.262	14785.18
690.609	14739.08
690.956	14570.72
691.303	14566.88
691.65	14531.4
691.997	14491.4
692.344	14380.89
692.69	14444.62
693.037	14397.84
693.383	14206.66
693.73	14284.4
694.077	14160.11
694.423	14272.65
694.769	14074.91
695.116	14061.13
695.462	14057.29
695.808	13991.98
696.155	14020.68
696.501	13895.71
696.847	13952.66
697.193	13732.1
697.539	13848.03
697.885	13707.69
698.231	13636.96
698.577	13603.96
698.923	13593.57
699.269	13593.8
699.614	13412.1
699.96	13460.92
700.306	13300.24
700.651	13344.99
700.997	13366.91
701.342	13266.57
701.688	13205.78
702.033	13224.77
702.379	13105.22
702.724	13104.54
703.069	13057.76
703.415	12930.31
703.76	13006.69
704.105	12935.28
704.45	12876.3
704.795	12793.36
705.14	12706.13
705.485	12703.65
705.83	12688.96
706.175	12730.77
706.52	12632.01
706.865	12535.74
707.209	12582.3
707.554	12517.67
707.899	12566.03
708.243	12425.01
708.588	12360.16
708.932	12265.02
709.277	12347.05
709.621	12298.01
709.966	12256.66
710.31	12183.44
710.654	12011.46
710.998	12170.33
711.342	12130.33
711.687	12104.79
712.031	12027.73
712.375	12006.72
712.719	12101.18
713.063	12036.55
713.407	12020.28
713.75	11947.28
714.094	11915.65
714.438	11869.32
714.782	11833.39
715.125	11875.2
715.469	11806.95
715.812	11770.79
716.156	11723.56
716.499	11628.88
716.843	11714.97
717.186	11688.76
717.53	11715.43
717.873	11643.79
718.216	11642.43
718.559	11587.29
718.902	11534.19
719.246	11507.52
719.589	11574.87
719.932	11459.61
720.275	11558.37
720.617	11486.73
720.96	11455.32
721.303	11507.97
721.646	11494.87
721.989	11441.76
722.331	11475.66
722.674	11429.78
723.016	11351.37
723.359	11337.13
723.701	11409.45
724.044	11360.41
724.386	11259.39
724.729	11317.92
725.071	11334.87
725.413	11289.67
725.755	11291.48
726.097	11254.87
726.439	11206.06
726.782	11184.37
727.124	11315.89
727.465	11195.89
727.807	11203.35
728.149	11227.08
728.491	11186.17
728.833	11245.38
729.175	11218.94
729.516	11183.24
729.858	11136.01
730.199	11184.59
730.541	11177.81
730.882	11174.42
731.224	11173.29
731.565	11136.23
731.906	11171.03
732.248	11169.9
732.589	11017.59
732.93	11083.8
733.271	11046.07
733.612	11140.3
733.953	11152.96
734.294	11113.63
734.635	11132.62
734.976	11047.42
735.317	11093.3
735.658	11065.5
735.999	11053.3
736.339	11092.84
736.68	11155.22
737.021	11090.81
737.361	11135.78
737.702	11275.44
738.042	11071.6
738.383	11147.08
738.723	11154.76
739.063	11194.54
739.404	11216.91
739.744	11161.77
740.084	11181.66
740.424	11252.84
740.764	11193.63
741.104	11249
741.444	11167.87
741.784	11193.41
742.124	11327.87
742.464	11312.73
742.804	11298.49
743.143	11268.88
743.483	11344.14
743.823	11286.29
744.162	11321.31
744.502	11421.42
744.841	11395.66
745.181	11405.15
745.52	11352.95
745.86	11544.81
746.199	11568.31
746.538	11562.44
746.877	11636.33
747.216	11680.63
747.556	11714.52
747.895	11781.87
748.234	11777.8
748.573	11923.1
748.911	11900.96
749.25	11976.21
749.589	12100.95
749.928	12160.16
750.267	12198.58
750.605	12238.8
750.944	12284.45
751.283	12447.38
751.621	12572.13
751.96	12563.54
752.298	12703.65
752.636	12924.89
752.975	12935.28
753.313	13025.45
753.651	13167.82
753.989	13212.34
754.327	13296.4
754.666	13361.94
755.004	13555.83
755.342	13730.97
755.679	13825.88
756.017	13964.86
756.355	14081.01
756.693	14219.54
757.031	14410.5
757.368	14474.22
757.706	14724.84
758.044	14783.14
758.381	15001.44
758.719	15090.7
759.056	15327.53
759.394	15420.19
759.731	15561.88
760.068	15758.71
760.405	15895.66
760.743	16042.32
761.08	16288.41
761.417	16259.26
761.754	16466.49
762.091	16712.81
762.428	16895.18
762.765	16918.91
763.102	17181.5
763.438	17282.06
763.775	17538.55
764.112	17754.36
764.449	17861.03
764.785	17967.69
765.122	17962.72
765.458	18190.74
765.795	18295.14
766.131	18443.39
766.467	18641.35
766.804	18793.21
767.14	18928.34
767.476	18958.85
767.812	19121.56
768.148	19286.98
768.485	19395.9
768.821	19317.94
769.157	19537.14
769.492	19692.84
769.828	19737.59
770.164	19770.58
770.5	19821.2
770.836	19952.27
771.171	20014.64
771.507	20107.07
771.842	20307.06
772.178	20321.3
772.513	20347.74
772.849	20397.68
773.184	20435.2
773.519	20451.92
773.855	20594.06
774.19	20680.84
774.525	20743.21
774.86	20744.79
775.195	20827.5
775.53	20856.43
775.865	20893.72
776.2	20744.34
776.535	20863.66
776.87	20871.57
777.205	20869.08
777.539	20847.39
777.874	20991.34
778.209	20946.6
778.543	20940.27
778.878	21027.72
779.212	20954.28
779.547	20974.39
779.881	21044.9
780.215	20981.17
780.55	21055.07
780.884	21088.74
781.218	20951.79
781.552	21042.19
781.886	21017.33
782.22	21005.13
782.554	20971.68
782.888	20875.41
783.222	20832.02
783.556	20842.64
783.889	20811.46
784.223	20742.76
784.557	20755.87
784.89	20807.39
785.224	20579.6
785.557	20563.56
785.891	20643.55
786.224	20528.3
786.558	20609.88
786.891	20474.52
787.224	20415.54
787.557	20346.16
787.891	20456.89
788.224	20402.43
788.557	20521.75
788.89	20453.73
789.223	20417.8
789.556	20247.86
789.888	20267.29
790.221	20181.42
790.554	20091.93
790.887	20117.01
791.219	20069.56
791.552	20085.38
791.884	19971.71
792.217	19934.65
792.549	19953.18
792.882	19958.37
793.214	19787.98
793.546	19810.13
793.879	19726.52
794.211	19674.31
794.543	19699.4
794.875	19608.55
795.207	19691.49
795.539	19559.06
795.871	19543.47
796.203	19358.39
796.535	19266.64
796.867	19314.55
797.198	19362.23
797.53	19322.68
797.862	19247.66
798.193	19236.58
798.525	19100.99
798.856	19087.89
799.188	18897.16
799.519	18927.44
799.85	18790.95
800.182	18787.78
800.513	18838.85
800.844	18656.26
801.175	18754.11
801.506	18677.96
801.837	18705.3
802.168	18599.99
802.499	18542.59
802.83	18307.34
803.161	18457.17
803.491	18440.9
803.822	18463.05
804.153	18268.02
804.483	18160.45
804.814	18137.18
805.145	18155.26
805.475	18115.03
805.805	18100.34
806.136	18077.75
806.466	18044.53
806.796	18046.33
807.126	17856.96
807.457	17878.2
807.787	17902.61
808.117	17757.08
808.447	17645.21
808.777	17730.41
809.107	17603.18
809.436	17622.84
809.766	17551.21
810.096	17532.22
810.426	17480.47
810.755	17535.16
811.085	17416.07
811.414	17475.73
811.744	17247.94
812.073	17237.32
812.403	17342.85
812.732	17212.68
813.061	17136.75
813.39	17063.99
813.719	17094.04
814.049	17184.21
814.378	17106.02
814.707	17103.53
815.036	16982.41
815.365	16909.64
815.693	16805.01
816.022	16783.54
816.351	16767.95
816.68	16718.68
817.008	16869.19
817.337	16639.36
817.665	16591.91
817.994	16636.88
818.322	16573.83
818.651	16472.82
818.979	16458.8
819.307	16525.7
819.636	16460.84
819.964	16466.26
820.292	16424.46
820.62	16442.76
820.948	16372.48
821.276	16342.42
821.604	16380.39
821.932	16349.2
822.259	16466.04
822.587	16317.79
822.915	16333.16
823.243	16321.18
823.57	16308.3
823.898	16362.31
824.225	16305.59
824.553	16290.67
824.88	16335.42
825.207	16369.09
825.535	16299.03
825.862	16387.85
826.189	16360.95
826.516	16438.92
826.843	16429.88
827.17	16401.86
827.497	16404.79
827.824	16369.54
828.151	16485.47
828.478	16393.72
828.805	16346.04
829.131	16320.05
829.458	16427.17
829.785	16269.88
830.111	16355.76
830.438	16472.36
830.764	16421.97
831.09	16366.6
831.417	16247.74
831.743	16348.75
832.069	16324.57
832.395	16226.95
832.722	16331.8
833.048	16268.3
833.374	16281.86
833.7	16291.13
834.026	16167.51
834.351	16252.26
834.677	16292.48
835.003	16179.04
835.329	16187.85
835.654	16188.08
835.98	16117.34
836.306	16175.65
836.631	16077.12
836.956	16109.44
837.282	16158.93
837.607	16147.17
837.932	16061.53
838.258	16073.05
838.583	15959.16
838.908	15870.57
839.233	15969.55
839.558	15905.82
839.883	15776.34
840.208	15738.37
840.533	15896.11
840.858	15802.78
841.182	15816.34
841.507	15674.64
841.832	15670.35
842.156	15670.58
842.481	15551.26
842.805	15637.81
843.13	15469.45
843.454	15486.85
843.778	15464.03
844.103	15469
844.427	15455.22
844.751	15410.02
845.075	15382.45
845.399	15287.54
845.723	15157.37
846.047	15327.53
846.371	15071.04
846.695	15094.55
847.019	15045.06
847.343	14942.91
847.666	14831.28
847.99	14811.39
848.313	14750.83
848.637	14740.66
848.96	14620.43
849.284	14667.21
849.607	14500.66
849.931	14496.14
850.254	14415.69
850.577	14335.92
850.9	14208.02
851.223	14178.86
851.546	14192.88
851.869	14140.67
852.192	14147.45
852.515	14047.34
852.838	13993.11
853.161	13959.89
853.483	13873.79
853.806	13827.24
854.129	13737.75
854.451	13743.85
854.774	13733
855.096	13634.25
855.419	13674.47
855.741	13548.6
856.063	13509.73
856.385	13490.07
856.708	13434.03
857.03	13334.14
857.352	13380.92
857.674	13318.1
857.996	13274.26
858.318	13169.63
858.64	13229.96
858.961	13158.33
859.283	13076.75
859.605	13010.99
859.926	13042.85
860.248	13031.78
860.57	12943.19
860.891	12921.5
861.212	12897.77
861.534	12891.44
861.855	12823.65
862.176	12818.9
862.498	12799.69
862.819	12809.41
863.14	12783.42
863.461	12716.76
863.782	12656.42
864.103	12651.9
864.424	12635.18
864.745	12705.23
865.065	12591.79
865.386	12535.29
865.707	12522.86
866.027	12608.06
866.348	12528.51
866.668	12506.37
866.989	12425.46
867.309	12364.45
867.63	12366.93
867.95	12399.7
868.27	12297.56
868.59	12344.11
868.91	12276.32
869.23	12307.95
869.55	12223.66
869.87	12311.12
870.19	12270.44
870.51	12258.24
870.83	12218.92
871.15	12155.41
871.469	12151.12
871.789	12180.72
872.109	12209.2
872.428	12115.19
872.748	12092.82
873.067	12135.98
873.386	12101.63
873.706	11971.69
874.025	12002.2
874.344	11996.77
874.663	11910.22
874.982	11890.11
875.301	12024.8
875.62	11898.02
875.939	11933.05
876.258	11877
876.577	11907.06
876.896	11820.51
877.214	11761.75
877.533	11693.73
877.852	11785.26
878.17	11761.53
878.489	11780.74
878.807	11724.47
879.125	11729.21
879.444	11749.78
879.762	11684.24
880.08	11625.71
880.398	11566.5
880.716	11702.09
881.034	11614.86
881.352	11550.23
881.67	11550.68
881.988	11584.58
882.306	11463.91
882.624	11483.79
882.941	11387.98
883.259	11356.79
883.577	11345.04
883.894	11310.69
884.212	11339.62
884.529	11302.1
884.846	11268.21
885.164	11281.99
885.481	11171.71
885.798	11188.43
886.115	11120.64
886.432	11059.17
886.75	11100.53
887.067	11088.32
887.383	11099.4
887.7	11079.96
888.017	10997.03
888.334	11015.11
888.651	10922
888.967	10872.74
889.284	10909.8
889.6	10762.91
889.917	10711.84
890.233	10762.01
890.55	10741.67
890.866	10782.8
891.182	10729.92
891.498	10692.4
891.815	10648.11
892.131	10644.27
892.447	10563.37
892.763	10523.14
893.079	10483.14
893.395	10465.52
893.71	10441.34
894.026	10417.38
894.342	10344.39
894.657	10302.13
894.973	10277.05
895.289	10309.81
895.604	10318.85
895.92	10125.19
896.235	10190.72
896.55	10159.54
896.865	10077.28
897.181	10059.2
897.496	10071.85
897.811	10039.31
898.126	10016.26
898.441	9923.61
898.756	9896.49
899.071	9853.78
899.386	9896.72
899.7	9735.37
900.015	9721.35
900.33	9670.73
900.644	9690.39
900.959	9640.9
901.273	9553.9
901.588	9580.57
901.902	9536.95
902.216	9514.35
902.531	9526.33
902.845	9460.34
903.159	9344.42
903.473	9371.08
903.787	9324.3
904.101	9288.6
904.415	9261.03
904.729	9183.74
905.042	9141.26
905.356	9146.68
905.67	9089.28
905.984	9099
906.297	9096.29
906.611	8990.53
906.924	8986.68
907.237	8965.89
907.551	8981.04
907.864	8927.03
908.177	8835.5
908.491	8804.54
908.804	8706.92
909.117	8742.4
909.43	8681.16
909.743	8720.25
910.056	8599.8
910.368	8648.39
910.681	8537.88
910.994	8568.84
911.307	8521.39
911.619	8508.05
911.932	8474.16
912.244	8361.16
912.557	8379.69
912.869	8328.85
913.181	8266.48
913.494	8266.48
913.806	8260.6
914.118	8197.78
914.43	8161.4
914.742	8094.5
915.054	8129.98
915.366	8096.09
915.678	7986.94
915.99	7942.19
916.302	7955.3
916.613	7891.35
916.925	7863.32
917.236	7853.83
917.548	7762.99
917.859	7792.37
918.171	7734.74
918.482	7706.27
918.794	7660.39
919.105	7619.71
919.416	7581.98
919.727	7537.01
920.038	7582.2
920.349	7511.24
920.66	7506.05
920.971	7496.1
921.282	7441.19
921.593	7433.96
921.903	7363.22
922.214	7327.29
922.525	7212.27
922.835	7265.37
923.146	7214.3
923.456	7215.21
923.767	7192.16
924.077	7149.22
924.387	7088.88
924.697	7066.28
925.008	7057.92
925.318	7039.39
925.628	6965.95
925.938	6996
926.248	6889.11
926.558	6900.41
926.867	6857.48
927.177	6851.37
927.487	6790.36
927.796	6785.39
928.106	6769.79
928.416	6778.16
928.725	6756.23
929.034	6679.85
929.344	6739.74
929.653	6625.39
929.962	6599.4
930.271	6588.78
930.581	6521.66
930.89	6551.04
931.199	6475.79
931.508	6474.89
931.817	6438.05
932.125	6466.3
932.434	6373.87
932.743	6350.37
933.051	6270.15
933.36	6275.8
933.669	6256.59
933.977	6238.51
934.286	6187.44
934.594	6189.24
934.902	6156.7
935.21	6161.9
935.519	6106.99
935.827	6096.82
936.135	6073.77
936.443	6045.07
936.751	6022.69
937.059	5989.7
937.367	6037.84
937.674	5982.02
937.982	5974.33
938.29	5897.73
938.597	5965.3
938.905	5794.9
939.213	5810.95
939.52	5749.26
939.827	5780.44
940.135	5784.51
940.442	5730.05
940.749	5694.57
941.056	5758.52
941.363	5652.99
941.67	5637.62
941.977	5564.63
942.284	5531.86
942.591	5537.96
942.898	5498.41
943.205	5504.29
943.511	5442.37
943.818	5470.84
944.125	5422.48
944.431	5424.29
944.738	5427.91
945.044	5347.46
945.35	5333
945.657	5328.02
945.963	5290.96
946.269	5265.65
946.575	5266.56
946.881	5224.3
947.187	5229.27
947.493	5179.33
947.799	5153.34
948.105	5142.49
948.41	5117.86
948.716	5119.67
949.022	5097.07
949.327	5040.8
949.633	5010.07
949.938	5027.01
950.244	4988.37
950.549	4944.31
950.854	4868.37
951.16	4927.13
951.465	4880.58
951.77	4859.79
952.075	4861.14
952.38	4831.31
952.685	4812.78
952.99	4780.69
953.294	4743.18
953.599	4790.41
953.904	4742.95
954.209	4689.4
954.513	4683.97
954.818	4668.61
955.122	4633.35
955.426	4608.27
955.731	4605.56
956.035	4571.21
956.339	4551.77
956.643	4557.42
956.948	4559.68
957.252	4508.38
957.556	4482.85
957.86	4500.25
958.163	4423.19
958.467	4446.69
958.771	4403.75
959.075	4403.3
959.378	4373.02
959.682	4372.12
959.985	4333.25
960.289	4337.99
960.592	4313.59
960.896	4268.16
961.199	4281.95
961.502	4263.87
961.805	4253.25
962.108	4183.87
962.411	4201.5
962.714	4187.94
963.017	4163.76
963.32	4160.82
963.623	4111.56
963.926	4120.37
964.228	4093.71
964.531	4050.09
964.833	4034.72
965.136	4002.41
965.438	4013.03
965.741	3981.17
966.043	3987.04
966.345	3961.28
966.648	3926.48
966.95	3914.95
967.252	3928.51
967.554	3907.95
967.856	3881.28
968.158	3819.36
968.46	3823.88
968.761	3802.19
969.063	3791.34
969.365	3787.05
969.666	3792.02
969.968	3734.85
970.269	3687.39
970.571	3698.24
970.872	3684
971.174	3677.45
971.475	3669.99
971.776	3643.55
972.077	3668.86
972.378	3614.4
972.679	3614.62
972.98	3592.7
973.281	3564.45
973.582	3572.36
973.883	3537.56
974.183	3530.1
974.484	3505.47
974.785	3530.33
975.085	3529.65
975.386	3493.5
975.686	3458.24
975.986	3418.7
976.287	3435.87
976.587	3393.61
976.887	3388.87
977.187	3392.93
977.487	3387.06
977.787	3350.22
978.087	3343.67
978.387	3370.34
978.687	3307.74
978.987	3305.03
979.286	3240.85
979.586	3278.13
979.885	3214.41
980.185	3238.36
980.484	3206.95
980.784	3180.28
981.083	3208.76
981.382	3139.15
981.682	3188.42
981.981	3169.21
982.28	3124.01
982.579	3119.49
982.878	3102.32
983.177	3093.96
983.475	3073.62
983.774	3046.05
984.073	3079.27
984.372	2963.11
984.67	3045.6
984.969	3008.54
985.267	2999.5
985.566	2954.98
985.864	2951.36
986.162	2959.95
986.461	2970.8
986.759	2904.81
987.057	2864.59
987.355	2913.85
987.653	2850.12
987.951	2896.45
988.249	2845.38
988.547	2866.39
988.844	2812.61
989.142	2822.1
989.44	2772.16
989.737	2806.28
990.035	2795.43
990.332	2769.22
990.63	2743.46
990.927	2759.28
991.224	2752.72
991.521	2705.95
991.819	2700.07
992.116	2705.04
992.413	2702.33
992.71	2627.3
993.006	2636.12
993.303	2664.59
993.6	2625.72
993.897	2585.05
994.193	2618.04
994.49	2584.37
994.787	2589.79
995.083	2526.74
995.379	2547.76
995.676	2517.02
995.972	2542.79
996.268	2505.05
996.565	2474.31
996.861	2493.52
997.157	2487.42
997.453	2442.68
997.749	2446.97
998.044	2440.42
998.34	2427.31
998.636	2433.86
998.932	2388.89
999.227	2380.76
999.523	2368.33
999.818	2381.89
1000.114	2368.78
1000.409	2317.93
1000.704	2312.51
1001	2357.03
1001.295	2300.08
1001.59	2303.47
1001.885	2273.64
1002.18	2269.57
1002.475	2236.35
1002.77	2227.31
1003.065	2220.53
1003.359	2184.6
1003.654	2204.49
1003.949	2169.24
1004.243	2205.39
1004.538	2152.97
1004.832	2140.76
1005.127	2141.67
1005.421	2142.12
1005.715	2102.8
1006.009	2119.07
1006.304	2089.01
1006.598	2102.57
1006.892	2079.52
1007.186	2019.41
1007.48	2044.95
1007.773	2036.58
1008.067	2016.92
1008.361	2007.21
1008.655	1990.94
1008.948	1955.68
1009.242	1973.76
1009.535	1960.2
1009.829	1945.74
1010.122	1943.03
1010.415	1944.84
1010.708	1924.27
1011.001	1912.07
1011.295	1917.94
1011.588	1865.52
1011.881	1842.01
1012.173	1885.4
1012.466	1832.97
1012.759	1844.05
1013.052	1834.1
1013.344	1834.1
1013.637	1827.1
1013.93	1816.93
1014.222	1770.6
1014.514	1783.48
1014.807	1778.06
1015.099	1754.33
1015.391	1738.74
1015.683	1726.76
1015.976	1742.58
1016.268	1714.56
1016.56	1692.87
1016.851	1710.04
1017.143	1674.56
1017.435	1652.87
1017.727	1664.62
1018.018	1668.91
1018.31	1644.5
1018.602	1592.53
1018.893	1608.35
1019.185	1612.19
1019.476	1610.38
1019.767	1576.03
1020.058	1566.54
1020.35	1592.98
1020.641	1550.72
1020.932	1541.23
1021.223	1507.11
1021.514	1531.06
1021.804	1508.01
1022.095	1505.98
1022.386	1493.55
1022.677	1467.56
1022.967	1467.79
1023.258	1455.13
1023.548	1468.92
1023.839	1437.28
1024.129	1426.88
1024.419	1424.62
1024.709	1417.84
1025	1401.57
1025.29	1409.48
1025.58	1375.36
1025.87	1377.62
1026.16	1358.64
1026.449	1361.12
1026.739	1354.12
1027.029	1345.3
1027.319	1327.68
1027.608	1337.17
1027.898	1313.89
1028.187	1282.71
1028.477	1281.8
1028.766	1307.34
1029.055	1298.98
1029.344	1290.39
1029.634	1247.23
1029.923	1261.24
1030.212	1232.99
1030.501	1235.25
1030.79	1208.81
1031.078	1211.07
1031.367	1240.9
1031.656	1200
1031.945	1200.67
1032.233	1184.4
1032.522	1189.15
1032.81	1161.13
1033.099	1185.31
1033.387	1148.02
1033.675	1131.07
1033.963	1144.86
1034.251	1125.42
1034.54	1113.67
1034.828	1132.2
1035.116	1134.01
1035.403	1106.67
1035.691	1127.91
1035.979	1071.41
1036.267	1070.73
1036.554	1090.4
1036.842	1046.33
1037.129	1037.97
1037.417	1065.76
1037.704	1046.78
1037.992	1044.52
1038.279	1044.29
1038.566	1060.11
1038.853	1060.11
1039.14	1060.11
