Data from hue_50_FLMS001491_33.txt Node
Date: Mon Feb 06 15:10:02 GMT 2017
User: dcchb
Spectrometer: FLMS00149
Trigger mode: 0
Integration Time (sec): 2.000000E-2
Scans to average: 10
Electric dark correction enabled: true
Nonlinearity correction enabled: false
Boxcar width: 0
XAxis mode: Wavelengths
Number of Pixels in Spectrum: 2048
>>>>>Begin Spectral Data<<<<<
341.393	-1.09
341.776	-1.09
342.16	-1.09
342.543	-79.96
342.927	-64.81
343.31	-56.45
343.693	-51.03
344.077	-57.13
344.46	-65.72
344.843	-70.92
345.226	-52.61
345.61	-36.79
345.993	-26.85
346.376	-8.09
346.759	-0.18
347.142	19.25
347.525	55.41
347.908	58.57
348.291	79.36
348.674	93.6
349.057	119.59
349.44	127.5
349.823	165.91
350.206	153.94
350.588	173.82
350.971	204.78
351.354	216.99
351.737	244.56
352.119	257.89
352.502	254.27
352.884	276.19
353.267	295.4
353.65	295.85
354.032	289.07
354.414	305.12
354.797	305.57
355.179	313.93
355.562	342.86
355.944	337.21
356.326	333.82
356.709	348.73
357.091	337.21
357.473	339.69
357.855	339.02
358.238	352.35
358.62	369.52
359.002	336.3
359.384	355.51
359.766	341.73
360.148	339.47
360.53	343.08
360.912	327.72
361.294	338.79
361.676	334.72
362.057	346.02
362.439	334.95
362.821	360.26
363.203	337.66
363.584	348.28
363.966	326.36
364.348	334.72
364.729	327.04
365.111	327.04
365.493	313.93
365.874	313.48
366.256	320.49
366.637	315.97
367.019	294.5
367.4	319.36
367.781	308.51
368.163	308.73
368.544	308.06
368.925	282.52
369.306	325.23
369.688	287.04
370.069	295.18
370.45	323.65
370.831	297.89
371.212	304.22
371.593	324.55
371.974	318.68
372.355	306.25
372.736	317.32
373.117	337.43
373.498	312.8
373.879	321.62
374.26	300.83
374.641	293.37
375.021	315.97
375.402	319.81
375.783	311.9
376.163	334.5
376.544	310.09
376.925	326.59
377.305	338.11
377.686	343.08
378.066	315.97
378.447	319.81
378.827	325.01
379.208	349.19
379.588	327.49
379.968	345.57
380.349	313.48
380.729	318.23
381.109	324.33
381.489	333.14
381.87	317.32
382.25	321.84
382.63	338.34
383.01	352.35
383.39	335.85
383.77	337.43
384.15	336.08
384.53	348.73
384.91	320.03
385.29	337.21
385.67	344.21
386.049	347.38
386.429	343.99
386.809	343.54
387.189	343.31
387.568	320.94
387.948	335.63
388.328	369.3
388.707	339.69
389.087	350.77
389.466	336.98
389.846	355.29
390.225	361.39
390.605	355.29
390.984	343.08
391.363	348.51
391.743	367.72
392.122	348.28
392.501	367.72
392.881	365.23
393.26	378.79
393.639	356.64
394.018	383.99
394.397	362.07
394.776	375.4
395.155	362.52
395.534	363.65
395.913	364.55
396.292	344.44
396.671	397.32
397.05	359.81
397.429	361.16
397.808	371.56
398.186	360.26
398.565	376.08
398.944	369.3
399.323	404.78
399.701	359.35
400.08	370.2
400.458	376.98
400.837	372.01
401.215	376.08
401.594	386.47
401.972	404.55
402.351	384.67
402.729	374.04
403.107	401.84
403.486	381.05
403.864	387.38
404.242	385.79
404.62	383.99
404.999	385.12
405.377	395.96
405.755	411.56
406.133	414.72
406.511	385.34
406.889	429.64
407.267	406.59
407.645	411.78
408.023	425.12
408.401	408.39
408.779	419.92
409.156	419.69
409.534	402.52
409.912	417.88
410.29	428.73
410.667	431.9
411.045	425.34
411.422	456.3
411.8	418.34
412.178	456.98
412.555	451.1
412.933	437.54
413.31	442.74
413.687	437.09
414.065	451.78
414.442	428.05
414.819	454.72
415.197	454.95
415.574	466.24
415.951	434.38
416.328	445.45
416.705	457.21
417.082	488.84
417.46	482.52
417.837	495.17
418.214	475.96
418.591	473.93
418.967	472.12
419.344	480.03
419.721	483.87
420.098	462.18
420.475	492.91
420.852	476.41
421.228	479.58
421.605	506.24
421.982	486.13
422.358	498.11
422.735	491.78
423.111	491.55
423.488	514.15
423.864	502.63
424.241	498.33
424.617	521.38
424.994	509.63
425.37	520.71
425.746	533.14
426.123	537.66
426.499	519.35
426.875	517.32
427.251	513.7
427.627	544.43
428.003	542.63
428.379	539.46
428.756	532.46
429.132	538.33
429.507	559.58
429.883	542.85
430.259	552.8
430.635	584.21
431.011	554.38
431.387	586.92
431.763	580.37
432.138	590.99
432.514	581.5
432.89	586.47
433.265	586.24
433.641	602.06
434.016	592.34
434.392	621.27
434.767	610.87
435.143	607.71
435.518	631.21
435.894	612.46
436.269	628.5
436.644	635.73
437.02	611.1
437.395	615.17
437.77	654.49
438.145	635.73
438.52	642.51
438.895	645.9
439.271	660.82
439.646	655.84
440.021	646.81
440.395	656.52
440.77	670.53
441.145	659.01
441.52	664.43
441.895	656.75
442.27	682.28
442.645	688.84
443.019	697.88
443.394	682.28
443.769	691.32
444.143	693.36
444.518	694.49
444.892	705.33
445.267	686.35
445.641	726.8
446.016	710.08
446.39	732.68
446.764	718.67
447.139	734.71
447.513	731.32
447.887	735.84
448.262	718.44
448.636	720.48
449.01	721.83
449.384	731.55
449.758	731.77
450.132	763.86
450.506	772.45
450.88	765.45
451.254	760.02
451.628	782.17
452.002	787.37
452.376	782.17
452.75	793.02
453.123	805.67
453.497	813.13
453.871	819
454.244	818.55
454.618	810.42
454.992	824.2
455.365	845.67
455.739	839.57
456.112	826.46
456.486	855.84
456.859	850.87
457.232	849.06
457.606	877.99
457.979	900.58
458.352	907.36
458.725	915.27
459.099	906.69
459.472	945.55
459.845	945.1
460.218	943.75
460.591	952.56
460.964	953.01
461.337	989.85
461.71	990.3
462.083	985.33
462.456	1036.4
462.829	1006.8
463.201	1013.8
463.574	1035.72
463.947	1050.86
464.32	1052.9
464.692	1057.64
465.065	1076.85
465.438	1090.86
465.81	1089.96
466.183	1113.91
466.555	1142.84
466.928	1142.16
467.3	1180.12
467.672	1195.94
468.045	1220.58
468.417	1203.4
468.789	1232.1
469.161	1227.58
469.534	1257.18
469.906	1307.58
470.278	1303.51
470.65	1315.04
471.022	1373.11
471.394	1365.66
471.766	1402.94
472.138	1439.55
472.51	1483.85
472.882	1480.68
473.253	1523.62
473.625	1531.98
473.997	1587.35
474.369	1585.76
474.74	1629.15
475.112	1681.35
475.484	1725.65
475.855	1793.89
476.227	1790.28
476.598	1860.33
476.97	1892.65
477.341	1950.73
477.713	2005.64
478.084	2082.02
478.455	2099.65
478.827	2173.77
479.198	2258.74
479.569	2297.38
479.94	2373.77
480.311	2418.28
480.682	2505.29
481.053	2567.88
481.424	2627.09
481.795	2722.23
482.166	2791.61
482.537	2850.59
482.908	2922.23
483.279	3039.28
483.65	3105.05
484.021	3251.93
484.391	3293.74
484.762	3362.89
485.133	3493.74
485.503	3538.25
485.874	3682.66
486.244	3740.28
486.615	3891.47
486.985	3970.79
487.356	4142.08
487.726	4209.2
488.097	4309.99
488.467	4411.45
488.837	4564.67
489.207	4662.97
489.578	4841.27
489.948	4909.52
490.318	5034.26
490.688	5116.74
491.058	5302.95
491.428	5397.19
491.798	5504.76
492.168	5678.54
492.538	5799.44
492.908	5939.32
493.278	6106.77
493.648	6166.89
494.017	6346.99
494.387	6420.66
494.757	6556.71
495.126	6692.3
495.496	6781.56
495.866	6914.89
496.235	7070.14
496.605	7189.68
496.974	7318.72
497.344	7425.16
497.713	7527.3
498.082	7743.79
498.452	7864.24
498.821	7910.79
499.19	7996.67
499.559	8161.41
499.928	8296.32
500.298	8408.63
500.667	8538.8
501.036	8614.05
501.405	8749.19
501.774	8863.31
502.143	9013.36
502.512	9151.44
502.88	9208.84
503.249	9268.73
503.618	9494.03
503.987	9466.01
504.356	9643.4
504.724	9750.07
505.093	9853.79
505.462	9972.66
505.83	9975.15
506.199	10138.98
506.567	10351.41
506.936	10371.3
507.304	10539.43
507.672	10600.89
508.041	10672.08
508.409	10836.37
508.777	10981.22
509.145	11120.43
509.514	11040.66
509.882	11219.41
510.25	11339.41
510.618	11388.9
510.986	11456.01
511.354	11693.52
511.722	11792.5
512.09	11924.02
512.458	11918.6
512.826	12104.58
513.193	12141.42
513.561	12271.36
513.929	12381.41
514.297	12438.81
514.664	12540.05
515.032	12680.84
515.4	12805.36
515.767	12817.11
516.135	12907.73
516.502	12912.02
516.869	13078.57
517.237	13225.23
517.604	13279.02
517.972	13374.83
518.339	13420.71
518.706	13484.43
519.073	13633.58
519.44	13746.57
519.808	13980.47
520.175	13998.77
520.542	14138.2
520.909	14253.68
521.276	14349.72
521.643	14457.97
522.009	14500.9
522.376	14574.8
522.743	14666.32
523.11	14875.58
523.477	15018.18
523.843	15057.95
524.21	15246.42
524.577	15319.64
524.943	15411.16
525.31	15597.37
525.676	15669.91
526.043	15852.28
526.409	15881.66
526.776	16116.68
527.142	16054.76
527.508	16088.43
527.874	16297.47
528.241	16324.81
528.607	16438.48
528.973	16614.29
529.339	16514.41
529.705	16798.7
530.071	16931.8
530.437	16997.79
530.803	17057.9
531.169	17203.43
531.535	17289.76
531.901	17329.3
532.267	17413.82
532.632	17503.08
532.998	17602.74
533.364	17735.62
533.73	17706.47
534.095	17859.69
534.461	17978.55
534.826	18077.31
535.192	18117.76
535.557	18175.38
535.923	18263.74
536.288	18361.14
536.653	18360.69
537.019	18424.64
537.384	18501.25
537.749	18561.14
538.114	18626.9
538.479	18641.81
538.845	18662.15
539.21	18788.47
539.575	18847.23
539.94	18856.5
540.305	19095.59
540.67	19139.2
541.034	19143.72
541.399	19270.72
541.764	19277.95
542.129	19282.25
542.494	19425.07
542.858	19448.57
543.223	19604.27
543.587	19791.61
543.952	19660.09
544.316	19744.16
544.681	19869.58
545.045	19975.34
545.41	20072.51
545.774	20088.55
546.138	20009.91
546.503	20186.4
546.867	20270.24
547.231	20294.65
547.595	20304.14
547.959	20356.8
548.324	20475.89
548.688	20559.28
549.052	20700.52
549.416	20703.23
549.779	20745.49
550.143	20849.66
550.507	20939.15
550.871	20903.45
551.235	21001.52
551.599	21161.29
551.962	21164.91
552.326	21198.13
552.689	21387.5
553.053	21326.04
553.417	21393.38
553.78	21738.68
554.143	21669.98
554.507	21699.13
554.87	21795.4
555.234	22028.16
555.597	21888.73
555.96	21931.22
556.323	22103.19
556.686	22031.55
557.05	22327.59
557.413	22326.46
557.776	22378.44
558.139	22552.44
558.502	22598.54
558.865	22738.43
559.228	22817.75
559.59	22827.46
559.953	22788.14
560.316	23140.45
560.679	23148.36
561.041	23311.07
561.404	23287.79
561.767	23524.62
562.129	23469.48
562.492	23695.24
562.854	23736.37
563.217	23726.42
563.579	23956.47
563.941	23998.51
564.304	24075.12
564.666	24231.04
565.028	24281.66
565.39	24448.89
565.753	24527.76
566.115	24517.82
566.477	24632.84
566.839	24732.95
567.201	24911.25
567.563	24930.01
567.925	25143.56
568.287	25132.26
568.648	25111.02
569.01	25319.83
569.372	25395.76
569.734	25396.44
570.095	25533.83
570.457	25731.34
570.819	25660.84
571.18	25772.92
571.542	26006.36
571.903	26017.21
572.265	26201.39
572.626	26150.32
572.987	26416.07
573.349	26470.98
573.71	26479.35
574.071	26627.59
574.432	26705.1
574.794	26883.63
575.155	26844.53
575.516	26852.67
575.877	26992.33
576.238	27110.06
576.599	27229.16
576.96	27164.75
577.32	27265.99
577.681	27443.84
578.042	27633.21
578.403	27601.12
578.763	27705.3
579.124	27793.44
579.485	27982.13
579.845	28033.66
580.206	28193.43
580.566	28124.95
580.927	28289.92
581.287	28358.62
581.648	28360.65
582.008	28539.18
582.368	28550.48
582.728	28769.91
583.089	28777.82
583.449	28840.87
583.809	28996.79
584.169	29168.09
584.529	29212.61
584.889	29328.54
585.249	29351.81
585.609	29323.79
585.969	29717.68
586.329	29696.44
586.688	29801.74
587.048	29912.93
587.408	29938.46
587.768	30018.24
588.127	30243.09
588.487	30177.1
588.846	30388.17
589.206	30279.47
589.565	30278.12
589.925	30664.09
590.284	30668.61
590.643	30759.91
591.003	30931.88
591.362	31086.68
591.721	31111.31
592.08	31263.4
592.44	31273.8
592.799	31452.55
593.158	31556.27
593.517	31621.58
593.876	31657.74
594.235	31731.64
594.593	31858.64
594.952	31924.85
595.311	32012.31
595.67	32076.71
596.029	32367.1
596.387	32408.46
596.746	32574.55
597.104	32390.15
597.463	32466.99
597.822	32723.7
598.18	32666.53
598.538	32765.51
598.897	32959.63
599.255	32742.91
599.613	33454.08
599.972	33276.91
600.33	33353.52
600.688	33262.67
601.046	33563.68
601.404	33713.51
601.762	33636.45
602.12	33897.23
602.478	33986.49
602.836	33987.62
603.194	33889.55
603.552	34045.7
603.91	34002.76
604.268	34203.89
604.625	34139.26
604.983	34442.75
605.341	34307.84
605.698	34560.72
606.056	34645.46
606.413	34604.78
606.771	34871.67
607.128	34784.89
607.485	34744.89
607.843	34874.38
608.2	35157.76
608.557	35214.03
608.914	35049.06
609.272	35394.37
609.629	35477.75
609.986	35706.9
610.343	35390.52
610.7	35639.11
611.057	35653.57
611.414	35765.2
611.771	35757.29
612.127	35901.92
612.484	35902.6
612.841	36281.57
613.198	36081.13
613.554	36079.55
613.911	36369.71
614.267	36296.26
614.624	36258.3
614.98	36458.29
615.337	36740.55
615.693	36750.94
616.05	36664.16
616.406	36850.37
616.762	36799.53
617.118	36776.48
617.475	36800.43
617.831	37093.3
618.187	36988.45
618.543	37117.03
618.899	37343.02
619.255	37238.61
619.611	37190.48
619.967	37538.94
620.323	37535.55
620.678	37332.62
621.034	37341.89
621.39	37387.53
621.746	37359.74
622.101	37805.83
622.457	37498.72
622.812	37655.78
623.168	37774.64
623.523	37775.09
623.879	37910.46
624.234	37672.95
624.589	37833.17
624.945	37781.2
625.3	37931.25
625.655	37835.66
626.01	37885.37
626.365	38022.55
626.72	37886.05
627.075	37994.07
627.43	37896.45
627.785	37867.52
628.14	37997.46
628.495	37994.07
628.85	37888.99
629.205	37850.35
629.559	38120.85
629.914	37893.74
630.269	38134.86
630.623	37875.88
630.978	37973.06
631.332	38064.13
631.687	38036.56
632.041	37954.52
632.396	38068.19
632.75	37950.91
633.104	37987.74
633.459	37879.72
633.813	37891.48
634.167	37834.75
634.521	37891.02
634.875	37897.8
635.229	37879.95
635.583	37844.7
635.937	37747.3
636.291	37770.57
636.645	37712.5
636.999	37809.67
637.352	37784.36
637.706	37565.61
638.06	37699.84
638.413	37539.17
638.767	37676.34
639.121	37780.74
639.474	37403.35
639.828	37511.6
640.181	37555.44
640.534	37536.68
640.888	37469.79
641.241	37456.46
641.594	37469.79
641.947	37414.65
642.301	37341.66
642.654	37503.46
643.007	37348.44
643.36	37166.97
643.713	37231.38
644.066	37407.65
644.419	37011.05
644.771	37059.63
645.124	36634.11
645.477	36511.4
645.83	36279.09
646.182	36396.37
646.535	36203.16
646.888	36219.43
647.24	36009.04
647.593	36255.81
647.945	35980.57
648.298	35968.14
648.65	35970.17
649.002	35792.77
649.355	36059.89
649.707	35951.87
650.059	36185.08
650.411	36448.35
650.763	36524.73
651.115	36871.84
651.467	36728.34
651.819	36717.95
652.171	36792.52
652.523	36715.24
652.875	36633.2
653.227	36497.61
653.578	36688.12
653.93	36679.98
654.282	36450.38
654.633	36419.2
654.985	36549.36
655.337	36520.66
655.688	36504.85
656.039	36584.84
656.391	36309.82
656.742	36457.39
657.094	36388.92
657.445	36509.82
657.796	36510.49
658.147	36446.09
658.498	36378.29
658.849	36433.43
659.2	36390.95
659.551	36176.72
659.902	36421.68
660.253	36321.12
660.604	36404.51
660.955	36087.68
661.306	36368.13
661.656	36265.76
662.007	36242.25
662.358	36096.04
662.708	36148.92
663.059	36146.44
663.409	35916.84
663.76	36268.47
664.11	36073.67
664.461	36278.18
664.811	36205.64
665.161	36065.99
665.511	36062.37
665.862	36239.09
666.212	36163.84
666.562	36224.17
666.912	36125.42
667.262	36025.54
667.612	36141.69
667.962	36176.27
668.312	36160.67
668.662	36296.72
669.011	36094.23
669.361	36139.43
669.711	36008.81
670.06	36035.48
670.41	35989.15
670.76	35888.59
671.109	36126.1
671.459	35983.73
671.808	35967.68
672.157	36033.9
672.507	35711.87
672.856	35818.99
673.205	35778.99
673.554	35935.59
673.904	35689.05
674.253	36018.3
674.602	35961.13
674.951	35292.45
675.3	35213.58
675.649	35754.58
675.998	35788.71
676.346	35685.21
676.695	35890.17
677.044	35525.66
677.393	35781.02
677.741	35688.37
678.09	35512.33
678.438	35447.47
678.787	35608.6
679.135	35594.81
679.484	35227.82
679.832	35439.34
680.181	35205.9
680.529	35449.73
680.877	35266.69
681.225	35274.82
681.573	35422.84
681.922	35111.89
682.27	35098.33
682.618	35136.29
682.966	34891.33
683.314	35115.73
683.661	34978.78
684.009	34838.45
684.357	34773.14
684.705	34781.27
685.053	34854.04
685.4	34654.05
685.748	34592.58
686.095	34708.96
686.443	34439.36
686.79	34390.55
687.138	34408.86
687.485	34441.62
687.832	34381.96
688.18	34364.56
688.527	34105.59
688.874	34060.16
689.221	34172.7
689.568	34086.38
689.915	34004.12
690.262	33886.83
690.609	33888.19
690.956	33689.55
691.303	33661.08
691.65	33455.21
691.997	33488.65
692.344	33260.41
692.69	33255.67
693.037	33407.53
693.383	33077.59
693.73	33190.81
694.077	33124.82
694.423	32927.76
694.769	32768.67
695.116	32887.09
695.462	32777.71
695.808	32514.22
696.155	32755.79
696.501	32481.22
696.847	32487.32
697.193	32215.69
697.539	32301.34
697.885	32037.62
698.231	32052.98
698.577	32062.7
698.923	31961.24
699.269	31825.87
699.614	31800.34
699.96	31745.2
700.306	31737.96
700.651	31608.25
700.997	31612.32
701.342	31480.34
701.688	31362.38
702.033	31206
702.379	31259.11
702.724	31211.65
703.069	31148.38
703.415	30733.92
703.76	30844.88
704.105	30794.94
704.45	30615.73
704.795	30624.55
705.14	30543.65
705.485	30686.47
705.83	30336.65
706.175	30400.82
706.52	30343.43
706.865	30241.51
707.209	30251.45
707.554	30022.08
707.899	30078.8
708.243	30038.8
708.588	30009.87
708.932	29688.08
709.277	29727.4
709.621	29701.63
709.966	29653.95
710.31	29703.22
710.654	29337.58
710.998	29370.34
711.342	29395.88
711.687	29383.45
712.031	29215.55
712.375	29063.68
712.719	29108.2
713.063	29156.79
713.407	29254.64
713.75	29034.53
714.094	28941.43
714.438	28919.06
714.782	28874.31
715.125	28724.48
715.469	28696.46
715.812	28750.02
716.156	28532.4
716.499	28515.9
716.843	28564.94
717.186	28315.91
717.53	28500.08
717.873	28507.77
718.216	28416.92
718.559	28244.27
718.902	28032.53
719.246	28128.12
719.589	28064.39
719.932	27971.06
720.275	27940.78
720.617	27922.25
720.96	27752.98
721.303	27830.95
721.646	27801.8
721.989	27601.58
722.331	27758.86
722.674	27571.52
723.016	27564.06
723.359	27654.23
723.701	27610.39
724.044	27324.07
724.386	27269.38
724.729	27383.5
725.071	27413.33
725.413	27288.36
725.755	27221.02
726.097	27182.38
726.439	26880.69
726.782	27036.39
727.124	27129.05
727.465	27000.24
727.807	27011.76
728.149	26900.13
728.491	26885.21
728.833	26978.09
729.175	26932.67
729.516	26807.25
729.858	26669.17
730.199	26801.6
730.541	26653.58
730.882	26493.36
731.224	26731.32
731.565	26442.51
731.906	26554.37
732.248	26608.83
732.589	26272.8
732.93	26223.31
733.271	26224.89
733.612	26227.38
733.953	26324.55
734.294	26260.14
734.635	26114.38
734.976	26128.17
735.317	25933.82
735.658	25933.82
735.999	26078
736.339	25956.42
736.68	26088.17
737.021	26014.73
737.361	25738.57
737.702	26057.89
738.042	25812.02
738.383	25729.31
738.723	25773.83
739.063	25662.42
739.404	25671.46
739.744	25600.5
740.084	25603.89
740.424	25590.33
740.764	25382.43
741.104	25559.6
741.444	25457.68
741.784	25314.41
742.124	25383.56
742.464	25321.86
742.804	25376.78
743.143	25233.28
743.483	25237.57
743.823	25171.13
744.162	25145.14
744.502	25168.87
744.841	24943.34
745.181	25140.4
745.52	24984.7
745.86	25078.7
746.199	25010.91
746.538	25004.36
746.877	24886.85
747.216	24944.92
747.556	24786.28
747.895	24919.61
748.234	24642.11
748.573	24734.53
748.911	24764.14
749.25	24554.88
749.589	24408.44
749.928	24534.09
750.267	24521.21
750.605	24417.03
750.944	24365.05
751.283	24342.68
751.621	24355.79
751.96	24215.22
752.298	24227.88
752.636	24235.79
752.975	24179.29
753.313	23994.89
753.651	24074.44
753.989	23860.21
754.327	23864.73
754.666	23778.63
755.004	23738.18
755.342	23917.61
755.679	23805.29
756.017	23664.05
756.355	23723.03
756.693	23571.63
757.031	23593.55
757.368	23474.45
757.706	23499.09
758.044	23302.25
758.381	23320.33
758.719	23216.83
759.056	23121.69
759.394	23189.49
759.731	22961.47
760.068	22944.52
760.405	22897.52
760.743	22905.65
761.08	22816.84
761.417	22687.13
761.754	22610.3
762.091	22654.81
762.428	22538.43
762.765	22445.33
763.102	22441.26
763.438	22391.09
763.775	22212.79
764.112	22138.44
764.449	22267.25
764.785	22086.02
765.122	21957.88
765.458	21822.75
765.795	21885.79
766.131	21792.46
766.467	21815.97
766.804	21608.97
767.14	21592.02
767.476	21618.68
767.812	21501.62
768.148	21388.86
768.485	21350.44
768.821	21231.57
769.157	21260.95
769.492	21189.99
769.828	21095.31
770.164	20862.54
770.5	20799.04
770.836	20810.12
771.171	20730.34
771.507	20738.71
771.842	20617.13
772.178	20574.87
772.513	20402.67
772.849	20466.4
773.184	20310.24
773.519	20312.05
773.855	20256.46
774.19	20169
774.525	20021.66
774.86	20020.76
775.195	19936.69
775.53	19963.36
775.865	19811.5
776.2	19606.76
776.535	19543.71
776.87	19556.36
777.205	19482.92
777.539	19489.25
777.874	19519.3
778.209	19257.62
778.543	19294.9
778.878	19134.45
779.212	19067.79
779.547	18924.52
779.881	19018.3
780.215	18952.31
780.55	18877.29
780.884	18757.97
781.218	18661.25
781.552	18772.43
781.886	18583.51
782.22	18486.79
782.554	18434.59
782.888	18324.31
783.222	18202.28
783.556	18255.61
783.889	18111.2
784.223	18107.59
784.557	18023.3
784.89	18061.94
785.224	17940.14
785.557	17838.22
785.891	17831.66
786.224	17718.9
786.558	17708.28
786.891	17468.51
787.224	17547.38
787.557	17451.33
787.891	17416.08
788.224	17369.3
788.557	17311
788.89	17222.87
789.223	17195.75
789.556	17092.7
789.888	17051.35
790.221	16988.52
790.554	16803.22
790.887	16767.74
791.219	16776.1
791.552	16770.22
791.884	16685.93
792.217	16605.48
792.549	16542.43
792.882	16490.46
793.214	16294.3
793.546	16398.26
793.879	16300.18
794.211	16188.09
794.543	16286.62
794.875	16150.58
795.207	16201.88
795.539	16068.09
795.871	16110.81
796.203	16013.18
796.535	15854.77
796.867	15897.7
797.198	15841.43
797.53	15820.19
797.862	15707.65
798.193	15624.49
798.525	15565.51
798.856	15580.42
799.188	15541.55
799.519	15476.7
799.85	15339.53
800.182	15324.84
800.513	15362.35
800.844	15119.87
801.175	15256.36
801.506	15245.07
801.837	15119.42
802.168	15050.27
802.499	14997.61
802.83	14917.62
803.161	14993.32
803.491	14828.13
803.822	14935.92
804.153	14835.81
804.483	14686.89
804.814	14653.67
805.145	14606.66
805.475	14609.15
805.805	14572.77
806.136	14506.78
806.466	14454.8
806.796	14420.91
807.126	14339.33
807.457	14345.43
807.787	14327.12
808.117	14293.68
808.447	14247.8
808.777	14294.36
809.107	14169.39
809.436	14072.67
809.766	14096.85
810.096	14082.38
810.426	14028.37
810.755	14027.47
811.085	13920.13
811.414	13891.2
811.744	13893.91
812.073	13764.65
812.403	13838.55
812.732	13709.74
813.061	13692.11
813.39	13639.23
813.719	13566.24
814.049	13759
814.378	13672.9
814.707	13558.78
815.036	13458.67
815.365	13470.2
815.693	13375.74
816.022	13394.49
816.351	13293.93
816.68	13258.45
817.008	13246.93
817.337	13178.45
817.665	13241.95
817.994	13175.74
818.322	13197.66
818.651	13092.58
818.979	13019.81
819.307	13049.42
819.636	13048.74
819.964	12980.94
820.292	12996.76
820.62	13001.51
820.948	12976.88
821.276	12953.6
821.604	12920.38
821.932	12924.9
822.259	12923.09
822.587	12855.75
822.915	12898.01
823.243	12898.01
823.57	12886.26
823.898	12825.92
824.225	12869.76
824.553	12846.71
824.88	12905.47
825.207	12826.82
825.535	12863.43
825.862	12839.93
826.189	12828.86
826.516	12917.44
826.843	12911.12
827.17	12830.21
827.497	12924.9
827.824	12888.29
828.151	12891.68
828.478	12827.28
828.805	12913.15
829.131	12850.55
829.458	12833.15
829.785	12737.56
830.111	12803.32
830.438	12814.17
830.764	12800.16
831.09	12876.54
831.417	12768.97
831.743	12757.67
832.069	12799.93
832.395	12769.2
832.722	12769.2
833.048	12721.29
833.374	12724.23
833.7	12620.28
834.026	12711.12
834.351	12715.87
834.677	12677.68
835.003	12729.2
835.329	12752.93
835.654	12606.04
835.98	12545.02
836.306	12544.12
836.631	12562.2
836.956	12550.22
837.282	12588.64
837.607	12443.33
837.932	12517.68
838.258	12497.11
838.583	12526.04
838.908	12366.95
839.233	12476.55
839.558	12415.08
839.883	12340.06
840.208	12309.55
840.533	12312.49
840.858	12319.27
841.182	12296.22
841.507	12250.12
841.832	12219.61
842.156	12168.08
842.481	12234.07
842.805	12173.73
843.13	12119.5
843.454	12029.78
843.778	12022.55
844.103	12044.02
844.427	12009.22
844.751	12077.69
845.075	11982.78
845.399	11902.55
845.723	11838.6
846.047	11871.82
846.371	11790.47
846.695	11698.72
847.019	11714.54
847.343	11712.28
847.666	11546.18
847.99	11514.54
848.313	11543.24
848.637	11547.99
848.96	11391.38
849.284	11364.26
849.607	11353.87
849.931	11304.6
850.254	11298.73
850.577	11140.31
850.9	11117.94
851.223	11076.14
851.546	10939.42
851.869	10949.13
852.192	10992.3
852.515	10833.43
852.838	10840.21
853.161	10866.65
853.483	10799.53
853.806	10742.81
854.129	10699.2
854.451	10677.5
854.774	10602.25
855.096	10587.33
855.419	10603.83
855.741	10493.1
856.063	10499.65
856.385	10457.39
856.708	10453.1
857.03	10374.23
857.352	10395.93
857.674	10379.88
857.996	10370.17
858.318	10309.38
858.64	10335.14
858.961	10257.85
859.283	10245.2
859.605	10214.46
859.926	10145.54
860.248	10145.54
860.57	10121.58
860.891	10125.43
861.212	10093.79
861.534	9980.12
861.855	10009.5
862.176	10003.85
862.498	9976.05
862.819	10016.05
863.14	9879.33
863.461	9978.31
863.782	9890.4
864.103	9918.88
864.424	9855.83
864.745	9913.68
865.065	9808.37
865.386	9729.96
865.707	9816.51
866.027	9816.28
866.348	9694.02
866.668	9764.53
866.989	9636.4
867.309	9622.84
867.63	9694.25
867.95	9671.2
868.27	9643.18
868.59	9643.4
868.91	9666.23
869.23	9608.6
869.55	9525.89
869.87	9542.84
870.19	9521.15
870.51	9530.87
870.83	9490.19
871.15	9515.72
871.469	9452.22
871.789	9508.94
872.109	9437.99
872.428	9370.19
872.748	9462.62
873.067	9391.89
873.386	9370.64
873.706	9413.81
874.025	9302.62
874.344	9370.19
874.663	9264.88
874.982	9297.65
875.301	9275.05
875.62	9280.25
875.939	9167.03
876.258	9281.61
876.577	9171.55
876.896	9208.16
877.214	9155.96
877.533	9214.49
877.852	9153.25
878.17	9136.75
878.489	9164.77
878.807	9122.06
879.125	9120.48
879.444	9055.17
879.762	9089.97
880.08	9106.02
880.398	9007.49
880.716	9088.84
881.034	8947.6
881.352	8987.6
881.67	8954.38
881.988	8956.42
882.306	8902.86
882.624	8909.86
882.941	8844.78
883.259	8831.45
883.577	8771.34
883.894	8774.73
884.212	8825.35
884.529	8760.26
884.846	8766.82
885.164	8740.6
885.481	8711.45
885.798	8716.42
886.115	8664
886.432	8618.12
886.75	8600.72
887.067	8604.79
887.383	8624
887.7	8611.34
888.017	8527.73
888.334	8590.32
888.651	8501.97
888.967	8522.3
889.284	8467.16
889.6	8477.56
889.917	8395.98
890.233	8434.4
890.55	8342.42
890.866	8408.63
891.182	8365.92
891.498	8342.42
891.815	8249.77
892.131	8263.33
892.447	8256.32
892.763	8153.5
893.079	8221.3
893.395	8161.64
893.71	8140.62
894.026	8144.24
894.342	8119.38
894.657	8035.54
894.973	8005.26
895.289	8028.76
895.604	7963
895.92	7980.17
896.235	7983.56
896.55	7925.48
896.865	7943.79
897.181	7855.66
897.496	7855.88
897.811	7821.53
898.126	7811.36
898.441	7763.68
898.756	7727.75
899.071	7707.64
899.386	7700.18
899.7	7626.73
900.015	7592.39
900.33	7536.57
900.644	7513.07
900.959	7586.28
901.273	7512.61
901.588	7491.82
901.902	7449.34
902.216	7432.62
902.531	7451.15
902.845	7390.13
903.159	7346.52
903.473	7258.83
903.787	7300.64
904.101	7229.91
904.415	7250.7
904.729	7241.89
905.042	7127.76
905.356	7212.73
905.67	7148.33
905.984	7112.62
906.297	7139.29
906.611	7083.7
906.924	6994.89
907.237	7010.25
907.551	6943.59
907.864	6977.49
908.177	6964.15
908.491	6850.71
908.804	6829.47
909.117	6788.79
909.43	6804.61
909.743	6725.97
910.056	6713.09
910.368	6675.12
910.681	6703.82
910.994	6630.6
911.307	6632.41
911.619	6590.38
911.932	6579.08
912.244	6519.42
912.557	6574.11
912.869	6466.76
913.181	6533.66
913.494	6490.49
913.806	6432.87
914.118	6365.98
914.43	6382.02
914.742	6398.07
915.054	6316.03
915.366	6344.28
915.678	6271.52
915.99	6259.09
916.302	6243.27
916.613	6197.62
916.925	6220.44
917.236	6115.14
917.548	6099.54
917.859	6123.72
918.171	6078.07
918.482	6047.12
918.794	6022.71
919.105	5978.87
919.416	5954.91
919.727	5931.19
920.038	5937.97
920.349	5888.02
920.66	5835.14
920.971	5917.4
921.282	5820.23
921.593	5770.06
921.903	5811.87
922.214	5751.76
922.525	5743.85
922.835	5724.86
923.146	5671.76
923.456	5671.76
923.767	5581.36
924.077	5583.62
924.387	5602.38
924.697	5590.63
925.008	5584.75
925.318	5546.79
925.628	5503.17
925.938	5497.75
926.248	5448.26
926.558	5425.44
926.867	5462.95
927.177	5373.23
927.487	5329.62
927.796	5311.09
928.106	5339.79
928.416	5308.6
928.725	5279.45
929.034	5257.76
929.344	5249.4
929.653	5215.72
929.962	5203.75
930.271	5126.24
930.581	5163.75
930.89	5141.83
931.199	5065.22
931.508	5069.74
931.817	5067.48
932.125	5031.1
932.434	5033.13
932.743	4999.68
933.051	4929.86
933.36	4952.45
933.669	4901.83
933.977	4916.3
934.286	4901.83
934.594	4836.75
934.902	4834.04
935.21	4766.92
935.519	4794.27
935.827	4791.33
936.135	4730.09
936.443	4693.03
936.751	4707.26
937.059	4658.9
937.367	4608.06
937.674	4648.73
937.982	4620.71
938.29	4588.17
938.597	4600.6
938.905	4570.32
939.213	4583.65
939.52	4566.48
939.827	4503.2
940.135	4475.4
940.442	4453.71
940.749	4432.69
941.056	4491.45
941.363	4367.16
941.67	4399.25
941.977	4364.67
942.284	4344.11
942.591	4336.2
942.898	4340.27
943.205	4342.75
943.511	4287.16
943.818	4235.86
944.125	4241.51
944.431	4223.21
944.738	4204.23
945.044	4204
945.35	4189.76
945.657	4174.85
945.963	4173.27
946.269	4129.65
946.575	4128.3
946.881	4158.13
947.187	4078.58
947.493	4091.91
947.799	4020.73
948.105	4032.93
948.41	3983.44
948.716	3990.9
949.022	4006.94
949.327	3962.42
949.633	3960.84
949.938	3880.39
950.244	3938.47
950.549	3848.75
950.854	3887.17
951.16	3848.98
951.465	3827.06
951.77	3802.65
952.075	3814.86
952.38	3794.97
952.685	3769.66
952.99	3766.05
953.294	3754.75
953.599	3739.15
953.904	3704.13
954.209	3676.78
954.513	3714.97
954.818	3677.01
955.122	3640.85
955.426	3637.69
955.731	3663.67
956.035	3612.15
956.339	3603.56
956.643	3552.72
956.948	3547.29
957.252	3541.87
957.556	3563.11
957.86	3531.47
958.163	3497.13
958.467	3499.39
958.771	3461.19
959.075	3469.56
959.378	3470.46
959.682	3443.79
959.985	3408.54
960.289	3406.96
960.592	3366.51
960.896	3342.78
961.199	3326.06
961.502	3350.69
961.805	3298.03
962.108	3310.01
962.411	3341.42
962.714	3305.27
963.017	3278.6
963.32	3249.67
963.623	3260.97
963.926	3230.69
964.228	3227.75
964.531	3192.95
964.833	3182.56
965.136	3136.46
965.438	3126.74
965.741	3103.92
966.043	3133.75
966.345	3103.24
966.648	3093.07
966.95	3137.14
967.252	3074.09
967.554	3092.84
967.856	3004.03
968.158	3000.87
968.46	3022.11
968.761	3002.45
969.063	3003.81
969.365	2970.59
969.666	2953.19
969.968	2929
970.269	2942.11
970.571	2939.4
970.872	2957.7
971.174	2931.94
971.475	2873.64
971.776	2896.01
972.077	2846.52
972.378	2863.47
972.679	2850.81
972.98	2830.48
973.281	2795.68
973.582	2807.2
973.883	2811.27
974.183	2769.24
974.484	2784.15
974.785	2802.91
975.085	2760.2
975.386	2734.89
975.686	2724.94
975.986	2732.85
976.287	2722.46
976.587	2682.01
976.887	2670.48
977.187	2658.05
977.487	2662.12
977.787	2649.46
978.087	2643.59
978.387	2664.83
978.687	2636.13
978.987	2609.69
979.286	2564.72
979.586	2584.83
979.885	2545.29
980.185	2559.52
980.484	2546.42
980.784	2516.59
981.083	2553.87
981.382	2506.64
981.682	2517.72
981.981	2493.76
982.28	2488.56
982.579	2447.44
982.878	2469.58
983.177	2449.47
983.475	2449.92
983.774	2413.09
984.073	2397.95
984.372	2418.06
984.67	2371.73
984.969	2410.6
985.267	2409.47
985.566	2383.03
985.864	2371.96
986.162	2364.73
986.461	2331.28
986.759	2310.94
987.057	2295.8
987.355	2281.56
987.653	2274.78
987.951	2275.46
988.249	2262.13
988.547	2288.12
988.844	2248.34
989.142	2213.32
989.44	2229.14
989.737	2186.2
990.035	2226.88
990.332	2196.37
990.63	2175.58
990.927	2186.2
991.224	2155.92
991.521	2141.68
991.819	2140.78
992.116	2134.45
992.413	2112.08
992.71	2116.37
993.006	2082.25
993.303	2086.09
993.6	2086.77
993.897	2087.9
994.193	2076.15
994.49	2069.82
994.787	2046.32
995.083	1999.09
995.379	2018.29
995.676	2023.72
995.972	2032.53
996.268	2005.87
996.565	1983.95
996.861	1956.6
997.157	1992.31
997.453	1974
997.749	1925.87
998.044	1958.63
998.34	1947.56
998.636	1916.38
998.932	1926.32
999.227	1918.41
999.523	1911.4
999.818	1912.31
1000.114	1877.51
1000.409	1894.23
1000.704	1884.06
1001	1868.92
1001.295	1862.37
1001.59	1821.92
1001.885	1830.73
1002.18	1819.88
1002.475	1797.74
1002.77	1815.59
1003.065	1776.04
1003.359	1799.54
1003.654	1782.37
1003.949	1743.05
1004.243	1755.25
1004.538	1752.76
1004.832	1712.54
1005.127	1718.64
1005.421	1710.28
1005.715	1720.68
1006.009	1689.72
1006.304	1696.49
1006.598	1701.24
1006.892	1658.53
1007.186	1656.5
1007.48	1646.33
1007.773	1645.65
1008.067	1637.06
1008.361	1645.2
1008.655	1627.34
1008.948	1599.55
1009.242	1605.42
1009.535	1558.65
1009.829	1603.39
1010.122	1567.01
1010.415	1569.49
1010.708	1555.48
1011.001	1570.17
1011.295	1518.19
1011.588	1528.82
1011.881	1506.22
1012.173	1502.6
1012.466	1494.01
1012.759	1496.05
1013.052	1491.75
1013.344	1503.05
1013.637	1482.49
1013.93	1452.21
1014.222	1450.4
1014.514	1432.55
1014.807	1455.37
1015.099	1449.95
1015.391	1415.37
1015.683	1408.14
1015.976	1381.47
1016.268	1371.31
1016.56	1367.46
1016.851	1389.61
1017.143	1397.29
1017.435	1371.98
1017.727	1383.06
1018.018	1369.72
1018.31	1373.57
1018.602	1331.98
1018.893	1334.92
1019.185	1329.27
1019.476	1324.53
1019.767	1274.36
1020.058	1287.47
1020.35	1275.49
1020.641	1247.02
1020.932	1268.26
1021.223	1280.69
1021.514	1275.26
1021.804	1250.4
1022.095	1261.03
1022.386	1228.48
1022.677	1249.28
1022.967	1193.01
1023.258	1217.86
1023.548	1203.63
1023.839	1194.36
1024.129	1194.59
1024.419	1189.39
1024.709	1154.81
1025	1166.34
1025.29	1155.49
1025.58	1136.96
1025.87	1124.53
1026.16	1144.19
1026.449	1157.53
1026.739	1120.92
1027.029	1091.09
1027.319	1096.06
1027.608	1093.8
1027.898	1101.03
1028.187	1091.54
1028.477	1077.08
1028.766	1064.87
1029.055	1061.71
1029.344	1048.15
1029.634	1055.83
1029.923	1046.57
1030.212	1033.01
1030.501	1026
1030.79	1023.74
1031.078	1034.59
1031.367	1026
1031.656	994.14
1031.945	1007.02
1032.233	1012.45
1032.522	994.14
1032.81	988.94
1033.099	969.73
1033.387	977.19
1033.675	952.11
1033.963	952.11
1034.251	948.49
1034.54	950.75
1034.828	925.89
1035.116	950.75
1035.403	931.77
1035.691	931.77
1035.979	906.91
1036.267	904.88
1036.554	901.26
1036.842	894.26
1037.129	912.56
1037.417	894.03
1037.704	905.56
1037.992	876.4
1038.279	852.68
1038.566	857.19
1038.853	857.19
1039.14	857.19
