Data from hue_00_FLMS001491_27.txt Node
Date: Mon Feb 06 15:29:29 GMT 2017
User: dcchb
Spectrometer: FLMS00149
Trigger mode: 0
Integration Time (sec): 2.000000E-2
Scans to average: 10
Electric dark correction enabled: true
Nonlinearity correction enabled: false
Boxcar width: 0
XAxis mode: Wavelengths
Number of Pixels in Spectrum: 2048
>>>>>Begin Spectral Data<<<<<
341.393	-35.2
341.776	-35.2
342.16	-35.2
342.543	-61.86
342.927	-72.03
343.31	-75.42
343.693	-62.77
344.077	-66.83
344.46	-64.8
344.843	-60.73
345.226	-64.35
345.61	-17.57
345.993	-7.85
346.376	-1.53
346.759	27.85
347.142	28.76
347.525	37.8
347.908	35.99
348.291	77.79
348.674	101.07
349.057	112.6
349.44	131.8
349.823	134.52
350.206	186.72
350.588	206.83
350.971	207.28
351.354	218.81
351.737	219.49
352.119	253.84
352.502	260.84
352.884	267.62
353.267	286.6
353.65	296.09
354.032	325.92
354.414	311.23
354.797	329.31
355.179	344
355.562	319.82
355.944	330.67
356.326	322.08
356.709	344
357.091	317.56
357.473	340.84
357.855	341.29
358.238	323.89
358.62	340.61
359.002	358.69
359.384	328.41
359.766	344.68
360.148	331.12
360.53	343.78
360.912	332.48
361.294	335.41
361.676	356.66
362.057	335.64
362.439	327.51
362.821	329.09
363.203	319.6
363.584	303.1
363.966	322.08
364.348	331.57
364.729	327.28
365.111	285.25
365.493	321.63
365.874	320.5
366.256	326.6
366.637	339.26
367.019	323.21
367.4	301.97
367.781	342.42
368.163	306.26
368.544	311.69
368.925	323.89
369.306	322.08
369.688	310.1
370.069	289.77
370.45	307.62
370.831	320.5
371.212	326.15
371.593	325.02
371.974	324.79
372.355	314.62
372.736	319.6
373.117	324.12
373.498	311.91
373.879	332.48
374.26	319.37
374.641	325.02
375.021	326.6
375.402	322.99
375.783	326.38
376.163	309.88
376.544	323.66
376.925	323.66
377.305	348.3
377.686	301.74
378.066	318.69
378.447	326.83
378.827	301.74
379.208	328.41
379.588	329.09
379.968	346.71
380.349	336.77
380.729	334.96
381.109	322.99
381.489	351.69
381.87	343.32
382.25	328.18
382.63	362.53
383.01	345.58
383.39	356.88
383.77	341.52
384.15	354.17
384.53	356.88
384.91	353.95
385.29	358.24
385.67	331.12
386.049	357.56
386.429	346.49
386.809	357.56
387.189	361.85
387.568	348.07
387.948	341.06
388.328	352.14
388.707	373.83
389.087	353.72
389.466	367.05
389.846	361.4
390.225	362.08
390.605	358.47
390.984	362.76
391.363	359.14
391.743	362.08
392.122	371.57
392.501	379.48
392.881	343.32
393.26	362.08
393.639	375.87
394.018	365.92
394.397	385.81
394.776	384.45
395.155	382.42
395.534	366.15
395.913	369.31
396.292	396.43
396.671	380.16
397.05	379.03
397.429	383.1
397.808	388.52
398.186	379.71
398.565	407.73
398.944	393.94
399.323	398.01
399.701	409.54
400.08	407.05
400.458	393.27
400.837	385.36
401.215	411.35
401.594	386.71
401.972	403.89
402.351	391.23
402.729	400.95
403.107	388.07
403.486	414.96
403.864	424.45
404.242	397.79
404.62	409.31
404.999	416.99
405.377	420.84
405.755	412.25
406.133	436.66
406.511	428.07
406.889	432.59
407.267	399.82
407.645	441.63
408.023	444.56
408.401	440.5
408.779	446.15
409.156	432.59
409.534	434.4
409.912	440.27
410.29	437.79
410.667	449.76
411.045	443.89
411.422	482.53
411.8	466.94
412.178	477.56
412.555	456.99
412.933	453.83
413.31	455.64
413.687	464.45
414.065	475.98
414.442	494.05
414.819	500.16
415.197	478.91
415.574	493.6
415.951	495.18
416.328	487.73
416.705	492.47
417.082	501.06
417.46	489.08
417.837	502.19
418.214	522.3
418.591	504
418.967	528.63
419.344	534.51
419.721	522.75
420.098	516.43
420.475	518.91
420.852	534.73
421.228	511.91
421.605	544.67
421.982	517.56
422.358	562.53
422.735	551.23
423.111	539.03
423.488	551
423.864	560.72
424.241	562.08
424.617	562.3
424.994	562.75
425.37	580.61
425.746	567.5
426.123	572.24
426.499	558.46
426.875	582.87
427.251	616.09
427.627	577.44
428.003	593.04
428.379	597.33
428.756	591.23
429.132	602.53
429.507	633.49
429.883	623.54
430.259	600.49
430.635	633.03
431.011	636.88
431.387	646.82
431.763	646.37
432.138	645.24
432.514	638.46
432.89	638.91
433.265	651.79
433.641	683.2
434.016	656.76
434.392	695.41
434.767	682.3
435.143	684.11
435.518	673.71
435.894	715.74
436.269	701.51
436.644	725.91
437.02	702.41
437.395	687.27
437.77	743.31
438.145	715.07
438.52	738.12
438.895	744.22
439.271	751.22
439.646	743.09
440.021	753.48
440.395	768.85
440.77	728.17
441.145	750.32
441.52	755.29
441.895	781.28
442.27	778.79
442.645	786.93
443.019	809.3
443.394	777.89
443.769	804.33
444.143	781.73
444.518	794.61
444.892	803.65
445.267	809.07
445.641	796.87
446.016	819.92
446.39	806.14
446.764	825.35
447.139	841.39
447.513	828.28
447.887	822.41
448.262	835.29
448.636	827.38
449.01	833.71
449.384	822.86
449.758	858.56
450.132	859.69
450.506	823.76
450.88	853.14
451.254	864.89
451.628	887.49
452.002	907.15
452.376	907.83
452.75	909.64
453.123	888.17
453.497	927.04
453.871	919.58
454.244	952.57
454.618	934.72
454.992	926.36
455.365	942.4
455.739	957.09
456.112	955.96
456.486	983.99
456.859	995.06
457.232	967.94
457.606	969.07
457.979	984.66
458.352	991.22
458.725	1028.96
459.099	1042.97
459.472	1064.44
459.845	1054.27
460.218	1062.18
460.591	1035.28
460.964	1048.84
461.337	1096.3
461.71	1091.55
462.083	1117.09
462.456	1121.83
462.829	1119.8
463.201	1143.3
463.574	1155.28
463.947	1196.41
464.32	1160.25
464.692	1186.24
465.065	1188.05
465.438	1224.88
465.81	1258.1
466.183	1223.75
466.555	1271.44
466.928	1265.56
467.3	1297.42
467.672	1300.59
468.045	1318.67
468.417	1328.84
468.789	1347.82
469.161	1341.72
469.534	1347.37
469.906	1383.07
470.278	1402.28
470.65	1435.05
471.022	1451.77
471.394	1423.97
471.766	1451.09
472.138	1473.92
472.51	1516.85
472.882	1549.39
473.253	1561.15
473.625	1560.02
473.997	1576.29
474.369	1619.67
474.74	1631.88
475.112	1652.44
475.484	1672.55
475.855	1691.76
476.227	1719.33
476.598	1762.72
476.97	1774.47
477.341	1838.88
477.713	1889.95
478.084	1871.87
478.455	1912.1
478.827	1928.82
479.198	1989.83
479.569	1997.97
479.94	2053.34
480.311	2061.7
480.682	2118.87
481.053	2166.78
481.424	2202.26
481.795	2234.57
482.166	2226.44
482.537	2302.37
482.908	2365.87
483.279	2354.34
483.65	2402.03
484.021	2480.44
484.391	2503.72
484.762	2526.54
485.133	2547.56
485.503	2591.63
485.874	2637.28
486.244	2697.84
486.615	2711.17
486.985	2741
487.356	2800.66
487.726	2832.75
488.097	2878.17
488.467	2931.28
488.837	2974.44
489.207	3028.9
489.578	3037.04
489.948	3069.58
490.318	3108
490.688	3153.42
491.058	3189.58
491.428	3234.55
491.798	3283.13
492.168	3309.35
492.538	3331.04
492.908	3396.58
493.278	3435.9
493.648	3407.88
494.017	3473.64
494.387	3504.6
494.757	3533.07
495.126	3556.57
495.496	3605.84
495.866	3638.6
496.235	3681.32
496.605	3680.64
496.974	3717.47
497.344	3778.94
497.713	3810.8
498.082	3866.17
498.452	3853.29
498.821	3875.21
499.19	3885.6
499.559	3912.95
499.928	3929.67
500.298	4009.22
500.667	4040.18
501.036	4004.24
501.405	4030.91
501.774	4031.36
502.143	4112.04
502.512	4114.98
502.88	4171.02
503.249	4183.9
503.618	4179.16
503.987	4184.81
504.356	4243.33
504.724	4270.23
505.093	4309.1
505.462	4270.9
505.83	4272.71
506.199	4322.88
506.567	4379.15
506.936	4378.25
507.304	4463.44
507.672	4450.33
508.041	4454.63
508.409	4522.88
508.777	4481.75
509.145	4484.68
509.514	4510.45
509.882	4587.05
510.25	4585.7
510.618	4612.59
510.986	4629.31
511.354	4584.12
511.722	4651.46
512.09	4745.69
512.458	4700.05
512.826	4711.35
513.193	4730.1
513.561	4756.77
513.929	4786.37
514.297	4812.59
514.664	4840.61
515.032	4880.38
515.4	4870.66
515.767	4866.37
516.135	4897.33
516.502	4901.62
516.869	4902.53
517.237	4915.18
517.604	4954.05
517.972	5002.64
518.339	5008.29
518.706	5009.87
519.073	5014.61
519.44	5037.66
519.808	5123.76
520.175	5082.86
520.542	5115.4
520.909	5156.98
521.276	5118.11
521.643	5235.17
522.009	5212.8
522.376	5231.56
522.743	5271.78
523.11	5294.15
523.477	5334.61
523.843	5388.62
524.21	5421.83
524.577	5452.57
524.943	5436.52
525.31	5502.74
525.676	5552.23
526.043	5565.11
526.409	5592.45
526.776	5640.59
527.142	5640.59
527.508	5623.64
527.874	5667.03
528.241	5750.19
528.607	5717.65
528.973	5762.62
529.339	5772.33
529.705	5780.47
530.071	5837.19
530.437	5884.87
530.803	5908.38
531.169	5922.84
531.535	5979.79
531.901	5948.37
532.267	5993.57
532.632	6078.31
532.998	6050.74
533.364	6056.62
533.73	6076.73
534.095	6168.03
534.461	6184.75
534.826	6179.78
535.192	6193.57
535.557	6237.41
535.923	6293.68
536.288	6261.13
536.653	6330.51
537.019	6270.63
537.384	6392.43
537.749	6399.66
538.114	6381.13
538.479	6415.03
538.845	6437.63
539.21	6426.55
539.575	6481.92
539.94	6486.67
540.305	6547.68
540.67	6551.97
541.034	6530.96
541.399	6562.14
541.764	6608.7
542.129	6703.16
542.494	6636.27
542.858	6695.7
543.223	6696.38
543.587	6783.15
543.952	6823.61
544.316	6849.59
544.681	6834.91
545.045	6876.94
545.41	6897.05
545.774	6953.77
546.138	6955.35
546.503	6997.61
546.867	6958.29
547.231	7059.76
547.595	7044.17
547.959	7065.63
548.324	7083.49
548.688	7106.54
549.052	7100.21
549.416	7157.61
549.779	7123.03
550.143	7202.35
550.507	7239.41
550.871	7244.61
551.235	7312.18
551.599	7324.38
551.962	7337.94
552.326	7376.36
552.689	7416.36
553.053	7397.15
553.417	7455.45
553.78	7521.89
554.143	7474.21
554.507	7497.26
554.87	7527.32
555.234	7590.14
555.597	7579.74
555.96	7640.08
556.323	7681.21
556.686	7593.76
557.05	7688.89
557.413	7740.19
557.776	7782.45
558.139	7742.9
558.502	7739.29
558.865	7812.51
559.228	7876.23
559.59	7943.12
559.953	7860.64
560.316	7937.25
560.679	7954.65
561.041	7967.53
561.404	8071.48
561.767	8087.98
562.129	8032.39
562.492	8140.41
562.854	8120.75
563.217	8108.77
563.579	8210.46
563.941	8233.51
564.304	8248.43
564.666	8272.61
565.028	8374.75
565.39	8372.27
565.753	8339.72
566.115	8367.29
566.477	8449.33
566.839	8387.18
567.201	8459.72
567.563	8461.98
567.925	8563.9
568.287	8588.98
568.648	8605.03
569.01	8651.13
569.372	8744.91
569.734	8706.04
570.095	8740.62
570.457	8845.47
570.819	8849.54
571.18	8842.99
571.542	8930.22
571.903	8922.76
572.265	8968.18
572.626	9068.74
572.987	9103.09
573.349	9102.87
573.71	9196.2
574.071	9212.02
574.432	9227.84
574.794	9345.57
575.155	9384.67
575.516	9385.35
575.877	9524.1
576.238	9523.2
576.599	9569.07
576.96	9711.21
577.32	9722.06
577.681	9836.63
578.042	9933.58
578.403	9979
578.763	9999.34
579.124	10103.29
579.485	10259.22
579.845	10398.65
580.206	10419.44
580.566	10544.41
580.927	10677.06
581.287	10795.03
581.648	10770.62
582.008	11073.44
582.368	11151.85
582.728	11275.24
583.089	11433.65
583.449	11534.67
583.809	11736.47
584.169	11890.82
584.529	11981.21
584.889	12249.45
585.249	12345.27
585.609	12583.45
585.969	12780.06
586.329	12972.82
586.688	13124.46
587.048	13312.7
587.408	13537.55
587.768	13739.81
588.127	13998.78
588.487	14142.28
588.846	14481.71
589.206	14549.5
589.565	14895.03
589.925	15193.1
590.284	15431.97
590.643	15638.52
591.003	15920.32
591.362	16181.1
591.721	16465.61
592.08	16658.15
592.44	16979.27
592.799	17212.03
593.158	17575.19
593.517	17849.98
593.876	18079.36
594.235	18362.51
594.593	18656.06
594.952	18963.17
595.311	19217.63
595.67	19505.98
596.029	19920.21
596.387	20204.5
596.746	20457.37
597.104	20596.13
597.463	20937.81
597.822	21327.18
598.18	21594.52
598.538	21844.23
598.897	22233.37
599.255	22295.52
599.613	22975.5
599.972	23019.11
600.33	23371.87
600.688	23554.69
601.046	23991.52
601.404	24248.01
601.762	24506.3
602.12	24896.35
602.478	25127.53
602.836	25334.08
603.194	25547.18
603.552	25828.53
603.91	26076.66
604.268	26469.87
604.625	26570.88
604.983	27071.89
605.341	27045.67
605.698	27474.14
606.056	27685.43
606.413	27776.95
606.771	28269.37
607.128	28487.22
607.485	28660.77
607.843	28886.08
608.2	29280.19
608.557	29422.11
608.914	29522.44
609.272	29970.79
609.629	30167.85
609.986	30423.89
610.343	30490.33
610.7	30849.87
611.057	31009.64
611.414	31070.65
611.771	31484.2
612.127	31737.08
612.484	31859.56
612.841	32102.04
613.198	32117.86
613.554	32426.32
613.911	32693.43
614.267	32728.46
614.624	32983.6
614.98	33157.38
615.337	33536.8
615.693	33442.34
616.05	33698.61
616.406	33922.78
616.762	33980.41
617.118	34098.37
617.475	34195.54
617.831	34410.45
618.187	34760.27
618.543	34819.25
618.899	34989.19
619.255	35052.02
619.611	34993.03
619.967	35339.24
620.323	35624.88
620.678	35501.72
621.034	35469.41
621.39	35647.25
621.746	35715.73
622.101	36254.7
622.457	36041.37
622.812	36197.07
623.168	36408.59
623.523	36481.58
623.879	36555.93
624.234	36383.96
624.589	36688.81
624.945	36787.79
625.3	36915.7
625.655	36928.35
626.01	36944.17
626.365	37296.93
626.72	37135.8
627.075	37240.66
627.43	37329.7
627.785	37353.65
628.14	37321.11
628.495	37514.55
628.85	37372.86
629.205	37375.8
629.559	37655.11
629.914	37604.94
630.269	37677.48
630.623	37635.9
630.978	37589.12
631.332	37791.38
631.687	37928.32
632.041	37660.54
632.396	37763.13
632.75	37672.51
633.104	37834.54
633.459	37738.95
633.813	37752.06
634.167	37665.96
634.521	37764.26
634.875	37772.85
635.229	37843.58
635.583	37700.08
635.937	37868.67
636.291	37656.24
636.645	37882
636.999	37612.4
637.352	37913.41
637.706	37627.09
638.06	37884.71
638.413	37758.16
638.767	37806.29
639.121	37898.04
639.474	37640.42
639.828	37687.43
640.181	37874.77
640.534	37738.05
640.888	37755.67
641.241	37647.88
641.594	37625.06
641.947	37961.32
642.301	37751.61
642.654	37709.57
643.007	37627.32
643.36	37680.2
643.713	37643.13
644.066	37796.12
644.419	37573.31
644.771	37401.33
645.124	37023.04
645.477	36988.24
645.83	36724.06
646.182	36661.69
646.535	36599.32
646.888	36676.15
647.24	36333.11
647.593	36615.82
647.945	36634.57
648.298	36492.88
648.65	36450.4
649.002	36373.11
649.355	36463.96
649.707	36446.33
650.059	36631.86
650.411	37002.7
650.763	37156.82
651.115	37379.64
651.467	37378.28
651.819	37389.36
652.171	37224.39
652.523	37167.67
652.875	37245.18
653.227	37044.51
653.578	37224.84
653.93	37143.49
654.282	37009.25
654.633	36929.03
654.985	37015.35
655.337	36946.43
655.688	37001.8
656.039	37103.26
656.391	36868.47
656.742	37032.3
657.094	36975.13
657.445	37024.85
657.796	37018.74
658.147	36810.61
658.498	36895.58
658.849	37029.59
659.2	36968.35
659.551	36903.49
659.902	37039.08
660.253	36924.06
660.604	37066.43
660.955	36700.33
661.306	36931.97
661.656	36876.15
662.007	36840.9
662.358	36871.86
662.708	36821.69
663.059	36878.41
663.409	36670.05
663.76	36881.8
664.11	36921.12
664.461	36849.71
664.811	36897.62
665.161	36783.95
665.511	36774.46
665.862	36950.27
666.212	36869.37
666.562	36992.3
666.912	36774
667.262	36865.08
667.612	36737.85
667.962	36748.24
668.312	36751.18
668.662	37029.14
669.011	36751.63
669.361	36712.99
669.711	36723.38
670.06	36672.31
670.41	36711.86
670.76	36685.87
671.109	36778.3
671.459	36642.48
671.808	36519.77
672.157	36653.1
672.507	36393.45
672.856	36492.2
673.205	36539.66
673.554	36589.38
673.904	36469.83
674.253	36680
674.602	36525.88
674.951	36075.94
675.3	35847.02
675.649	36378.53
675.998	36378.99
676.346	36320.46
676.695	36545.08
677.044	36285.2
677.393	36400.46
677.741	36276.16
678.09	36183.51
678.438	36115.04
678.787	36252.66
679.135	36171.76
679.484	36036.62
679.832	36036.4
680.181	35940.13
680.529	36197.3
680.877	36100.58
681.225	36047.02
681.573	36146
681.922	35733.81
682.27	35786.23
682.618	35785.78
682.966	35701.49
683.314	35727.25
683.661	35816.06
684.009	35515.05
684.357	35401.61
684.705	35429.63
685.053	35464.21
685.4	35494.04
685.748	35211.11
686.095	35365.91
686.443	35113.03
686.79	35111.22
687.138	35176.08
687.485	35150.77
687.832	34941.96
688.18	35003.88
688.527	34880.72
688.874	34763.89
689.221	34847.95
689.568	34702.87
689.915	34577
690.262	34620.84
690.609	34526.61
690.956	34266.73
691.303	34280.96
691.65	34221.08
691.997	34170.01
692.344	33827.19
692.69	33963.46
693.037	33934.08
693.383	33671.49
693.73	33711.26
694.077	33646.86
694.423	33526.18
694.769	33516.69
695.116	33345.62
695.462	33393.98
695.808	33317.37
696.155	33303.14
696.501	32985.18
696.847	33176.36
697.193	32899.98
697.539	32956.93
697.885	32879.19
698.231	32630.84
698.577	32753.55
698.923	32590.61
699.269	32389.94
699.614	32279.21
699.96	32334.35
700.306	32387.23
700.651	32164.86
700.997	32065.65
701.342	32079.44
701.688	32040.8
702.033	31839.67
702.379	31818.88
702.724	31655.27
703.069	31787.7
703.415	31448.95
703.76	31397.42
704.105	31428.38
704.45	31424.54
704.795	31234.72
705.14	31206.47
705.485	31058.67
705.83	31018
706.175	31000.15
706.52	30847.16
706.865	30716.31
707.209	30722.86
707.554	30615.07
707.899	30664.79
708.243	30470.89
708.588	30527.16
708.932	30337.56
709.277	30246.04
709.621	30324
709.966	30107.74
710.31	30190.22
710.654	29886.5
710.998	29915.2
711.342	29941.42
711.687	29899.16
712.031	29703.91
712.375	29627.07
712.719	29719.28
713.063	29617.36
713.407	29737.13
713.75	29568.54
714.094	29458.04
714.438	29380.53
714.782	29511.14
715.125	29262.11
715.469	29303.47
715.812	29136.47
716.156	28896.47
716.499	28991.61
716.843	29085.85
717.186	28877.04
717.53	29026.64
717.873	28990.93
718.216	28777.38
718.559	28700.09
718.902	28483.38
719.246	28665.29
719.589	28619.42
719.932	28548.91
720.275	28466.88
720.617	28454
720.96	28426.43
721.303	28294.45
721.646	28356.83
721.989	28310.05
722.331	28348.01
722.674	28193.21
723.016	28231.63
723.359	28207
723.701	28150.95
724.044	28009.94
724.386	27922.71
724.729	27961.58
725.071	27884.97
725.413	27896.5
725.755	27788.25
726.097	27679.33
726.439	27555.72
726.782	27580.57
727.124	27658.99
727.465	27479.79
727.807	27431.88
728.149	27537.64
728.491	27422.39
728.833	27506.68
729.175	27340.58
729.516	27256.29
729.858	27259.45
730.199	27060.36
730.541	27155.5
730.882	27131.77
731.224	27274.37
731.565	27012.68
731.906	26988.05
732.248	27133.58
732.589	26919.12
732.93	26884.55
733.271	26768.62
733.612	26955.96
733.953	27062.62
734.294	26638.45
734.635	26675.74
734.976	26763.42
735.317	26588.96
735.658	26602.29
735.999	26527.95
736.339	26468.51
736.68	26647.27
737.021	26504.67
737.361	26348.52
737.702	26518
738.042	26328.18
738.383	26265.13
738.723	26467.16
739.063	26195.75
739.404	26262.64
739.744	26167.96
740.084	26071.46
740.424	26182.64
740.764	25955.53
741.104	26050.9
741.444	25912.82
741.784	25785.37
742.124	25933.61
742.464	25762.77
742.804	25877.79
743.143	25772.94
743.483	25722.09
743.823	25645.03
744.162	25692.04
744.502	25726.39
744.841	25528.88
745.181	25716.67
745.52	25502.21
745.86	25571.36
746.199	25446.62
746.538	25553.96
746.877	25497.24
747.216	25534.07
747.556	25426.05
747.895	25358.71
748.234	25169.79
748.573	25307.87
748.911	25183.8
749.25	25123.01
749.589	25108.55
749.928	25077.14
750.267	25119.4
750.605	24986.07
750.944	25012.51
751.283	24920.31
751.621	24931.15
751.96	24833.75
752.298	24889.57
752.636	24921.44
752.975	24741.78
753.313	24642.35
753.651	24822.45
753.989	24540.43
754.327	24544.27
754.666	24454.55
755.004	24357.61
755.342	24455.01
755.679	24436.7
756.017	24293.66
756.355	24219.76
756.693	24187.9
757.031	24129.82
757.368	23983.38
757.706	24043.49
758.044	23936.38
758.381	23988.35
758.719	23849.37
759.056	23895.93
759.394	23748.58
759.731	23561.24
760.068	23669.04
760.405	23405.09
760.743	23502.04
761.08	23508.82
761.417	23370.29
761.754	23351.53
762.091	23250.29
762.428	23126.68
762.765	23056.17
763.102	23045.78
763.438	23010.98
763.775	22942.73
764.112	22876.74
764.449	22910.19
764.785	22780.25
765.122	22687.82
765.458	22584.55
765.795	22636.52
766.131	22510.2
766.467	22419.81
766.804	22349.75
767.14	22239.02
767.476	22328.28
767.812	22213.94
768.148	22195.86
768.485	21956.54
768.821	21911.57
769.157	21950.44
769.492	21903.89
769.828	21809.43
770.164	21531.24
770.5	21575.53
770.836	21486.72
771.171	21371.02
771.507	21369.66
771.842	21257.58
772.178	21139.84
772.513	21158.14
772.849	21069.78
773.184	21117.92
773.519	21001.76
773.855	20835.67
774.19	20766.06
774.525	20747.76
774.86	20673.86
775.195	20611.49
775.53	20507.54
775.865	20377.37
776.2	20256.47
776.535	20160.2
776.87	20224.16
777.205	20139.41
777.539	20028.46
777.874	20073.2
778.209	19849.25
778.543	19774.45
778.878	19668.69
779.212	19759.76
779.547	19657.39
779.881	19547.79
780.215	19488.81
780.55	19553.44
780.884	19348.93
781.218	19332.66
781.552	19303.5
781.886	19271.19
782.22	19159.1
782.554	19067.35
782.888	18838.43
783.222	18842.72
783.556	18797.75
783.889	18683.41
784.223	18532.68
784.557	18578.33
784.89	18584.88
785.224	18410.65
785.557	18396.63
785.891	18315.28
786.224	18296.3
786.558	18195.51
786.891	18076.19
787.224	18038
787.557	17959.36
787.891	17991.22
788.224	17839.36
788.557	17863.54
788.89	17834.84
789.223	17858.8
789.556	17640.04
789.888	17610.44
790.221	17546.71
790.554	17432.59
790.887	17416.1
791.219	17267.63
791.552	17342.65
791.884	17166.61
792.217	17133.84
792.549	17151.02
792.882	16991.93
793.214	16948.76
793.546	16975.2
793.879	16795.77
794.211	16670.58
794.543	16705.61
794.875	16662.22
795.207	16747.86
795.539	16562.33
795.871	16609.56
796.203	16487.08
796.535	16421.55
796.867	16415.9
797.198	16300.64
797.53	16332.73
797.862	16177.94
798.193	16277.82
798.525	16076.47
798.856	16167.09
799.188	15937.94
799.519	15946.08
799.85	15831.28
800.182	15822.92
800.513	15871.73
800.844	15683.94
801.175	15771.62
801.506	15749.7
801.837	15736.59
802.168	15586.54
802.499	15520.33
802.83	15379.31
803.161	15509.25
803.491	15432.19
803.822	15450.95
804.153	15283.27
804.483	15195.59
804.814	15183.39
805.145	15106.1
805.475	15086.67
805.805	15022.71
806.136	15080.11
806.466	15041.24
806.796	15014.8
807.126	14873.56
807.457	14805.09
807.787	14848.03
808.117	14803.96
808.447	14657.75
808.777	14758.76
809.107	14627.02
809.436	14596.73
809.766	14631.54
810.096	14554.7
810.426	14435.61
810.755	14482.16
811.085	14506.34
811.414	14341.15
811.744	14280.81
812.073	14298.21
812.403	14176.63
812.732	14137.76
813.061	14201.27
813.39	14097.31
813.719	14167.37
814.049	14143.87
814.378	14014.38
814.707	13985.68
815.036	14022.06
815.365	13868.39
815.693	13811.9
816.022	13845.12
816.351	13822.97
816.68	13689.87
817.008	13783.65
817.337	13587.27
817.665	13625.91
817.994	13637.66
818.322	13638.79
818.651	13601.73
818.979	13443.77
819.307	13556.76
819.636	13547.04
819.964	13439.25
820.292	13531
820.62	13496.65
820.948	13319.03
821.276	13389.76
821.604	13372.81
821.932	13393.83
822.259	13408.97
822.587	13335.53
822.915	13404.9
823.243	13389.99
823.57	13312.7
823.898	13347.73
824.225	13252.36
824.553	13288.29
824.88	13249.88
825.207	13292.14
825.535	13353.15
825.862	13330.33
826.189	13302.08
826.516	13318.58
826.843	13413.72
827.17	13319.71
827.497	13376.2
827.824	13262.08
828.151	13373.94
828.478	13341.17
828.805	13321.97
829.131	13268.86
829.458	13231.8
829.785	13270.22
830.111	13173.5
830.438	13194.51
830.764	13279.26
831.09	13220.05
831.417	13286.94
831.743	13219.37
832.069	13282.87
832.395	13184.57
832.722	13262.98
833.048	13124.01
833.374	13176.89
833.7	13160.84
834.026	13156.32
834.351	13171.91
834.677	13112.48
835.003	13100.28
835.329	13126.72
835.654	13060.5
835.98	13056.44
836.306	12984.57
836.631	13060.28
836.956	13031.58
837.282	13017.34
837.607	12975.08
837.932	12926.04
838.258	12935.54
838.583	12915.88
838.908	12758.59
839.233	12828.87
839.558	12824.58
839.883	12806.95
840.208	12781.64
840.533	12765.6
840.858	12663.9
841.182	12697.12
841.507	12690.57
841.832	12661.19
842.156	12646.28
842.481	12646.73
842.805	12631.36
843.13	12529.22
843.454	12510.01
843.778	12552.49
844.103	12394.98
844.427	12408.77
844.751	12427.75
845.075	12318.38
845.399	12360.64
845.723	12263.01
846.047	12331.48
846.371	12243.12
846.695	12167.65
847.019	12042.45
847.343	12130.81
847.666	11933.3
847.99	11885.39
848.313	11960.19
848.637	11811.5
848.96	11828.67
849.284	11825.28
849.607	11746.41
849.931	11729.24
850.254	11616.7
850.577	11545.06
850.9	11486.31
851.223	11513.65
851.546	11460.77
851.869	11326.09
852.192	11394.11
852.515	11305.52
852.838	11274.34
853.161	11266.88
853.483	11187.78
853.806	11148.92
854.129	11167.22
854.451	11036.6
854.774	10992.76
855.096	11020.33
855.419	10974.23
855.741	10948.92
856.063	10801.13
856.385	10860.79
856.708	10793.22
857.03	10779.66
857.352	10820.11
857.674	10717.06
857.996	10662.38
858.318	10655.82
858.64	10605.43
858.961	10632.09
859.283	10534.92
859.605	10476.17
859.926	10519.1
860.248	10445.88
860.57	10405.66
860.891	10470.74
861.212	10374.02
861.534	10383.06
861.855	10310.75
862.176	10375.6
862.498	10325.43
862.819	10374.7
863.14	10359.78
863.461	10259.9
863.782	10242.5
864.103	10171.09
864.424	10221.03
864.745	10219.45
865.065	10148.49
865.386	10206.34
865.707	10087.25
866.027	10110.75
866.348	10053.58
866.668	10087.25
866.989	10038.44
867.309	10030.75
867.63	9977.87
867.95	9936.29
868.27	10000.02
868.59	10045.22
868.91	9936.29
869.23	9991.66
869.55	9877.31
869.87	9969.06
870.19	9848.16
870.51	9904.2
870.83	9826.24
871.15	9814.94
871.469	9788.05
871.789	9816.97
872.109	9826.92
872.428	9687.49
872.748	9742.17
873.067	9710.99
873.386	9778.56
873.706	9756.41
874.025	9731.55
874.344	9707.37
874.663	9641.61
874.982	9626.24
875.301	9610.88
875.62	9600.48
875.939	9560.26
876.258	9510.77
876.577	9492.24
876.896	9550.54
877.214	9499.02
877.533	9498.11
877.852	9508.73
878.17	9460.6
878.489	9492.46
878.807	9424.44
879.125	9420.37
879.444	9400.49
879.762	9390.09
880.08	9322.3
880.398	9360.71
880.716	9389.19
881.034	9321.39
881.352	9307.83
881.67	9248.85
881.988	9291.79
882.306	9312.81
882.624	9272.36
882.941	9153.94
883.259	9150.55
883.577	9184
883.894	9095.86
884.212	9170.21
884.529	9107.39
884.846	9019.93
885.164	9052.7
885.481	9033.49
885.798	9025.36
886.115	8912.14
886.432	8991.46
886.75	8956.43
887.067	8988.07
887.383	8920.27
887.7	8866.49
888.017	8891.8
888.334	8861.07
888.651	8828.3
888.967	8880.27
889.284	8734.52
889.6	8699.71
889.917	8697.91
890.233	8734.06
890.55	8681.86
890.866	8704.91
891.182	8685.03
891.498	8575.2
891.815	8585.82
892.131	8532.49
892.447	8554.86
892.763	8466.5
893.079	8446.61
893.395	8432.6
893.71	8426.05
894.026	8479.16
894.342	8455.43
894.657	8353.96
894.973	8338.14
895.289	8345.37
895.604	8317.58
895.92	8315.32
896.235	8188.99
896.55	8207.3
896.865	8180.18
897.181	8061.54
897.496	8090.24
897.811	8085.27
898.126	8098.83
898.441	8053.86
898.756	8021.54
899.071	7981.32
899.386	7927.76
899.7	7918.72
900.015	7878.95
900.33	7869.23
900.644	7815.9
900.959	7859.51
901.273	7825.39
901.588	7664.04
901.902	7739.29
902.216	7678.95
902.531	7688.89
902.845	7629.23
903.159	7567.54
903.473	7534.55
903.787	7561.67
904.101	7507.88
904.415	7525.51
904.729	7505.62
905.042	7456.13
905.356	7381.11
905.67	7378.62
905.984	7368.22
906.297	7365.96
906.611	7270.37
906.924	7330.03
907.237	7288
907.551	7267.66
907.864	7176.14
908.177	7177.49
908.491	7121.9
908.804	7130.49
909.117	7090.27
909.43	7056.82
909.743	7033.54
910.056	7013.66
910.368	6966.2
910.681	6896.6
910.994	6866.09
911.307	6899.99
911.619	6787.45
911.932	6874
912.244	6773.66
912.557	6807.34
912.869	6761.91
913.181	6708.13
913.494	6708.13
913.806	6720.78
914.118	6657.96
914.43	6622.03
914.742	6620.45
915.054	6554.01
915.366	6526.89
915.678	6526.66
915.99	6474.69
916.302	6416.38
916.613	6448.25
916.925	6439.66
917.236	6399.44
917.548	6347.23
917.859	6348.82
918.171	6344.75
918.482	6271.98
918.794	6224.98
919.105	6250.74
919.416	6212.55
919.727	6231.98
920.038	6164.19
920.349	6146.34
920.66	6111.31
920.971	6097.3
921.282	6049.61
921.593	6013.23
921.903	5987.47
922.214	5943.86
922.525	5941.14
922.835	5886.91
923.146	5886.91
923.456	5848.94
923.767	5837.64
924.077	5859.79
924.387	5830.86
924.697	5766.46
925.008	5791.32
925.318	5661.83
925.628	5739.34
925.938	5729.4
926.248	5602.17
926.558	5615.28
926.867	5664.99
927.177	5589.51
927.487	5567.59
927.796	5518.33
928.106	5492.57
928.416	5479.01
928.725	5483.53
929.034	5443.76
929.344	5506.35
929.653	5375.28
929.962	5342.06
930.271	5384.1
930.581	5354.27
930.89	5319.92
931.199	5246.25
931.508	5246.92
931.817	5227.94
932.125	5199.69
932.434	5207.38
932.743	5151.33
933.051	5176.19
933.36	5137.55
933.669	5063.88
933.977	5052.35
934.286	5043.99
934.594	5048.51
934.902	5026.82
935.21	4986.37
935.519	5015.29
935.827	4940.72
936.135	4916.09
936.443	4879.02
936.751	4890.55
937.059	4861.85
937.367	4835.64
937.674	4793.38
937.982	4848.06
938.29	4760.16
938.597	4799.03
938.905	4749.99
939.213	4704.57
939.52	4700.05
939.827	4711.12
940.135	4674.74
940.442	4681.97
940.749	4632.03
941.056	4607.17
941.363	4621.18
941.67	4561.29
941.977	4528.75
942.284	4534.63
942.591	4504.8
942.898	4486.27
943.205	4482.2
943.511	4453.95
943.818	4506.38
944.125	4368.08
944.431	4397.45
944.738	4380.05
945.044	4352.26
945.35	4352.94
945.657	4293.05
945.963	4296.67
946.269	4324.24
946.575	4261.41
946.881	4234.3
947.187	4242.43
947.493	4229.78
947.799	4210.57
948.105	4200.17
948.41	4176.67
948.716	4128.76
949.022	4135.09
949.327	4115.43
949.633	4091.47
949.938	4124.02
950.244	4050.12
950.549	4070.46
950.854	3974.19
951.16	4005.6
951.465	3976
951.77	3970.8
952.075	3964.7
952.38	3947.07
952.685	3945.04
952.99	3953.4
953.294	3907.52
953.599	3859.62
953.904	3786.4
954.209	3805.38
954.513	3826.4
954.818	3817.36
955.122	3797.47
955.426	3814.42
955.731	3726.29
956.035	3730.58
956.339	3695.78
956.643	3681.77
956.948	3701.2
957.252	3670.92
957.556	3632.96
957.86	3619.4
958.163	3661.66
958.467	3616.23
958.771	3624.82
959.075	3602.45
959.378	3552.73
959.682	3583.92
959.985	3502.34
960.289	3544.6
960.592	3508.66
960.896	3483.13
961.199	3471.6
961.502	3447.2
961.805	3402
962.108	3422.34
962.411	3414.66
962.714	3399.06
963.017	3370.82
963.32	3375.79
963.623	3331.72
963.926	3313.19
964.228	3328.1
964.531	3335.79
964.833	3300.76
965.136	3301.44
965.438	3272.06
965.741	3271.16
966.043	3200.88
966.345	3239.75
966.648	3209.46
966.95	3239.07
967.252	3177.37
967.554	3190.93
967.856	3176.02
968.158	3135.57
968.46	3115
968.761	3124.72
969.063	3092.18
969.365	3158.39
969.666	3113.87
969.968	3077.26
970.269	3065.96
970.571	3033.2
970.872	3047.66
971.174	3026.19
971.475	3002.92
971.776	2991.39
972.077	2953.88
972.378	3002.92
972.679	2971.28
972.98	2954.1
973.281	2960.88
973.582	2921.11
973.883	2895.12
974.183	2916.82
974.484	2857.38
974.785	2841.11
975.085	2848.57
975.386	2846.99
975.686	2858.06
975.986	2799.3
976.287	2771.28
976.587	2781.68
976.887	2734.45
977.187	2776.48
977.487	2782.81
977.787	2756.37
978.087	2739.65
978.387	2731.74
978.687	2704.84
978.987	2704.39
979.286	2691.06
979.586	2703.71
979.885	2666.88
980.185	2643.83
980.484	2644.05
980.784	2642.25
981.083	2604.51
981.382	2577.16
981.682	2597.73
981.981	2582.36
982.28	2587.11
982.579	2552.53
982.878	2560.44
983.177	2569.71
983.475	2538.29
983.774	2474.57
984.073	2458.3
984.372	2486.32
984.67	2511.63
984.969	2466.66
985.267	2449.94
985.566	2439.09
985.864	2453.55
986.162	2457.39
986.461	2414.23
986.759	2382.82
987.057	2362.71
987.355	2413.55
987.653	2371.29
987.951	2398.86
988.249	2358.41
988.547	2348.24
988.844	2324.74
989.142	2316.61
989.44	2334.91
989.737	2331.29
990.035	2272.09
990.332	2290.39
990.63	2270.73
990.927	2251.97
991.224	2247.91
991.521	2233.67
991.819	2243.16
992.116	2212.88
992.413	2219.89
992.71	2229.15
993.006	2197.74
993.303	2185.76
993.6	2178.53
993.897	2156.38
994.193	2160
994.49	2138.98
994.787	2112.77
995.083	2148.47
995.379	2073.45
995.676	2079.1
995.972	2108.02
996.268	2079.55
996.565	2072.32
996.861	2065.09
997.157	2043.17
997.453	2040.68
997.749	2061.7
998.044	2003.85
998.34	2031.64
998.636	2033
998.932	1976.05
999.227	1950.51
999.523	1972.43
999.818	1953.45
1000.114	1933.79
1000.409	1947.12
1000.704	1936.05
1001	1937.63
1001.295	1920.01
1001.59	1890.18
1001.885	1909.84
1002.18	1894.24
1002.475	1846.34
1002.77	1894.24
1003.065	1849.73
1003.359	1847.47
1003.654	1848.6
1003.949	1798.2
1004.243	1850.86
1004.538	1818.54
1004.832	1779.67
1005.127	1821.03
1005.421	1798.43
1005.715	1788.48
1006.009	1754.36
1006.304	1740.35
1006.598	1739.9
1006.892	1735.83
1007.186	1733.8
1007.48	1701.25
1007.773	1726.34
1008.067	1693.57
1008.361	1691.76
1008.655	1685.21
1008.948	1661.71
1009.242	1639.79
1009.535	1642.05
1009.829	1660.13
1010.122	1605.66
1010.415	1668.94
1010.708	1617.19
1011.001	1597.3
1011.295	1586.23
1011.588	1586.68
1011.881	1578.32
1012.173	1553.91
1012.466	1557.98
1012.759	1541.71
1013.052	1571.54
1013.344	1536.97
1013.637	1538.1
1013.93	1520.92
1014.222	1517.53
1014.514	1480.92
1014.807	1508.94
1015.099	1475.5
1015.391	1465.33
1015.683	1448.38
1015.976	1460.81
1016.268	1454.48
1016.56	1425.1
1016.851	1427.36
1017.143	1416.74
1017.435	1416.52
1017.727	1381.49
1018.018	1365.9
1018.31	1382.39
1018.602	1379.46
1018.893	1358.66
1019.185	1357.99
1019.476	1349.4
1019.767	1371.77
1020.058	1345.78
1020.35	1334.94
1020.641	1304.65
1020.932	1311.21
1021.223	1297.65
1021.514	1314.15
1021.804	1266.92
1022.095	1272.57
1022.386	1260.14
1022.677	1277.99
1022.967	1223.53
1023.258	1255.84
1023.548	1242.96
1023.839	1225.11
1024.129	1235.73
1024.419	1206.35
1024.709	1215.84
1025	1201.83
1025.29	1192.57
1025.58	1182.17
1025.87	1163.42
1026.16	1163.64
1026.449	1141.5
1026.739	1178.56
1027.029	1150.76
1027.319	1141.72
1027.608	1143.53
1027.898	1102.63
1028.187	1118.45
1028.477	1112.34
1028.766	1105.56
1029.055	1103.76
1029.344	1109.63
1029.634	1077.99
1029.923	1081.61
1030.212	1080.25
1030.501	1092.91
1030.79	1053.81
1031.078	1051.33
1031.367	1029.86
1031.656	1028.73
1031.945	1026.02
1032.233	1014.95
1032.522	1002.74
1032.81	1011.33
1033.099	1002.97
1033.387	1007.04
1033.675	998.45
1033.963	993.02
1034.251	976.75
1034.54	984.89
1034.828	985.12
1035.116	954.61
1035.403	942.86
1035.691	982.4
1035.979	946.7
1036.267	958
1036.554	959.81
1036.842	922.29
1037.129	933.82
1037.417	927.72
1037.704	913.93
1037.992	930.2
1038.279	897.89
1038.566	904.21
1038.853	904.21
1039.14	904.21
