Data from hue_210_FLMS001491_00033.txt Node
Date: Tue Feb 07 16:41:06 GMT 2017
User: dcchb
Spectrometer: FLMS00149
Trigger mode: 0
Integration Time (sec): 2.000000E-2
Scans to average: 10
Electric dark correction enabled: true
Nonlinearity correction enabled: false
Boxcar width: 0
XAxis mode: Wavelengths
Number of Pixels in Spectrum: 2048
>>>>>Begin Spectral Data<<<<<
341.393	-17.84
341.776	-17.84
342.16	-17.84
342.543	-53.32
342.927	-68.23
343.31	-68.91
343.693	-55.13
344.077	-64.84
344.46	-69.14
344.843	-53.54
345.226	-36.14
345.61	-28.69
345.993	-18.29
346.376	7.02
346.759	4.31
347.142	40.01
347.525	16.51
347.908	52.22
348.291	77.07
348.674	91.54
349.057	106
349.44	127.92
349.823	156.85
350.206	163.4
350.588	179.22
350.971	202.04
351.354	239.78
351.737	236.84
352.119	248.37
352.502	273
352.884	269.84
353.267	297.41
353.65	310.97
354.032	290.18
354.414	294.92
354.797	323.62
355.179	322.04
355.562	304.86
355.944	324.75
356.326	318.88
356.709	324.75
357.091	329.27
357.473	338.31
357.855	346.22
358.238	344.41
358.62	353.68
359.002	343.96
359.384	337.86
359.766	336.95
360.148	338.08
360.53	360.23
360.912	345.77
361.294	324.75
361.676	330.4
362.057	312.1
362.439	318.88
362.821	317.75
363.203	322.94
363.584	315.94
363.966	322.94
364.348	312.32
364.729	316.16
365.111	315.71
365.493	328.37
365.874	324.75
366.256	324.53
366.637	322.72
367.019	314.81
367.4	327.92
367.781	310.97
368.163	330.17
368.544	308.93
368.925	309.61
369.306	331.3
369.688	317.75
370.069	294.02
370.45	317.29
370.831	315.71
371.212	319.33
371.593	319.33
371.974	306.9
372.355	304.64
372.736	318.65
373.117	329.05
373.498	309.38
373.879	316.84
374.26	323.85
374.641	320.01
375.021	315.49
375.402	353.23
375.783	336.28
376.163	323.85
376.544	342.83
376.925	349.61
377.305	333.79
377.686	329.95
378.066	324.98
378.447	333.11
378.827	324.75
379.208	334.47
379.588	341.02
379.968	334.92
380.349	349.84
380.729	318.2
381.109	347.12
381.489	335.15
381.87	346.67
382.25	341.02
382.63	372.89
383.01	342.6
383.39	354.58
383.77	336.5
384.15	363.62
384.53	353.45
384.91	352.32
385.29	334.02
385.67	372.21
386.049	370.63
386.429	372.43
386.809	371.53
387.189	371.98
387.568	374.92
387.948	378.31
388.328	367.01
388.707	348.25
389.087	332.66
389.466	366.78
389.846	381.92
390.225	385.31
390.605	379.67
390.984	384.64
391.363	382.6
391.743	382.6
392.122	390.96
392.501	379.67
392.881	390.06
393.26	390.74
393.639	391.42
394.018	386.9
394.397	378.31
394.776	382.15
395.155	384.18
395.534	397.52
395.913	406.33
396.292	405.2
396.671	392.09
397.05	403.85
397.429	412.88
397.808	438.87
398.186	434.35
398.565	420.34
398.944	413.56
399.323	430.06
399.701	429.16
400.08	424.86
400.458	413.34
400.837	437.06
401.215	414.92
401.594	428.03
401.972	436.39
402.351	429.61
402.729	432.55
403.107	447.46
403.486	452.66
403.864	455.14
404.242	470.96
404.62	459.66
404.999	468.93
405.377	461.47
405.755	465.76
406.133	483.17
406.511	493.56
406.889	516.16
407.267	490.62
407.645	511.19
408.023	506.67
408.401	499.21
408.779	538.08
409.156	502.15
409.534	531.75
409.912	550.06
410.29	538.76
410.667	536.05
411.045	577.85
411.422	574.01
411.8	570.17
412.178	577.4
412.555	595.93
412.933	597.51
413.31	618.75
413.687	619.43
414.065	626.44
414.442	661.24
414.819	666.89
415.197	646.32
415.574	669.83
415.951	675.93
416.328	683.16
416.705	685.42
417.082	717.74
417.46	704.85
417.837	724.29
418.214	722.71
418.591	719.32
418.967	744.4
419.344	753.89
419.721	758.64
420.098	778.3
420.475	783.5
420.852	794.12
421.228	846.55
421.605	808.13
421.982	827.34
422.358	869.37
422.735	858.52
423.111	884.74
423.488	915.47
423.864	905.98
424.241	937.16
424.617	942.36
424.994	943.27
425.37	949.59
425.746	976.94
426.123	970.16
426.499	997.73
426.875	1023.49
427.251	1057.16
427.627	1070.49
428.003	1057.84
428.379	1093.54
428.756	1096.93
429.132	1131.28
429.507	1123.37
429.883	1123.6
430.259	1159.31
430.635	1166.09
431.011	1156.14
431.387	1213.77
431.763	1235.01
432.138	1228.23
432.514	1274.78
432.89	1253.77
433.265	1300.32
433.641	1291.28
434.016	1339.19
434.392	1387.55
434.767	1387.1
435.143	1412.18
435.518	1414.67
435.894	1418.96
436.269	1507.55
436.644	1522.23
437.02	1541.22
437.395	1547.54
437.77	1578.05
438.145	1637.71
438.52	1627.32
438.895	1660.54
439.271	1666.64
439.646	1701.21
440.021	1724.26
440.395	1745.05
440.77	1721.32
441.145	1769.46
441.52	1825.95
441.895	1805.62
442.27	1834.77
442.645	1860.98
443.019	1896.69
443.394	1891.04
443.769	1936.91
444.143	1931.26
444.518	1945.95
444.892	1954.54
445.267	1967.42
445.641	2021.66
446.016	2060.07
446.39	2041.99
446.764	2029.79
447.139	2051.49
447.513	2077.02
447.887	2114.31
448.262	2114.08
448.636	2120.64
449.01	2138.26
449.384	2177.36
449.758	2202.22
450.132	2173.52
450.506	2226.4
450.88	2270.24
451.254	2254.42
451.628	2283.34
452.002	2327.41
452.376	2320.41
452.75	2330.35
453.123	2365.38
453.497	2420.06
453.871	2399.95
454.244	2465.03
454.618	2511.36
454.992	2537.57
455.365	2500.51
455.739	2579.83
456.112	2587.29
456.486	2622.77
456.859	2631.36
457.232	2677.68
457.606	2683.11
457.979	2730.34
458.352	2765.37
458.725	2798.58
459.099	2807.62
459.472	2877.45
459.845	2866.61
460.218	2902.08
460.591	2922.65
460.964	2924.01
461.337	3010.33
461.71	3072.93
462.083	3097.11
462.456	3101.4
462.829	3159.48
463.201	3176.88
463.574	3216.2
463.947	3215.3
464.32	3293.26
464.692	3339.14
465.065	3353.82
465.438	3410.77
465.81	3448.06
466.183	3498.91
466.555	3517.44
466.928	3588.17
467.3	3536.87
467.672	3622.74
468.045	3663.65
468.417	3719.92
468.789	3688.28
469.161	3764.66
469.534	3859.35
469.906	3903.19
470.278	3884.43
470.65	3978.67
471.022	4033.81
471.394	4096.63
471.766	4104.99
472.138	4170.3
472.51	4284.65
472.882	4298.88
473.253	4381.37
473.625	4426.34
473.997	4488.26
474.369	4534.36
474.74	4565.09
475.112	4626.11
475.484	4746.33
475.855	4782.04
476.227	4798.76
476.598	4965.53
476.97	4948.36
477.341	5113.1
477.713	5130.27
478.084	5118.98
478.455	5259.76
478.827	5328.46
479.198	5469.02
479.569	5466.09
479.94	5615.23
480.311	5617.27
480.682	5727.1
481.053	5880.76
481.424	5955.34
481.795	5997.6
482.166	6077.37
482.537	6163.02
482.908	6245.95
483.279	6315.55
483.65	6436.23
484.021	6499.96
484.391	6588.09
484.762	6613.85
485.133	6704.24
485.503	6721.19
485.874	6846.39
486.244	6911.02
486.615	7016.33
486.985	7116.21
487.356	7166.38
487.726	7261.29
488.097	7360.27
488.467	7389.42
488.837	7602.53
489.207	7679.36
489.578	7743.77
489.948	7794.16
490.318	7903.31
490.688	7859.24
491.058	8017.43
491.428	8035.74
491.798	8194.6
492.168	8259.46
492.538	8293.36
492.908	8397.31
493.278	8466.91
493.648	8508.72
494.017	8568.38
494.387	8603.63
494.757	8677.53
495.126	8701.48
495.496	8729.05
495.866	8833
496.235	8870.97
496.605	8882.49
496.974	8978.08
497.344	9027.8
497.713	9118.64
498.082	9141.69
498.452	9266.21
498.821	9267.12
499.19	9270.5
499.559	9319.32
499.928	9246.1
500.298	9323.61
500.667	9443.61
501.036	9449.26
501.405	9547.56
501.774	9536.49
502.143	9596.6
502.512	9604.28
502.88	9675.24
503.249	9641.34
503.618	9643.6
503.987	9683.6
504.356	9773.99
504.724	9826.2
505.093	9796.59
505.462	9806.54
505.83	9833.43
506.199	9950.71
506.567	10063.03
506.936	9934.67
507.304	10046.98
507.672	10035.46
508.041	10076.13
508.409	10137.15
508.777	10221.44
509.145	10215.34
509.514	10226.64
509.882	10257.82
510.25	10224.6
510.618	10335.56
510.986	10277.03
511.354	10326.75
511.722	10303.25
512.09	10435.9
512.458	10367.65
512.826	10445.16
513.193	10411.27
513.561	10429.8
513.929	10521.09
514.297	10562.22
514.664	10542.56
515.032	10585.72
515.4	10650.36
515.767	10673.86
516.135	10653.97
516.502	10534.43
516.869	10737.81
517.237	10655.33
517.604	10572.17
517.972	10669.11
518.339	10705.72
518.706	10744.36
519.073	10713.86
519.44	10723.57
519.808	10773.52
520.175	10792.5
520.542	10786.17
520.909	10821.65
521.276	10812.84
521.643	10877.47
522.009	10858.71
522.376	10905.26
522.743	10832.27
523.11	10975.77
523.477	11033.62
523.843	11054.19
524.21	10983.91
524.577	11087.18
524.943	11043.34
525.31	11105.94
525.676	11164.01
526.043	11123.11
526.409	11124.24
526.776	11224.8
527.142	11106.39
527.508	11196.56
527.874	11181.19
528.241	11294.41
528.607	11219.61
528.973	11173.51
529.339	11194.07
529.705	11212.6
530.071	11269.55
530.437	11259.38
530.803	11251.92
531.169	11245.59
531.535	11146.61
531.901	11107.29
532.267	11189.55
532.632	11215.09
532.998	11160.62
533.364	11127.18
533.73	11109.1
534.095	11143.22
534.461	11076.79
534.826	11158.14
535.192	11097.8
535.557	11110.46
535.923	11104.81
536.288	11067.97
536.653	11009.22
537.019	10955.88
537.384	10954.08
537.749	10971.48
538.114	10918.6
538.479	10881.54
538.845	10904.36
539.21	10846.96
539.575	10775.78
539.94	10819.39
540.305	10785.04
540.67	10721.99
541.034	10746.17
541.399	10731.26
541.764	10738.26
542.129	10633.41
542.494	10665.04
542.858	10655.1
543.223	10594.09
543.587	10595.44
543.952	10578.04
544.316	10488.1
544.681	10498.04
545.045	10500.98
545.41	10479.51
545.774	10409.23
546.138	10429.12
546.503	10367.2
546.867	10293.53
547.231	10354.54
547.595	10260.76
547.959	10203.81
548.324	10228.67
548.688	10159.07
549.052	10195.68
549.416	10149.13
549.779	10124.72
550.143	10067.55
550.507	10100.09
550.871	10081.33
551.235	10037.94
551.599	9943.48
551.962	9977.15
552.326	9950.94
552.689	9926.98
553.053	9875.01
553.417	9872.52
553.78	9969.47
554.143	9846.31
554.507	9859.19
554.87	9814.67
555.234	9835.01
555.597	9742.13
555.96	9742.13
556.323	9776.48
556.686	9709.82
557.05	9656.03
557.413	9786.65
557.776	9673.66
558.139	9763.37
558.502	9757.05
558.865	9623.49
559.228	9733.54
559.59	9723.15
559.953	9663.94
560.316	9736.26
560.679	9690.15
561.041	9705.75
561.404	9721.79
561.767	9761.34
562.129	9639.08
562.492	9772.86
562.854	9685.18
563.217	9613.09
563.579	9708.91
563.941	9761.57
564.304	9755.69
564.666	9717.72
565.028	9639.99
565.39	9723.15
565.753	9776.71
566.115	9775.58
566.477	9787.33
566.839	9734.22
567.201	9817.84
567.563	9818.74
567.925	9889.92
568.287	9806.08
568.648	9861.22
569.01	9879.08
569.372	9898.28
569.734	9842.02
570.095	9898.51
570.457	9840.89
570.819	9868.68
571.18	9843.82
571.542	9922.47
571.903	9919.53
572.265	9893.54
572.626	9937.83
572.987	9954.33
573.349	9966.08
573.71	9946.87
574.071	9993.2
574.432	10015.8
574.794	10069.13
575.155	10025.97
575.516	9996.14
575.877	10099.64
576.238	10053.31
576.599	10064.61
576.96	10023.03
577.32	10088.56
577.681	10096.92
578.042	10084.95
578.403	10157.71
578.763	10132.4
579.124	10170.37
579.485	10178.28
579.845	10217.15
580.206	10206.53
580.566	10159.97
580.927	10205.62
581.287	10229.35
581.648	10202.91
582.008	10231.38
582.368	10160.42
582.728	10277.71
583.089	10272.74
583.449	10233.87
583.809	10276.35
584.169	10259.63
584.529	10153.42
584.889	10287.65
585.249	10318.61
585.609	10265.51
585.969	10380.08
586.329	10311.83
586.688	10278.61
587.048	10269.8
587.408	10287.65
587.768	10316.58
588.127	10297.37
588.487	10284.04
588.846	10344.15
589.206	10256.92
589.565	10413.98
589.925	10389.57
590.284	10272.74
590.643	10397.03
591.003	10349.12
591.362	10392.51
591.721	10365.17
592.08	10377.82
592.44	10338.95
592.799	10435.22
593.158	10357.26
593.517	10427.08
593.876	10398.38
594.235	10390.93
594.593	10314.55
594.952	10390.02
595.311	10349.12
595.67	10438.84
596.029	10376.92
596.387	10352.06
596.746	10442.45
597.104	10319.74
597.463	10344.15
597.822	10431.83
598.18	10351.61
598.538	10405.16
598.897	10387.09
599.255	10278.84
599.613	10477.93
599.972	10481.55
600.33	10443.58
600.688	10427.54
601.046	10362.68
601.404	10456.46
601.762	10453.98
602.12	10518.16
602.478	10453.75
602.836	10424.15
603.194	10381.21
603.552	10402.23
603.91	10385.05
604.268	10417.82
604.625	10394.54
604.983	10471.15
605.341	10482
605.698	10470.25
606.056	10521.32
606.413	10427.99
606.771	10416.24
607.128	10500.75
607.485	10471.38
607.843	10508.44
608.2	10449.46
608.557	10467.08
608.914	10539.62
609.272	10536.69
609.629	10574.2
609.986	10568.55
610.343	10550.47
610.7	10582.11
611.057	10579.4
611.414	10546.86
611.771	10545.73
612.127	10593.86
612.484	10626.85
612.841	10602.22
613.198	10535.1
613.554	10579.17
613.911	10702.33
614.267	10629.79
614.624	10672.28
614.98	10623.01
615.337	10658.49
615.693	10678.83
616.05	10593.63
616.406	10702.11
616.762	10710.02
617.118	10670.24
617.475	10691.03
617.831	10656.68
618.187	10696.68
618.543	10739.17
618.899	10745.72
619.255	10686.06
619.611	10732.84
619.967	10743.91
620.323	10717.7
620.678	10737.13
621.034	10670.69
621.39	10775.32
621.746	10692.16
622.101	10782.56
622.457	10732.16
622.812	10713.86
623.168	10783.46
623.523	10778.04
623.879	10813.97
624.234	10755.44
624.589	10756.12
624.945	10726.51
625.3	10762.22
625.655	10790.92
626.01	10760.86
626.365	10758.6
626.72	10696.91
627.075	10772.61
627.43	10693.29
627.785	10691.94
628.14	10803.57
628.495	10673.63
628.85	10701.88
629.205	10698.04
629.559	10739.17
629.914	10642.45
630.269	10698.49
630.623	10660.75
630.978	10611.03
631.332	10654.2
631.687	10663.24
632.041	10626.4
632.396	10628.89
632.75	10599.51
633.104	10560.87
633.459	10567.19
633.813	10583.01
634.167	10590.7
634.521	10575.33
634.875	10541.43
635.229	10492.39
635.583	10471.38
635.937	10515.44
636.291	10482
636.645	10491.72
636.999	10440.87
637.352	10462.34
637.706	10371.27
638.06	10446.52
638.413	10383.47
638.767	10322.45
639.121	10357.03
639.474	10353.19
639.828	10336.24
640.181	10347.99
640.534	10325.39
640.888	10286.07
641.241	10210.37
641.594	10315.22
641.947	10261.67
642.301	10214.66
642.654	10263.02
643.007	10275.45
643.36	10276.13
643.713	10236.13
644.066	10269.8
644.419	10261.67
644.771	10164.49
645.124	10075.23
645.477	10009.24
645.83	10009.24
646.182	9961.79
646.535	9833.65
646.888	9975.12
647.24	9844.5
647.593	9917.95
647.945	9848.57
648.298	9916.59
648.65	9848.57
649.002	9865.07
649.355	9941.45
649.707	9876.14
650.059	9974.89
650.411	10015.57
650.763	9996.14
651.115	10153.19
651.467	10082.91
651.819	10110.03
652.171	10128.34
652.523	10124.49
652.875	10100.54
653.227	10031.84
653.578	10097.83
653.93	10075
654.282	10070.71
654.633	10010.15
654.985	10077.94
655.337	10062.12
655.688	10098.05
656.039	10166.53
656.391	10063.03
656.742	10053.99
657.094	10061.9
657.445	10109.35
657.796	10127.43
658.147	10069.58
658.498	10126.3
658.849	10027.77
659.2	10058.73
659.551	10097.15
659.902	10112.97
660.253	10097.15
660.604	10162.68
660.955	10058.96
661.306	10102.57
661.656	10093.76
662.007	10093.08
662.358	10103.03
662.708	10140.76
663.059	10098.05
663.409	10057.15
663.76	10157.71
664.11	10131.5
664.461	10194.55
664.811	10173.76
665.161	10178.73
665.511	10125.4
665.862	10150.03
666.212	10226.64
666.562	10207.2
666.912	10112.52
667.262	10129.47
667.612	10082.01
667.962	10090.37
668.312	10111.16
668.662	10125.85
669.011	10129.69
669.361	10133.53
669.711	10122.69
670.06	10156.36
670.41	10045.63
670.76	10071.39
671.109	10081.1
671.459	10090.6
671.808	10057.83
672.157	10103.93
672.507	9992.97
672.856	10019.19
673.205	10068.68
673.554	10063.93
673.904	10056.92
674.253	10099.41
674.602	10044.27
674.951	9851.73
675.3	9834.56
675.649	9972.86
675.998	9991.16
676.346	9925.85
676.695	10012.18
677.044	9933.76
677.393	9925.4
677.741	9946.19
678.09	9949.13
678.438	9886.76
678.787	9910.71
679.135	9901.67
679.484	9853.09
679.832	9888.57
680.181	9843.6
680.529	9822.13
680.877	9788.91
681.225	9767.21
681.573	9768.8
681.922	9756.82
682.27	9776.93
682.618	9710.72
682.966	9704.39
683.314	9673.21
683.661	9686.54
684.009	9595.92
684.357	9551.63
684.705	9618.97
685.053	9586.88
685.4	9535.36
685.748	9539.42
686.095	9531.06
686.443	9472.31
686.79	9472.99
687.138	9396.38
687.485	9538.07
687.832	9414.46
688.18	9394.57
688.527	9367.9
688.874	9306.21
689.221	9331.97
689.568	9306.66
689.915	9254.01
690.262	9272.54
690.609	9218.08
690.956	9148.7
691.303	9233.22
691.65	9162.49
691.997	9119.55
692.344	8974.69
692.69	9032.77
693.037	9026.44
693.383	9003.85
693.73	8978.31
694.077	8932.21
694.423	8976.73
694.769	8838.88
695.116	8915.03
695.462	8818.31
695.808	8774.25
696.155	8778.99
696.501	8658.77
696.847	8706.23
697.193	8608.15
697.539	8715.27
697.885	8579.22
698.231	8620.13
698.577	8546.91
698.923	8569.96
699.269	8477.76
699.614	8475.72
699.96	8474.14
700.306	8432.11
700.651	8340.36
700.997	8373.58
701.342	8311.21
701.688	8233.47
702.033	8259.46
702.379	8233.92
702.724	8183.08
703.069	8215.84
703.415	8075.06
703.76	8078.67
704.105	8136.52
704.45	8114.6
704.795	8046.13
705.14	8036.64
705.485	7975.62
705.83	7994.83
706.175	7960.48
706.52	7908.05
706.865	7893.82
707.209	7861.05
707.554	7876.64
707.899	7830.54
708.243	7800.49
708.588	7743.09
708.932	7748.06
709.277	7731.79
709.621	7664.45
709.966	7674.16
710.31	7669.42
710.654	7600.27
710.998	7618.8
711.342	7610.89
711.687	7526.6
712.031	7518.46
712.375	7481.63
712.719	7514.17
713.063	7521.62
713.407	7541.06
713.75	7491.79
714.094	7457.9
714.438	7465.58
714.782	7453.6
715.125	7414.96
715.469	7449.08
715.812	7362.31
716.156	7366.6
716.499	7379.26
716.843	7339.71
717.186	7315.75
717.53	7304.23
717.873	7322.99
718.216	7272.82
718.559	7299.71
718.902	7282.08
719.246	7257.45
719.589	7235.3
719.932	7219.94
720.275	7227.85
720.617	7235.3
720.96	7217.9
721.303	7188.98
721.646	7203.21
721.989	7172.48
722.331	7158.24
722.674	7142.65
723.016	7123.44
723.359	7147.62
723.701	7185.59
724.044	7107.17
724.386	7087.06
724.729	7114.4
725.071	7093.84
725.413	7096.55
725.755	7097.91
726.097	7053.61
726.439	7032.6
726.782	7070.79
727.124	7085.03
727.465	7044.8
727.807	7042.54
728.149	7024.69
728.491	7066.95
728.833	7042.77
729.175	6998.02
729.516	6976.1
729.858	6931.58
730.199	7000.28
730.541	7003.22
730.882	7006.38
731.224	6992.6
731.565	7015.2
731.906	7000.28
732.248	7021.3
732.589	6986.5
732.93	7006.61
733.271	6997.34
733.612	7038.25
733.953	7012.71
734.294	7021.07
734.635	6967.51
734.976	7014.29
735.317	6939.49
735.658	6977.46
735.999	7007.97
736.339	6967.97
736.68	7025.14
737.021	6972.71
737.361	6997.57
737.702	6976.78
738.042	6971.36
738.383	6994.63
738.723	7018.81
739.063	7081.41
739.404	7038.02
739.744	7089.09
740.084	7059.72
740.424	7116.44
740.764	7148.53
741.104	7153.72
741.444	7060.62
741.784	7090.45
742.124	7146.04
742.464	7176.77
742.804	7163.67
743.143	7174.29
743.483	7164.8
743.823	7218.13
744.162	7193.95
744.502	7274.17
744.841	7310.56
745.181	7322.53
745.52	7294.51
745.86	7422.19
746.199	7345.13
746.538	7466.48
746.877	7526.82
747.216	7591.23
747.556	7587.84
747.895	7617.89
748.234	7682.07
748.573	7694.95
748.911	7760.26
749.25	7866.93
749.589	7880.71
749.928	7926.81
750.267	8024.89
750.605	8080.71
750.944	8141.72
751.283	8206.8
751.621	8268.27
751.96	8407.25
752.298	8505.1
752.636	8543.97
752.975	8584.42
753.313	8663.06
753.651	8799.56
753.989	8897.86
754.327	8965.2
754.666	9060.57
755.004	9214.24
755.342	9362.93
755.679	9427.79
756.017	9589.59
756.355	9722.02
756.693	9839.98
757.031	10027.55
757.368	10095.57
757.706	10197.26
758.044	10405.62
758.381	10597.25
758.719	10696.23
759.056	10858.26
759.394	11051.93
759.731	11115.88
760.068	11330.56
760.405	11500.05
760.743	11692.36
761.08	11884.45
761.417	12008.74
761.754	12185.46
762.091	12433.59
762.428	12523.75
762.765	12643.98
763.102	12872.9
763.438	12980.01
763.775	13205.09
764.112	13356.73
764.449	13594.46
764.785	13679.65
765.122	13821.12
765.458	13989.7
765.795	14163.48
766.131	14382.23
766.467	14483.7
766.804	14552.63
767.14	14749.91
767.476	14891.6
767.812	15128.66
768.148	15261.53
768.485	15328.42
768.821	15520.51
769.157	15556.44
769.492	15723.22
769.828	15871.24
770.164	15909.2
770.5	16038.69
770.836	16259.47
771.171	16299.25
771.507	16430.32
771.842	16461.05
772.178	16644.32
772.513	16750.76
772.849	16793.24
773.184	16928.83
773.519	17017.87
773.855	16983.3
774.19	17130.19
774.525	17198.66
774.86	17298.54
775.195	17399.78
775.53	17489.95
775.865	17382.61
776.2	17484.98
776.535	17434.13
776.87	17553.9
777.205	17605.65
777.539	17672.32
777.874	17718.64
778.209	17747.57
778.543	17848.81
778.878	17790.73
779.212	17898.98
779.547	17852.65
779.881	18031.4
780.215	17888.13
780.55	18004.51
780.884	17977.62
781.218	17999.54
781.552	18047.45
781.886	18074.34
782.22	18049.26
782.554	18124.28
782.888	18011.74
783.222	18021.91
783.556	18028.47
783.889	18076.37
784.223	17990.28
784.557	17962.25
784.89	18042.25
785.224	17926.32
785.557	17960.45
785.891	17975.13
786.224	18084.06
786.558	18071.63
786.891	17918.19
787.224	17907.34
787.557	17924.74
787.891	17902.14
788.224	17900.79
788.557	17951.18
788.89	17925.64
789.223	17987.11
789.556	17830.28
789.888	17951.41
790.221	17835.48
790.554	17636.61
790.887	17779.66
791.219	17640.91
791.552	17698.76
791.884	17575.15
792.217	17580.12
792.549	17603.17
792.882	17506.67
793.214	17423.74
793.546	17508.93
793.879	17400.01
794.211	17460.12
794.543	17466.9
794.875	17317.3
795.207	17520.01
795.539	17382.61
795.871	17416.96
796.203	17258.09
796.535	17224.65
796.867	17142.61
797.198	16989.17
797.53	17077.53
797.862	16973.58
798.193	17085.44
798.525	17099.68
798.856	17000.25
799.188	16893.13
799.519	16787.37
799.85	16765.67
800.182	16766.13
800.513	16748.73
800.844	16716.41
801.175	16767.71
801.506	16679.8
801.837	16652.91
802.168	16609.52
802.499	16519.81
802.83	16476.87
803.161	16560.93
803.491	16569.97
803.822	16464.67
804.153	16412.92
804.483	16332.92
804.814	16322.75
805.145	16205.92
805.475	16264.67
805.805	16218.57
806.136	16207.72
806.466	16257.21
806.796	16179.7
807.126	16052.7
807.457	15979.93
807.787	15960.27
808.117	15906.71
808.447	15937.22
808.777	15955.75
809.107	15843.21
809.436	15844.8
809.766	15861.97
810.096	15713.95
810.426	15728.87
810.755	15772.48
811.085	15666.72
811.414	15706.27
811.744	15507.85
812.073	15556.89
812.403	15570.9
812.732	15444.81
813.061	15509.66
813.39	15339.05
813.719	15374.53
814.049	15363.9
814.378	15390.57
814.707	15365.94
815.036	15350.57
815.365	15245.94
815.693	15136.79
816.022	15099.05
816.351	15132.27
816.68	15065.38
817.008	15069.9
817.337	14962.56
817.665	15006.17
817.994	15041.65
818.322	15060.41
818.651	14901.09
818.979	14798.72
819.307	14922.79
819.636	14929.34
819.964	14869.23
820.292	14880.07
820.62	14838.72
820.948	14786.52
821.276	14870.13
821.604	14855.89
821.932	14843.24
822.259	14755.78
822.587	14837.36
822.915	14787.2
823.243	14825.39
823.57	14775.22
823.898	14811.15
824.225	14732.28
824.553	14775.22
824.88	14816.57
825.207	14880.98
825.535	14796.01
825.862	14911.26
826.189	14800.98
826.516	14856.57
826.843	14905.38
827.17	14896.57
827.497	14878.72
827.824	14868.78
828.151	14964.82
828.478	14807.53
828.805	14924.59
829.131	14847.99
829.458	14859.06
829.785	14803.01
830.111	14783.13
830.438	14901.09
830.764	14928.89
831.09	14911.49
831.417	14850.47
831.743	14857.7
832.069	14839.17
832.395	14768.67
832.722	14827.42
833.048	14733.19
833.374	14798.95
833.7	14708.55
834.026	14745.62
834.351	14782.45
834.677	14784.94
835.003	14827.87
835.329	14662.91
835.654	14625.62
835.98	14650.93
836.306	14750.81
836.631	14657.93
836.956	14629.01
837.282	14700.64
837.607	14516.02
837.932	14546.07
838.258	14594.21
838.583	14455.91
838.908	14474.66
839.233	14423.36
839.558	14422.91
839.883	14418.84
840.208	14343.14
840.533	14377.26
840.858	14329.81
841.182	14367.55
841.507	14358.05
841.832	14286.87
842.156	14261.11
842.481	14230.6
842.805	14178.17
843.13	14151.96
843.454	14120.32
843.778	14095.46
844.103	14049.36
844.427	13997.61
844.751	14006.65
845.075	13965.3
845.399	13883.94
845.723	13921.68
846.047	13870.61
846.371	13711.97
846.695	13765.75
847.019	13623.16
847.343	13656.15
847.666	13565.53
847.99	13476.5
848.313	13495.03
848.637	13344.3
848.96	13386.55
849.284	13372.77
849.607	13224.75
849.931	13230.4
850.254	13157.63
850.577	13076.05
850.9	13001.93
851.223	12941.82
851.546	12872.9
851.869	12876.51
852.192	12924.65
852.515	12750.41
852.838	12708.61
853.161	12734.59
853.483	12658.66
853.806	12667.48
854.129	12608.5
854.451	12566.46
854.774	12494.83
855.096	12439.01
855.419	12422.74
855.741	12433.59
856.063	12349.29
856.385	12309.75
856.708	12240.14
857.03	12161.05
857.352	12215.06
857.674	12149.98
857.996	12167.38
858.318	12008.29
858.64	12071.11
858.961	11963.54
859.283	11970.55
859.605	11901.4
859.926	11898.01
860.248	11852.81
860.57	11792.47
860.891	11808.29
861.212	11706.15
861.534	11776.2
861.855	11741.85
862.176	11701.18
862.498	11755.41
862.819	11712.7
863.14	11625.47
863.461	11615.75
863.782	11603.55
864.103	11549.09
864.424	11515.64
864.745	11532.37
865.065	11517.68
865.386	11482.65
865.707	11403.56
866.027	11435.87
866.348	11453.72
866.668	11437.91
866.989	11477.9
867.309	11318.13
867.63	11336.89
867.95	11319.49
868.27	11212.83
868.59	11331.47
868.91	11281.75
869.23	11263.67
869.55	11135.31
869.87	11267.06
870.19	11219.15
870.51	11214.41
870.83	11205.6
871.15	11053.06
871.469	11129.21
871.789	11073.62
872.109	11079.95
872.428	11006.96
872.748	11074.3
873.067	11046.73
873.386	11005.6
873.706	11076.11
874.025	10934.64
874.344	10983.91
874.663	10938.03
874.982	10959.27
875.301	10881.31
875.62	10934.64
875.939	10872.5
876.258	10919.5
876.577	10844.7
876.896	10853.97
877.214	10753.18
877.533	10789.56
877.852	10779.17
878.17	10714.76
878.489	10806.51
878.807	10723.57
879.125	10660.07
879.444	10718.38
879.762	10666.4
880.08	10731.48
880.398	10623.24
880.716	10649.9
881.034	10631.37
881.352	10600.19
881.67	10533.97
881.988	10543.01
882.306	10550.92
882.624	10528.1
882.941	10424.37
883.259	10488.33
883.577	10404.94
883.894	10369.68
884.212	10422.56
884.529	10413.98
884.846	10289.01
885.164	10339.4
885.481	10220.31
885.798	10260.31
886.115	10216.92
886.432	10253.53
886.75	10162.91
887.067	10155.91
887.383	10146.19
887.7	10040.43
888.017	10053.99
888.334	10007.21
888.651	10015.12
888.967	9989.81
889.284	9896.48
889.6	9965.18
889.917	9830.26
890.233	9905.74
890.55	9808.12
890.866	9868.46
891.182	9794.11
891.498	9778.97
891.815	9744.84
892.131	9708.91
892.447	9683.38
892.763	9639.99
893.079	9533.55
893.395	9610.61
893.71	9555.02
894.026	9513.21
894.342	9534.68
894.657	9438.18
894.973	9442.03
895.289	9427.11
895.604	9418.3
895.92	9319.77
896.235	9335.59
896.55	9289.26
896.865	9301.24
897.181	9263.95
897.496	9242.71
897.811	9244.52
898.126	9052.21
898.441	9125.65
898.756	9074.13
899.071	9026.22
899.386	9002.72
899.7	9006.11
900.015	8835.71
900.33	8908.93
900.644	8877.29
900.959	8847.92
901.273	8801.36
901.588	8822.38
901.902	8736.06
902.216	8691.99
902.531	8630.97
902.845	8694.93
903.159	8525.44
903.473	8597.3
903.787	8543.74
904.101	8477.08
904.415	8473.24
904.729	8377.65
905.042	8335.61
905.356	8405.44
905.67	8353.92
905.984	8375.39
906.297	8294.71
906.611	8252
906.924	8233.92
907.237	8237.54
907.551	8210.65
907.864	8139.24
908.177	8108.95
908.491	8045.45
908.804	8062.18
909.117	7959.8
909.43	7940.14
909.743	7878.9
910.056	7871.9
910.368	7912.12
910.681	7828.06
910.994	7828.28
911.307	7806.36
911.619	7715.07
911.932	7755.06
912.244	7696.31
912.557	7631
912.869	7600.04
913.181	7564.34
913.494	7571.79
913.806	7511
914.118	7556.43
914.43	7462.87
914.742	7403.21
915.054	7397.79
915.366	7341.74
915.678	7361.63
915.99	7270.56
916.302	7248.86
916.613	7212.48
916.925	7181.75
917.236	7220.84
917.548	7165.02
917.859	7141.97
918.171	7083.44
918.482	7062.65
918.794	7009.32
919.105	7010
919.416	6911.24
919.727	6974.07
920.038	6935.65
920.349	6873.28
920.66	6815.88
920.971	6845.48
921.282	6848.87
921.593	6774.98
921.903	6734.53
922.214	6736.79
922.525	6686.17
922.835	6655.66
923.146	6634.87
923.456	6591.71
923.767	6556.68
924.077	6568.65
924.387	6496.34
924.697	6453.4
925.008	6510.35
925.318	6451.37
925.628	6376.34
925.938	6464.48
926.248	6381.09
926.558	6384.25
926.867	6366.4
927.177	6314.65
927.487	6302
927.796	6208.66
928.106	6177.25
928.416	6167.99
928.725	6179.74
929.034	6088.67
929.344	6198.72
929.653	6134.54
929.962	6040.53
930.271	6051.15
930.581	6017.26
930.89	5989.46
931.199	5930.03
931.508	5974.55
931.817	5917.82
932.125	5892.74
932.434	5935.68
932.743	5839.86
933.051	5836.7
933.36	5780.2
933.669	5770.03
933.977	5747.89
934.286	5695.01
934.594	5709.02
934.902	5637.61
935.21	5665.4
935.519	5588.79
935.827	5639.87
936.135	5570.72
936.443	5525.07
936.751	5520.32
937.059	5518.97
937.367	5459.76
937.674	5531.85
937.982	5426.54
938.29	5418.18
938.597	5421.34
938.905	5374.34
939.213	5321.68
939.52	5315.13
939.827	5282.81
940.135	5266.54
940.442	5236.03
940.749	5249.59
941.056	5237.39
941.363	5190.16
941.67	5139.09
941.977	5142.48
942.284	5102.93
942.591	5099.32
942.898	5093.21
943.205	5076.26
943.511	5024.51
943.818	5015.93
944.125	5044.85
944.431	4964.4
944.738	4942.26
945.044	4943.84
945.35	4889.38
945.657	4931.86
945.963	4861.81
946.269	4821.36
946.575	4897.96
946.881	4812.32
947.187	4760.79
947.493	4775.03
947.799	4712.66
948.105	4755.6
948.41	4694.13
948.716	4664.98
949.022	4689.38
949.327	4701.59
949.633	4594.92
949.938	4664.98
950.244	4596.05
950.549	4567.35
950.854	4546.34
951.16	4585.43
951.465	4500.46
951.77	4517.86
952.075	4489.16
952.38	4496.85
952.685	4450.97
952.99	4408.03
953.294	4428.6
953.599	4355.61
953.904	4363.52
954.209	4368.03
954.513	4325.32
954.818	4334.36
955.122	4287.59
955.426	4265.66
955.731	4300.92
956.035	4272.44
956.339	4244.2
956.643	4212.11
956.948	4195.16
957.252	4194.93
957.556	4191.54
957.86	4116.52
958.163	4134.82
958.467	4080.13
958.771	4110.41
959.075	4118.1
959.378	4031.77
959.682	4033.35
959.985	4031.77
960.289	3973.92
960.592	3994.94
960.896	3951.32
961.199	3950.87
961.502	3932.57
961.805	3910.65
962.108	3893.02
962.411	3921.04
962.714	3870.19
963.017	3885.11
963.32	3811.89
963.623	3860.93
963.926	3799.46
964.228	3761.72
964.531	3785
964.833	3736.64
965.136	3721.95
965.438	3736.87
965.741	3665.68
966.043	3710.43
966.345	3654.16
966.648	3633.59
966.95	3650.31
967.252	3610.54
967.554	3636.3
967.856	3557.21
968.158	3551.33
968.46	3555.85
968.761	3588.39
969.063	3500.49
969.365	3554.27
969.666	3534.38
969.968	3449.41
970.269	3440.83
970.571	3456.65
970.872	3407.61
971.174	3367.84
971.475	3387.27
971.776	3385.46
972.077	3359.93
972.378	3386.82
972.679	3370.77
972.98	3358.34
973.281	3337.55
973.582	3284.22
973.883	3316.99
974.183	3239.03
974.484	3264.79
974.785	3223.66
975.085	3274.73
975.386	3205.58
975.686	3205.35
975.986	3180.5
976.287	3161.96
976.587	3142.76
976.887	3158.12
977.187	3154.96
977.487	3124.9
977.787	3084.23
978.087	3083.77
978.387	3076.32
978.687	3069.31
978.987	3059.14
979.286	3044
979.586	3015.98
979.885	3012.14
980.185	2992.48
980.484	2982.99
980.784	2995.87
981.083	2946.15
981.382	2956.77
981.682	2945.25
981.981	2899.6
982.28	2896.21
982.579	2867.28
982.878	2881.75
983.177	2888.53
983.475	2861.41
983.774	2829.32
984.073	2799.04
984.372	2803.56
984.67	2819.83
984.969	2772.37
985.267	2794.74
985.566	2786.83
985.864	2773.73
986.162	2726.95
986.461	2690.34
986.759	2713.84
987.057	2691.24
987.355	2674.97
987.653	2665.71
987.951	2685.82
988.249	2631.13
988.547	2697.12
988.844	2659.15
989.142	2627.29
989.44	2600.17
989.737	2597.23
990.035	2589.55
990.332	2567.86
990.63	2581.42
990.927	2534.41
991.224	2530.34
991.521	2512.26
991.819	2511.59
992.116	2491.93
992.413	2471.14
992.71	2438.14
993.006	2461.87
993.303	2434.3
993.6	2453.51
993.897	2444.02
994.193	2430.23
994.49	2405.6
994.787	2409.22
995.083	2362.44
995.379	2360.86
995.676	2378.71
995.972	2321.76
996.268	2338.71
996.565	2335.32
996.861	2324.92
997.157	2317.02
997.453	2303
997.749	2274.53
998.044	2269.11
998.34	2245.38
998.636	2235.21
998.932	2247.41
999.227	2205.15
999.523	2198.37
999.818	2220.07
1000.114	2197.7
1000.409	2154.53
1000.704	2161.99
1001	2142.1
1001.295	2168.77
1001.59	2129.9
1001.885	2118.15
1002.18	2098.94
1002.475	2103.69
1002.77	2110.92
1003.065	2045.38
1003.359	2067.53
1003.654	2067.08
1003.949	2013.52
1004.243	2027.98
1004.538	2019.62
1004.832	1988.21
1005.127	1973.97
1005.421	2001.54
1005.715	1972.62
1006.009	1961.09
1006.304	1939.4
1006.598	1925.84
1006.892	1921.55
1007.186	1898.27
1007.48	1898.95
1007.773	1837.25
1008.067	1907.99
1008.361	1860.98
1008.655	1835.9
1008.948	1865.05
1009.242	1825.73
1009.535	1810.14
1009.829	1828.89
1010.122	1804.94
1010.415	1788.44
1010.708	1775.33
1011.001	1768.33
1011.295	1750.7
1011.588	1745.05
1011.881	1734.88
1012.173	1726.52
1012.466	1717.48
1012.759	1731.04
1013.052	1686.3
1013.344	1715.68
1013.637	1675.22
1013.93	1674.09
1014.222	1657.82
1014.514	1662.8
1014.807	1663.93
1015.099	1645.85
1015.391	1638.16
1015.683	1612.4
1015.976	1614.21
1016.268	1617.37
1016.56	1590.71
1016.851	1580.31
1017.143	1577.37
1017.435	1559.52
1017.727	1560.2
1018.018	1555.45
1018.31	1512.06
1018.602	1538.05
1018.893	1531.95
1019.185	1516.36
1019.476	1471.84
1019.767	1487.66
1020.058	1487.88
1020.35	1475.91
1020.641	1448.79
1020.932	1426.87
1021.223	1447.21
1021.514	1429.58
1021.804	1424.61
1022.095	1415.34
1022.386	1378.28
1022.677	1399.53
1022.967	1376.02
1023.258	1364.72
1023.548	1349.58
1023.839	1355.68
1024.129	1349.58
1024.419	1351.39
1024.709	1338.06
1025	1318.62
1025.29	1319.08
1025.58	1312.52
1025.87	1266.87
1026.16	1281.11
1026.449	1277.95
1026.739	1271.17
1027.029	1267.55
1027.319	1265.29
1027.608	1273.2
1027.898	1263.71
1028.187	1223.71
1028.477	1229.36
1028.766	1223.03
1029.055	1221.22
1029.344	1230.04
1029.634	1191.62
1029.923	1205.41
1030.212	1183.49
1030.501	1183.71
1030.79	1150.49
1031.078	1154.11
1031.367	1128.57
1031.656	1135.8
1031.945	1124.5
1032.233	1124.96
1032.522	1103.49
1032.81	1101.91
1033.099	1109.14
1033.387	1089.03
1033.675	1100.78
1033.963	1101
1034.251	1102.81
1034.54	1069.14
1034.828	1032.53
1035.116	1077.27
1035.403	1033.66
1035.691	1041.34
1035.979	1044.05
1036.267	1018.97
1036.554	1045.64
1036.842	1014.22
1037.129	1006.09
1037.417	1014
1037.704	995.47
1037.992	993.43
1038.279	972.19
1038.566	979.65
1038.853	979.65
1039.14	979.65
