Data from hue_32_FLMS001491_00023.txt Node
Date: Tue Feb 07 17:23:06 GMT 2017
User: dcchb
Spectrometer: FLMS00149
Trigger mode: 0
Integration Time (sec): 2.000000E-2
Scans to average: 10
Electric dark correction enabled: true
Nonlinearity correction enabled: false
Boxcar width: 0
XAxis mode: Wavelengths
Number of Pixels in Spectrum: 2048
>>>>>Begin Spectral Data<<<<<
341.393	-18.46
341.776	-18.46
342.16	-18.46
342.543	-60.27
342.927	-59.81
343.31	-67.72
343.693	-72.24
344.077	-69.08
344.46	-57.78
344.843	-48.29
345.226	-30.44
345.61	-30.21
345.993	-19.36
346.376	-23.43
346.759	24.93
347.142	21.09
347.525	41.2
347.908	53.4
348.291	89.56
348.674	100.63
349.057	87.75
349.44	139.5
349.823	147.64
350.206	158.26
350.588	190.12
350.971	206.84
351.354	225.15
351.737	252.72
352.119	273.28
352.502	265.6
352.884	295.2
353.267	280.29
353.65	304.92
354.032	296.11
354.414	306.05
354.797	334.75
355.179	341.76
355.562	355.54
355.944	312.38
356.326	317.8
356.709	337.91
357.091	353.28
357.473	325.03
357.855	341.98
358.238	359.38
358.62	334.98
359.002	351.25
359.384	344.47
359.766	332.72
360.148	323.9
360.53	352.15
360.912	342.43
361.294	339.5
361.676	330.23
362.057	319.61
362.439	317.35
362.821	355.32
363.203	325.94
363.584	324.13
363.966	314.86
364.348	322.55
364.729	339.04
365.111	320.51
365.493	325.26
365.874	333.17
366.256	310.57
366.637	332.94
367.019	330.46
367.4	327.97
367.781	320.06
368.163	321.87
368.544	313.96
368.925	315.54
369.306	312.15
369.688	332.49
370.069	325.71
370.45	301.76
370.831	321.87
371.212	316.22
371.593	323.68
371.974	306.5
372.355	322.1
372.736	314.41
373.117	311.02
373.498	316.67
373.879	322.32
374.26	333.17
374.641	332.72
375.021	311.47
375.402	322.77
375.783	323.9
376.163	342.89
376.544	321.42
376.925	343.56
377.305	332.27
377.686	333.4
378.066	317.8
378.447	314.41
378.827	342.21
379.208	345.15
379.588	348.54
379.968	348.31
380.349	334.98
380.729	336.33
381.109	355.99
381.489	343.56
381.87	341.3
382.25	330.68
382.63	343.56
383.01	339.72
383.39	344.92
383.77	339.04
384.15	340.17
384.53	372.72
384.91	345.82
385.29	338.37
385.67	361.42
386.049	338.82
386.429	368.42
386.809	365.03
387.189	344.24
387.568	369.1
387.948	365.03
388.328	372.26
388.707	370.46
389.087	352.15
389.466	366.61
389.846	371.59
390.225	374.75
390.605	351.25
390.984	383.79
391.363	381.3
391.743	364.13
392.122	362.09
392.501	387.86
392.881	394.86
393.26	337.24
393.639	376.11
394.018	364.81
394.397	374.98
394.776	395.31
395.155	382.43
395.534	371.59
395.913	407.52
396.292	369.78
396.671	380.63
397.05	393.28
397.429	387.63
397.808	388.08
398.186	388.08
398.565	401.42
398.944	391.92
399.323	404.58
399.701	392.6
400.08	404.81
400.458	431.25
400.837	410.23
401.215	418.59
401.594	423.56
401.972	435.77
402.351	403
402.729	422.88
403.107	395.77
403.486	427.63
403.864	412.04
404.242	422.21
404.62	417.69
404.999	419.04
405.377	444.58
405.755	443.22
406.133	427.86
406.511	447.29
406.889	419.27
407.267	445.93
407.645	453.62
408.023	456.33
408.401	447.29
408.779	452.94
409.156	473.73
409.534	451.81
409.912	455.2
410.29	447.74
410.667	459.95
411.045	473.96
411.422	488.87
411.8	474.86
412.178	481.87
412.555	469.89
412.933	494.07
413.31	479.83
413.687	515.99
414.065	504.24
414.442	509.21
414.819	501.75
415.197	485.03
415.574	497.23
415.951	483.22
416.328	499.49
416.705	503.11
417.082	512.83
417.46	519.6
417.837	513.05
418.214	513.5
418.591	517.8
418.967	522.54
419.344	515.54
419.721	522.54
420.098	554.18
420.475	535.42
420.852	544.69
421.228	523.67
421.605	568.42
421.982	564.58
422.358	560.73
422.735	570.9
423.111	572.48
423.488	572.94
423.864	594.63
424.241	570
424.617	587.63
424.994	574.97
425.37	589.66
425.746	597.34
426.123	592.15
426.499	577
426.875	587.17
427.251	604.35
427.627	614.07
428.003	635.31
428.379	624.23
428.756	606.61
429.132	623.78
429.507	660.62
429.883	670.79
430.259	661.3
430.635	662.2
431.011	648.87
431.387	662.88
431.763	664.46
432.138	674.63
432.514	661.97
432.89	669.21
433.265	679.6
433.641	701.3
434.016	695.87
434.392	685.25
434.767	725.48
435.143	685.48
435.518	715.08
435.894	721.86
436.269	734.74
436.644	762.54
437.02	744.68
437.395	727.06
437.77	755.53
438.145	765.7
438.52	756.21
438.895	765.02
439.271	765.02
439.646	772.25
440.021	788.3
440.395	786.04
440.77	809.99
441.145	787.17
441.52	767.51
441.895	777.9
442.27	792.37
442.645	811.57
443.019	812.93
443.394	826.26
443.769	806.83
444.143	827.17
444.518	869.65
444.892	837.11
445.267	834.17
445.641	853.38
446.016	845.92
446.39	877.11
446.764	846.83
447.139	842.08
447.513	884.34
447.887	857.68
448.262	870.33
448.636	882.53
449.01	899.26
449.384	883.44
449.758	876.88
450.132	900.39
450.506	920.95
450.88	909.2
451.254	932.25
451.628	941.06
452.002	899.71
452.376	926.37
452.75	965.02
453.123	977.67
453.497	977.45
453.871	981.29
454.244	1002.3
454.618	1020.16
454.992	997.33
455.365	1008.63
455.739	1007.95
456.112	1023.32
456.486	1051.57
456.859	1068.07
457.232	1083.43
457.606	1074.39
457.979	1082.3
458.352	1097.67
458.725	1102.87
459.099	1121.62
459.472	1148.74
459.845	1130.66
460.218	1161.17
460.591	1161.62
460.964	1172.47
461.337	1170.89
461.71	1181.06
462.083	1225.8
462.456	1227.83
462.829	1222.86
463.201	1249.53
463.574	1232.58
463.947	1284.1
464.32	1303.31
464.692	1274.16
465.065	1341.05
465.438	1329.75
465.81	1358.45
466.183	1368.4
466.555	1366.59
466.928	1397.55
467.3	1427.38
467.672	1435.06
468.045	1470.09
468.417	1487.26
468.789	1506.25
469.161	1519.35
469.534	1543.31
469.906	1581.05
470.278	1598.67
470.65	1600.03
471.022	1662.63
471.394	1678.9
471.766	1696.07
472.138	1682.96
472.51	1728.39
472.882	1782.17
473.253	1814.26
473.625	1800.93
473.997	1856.52
474.369	1871.89
474.74	1928.38
475.112	1964.54
475.484	2001.15
475.855	2038.21
476.227	2075.27
476.598	2129.51
476.97	2170.18
477.341	2212.44
477.713	2222.84
478.084	2290.86
478.455	2331.08
478.827	2390.74
479.198	2448.14
479.569	2484.3
479.94	2549.38
480.311	2592.54
480.682	2703.05
481.053	2735.14
481.424	2823.27
481.795	2857.17
482.166	2915.47
482.537	2969.26
482.908	3069.37
483.279	3112.31
483.65	3179.65
484.021	3251.51
484.391	3358.17
484.762	3381.22
485.133	3426.87
485.503	3495.35
485.874	3630.48
486.244	3693.98
486.615	3769.24
486.985	3874.55
487.356	3972.85
487.726	4013.07
488.097	4126.52
488.467	4152.96
488.837	4233.63
489.207	4362.44
489.578	4412.38
489.948	4541.87
490.318	4625.03
490.688	4645.82
491.058	4757.69
491.428	4858.47
491.798	4990.9
492.168	5084.23
492.538	5120.39
492.908	5219.82
493.278	5234.74
493.648	5318.12
494.017	5477.67
494.387	5548.85
494.757	5580.04
495.126	5714.27
495.496	5721.05
495.866	5830.65
496.235	5951.33
496.605	5984.32
496.974	6071.78
497.344	6105.22
497.713	6183.86
498.082	6309.96
498.452	6319.9
498.821	6362.62
499.19	6443.52
499.559	6530.29
499.928	6628.82
500.298	6704.75
500.667	6732.32
501.036	6776.62
501.405	6836.5
501.774	6871.98
502.143	6947.46
502.512	6996.5
502.88	7029.26
503.249	7074.01
503.618	7184.97
503.987	7215.02
504.356	7235.36
504.724	7407.56
505.093	7385.87
505.462	7459.08
505.83	7522.36
506.199	7590.38
506.567	7675.35
506.936	7713.54
507.304	7817.04
507.672	7865.85
508.041	7887.77
508.409	7946.08
508.777	8043.25
509.145	8035.11
509.514	8112.17
509.882	8117.82
510.25	8186.07
510.618	8241.21
510.986	8298.61
511.354	8423.35
511.722	8410.24
512.09	8558.94
512.458	8558.04
512.826	8634.19
513.193	8661.09
513.561	8701.76
513.929	8748.32
514.297	8804.58
514.664	8873.28
515.032	8935.43
515.4	8927.07
515.767	9073.05
516.135	9060.85
516.502	9021.53
516.869	9148.98
517.237	9178.59
517.604	9146.27
517.972	9309.2
518.339	9353.95
518.706	9317.11
519.073	9357.11
519.44	9441.18
519.808	9526.6
520.175	9524.79
520.542	9572.25
520.909	9675.52
521.276	9704.22
521.643	9769.76
522.009	9829.64
522.376	9931.33
522.743	9916.42
523.11	10053.14
523.477	10133.14
523.843	10192.34
524.21	10280.7
524.577	10303.98
524.943	10356.86
525.31	10349.4
525.676	10473.47
526.043	10532.45
526.409	10541.26
526.776	10693.12
527.142	10686.8
527.508	10805.66
527.874	10866
528.241	10882.04
528.607	10903.74
528.973	11041.81
529.339	11012.66
529.705	11154.13
530.071	11163.17
530.437	11265.54
530.803	11327.46
531.169	11357.74
531.535	11362.71
531.901	11463.5
532.267	11445.87
532.632	11552.31
532.998	11543.27
533.364	11601.57
533.73	11638.18
534.095	11758.63
534.461	11848.12
534.826	11914.79
535.192	11904.16
535.557	12007.44
535.923	12020.32
536.288	12044.05
536.653	12167.89
537.019	12179.64
537.384	12190.48
537.749	12311.16
538.114	12280.2
538.479	12291.95
538.845	12406.3
539.21	12383.7
539.575	12511.38
539.94	12485.17
540.305	12566.07
540.67	12586.63
541.034	12609.23
541.399	12699.62
541.764	12756.8
542.129	12763.35
542.494	12790.92
542.858	12937.58
543.223	12861.2
543.587	13041.76
543.952	12992.95
544.316	13061.65
544.681	13117.47
545.045	13123.57
545.41	13151.36
545.774	13346.16
546.138	13321.98
546.503	13367.63
546.867	13399.72
547.231	13550.45
547.595	13511.81
547.959	13601.29
548.324	13524.46
548.688	13645.59
549.052	13763.55
549.416	13738.69
549.779	13773.49
550.143	13772.82
550.507	13888.52
550.871	13904.34
551.235	14015.75
551.599	14037.22
551.962	14103.88
552.326	14099.36
552.689	14217.78
553.053	14202.18
553.417	14211.9
553.78	14345.46
554.143	14383.42
554.507	14458.22
554.87	14403.08
555.234	14582.51
555.597	14421.39
555.96	14606.24
556.323	14642.62
556.686	14668.61
557.05	14677.65
557.413	14779.34
557.776	14825.9
558.139	14936.85
558.502	14945.44
558.865	14937.3
559.228	15033.12
559.59	15003.97
559.953	15109.5
560.316	15228.14
560.679	15136.17
561.041	15321.02
561.404	15381.36
561.767	15451.19
562.129	15420.68
562.492	15654.35
562.854	15618.42
563.217	15586.78
563.579	15608.02
563.941	15755.81
564.304	15765.98
564.666	15835.59
565.028	15955.81
565.39	15943.38
565.753	16071.96
566.115	16111.96
566.477	16186.54
566.839	16199.19
567.201	16406.87
567.563	16346.53
567.925	16499.07
568.287	16422.01
568.648	16492.52
569.01	16612.97
569.372	16779.29
569.734	16668.11
570.095	16778.61
570.457	16878.27
570.819	16967.31
571.18	16981.55
571.542	17158.26
571.903	17061.77
572.265	17268.54
572.626	17227.41
572.987	17258.6
573.349	17383.34
573.71	17563.9
574.071	17615.2
574.432	17693.16
574.794	17772.48
575.155	17871.92
575.516	17942.2
575.877	18003.89
576.238	18086.6
576.599	18271.68
576.96	18385.58
577.32	18449.53
577.681	18643.42
578.042	18719.35
578.403	18846.58
578.763	18999.35
579.124	19068.95
579.485	19248.6
579.845	19413.35
580.206	19489.73
580.566	19571.99
580.927	19847.46
581.287	20031.63
581.648	20015.59
582.008	20339.87
582.368	20371.29
582.728	20704.38
583.089	20700.09
583.449	21016.92
583.809	21245.16
584.169	21370.81
584.529	21584.14
584.889	21954.52
585.249	21905.03
585.609	22164.23
585.969	22552.47
586.329	22623.43
586.688	22929.41
587.048	23085.34
587.408	23302.28
587.768	23534.82
588.127	23744.53
588.487	23940.91
588.846	24347.68
589.206	24588.35
589.565	24720.55
589.925	24989.02
590.284	25349.69
590.643	25529.34
591.003	25856.57
591.362	26144.24
591.721	26371.13
592.08	26631.69
592.44	26886.14
592.799	27226.7
593.158	27330.88
593.517	27768.61
593.876	27993.46
594.235	28211.08
594.593	28439.1
594.952	28739.65
595.311	28957.95
595.67	29249.25
596.029	29664.6
596.387	29782.34
596.746	30215.55
597.104	30312.95
597.463	30441.76
597.822	30801.97
598.18	30979.82
598.538	31295.74
598.897	31702.97
599.255	31577.55
599.613	32350.63
599.972	32323.29
600.33	32631.75
600.688	32735.93
601.046	33154.45
601.404	33403.71
601.762	33676.7
602.12	33840.31
602.478	34047.31
602.836	34203.92
603.194	34342.9
603.552	34535.89
603.91	34578.37
604.268	35049.09
604.625	35118.7
604.983	35382.42
605.341	35472.13
605.698	35830.77
606.056	36092.91
606.413	36151.21
606.771	36400.7
607.128	36504.2
607.485	36654.02
607.843	36879.78
608.2	37098.08
608.557	37423.04
608.914	37510.5
609.272	37744.61
609.629	38071.16
609.986	38296.24
610.343	38266.64
610.7	38615.33
611.057	38748.88
611.414	38814.42
611.771	38925.83
612.127	39098.93
612.484	39242.2
612.841	39584.57
613.198	39556.54
613.554	39531.91
613.911	39777.1
614.267	39969.42
614.624	40125.57
614.98	40234.04
615.337	40511.32
615.693	40468.61
616.05	40448.72
616.406	40931.65
616.762	40770.3
617.118	41036.96
617.475	40929.16
617.831	41171.64
618.187	41293.45
618.543	41348.14
618.899	41765.07
619.255	41736.83
619.611	41703.83
619.967	42034.45
620.323	42161.9
620.678	41865.86
621.034	41998.29
621.39	42226.3
621.746	42203.25
622.101	42650.93
622.457	42515.79
622.812	42626.29
623.168	42791.26
623.523	42749.23
623.879	42994.65
624.234	42843.24
624.589	42960.97
624.945	43004.82
625.3	43195.55
625.655	43153.74
626.01	43210.91
626.365	43194.42
626.72	43305.6
627.075	43300.18
627.43	43240.06
627.785	43233.74
628.14	43512.37
628.495	43491.13
628.85	43437.12
629.205	43363.68
629.559	43549.43
629.914	43532.49
630.269	43645.25
630.623	43636.44
630.978	43416.1
631.332	43775.87
631.687	43769.32
632.041	43679.37
632.396	43751.91
632.75	43558.93
633.104	43693.61
633.459	43416.1
633.813	43449.78
634.167	43646.15
634.521	43566.38
634.875	43674.63
635.229	43581.3
635.583	43474.18
635.937	43446.39
636.291	43505.59
636.645	43673.5
636.999	43363.45
637.352	43744.01
637.706	43479.15
638.06	43614.74
638.413	43530.9
638.767	43275.99
639.121	43443.9
639.474	43304.69
639.828	43378.59
640.181	43433.5
640.534	43289.1
640.888	43243.91
641.241	43170.01
641.594	43398.48
641.947	43338.59
642.301	43170.23
642.654	43250.68
643.007	43205.94
643.36	43215.21
643.713	43062.89
644.066	43333.39
644.419	43113.51
644.771	42812.28
645.124	42576.35
645.477	42603.7
645.83	42289.13
646.182	42158.74
646.535	42165.06
646.888	42266.98
647.24	41890.72
647.593	42215.46
647.945	41970.94
648.298	41880.78
648.65	41727.34
649.002	41837.16
649.355	41943.83
649.707	41849.14
650.059	42119.87
650.411	42603.7
650.763	42497.26
651.115	42897.25
651.467	42808.66
651.819	42805.27
652.171	42718.95
652.523	42666.75
652.875	42705.84
653.227	42511.5
653.578	42825.84
653.93	42771.38
654.282	42400.54
654.633	42401.22
654.985	42605.96
655.337	42517.14
655.688	42546.75
656.039	42682.79
656.391	42376.81
656.742	42413.87
657.094	42579.52
657.445	42612.96
657.796	42426.75
658.147	42549.01
658.498	42388.11
658.849	42445.51
659.2	42511.27
659.551	42348.56
659.902	42353.53
660.253	42276.93
660.604	42501.55
660.955	42232.63
661.306	42291.39
661.656	42290.03
662.007	42392.85
662.358	42343.14
662.708	42397.6
663.059	42282.35
663.409	42135.46
663.76	42317.15
664.11	42256.81
664.461	42264.72
664.811	42341.78
665.161	42296.13
665.511	42159.19
665.862	42170.49
666.212	42372.06
666.562	42349.47
666.912	42162.8
667.262	42116.7
667.612	42223.37
667.962	42226.08
668.312	42116.25
668.662	42320.09
669.011	42183.82
669.361	42202.8
669.711	42165.97
670.06	42139.75
670.41	42172.07
670.76	42088.68
671.109	42184.95
671.459	42118.74
671.808	42061.11
672.157	42137.27
672.507	41809.37
672.856	41860.21
673.205	42005.07
673.554	42055.01
673.904	41863.38
674.253	42003.94
674.602	42123.26
674.951	41360.34
675.3	41285.76
675.649	41817.28
675.998	41810.95
676.346	41780.21
676.695	41982.92
677.044	41526.89
677.393	41674
677.741	41877.16
678.09	41659.99
678.438	41561.46
678.787	41631.97
679.135	41758.97
679.484	41338.19
679.832	41615.47
680.181	41307.69
680.529	41519.2
680.877	41287.35
681.225	41304.07
681.573	41566.44
681.922	41345.2
682.27	41015.04
682.618	41154.69
682.966	41046.22
683.314	41042.61
683.661	40962.61
684.009	40894.36
684.357	40818.21
684.705	40697.98
685.053	40852.78
685.4	40714.03
685.748	40587.7
686.095	40618.21
686.443	40542.51
686.79	40348.84
687.138	40463.64
687.485	40406.92
687.832	40228.84
688.18	40237.88
688.527	39919.02
688.874	40073.59
689.221	40027.72
689.568	39878.8
689.915	39857.78
690.262	39799.7
690.609	39809.42
690.956	39602.65
691.303	39453.5
691.65	39357.68
691.997	39344.8
692.344	39126.05
692.69	39061.19
693.037	39109.78
693.383	38748.88
693.73	38988.42
694.077	38725.15
694.423	38800.63
694.769	38724.93
695.116	38630.02
695.462	38587.76
695.808	38489.68
696.155	38331.49
696.501	38137.15
696.847	38159.07
697.193	37939.41
697.539	38207.2
697.885	37860.09
698.231	37767.89
698.577	37785.97
698.923	37665.07
699.269	37451.97
699.614	37418.52
699.96	37383.72
700.306	37254.23
700.651	37254.68
700.997	36965.65
701.342	36944.18
701.688	36766.11
702.033	36858.08
702.379	36699.67
702.724	36596.85
703.069	36715.04
703.415	36335.61
703.76	36198.67
704.105	36372
704.45	36146.24
704.795	36098.33
705.14	35962.97
705.485	35854.72
705.83	35752.58
706.175	35890.2
706.52	35727.72
706.865	35576.54
707.209	35481.62
707.554	35383.77
707.899	35475.07
708.243	35276.21
708.588	35179.26
708.932	34969.09
709.277	35060.39
709.621	35194.17
709.966	34745.82
710.31	34907.4
710.654	34603.68
710.998	34645.71
711.342	34753.51
711.687	34643.23
712.031	34433.52
712.375	34307.42
712.719	34335.89
713.063	34274.42
713.407	34380.64
713.75	34112.17
714.094	34198.49
714.438	33984.04
714.782	34085.5
715.125	33903.36
715.469	33999.4
715.812	33764.83
716.156	33696.59
716.499	33683.03
716.843	33571.84
717.186	33444.16
717.53	33501.11
717.873	33513.54
718.216	33535.69
718.559	33305.64
718.902	33019.09
719.246	33184.96
719.589	33008.24
719.932	32940.67
720.275	32867.91
720.617	32957.4
720.96	32902.71
721.303	32924.85
721.646	32826.33
721.989	32602.38
722.331	32684.86
722.674	32697.06
723.016	32701.58
723.359	32610.06
723.701	32601.02
724.044	32347.24
724.386	32289.84
724.729	32434.25
725.071	32270.63
725.413	32348.6
725.755	32221.37
726.097	32192.9
726.439	31868.61
726.782	31970.76
727.124	32007.82
727.465	31877.42
727.807	31827.26
728.149	31877.42
728.491	31766.02
728.833	31838.33
729.175	31750.2
729.516	31662.74
729.858	31705.9
730.199	31575.74
730.541	31478.34
730.882	31397.44
731.224	31583.65
731.565	31246.71
731.906	31389.3
732.248	31398.57
732.589	31181.4
732.93	31145.01
733.271	31169.87
733.612	31139.59
733.953	31112.92
734.294	30997.45
734.635	30981.63
734.976	31067.5
735.317	30852.37
735.658	30801.29
735.999	30879.03
736.339	30771.92
736.68	30881.74
737.021	30628.19
737.361	30593.62
737.702	30744.57
738.042	30593.62
738.383	30479.95
738.723	30580.28
739.063	30472.72
739.404	30567.4
739.744	30462.77
740.084	30327.63
740.424	30434.75
740.764	30344.13
741.104	30365.6
741.444	30132.61
741.784	30119.28
742.124	30197.02
742.464	30144.59
742.804	30033.63
743.143	29864.6
743.483	29976.23
743.823	29776.46
744.162	29892.62
744.502	30052.61
744.841	29638.39
745.181	29819.17
745.52	29701.66
745.86	29606.3
746.199	29645.17
746.538	29641.55
746.877	29683.58
747.216	29640.87
747.556	29486.75
747.895	29605.39
748.234	29246.99
748.573	29270.26
748.911	29391.61
749.25	29272.3
749.589	29144.16
749.928	29150.72
750.267	29250.6
750.605	29141.23
750.944	29113.2
751.283	28863.49
751.621	29062.81
751.96	28825.08
752.298	28774.23
752.636	28974.45
752.975	28662.14
753.313	28516.83
753.651	28642.03
753.989	28474.35
754.327	28459.44
754.666	28376.95
755.004	28521.13
755.342	28585.08
755.679	28410.85
756.017	28162.04
756.355	28332.43
756.693	28023.29
757.031	28138.99
757.368	27970.86
757.706	28038.2
758.044	27887.47
758.381	27871.43
758.719	27756.4
759.056	27750.53
759.394	27789.85
759.731	27535.84
760.068	27567.03
760.405	27416.07
760.743	27301.27
761.08	27435.96
761.417	27301.27
761.754	27081.84
762.091	27153.48
762.428	27086.14
762.765	26896.99
763.102	26947.16
763.438	26749.42
763.775	26791.23
764.112	26802.3
764.449	26628.97
764.785	26574.74
765.122	26376.33
765.458	26248.65
765.795	26292.71
766.131	26273.96
766.467	26328.87
766.804	26033.51
767.14	25961.42
767.476	25954.19
767.812	25915.32
768.148	25784.25
768.485	25645.95
768.821	25556.46
769.157	25478.95
769.492	25488.21
769.828	25330.48
770.164	25108.56
770.5	25130.03
770.836	25137.49
771.171	24870.83
771.507	24942.92
771.842	24638.74
772.178	24633.55
772.513	24685.3
772.849	24544.28
773.184	24497.05
773.519	24427.22
773.855	24394.23
774.19	24220.68
774.525	24105.88
774.86	24173.45
775.195	24053
775.53	23997.63
775.865	23769.84
776.2	23650.52
776.535	23636.74
776.87	23488.72
777.205	23447.14
777.539	23431.54
777.874	23396.29
778.209	23232.45
778.543	23219.35
778.878	22972.57
779.212	23017.09
779.547	22766.93
779.881	22897.1
780.215	22732.13
780.55	22821.62
780.884	22627.27
781.218	22567.61
781.552	22536.2
781.886	22434.28
782.22	22299.82
782.554	22263.44
782.888	22021.86
783.222	22025.71
783.556	21827.97
783.889	21766.96
784.223	21760.4
784.557	21652.83
784.89	21728.76
785.224	21513.4
785.557	21409.68
785.891	21357.48
786.224	21360.64
786.558	21353.41
786.891	21103.24
787.224	21025.96
787.557	20976.92
787.891	20968.56
788.224	20961.78
788.557	20880.88
788.89	20891.05
789.223	20722.69
789.556	20505.52
789.888	20560.66
790.221	20412.42
790.554	20232.53
790.887	20275.47
791.219	20239.99
791.552	20169.03
791.884	19994.8
792.217	19952.31
792.549	19998.41
792.882	19871.64
793.214	19728.14
793.546	19792.09
793.879	19617.86
794.211	19454.25
794.543	19745.31
794.875	19547.13
795.207	19494.25
795.539	19413.8
795.871	19316.4
796.203	19214.71
796.535	19046.8
796.867	19157.76
797.198	19040.47
797.53	19052.45
797.862	18891.78
798.193	18932.91
798.525	18787.15
798.856	18854.49
799.188	18665.79
799.519	18552.13
799.85	18473.48
800.182	18462.64
800.513	18473.26
800.844	18347.38
801.175	18393.03
801.506	18409.08
801.837	18170.21
802.168	18277.78
802.499	18151.23
802.83	18042.76
803.161	17942.88
803.491	17952.37
803.822	18037.56
804.153	17970.67
804.483	17838.02
804.814	17729.1
805.145	17730.9
805.475	17637.12
805.805	17584.69
806.136	17598.93
806.466	17502.89
806.796	17542.66
807.126	17420.18
807.457	17306.06
807.787	17327.3
808.117	17221.31
808.447	17145.38
808.777	17166.62
809.107	17083.01
809.436	17064.48
809.766	16964.37
810.096	16979.51
810.426	16901.77
810.755	16965.5
811.085	16869.46
811.414	16844.15
811.744	16641.89
812.073	16634.44
812.403	16639.41
812.732	16500.2
813.061	16465.85
813.39	16460.2
813.719	16454.78
814.049	16485.96
814.378	16426.53
814.707	16313.09
815.036	16309.92
815.365	16237.84
815.693	16059.54
816.022	16064.96
816.351	16044.39
816.68	15991.97
817.008	16113.77
817.337	15857.28
817.665	15879.88
817.994	15981.8
818.322	15904.51
818.651	15749.94
818.979	15725.76
819.307	15789.94
819.636	15635.82
819.964	15661.81
820.292	15696.38
820.62	15615.71
820.948	15587.68
821.276	15609.83
821.604	15607.57
821.932	15610.73
822.259	15616.61
822.587	15588.14
822.915	15551.3
823.243	15623.61
823.57	15513.79
823.898	15487.35
824.225	15375.49
824.553	15449.61
824.88	15495.26
825.207	15558.53
825.535	15456.16
825.862	15537.06
826.189	15460.23
826.516	15501.81
826.843	15564.63
827.17	15549.27
827.497	15529.61
827.824	15560.11
828.151	15498.87
828.478	15455.71
828.805	15549.04
829.131	15497.97
829.458	15470.85
829.785	15428.82
830.111	15478.76
830.438	15483.73
830.764	15403.28
831.09	15463.39
831.417	15380.46
831.743	15517.4
832.069	15364.86
832.395	15397.18
832.722	15387.46
833.048	15330.51
833.374	15388.82
833.7	15325.77
834.026	15342.49
834.351	15312.21
834.677	15424.07
835.003	15345.2
835.329	15326.9
835.654	15290.74
835.98	15188.15
836.306	15323.96
836.631	15155.15
836.956	15213.68
837.282	15253.23
837.607	15134.81
837.932	15081.93
838.258	15163.06
838.583	15095.04
838.908	15006.46
839.233	14989.96
839.558	14920.81
839.883	14898.44
840.208	14872
840.533	14814.82
840.858	14888.94
841.182	14830.19
841.507	14838.78
841.832	14728.5
842.156	14682.17
842.481	14714.03
842.805	14707.03
843.13	14594.72
843.454	14731.66
843.778	14619.8
844.103	14555.85
844.427	14503.42
844.751	14493.7
845.075	14485.79
845.399	14420.26
845.723	14352.24
846.047	14392.01
846.371	14212.58
846.695	14187.95
847.019	14075.18
847.343	14081.51
847.666	13979.14
847.99	13930.55
848.313	13869.76
848.637	13768.75
848.96	13831.57
849.284	13760.39
849.607	13627.73
849.931	13599.04
850.254	13481.52
850.577	13437.46
850.9	13371.02
851.223	13437.01
851.546	13355.2
851.869	13226.84
852.192	13284.24
852.515	13079.05
852.838	13067.75
853.161	13166.5
853.483	13006.06
853.806	12958.15
854.129	12965.61
854.451	12929.9
854.774	12853.52
855.096	12748.66
855.419	12828.43
855.741	12758.38
856.063	12684.93
856.385	12644.26
856.708	12581.89
857.03	12564.94
857.352	12514.54
857.674	12466.64
857.996	12443.36
858.318	12365.17
858.64	12376.24
858.961	12347.32
859.283	12315.68
859.605	12242.91
859.926	12326.53
860.248	12307.77
860.57	12182.12
860.891	12231.84
861.212	12086.76
861.534	12065.06
861.855	12089.02
862.176	12045.86
862.498	12122.92
862.819	11976.93
863.14	12016.93
863.461	11944.84
863.782	11946.65
864.103	11875.69
864.424	11925.63
864.745	11930.15
865.065	11810.38
865.386	11765.41
865.707	11771.06
866.027	11748.24
866.348	11745.52
866.668	11790.95
866.989	11711.85
867.309	11581.46
867.63	11717.5
867.95	11635.7
868.27	11482.71
868.59	11581.24
868.91	11523.84
869.23	11510.05
869.55	11565.42
869.87	11588.92
870.19	11475.02
870.51	11507.11
870.83	11516.6
871.15	11392.09
871.469	11470.73
871.789	11472.54
872.109	11446.32
872.428	11321.58
872.748	11346.66
873.067	11382.14
873.386	11375.59
873.706	11276.16
874.025	11219.89
874.344	11189.38
874.663	11234.8
874.982	11256.95
875.301	11225.76
875.62	11169.72
875.939	11144.86
876.258	11077.52
876.577	11071.87
876.896	11106.67
877.214	11040.91
877.533	11107.58
877.852	11048.37
878.17	11061.25
878.489	11024.64
878.807	10960.46
879.125	11011.31
879.444	10931.76
879.762	10922.5
880.08	10935.38
880.398	10885.89
880.716	10884.3
881.034	10876.62
881.352	10906
881.67	10771.09
881.988	10819.67
882.306	10786
882.624	10676.85
882.941	10676.4
883.259	10631.2
883.577	10579.91
883.894	10615.61
884.212	10621.71
884.529	10595.5
884.846	10587.81
885.164	10504.2
885.481	10475.95
885.798	10451.1
886.115	10380.59
886.432	10416.75
886.75	10403.41
887.067	10483.86
887.383	10394.6
887.7	10382.4
888.017	10308.95
888.334	10351.21
888.651	10226.02
888.967	10255.17
889.284	10240.48
889.6	10167.26
889.917	10072.57
890.233	10134.72
890.55	10109.41
890.866	10100.82
891.182	9996.19
891.498	10046.59
891.815	10052.01
892.131	9969.53
892.447	9962.97
892.763	9850.89
893.079	9837.33
893.395	9867.83
893.71	9885.69
894.026	9771.34
894.342	9741.28
894.657	9704.9
894.973	9673.49
895.289	9646.82
895.604	9685.24
895.92	9579.93
896.235	9513.04
896.55	9592.13
896.865	9524.79
897.181	9511.68
897.496	9425.36
897.811	9325.25
898.126	9353.27
898.441	9339.03
898.756	9314.63
899.071	9258.58
899.386	9224.23
899.7	9174.97
900.015	9181.07
900.33	9078.93
900.644	9046.61
900.959	9117.12
901.273	9085.48
901.588	8952.6
901.902	8960.51
902.216	8917.35
902.531	8826.28
902.845	8878.48
903.159	8843.23
903.473	8804.36
903.787	8801.2
904.101	8711.25
904.415	8756
904.729	8687.07
905.042	8651.82
905.356	8636.23
905.67	8618.38
905.984	8596.23
906.297	8532.73
906.611	8481.2
906.924	8504.03
907.237	8427.19
907.551	8379.96
907.864	8364.37
908.177	8311.04
908.491	8269.23
908.804	8284.37
909.117	8258.38
909.43	8148.33
909.743	8116.24
910.056	8115.56
910.368	8085.51
910.681	8108.78
910.994	8037.83
911.307	7967.32
911.619	7935.46
911.932	7965.28
912.244	7865.63
912.557	7892.29
912.869	7878.73
913.181	7802.35
913.494	7783.59
913.806	7765.29
914.118	7737.04
914.43	7641.9
914.742	7644.62
915.054	7615.24
915.366	7544.28
915.678	7575.01
915.99	7490.27
916.302	7440.55
916.613	7403.72
916.925	7450.72
917.236	7407.33
917.548	7303.16
917.859	7357.17
918.171	7315.81
918.482	7288.24
918.794	7247.11
919.105	7255.02
919.416	7220.45
919.727	7131.41
920.038	7151.52
920.349	7042.37
920.66	7081.92
920.971	7029.72
921.282	7053.22
921.593	7011.41
921.903	6884.18
922.214	6907.91
922.525	6888.93
922.835	6853.45
923.146	6771.64
923.456	6784.52
923.767	6772.1
924.077	6779.78
924.387	6740.46
924.697	6679.67
925.008	6643.29
925.318	6584.3
925.628	6594.02
925.938	6552.44
926.248	6501.14
926.558	6441.48
926.867	6455.95
927.177	6467.7
927.487	6399.22
927.796	6367.13
928.106	6355.61
928.416	6361.94
928.725	6320.81
929.034	6279.91
929.344	6283.3
929.653	6222.73
929.962	6196.29
930.271	6152.23
930.581	6160.36
930.89	6103.86
931.199	6132.56
931.508	6095.5
931.817	6098.44
932.125	6040.36
932.434	5955.39
932.743	5956.07
933.051	5916.75
933.36	5932.34
933.669	5869.97
933.977	5854.38
934.286	5807.15
934.594	5827.49
934.902	5770.77
935.21	5775.51
935.519	5739.81
935.827	5671.56
936.135	5659.58
936.443	5662.75
936.751	5608.06
937.059	5600.83
937.367	5589.53
937.674	5566.7
937.982	5599.7
938.29	5531.45
938.597	5486.03
938.905	5481.51
939.213	5433.6
939.52	5467.05
939.827	5386.37
940.135	5354.05
940.442	5321.74
940.749	5353.6
941.056	5328.74
941.363	5265.47
941.67	5243.32
941.977	5238.8
942.284	5200.39
942.591	5165.81
942.898	5134.17
943.205	5213.72
943.511	5126.94
943.818	5090.11
944.125	5056.66
944.431	5041.97
944.738	5094.4
945.044	5035.19
945.35	4975.98
945.657	4954.74
945.963	4941.64
946.269	4898.02
946.575	4924.46
946.881	4912.03
947.187	4854.41
947.493	4838.59
947.799	4778.7
948.105	4795.2
948.41	4800.4
948.716	4770.57
949.022	4755.2
949.327	4740.06
949.633	4674.52
949.938	4672.26
950.244	4637.24
950.549	4604.02
950.854	4610.8
951.16	4573.96
951.465	4596.79
951.77	4567.86
952.075	4554.98
952.38	4512.95
952.685	4489.44
952.99	4512.72
953.294	4532.83
953.599	4390.24
953.904	4452.16
954.209	4398.6
954.513	4392.27
954.818	4355.66
955.122	4359.05
955.426	4356.57
955.731	4291.71
956.035	4268.21
956.339	4269.56
956.643	4241.09
956.948	4213.97
957.252	4263.01
957.556	4173.52
957.86	4153.63
958.163	4137.36
958.467	4133.3
958.771	4149.11
959.075	4114.54
959.378	4071.15
959.682	4091.94
959.985	4052.85
960.289	4055.78
960.592	4049.68
960.896	4025.73
961.199	3946.41
961.502	4004.26
961.805	3945.5
962.108	3953.41
962.411	3962.23
962.714	3905.96
963.017	3866.41
963.32	3883.81
963.623	3859.86
963.926	3877.26
964.228	3855.11
964.531	3785.51
964.833	3799.29
965.136	3769.01
965.438	3716.13
965.741	3723.14
966.043	3720.42
966.345	3746.19
966.648	3695.11
966.95	3699.86
967.252	3628.22
967.554	3645.17
967.856	3595
968.158	3597.94
968.46	3602.91
968.761	3583.03
969.063	3560.65
969.365	3541.45
969.666	3582.12
969.968	3588
970.269	3489.7
970.571	3488.34
970.872	3459.19
971.174	3478.17
971.475	3459.64
971.776	3418.06
972.077	3413.99
972.378	3385.52
972.679	3394.56
972.98	3381.45
973.281	3353.2
973.582	3352.07
973.883	3324.28
974.183	3302.36
974.484	3320.21
974.785	3298.97
975.085	3277.05
975.386	3291.96
975.686	3220.55
975.986	3222.13
976.287	3195.92
976.587	3148.69
976.887	3159.54
977.187	3163.6
977.487	3164.73
977.787	3149.59
978.087	3113.44
978.387	3108.24
978.687	3116.82
978.987	3088.8
979.286	3056.26
979.586	3069.82
979.885	3070.5
980.185	3002.93
980.484	3014.91
980.784	2996.83
981.083	2966.55
981.382	2982.14
981.682	2970.39
981.981	2980.11
982.28	2972.87
982.579	2936.26
982.878	2914.57
983.177	2883.61
983.475	2918.64
983.774	2876.61
984.073	2857.62
984.372	2860.56
984.67	2819.43
984.969	2834.35
985.267	2830.5
985.566	2795.25
985.864	2804.52
986.162	2781.01
986.461	2761.81
986.759	2727.68
987.057	2724.29
987.355	2719.1
987.653	2676.84
987.951	2669.6
988.249	2672.32
988.547	2682.94
988.844	2679.1
989.142	2659.21
989.44	2619.66
989.737	2618.53
990.035	2634.58
990.332	2634.13
990.63	2617.63
990.927	2561.13
991.224	2550.74
991.521	2540.34
991.819	2530.4
992.116	2549.38
992.413	2517.07
992.71	2489.27
993.006	2489.5
993.303	2471.87
993.6	2476.62
993.897	2453.11
994.193	2447.24
994.49	2470.97
994.787	2416.05
995.083	2394.36
995.379	2402.72
995.676	2399.1
995.972	2362.49
996.268	2340.8
996.565	2335.6
996.861	2315.04
997.157	2341.25
997.453	2322.04
997.749	2293.57
998.044	2318.2
998.34	2267.58
998.636	2310.52
998.932	2245.21
999.227	2241.37
999.523	2250.18
999.818	2214.25
1000.114	2223.74
1000.409	2171.54
1000.704	2197.3
1001	2169.73
1001.295	2164.53
1001.59	2180.35
1001.885	2136.06
1002.18	2095.16
1002.475	2181.48
1002.77	2111.65
1003.065	2076.17
1003.359	2084.99
1003.654	2081.82
1003.949	2030.3
1004.243	2073.01
1004.538	2053.8
1004.832	1986.69
1005.127	2015.16
1005.421	2009.74
1005.715	1984.2
1006.009	1979.91
1006.304	2000.24
1006.598	1986.01
1006.892	1939.45
1007.186	1955.5
1007.48	1963.63
1007.773	1904.43
1008.067	1919.34
1008.361	1898.1
1008.655	1903.07
1008.948	1871.89
1009.242	1881.6
1009.535	1868.5
1009.829	1838.89
1010.122	1842.28
1010.415	1832.56
1010.708	1809.06
1011.001	1805.67
1011.295	1782.4
1011.588	1816.07
1011.881	1779.68
1012.173	1761.61
1012.466	1757.76
1012.759	1777.2
1013.052	1750.99
1013.344	1744.88
1013.637	1715.73
1013.93	1689.29
1014.222	1710.08
1014.514	1649.74
1014.807	1677.31
1015.099	1679.12
1015.391	1664.21
1015.683	1637.32
1015.976	1643.64
1016.268	1601.38
1016.56	1628.5
1016.851	1629.63
1017.143	1590.54
1017.435	1572.91
1017.727	1557.09
1018.018	1579.01
1018.31	1552.35
1018.602	1558
1018.893	1535.4
1019.185	1549.18
1019.476	1491.33
1019.767	1501.73
1020.058	1496.53
1020.35	1483.2
1020.641	1454.5
1020.932	1454.5
1021.223	1449.3
1021.514	1458.79
1021.804	1429.19
1022.095	1428.96
1022.386	1414.95
1022.677	1422.41
1022.967	1398.68
1023.258	1402.97
1023.548	1369.07
1023.839	1376.31
1024.129	1375.18
1024.419	1325.01
1024.709	1315.06
1025	1331.56
1025.29	1347.15
1025.58	1318
1025.87	1297.44
1026.16	1329.98
1026.449	1312.8
1026.739	1296.31
1027.029	1299.25
1027.319	1301.73
1027.608	1237.1
1027.898	1236.42
1028.187	1252.92
1028.477	1246.59
1028.766	1252.92
1029.055	1225.35
1029.344	1227.16
1029.634	1249.08
1029.923	1208.17
1030.212	1205.24
1030.501	1212.47
1030.79	1154.16
1031.078	1155.97
1031.367	1164.56
1031.656	1151.23
1031.945	1168.63
1032.233	1144.22
1032.522	1152.13
1032.81	1113.04
1033.099	1122.53
1033.387	1137.67
1033.675	1075.07
1033.963	1118.69
1034.251	1089.76
1034.54	1077.56
1034.828	1065.35
1035.116	1097.22
1035.403	1053.6
1035.691	1056.77
1035.979	1029.87
1036.267	1018.35
1036.554	1024.9
1036.842	1045.01
1037.129	1038.46
1037.417	1009.31
1037.704	997.56
1037.992	996.88
1038.279	989.88
1038.566	967.28
1038.853	967.28
1039.14	967.28
