Data from hue_60_FLMS001491_84.txt Node
Date: Mon Feb 06 15:18:03 GMT 2017
User: dcchb
Spectrometer: FLMS00149
Trigger mode: 0
Integration Time (sec): 2.000000E-2
Scans to average: 10
Electric dark correction enabled: true
Nonlinearity correction enabled: false
Boxcar width: 0
XAxis mode: Wavelengths
Number of Pixels in Spectrum: 2048
>>>>>Begin Spectral Data<<<<<
341.393	-23.76
341.776	-23.76
342.16	-23.76
342.543	-47.03
342.927	-55.62
343.31	-69.63
343.693	-60.37
344.077	-63.53
344.46	-59.01
344.843	-66.02
345.226	-36.86
345.61	-25.34
345.993	-14.72
346.376	-8.39
346.759	18.5
347.142	28.45
347.525	28.9
347.908	61.67
348.291	53.08
348.674	95.34
349.057	117.93
349.44	104.15
349.823	136.92
350.206	169.91
350.588	193.64
350.971	216.46
351.354	229.57
351.737	242
352.119	263.02
352.502	264.82
352.884	259.85
353.267	283.35
353.65	265.05
354.032	308.66
354.414	303.69
354.797	310.7
355.179	329.68
355.562	288.33
355.944	326.29
356.326	321.32
356.709	334.88
357.091	331.04
357.473	352.05
357.855	359.06
358.238	348.66
358.62	338.27
359.002	357.7
359.384	346.4
359.766	336.91
360.148	333.3
360.53	354.09
360.912	336.46
361.294	343.01
361.676	331.49
362.057	350.25
362.439	319.74
362.821	339.62
363.203	307.53
363.584	318.61
363.966	320.19
364.348	319.96
364.729	319.96
365.111	305.27
365.493	313.64
365.874	322.45
366.256	309.12
366.637	289.91
367.019	293.3
367.4	307.08
367.781	299.85
368.163	301.66
368.544	317.93
368.925	323.81
369.306	320.64
369.688	330.36
370.069	317.03
370.45	306.86
370.831	313.18
371.212	307.99
371.593	304.6
371.974	321.32
372.355	318.38
372.736	325.84
373.117	312.96
373.498	298.95
373.879	325.61
374.26	312.28
374.641	319.06
375.021	317.25
375.402	317.25
375.783	321.77
376.163	331.49
376.544	328.55
376.925	326.97
377.305	326.52
377.686	303.92
378.066	314.54
378.447	332.39
378.827	344.82
379.208	324.71
379.588	317.48
379.968	336.91
380.349	344.6
380.729	317.03
381.109	322
381.489	311.38
381.87	350.47
382.25	328.1
382.63	340.75
383.01	333.07
383.39	324.03
383.77	334.65
384.15	332.39
384.53	354.31
384.91	347.31
385.29	352.05
385.67	345.95
386.049	365.61
386.429	353.41
386.809	356.35
387.189	361.54
387.568	347.53
387.948	328.32
388.328	360.19
388.707	350.02
389.087	351.83
389.466	364.93
389.846	340.3
390.225	354.54
390.605	356.12
390.984	374.43
391.363	362.45
391.743	378.49
392.122	362.45
392.501	355.67
392.881	370.81
393.26	368.55
393.639	383.69
394.018	362.9
394.397	368.32
394.776	355.89
395.155	385.27
395.534	372.17
395.913	377.14
396.292	379.4
396.671	350.47
397.05	379.62
397.429	387.98
397.808	385.95
398.186	362.9
398.565	399.28
398.944	393.18
399.323	397.25
399.701	393.18
400.08	380.53
400.458	393.63
400.837	377.14
401.215	386.18
401.594	395.89
401.972	406.51
402.351	403.12
402.729	391.37
403.107	392.28
403.486	402.22
403.864	387.76
404.242	413.29
404.62	401.09
404.999	390.7
405.377	400.41
405.755	398.38
406.133	420.75
406.511	385.27
406.889	424.14
407.267	426.85
407.645	417.81
408.023	429.79
408.401	420.98
408.779	416.91
409.156	429.79
409.534	420.75
409.912	429.56
410.29	449.45
410.667	437.93
411.045	455.33
411.422	436.12
411.8	449.9
412.178	461.65
412.555	449.23
412.933	448.77
413.31	443.35
413.687	440.19
414.065	448.55
414.442	469.56
414.819	471.82
415.197	489.22
415.574	462.78
415.951	475.21
416.328	486.29
416.705	483.8
417.082	476.12
417.46	488.32
417.837	506.63
418.214	491.03
418.591	481.32
418.967	485.61
419.344	493.29
419.721	512.05
420.098	468.21
420.475	487.42
420.852	508.66
421.228	515.21
421.605	516.57
421.982	500.52
422.358	499.39
422.735	513.63
423.111	521.31
423.488	533.07
423.864	515.89
424.241	519.73
424.617	535.1
424.994	515.66
425.37	539.84
425.746	515.21
426.123	547.3
426.499	538.49
426.875	546.85
427.251	558.6
427.627	565.15
428.003	559.73
428.379	550.01
428.756	565.61
429.132	585.72
429.507	576.91
429.883	583.01
430.259	585.49
430.635	557.47
431.011	581.2
431.387	581.88
431.763	569
432.138	605.38
432.514	592.05
432.89	600.18
433.265	611.93
433.641	620.52
434.016	618.03
434.392	619.84
434.767	635.21
435.143	620.29
435.518	642.89
435.894	638.83
436.269	651.25
436.644	661.42
437.02	659.16
437.395	659.39
437.77	644.47
438.145	698.26
438.52	691.03
438.895	677.69
439.271	694.42
439.646	702.1
440.021	688.32
440.395	687.86
440.77	701.87
441.145	668.65
441.52	694.19
441.895	714.76
442.27	695.09
442.645	698.71
443.019	736.68
443.394	695.32
443.769	719.27
444.143	731.03
444.518	731.25
444.892	718.37
445.267	750.46
445.641	755.43
446.016	740.29
446.39	734.87
446.764	741.42
447.139	746.17
447.513	776
447.887	764.7
448.262	765.6
448.636	771.93
449.01	789.1
449.384	773.28
449.758	765.83
450.132	805.83
450.506	788.2
450.88	809.22
451.254	810.35
451.628	841.08
452.002	814.87
452.376	824.36
452.75	833.85
453.123	832.27
453.497	857.12
453.871	840.18
454.244	862.77
454.618	872.27
454.992	889.21
455.365	892.83
455.739	898.25
456.112	917.91
456.486	922.21
456.859	890.57
457.232	947.97
457.606	928.99
457.979	940.96
458.352	964.69
458.725	1002.66
459.099	978.7
459.472	975.09
459.845	1008.98
460.218	1018.7
460.591	1010.34
460.964	1016.22
461.337	1026.39
461.71	1059.38
462.083	1070.9
462.456	1067.97
462.829	1060.73
463.201	1105.48
463.574	1118.13
463.947	1131.24
464.32	1144.8
464.692	1148.64
465.065	1166.27
465.438	1190.9
465.81	1202.88
466.183	1229.32
466.555	1269.77
466.928	1269.77
467.3	1243.78
467.672	1267.06
468.045	1311.35
468.417	1310.67
468.789	1363.33
469.161	1375.98
469.534	1408.97
469.906	1428.63
470.278	1431.57
470.65	1447.84
471.022	1487.62
471.394	1492.81
471.766	1519.25
472.138	1546.82
472.51	1604.22
472.882	1635.18
473.253	1633.38
473.625	1677.44
473.997	1751.56
474.369	1787.04
474.74	1812.81
475.112	1869.53
475.484	1902.52
475.855	1926.93
476.227	1974.84
476.598	2044.44
476.97	2119.01
477.341	2156.07
477.713	2220.48
478.084	2239.91
478.455	2332.34
478.827	2368.5
479.198	2456.86
479.569	2512.9
479.94	2631.99
480.311	2662.27
480.682	2759.67
481.053	2816.62
481.424	2916.05
481.795	3015.26
482.166	3059.78
482.537	3135.93
482.908	3274.91
483.279	3331.18
483.65	3520.33
484.021	3540.22
484.391	3645.3
484.762	3738.86
485.133	3840.55
485.503	3933.65
485.874	4109.69
486.244	4189.69
486.615	4318.28
486.985	4406.64
487.356	4609.34
487.726	4664.26
488.097	4853.4
488.467	4898.83
488.837	5081.65
489.207	5268.53
489.578	5333.62
489.948	5492.71
490.318	5644.34
490.688	5766.15
491.058	5905.35
491.428	6118.68
491.798	6231.22
492.168	6431.67
492.538	6510.76
492.908	6690.87
493.278	6838.66
493.648	6938.77
494.017	7120.24
494.387	7295.15
494.757	7466.67
495.126	7631.64
495.496	7694.23
495.866	7901.23
496.235	8052.19
496.605	8163.82
496.974	8289.47
497.344	8574.66
497.713	8644.04
498.082	8799.74
498.452	8950.24
498.821	9102.78
499.19	9205.83
499.559	9425.71
499.928	9558.36
500.298	9666.16
500.667	9922.87
501.036	9977.34
501.405	10112.7
501.774	10218.69
502.143	10425.69
502.512	10565.8
502.88	10747.49
503.249	10808.28
503.618	10983.86
503.987	11066.8
504.356	11282.84
504.724	11403.29
505.093	11500.46
505.462	11641.02
505.83	11782.26
506.199	11980
506.567	12161.23
506.936	12207.33
507.304	12450.72
507.672	12634.44
508.041	12707.66
508.409	12852.06
508.777	13008.22
509.145	13183.58
509.514	13208.44
509.882	13357.36
510.25	13465.61
510.618	13676
510.986	13690.23
511.354	13885.71
511.722	14045.93
512.09	14307.39
512.458	14326.6
512.826	14459.48
513.193	14576.31
513.561	14629.64
513.929	14880.48
514.297	15096.3
514.664	15121.16
515.032	15190.53
515.4	15452.22
515.767	15518.89
516.135	15650.41
516.502	15634.59
516.869	15880.91
517.237	16057.18
517.604	16012.66
517.972	16339.43
518.339	16445.42
518.706	16429.82
519.073	16575.81
519.44	16707.78
519.808	17011.05
520.175	16978.96
520.542	17309.8
520.909	17381.89
521.276	17413.07
521.643	17602.67
522.009	17781.2
522.376	17938.03
522.743	18108.87
523.11	18212.15
523.477	18417.57
523.843	18537.11
524.21	18737.11
524.577	18942.75
524.943	19032.01
525.31	19114.72
525.676	19333.25
526.043	19472.91
526.409	19535.5
526.776	19822.05
527.142	19757.87
527.508	19987.69
527.874	20152.44
528.241	20338.65
528.607	20427.68
528.973	20594.68
529.339	20567.11
529.705	20707
530.071	20999.19
530.437	21041.68
530.803	21163.94
531.169	21346.76
531.535	21223.14
531.901	21409.13
532.267	21598.05
532.632	21574.32
532.998	21670.59
533.364	21877.81
533.73	22004.59
534.095	22089.79
534.461	22194.42
534.826	22367.75
535.192	22431.92
535.557	22567.51
535.923	22681.64
536.288	22774.74
536.653	22981.97
537.019	22783.55
537.384	23029.87
537.749	23072.59
538.114	23047.73
538.479	23151.68
538.845	23321.62
539.21	23298.12
539.575	23430.77
539.94	23384.67
540.305	23572.01
540.67	23727.48
541.034	23681.16
541.399	23702.63
541.764	23857.65
542.129	23974.03
542.494	24018.78
542.858	24052.67
543.223	24207.02
543.587	24327.02
543.952	24356.85
544.316	24464.87
544.681	24355.72
545.045	24530.4
545.41	24701.7
545.774	24824.63
546.138	24770.85
546.503	24891.97
546.867	24884.06
547.231	25186.88
547.595	25173.1
547.959	25196.6
548.324	25185.07
548.688	25284.28
549.052	25597.26
549.416	25389.81
549.779	25449.92
550.143	25613.08
550.507	25790.03
550.871	25968.55
551.235	25815.79
551.599	26040.19
551.962	26152.28
552.326	26133.97
552.689	26399.28
553.053	26366.96
553.417	26456
553.78	26740.96
554.143	26594.75
554.507	26751.58
554.87	26890.56
555.234	27128.75
555.597	26982.99
555.96	27213.27
556.323	27220.72
556.686	27309.31
557.05	27501.62
557.413	27627.95
557.776	27579.36
558.139	27822.29
558.502	27833.36
558.865	27959.91
559.228	28180.93
559.59	28130.31
559.953	28235.16
560.316	28616.39
560.679	28520.8
561.041	28615.94
561.404	28893.68
561.767	29000.57
562.129	28950.4
562.492	29318.3
562.854	29288.92
563.217	29247.11
563.579	29462.93
563.941	29632.86
564.304	29779.53
564.666	30014.78
565.028	29978.62
565.39	30128.67
565.753	30263.58
566.115	30463.35
566.477	30474.2
566.839	30591.03
567.201	30775.66
567.563	30831.93
567.925	31121.19
568.287	30964.58
568.648	31086.84
569.01	31431.91
569.372	31551.68
569.734	31491.57
570.095	31668.52
570.457	31848.63
570.819	31858.34
571.18	31777.67
571.542	32153.93
571.903	32195.96
572.265	32312.12
572.626	32338.33
572.987	32435.5
573.349	32484.99
573.71	32585.78
574.071	32673.91
574.432	32805.89
574.794	33030.52
575.155	33051.53
575.516	32984.87
575.877	33173.11
576.238	33068.25
576.599	33308.7
576.96	33272.32
577.32	33378.76
577.681	33391.64
578.042	33634.79
578.403	33494.01
578.763	33633.44
579.124	33608.58
579.485	33947.1
579.845	33897.61
580.206	33819.2
580.566	33954.56
580.927	33955.01
581.287	34214.21
581.648	33929.02
582.008	34131.5
582.368	34216.25
582.728	34167.89
583.089	34120.2
583.449	34172.86
583.809	34209.24
584.169	34280.88
584.529	34191.62
584.889	34540.53
585.249	34377.6
585.609	34348
585.969	34508.67
586.329	34364.94
586.688	34453.98
587.048	34361.78
587.408	34264.83
587.768	34411.27
588.127	34304.83
588.487	34309.13
588.846	34634.32
589.206	34241.56
589.565	34381.44
589.925	34583.02
590.284	34507.54
590.643	34505.73
591.003	34569.68
591.362	34773.52
591.721	34773.75
592.08	34702.34
592.44	34720.87
592.799	34857.13
593.158	34670.02
593.517	34726.97
593.876	34936
594.235	34759.51
594.593	34812.62
594.952	34929
595.311	34925.16
595.67	35032.72
596.029	35027.07
596.387	35125.6
596.746	35177.8
597.104	35086.28
597.463	34869.34
597.822	35191.81
598.18	34897.59
598.538	34939.84
598.897	35303.9
599.255	34910.69
599.613	35546.83
599.972	35339.16
600.33	35355.43
600.688	35335.54
601.046	35367.18
601.404	35537.12
601.762	35456.21
602.12	35601.97
602.478	35673.16
602.836	35795.19
603.194	35579.6
603.552	35792.25
603.91	35652.59
604.268	35839.03
604.625	35862.31
604.983	35963.09
605.341	35703.67
605.698	35988.4
606.056	36074.96
606.413	35998.8
606.771	36328.73
607.128	36197.66
607.485	36073.83
607.843	36127.61
608.2	36321.95
608.557	36483.53
608.914	36438.56
609.272	36643.3
609.629	36633.36
609.986	36717.65
610.343	36529.86
610.7	36899.57
611.057	36831.09
611.414	36865.44
611.771	36878.55
612.127	37018.89
612.484	37063.63
612.841	37123.74
613.198	37152.44
613.554	37092.56
613.911	37311.08
614.267	37394.02
614.624	37238.09
614.98	37368.93
615.337	37657.06
615.693	37615.03
616.05	37569.38
616.406	37810.95
616.762	37598.76
617.118	37642.15
617.475	37761.24
617.831	37839.88
618.187	37860.45
618.543	37885.3
618.899	38097.73
619.255	37966.88
619.611	38039.65
619.967	38139.99
620.323	38418.85
620.678	38210.04
621.034	38083.94
621.39	38170.49
621.746	38107.44
622.101	38565.74
622.457	38292.98
622.812	38327.33
623.168	38416.81
623.523	38435.35
623.879	38680.54
624.234	38300.89
624.589	38471.5
624.945	38560.99
625.3	38646.41
625.655	38505.17
626.01	38577.71
626.365	38586.98
626.72	38567.55
627.075	38623.14
627.43	38613.65
627.785	38546.75
628.14	38724.15
628.495	38678.5
628.85	38603.02
629.205	38591.5
629.559	38777.94
629.914	38593.99
630.269	38614.78
630.623	38579.3
630.978	38604.15
631.332	38673.98
631.687	38734.77
632.041	38574.32
632.396	38756.24
632.75	38527.32
633.104	38653.42
633.459	38432.86
633.813	38367.1
634.167	38503.82
634.521	38525.74
634.875	38506.98
635.229	38581.33
635.583	38179.98
635.937	38502.01
636.291	38273.32
636.645	38315.8
636.999	38228.12
637.352	38381.56
637.706	38117.61
638.06	38188.35
638.413	38236.71
638.767	38167.1
639.121	38157.39
639.474	37857.73
639.828	38037.16
640.181	38077.84
640.534	38152.87
640.888	37958.52
641.241	37895.02
641.594	37973.66
641.947	38033.1
642.301	37929.37
642.654	37900.44
643.007	37903.61
643.36	37791.29
643.713	37922.36
644.066	37966.88
644.419	37697.96
644.771	37467.69
645.124	37151.09
645.477	37124.87
645.83	37014.37
646.182	36783.64
646.535	36570.31
646.888	36714.94
647.24	36556.3
647.593	36774.15
647.945	36588.16
648.298	36640.59
648.65	36352.69
649.002	36375.51
649.355	36488.5
649.707	36478.79
650.059	36662.28
650.411	36887.82
650.763	37171.42
651.115	37309.27
651.467	37252.33
651.819	37346.11
652.171	37286.67
652.523	37210.52
652.875	37191.99
653.227	37031.09
653.578	37249.39
653.93	37177.98
654.282	37001.71
654.633	36970.75
654.985	37071.31
655.337	37114.7
655.688	36968.94
656.039	37184.08
656.391	36849.62
656.742	36733.02
657.094	36913.35
657.445	36914.48
657.796	36939.57
658.147	36889.4
658.498	36812.56
658.849	36962.16
659.2	36876.74
659.551	36760.14
659.902	36858.44
660.253	36745.67
660.604	36860.7
660.955	36663.87
661.306	36730.08
661.656	36732.34
662.007	36774.37
662.358	36795.39
662.708	36819.12
663.059	36641.49
663.409	36592.23
663.76	36549.97
664.11	36700.93
664.461	36839.91
664.811	36739.57
665.161	36670.65
665.511	36651.89
665.862	36663.64
666.212	36638.56
666.562	36687.59
666.912	36602.63
667.262	36483.31
667.612	36550.88
667.962	36657.76
668.312	36549.07
668.662	36687.82
669.011	36724.88
669.361	36462.52
669.711	36598.33
670.06	36507.03
670.41	36450.76
670.76	36614.38
671.109	36570.31
671.459	36479.92
671.808	36485.79
672.157	36414.61
672.507	36220.49
672.856	36356.3
673.205	36346.36
673.554	36424.55
673.904	36321.5
674.253	36491.89
674.602	36403.31
674.951	35800.61
675.3	35672.25
675.649	36341.84
675.998	36198.34
676.346	36191.34
676.695	36290.54
677.044	35992.7
677.393	36039.93
677.741	36080.6
678.09	35982.08
678.438	35918.12
678.787	36066.14
679.135	35927.16
679.484	35728.3
679.832	35854.4
680.181	35729.88
680.529	35862.53
680.877	35605.59
681.225	35702.99
681.573	35841.52
681.922	35693.72
682.27	35521.98
682.618	35557
682.966	35385.26
683.314	35585.25
683.661	35520.62
684.009	35393.39
684.357	35330.57
684.705	35200.63
685.053	35261.19
685.4	35144.81
685.748	34963.12
686.095	35014.19
686.443	34900.07
686.79	34832.05
687.138	34833.18
687.485	34909.34
687.832	34743.92
688.18	34833.18
688.527	34705.95
688.874	34600.19
689.221	34442.91
689.568	34423.25
689.915	34321.33
690.262	34269.81
690.609	34167.66
690.956	34052.64
691.303	34065.97
691.65	33883.15
691.997	33905.52
692.344	33589.37
692.69	33735.58
693.037	33834.79
693.383	33379.89
693.73	33552.08
694.077	33370.39
694.423	33329.49
694.769	33302.15
695.116	33118.65
695.462	33217.86
695.808	33139.21
696.155	33085.43
696.501	33031.19
696.847	32917.07
697.193	32570.41
697.539	32760.01
697.885	32473.02
698.231	32403.64
698.577	32437.08
698.923	32382.62
699.269	32265.34
699.614	32067.83
699.96	32144.66
700.306	32018.56
700.651	32009.07
700.997	31929.08
701.342	31680.27
701.688	31760.94
702.033	31617.67
702.379	31644.11
702.724	31576.77
703.069	31486.38
703.415	31263.33
703.76	31145.37
704.105	31272.6
704.45	31166.61
704.795	31065.82
705.14	30962.1
705.485	30899.05
705.83	30800.29
706.175	30867.41
706.52	30706.28
706.865	30557.59
707.209	30612.73
707.554	30482.33
707.899	30483.46
708.243	30314.43
708.588	30219.52
708.932	30166.86
709.277	30044.61
709.621	30167.54
709.966	29919.86
710.31	29971.61
710.654	29692.75
710.998	29739.3
711.342	29783.14
711.687	29662.69
712.031	29545.64
712.375	29470.61
712.719	29498.63
713.063	29500.44
713.407	29557.16
713.75	29389.93
714.094	29280.56
714.438	29140.22
714.782	29175.7
715.125	29034.24
715.469	29119.43
715.812	28941.81
716.156	28850.29
716.499	28801.02
716.843	28745.66
717.186	28593.34
717.53	28840.34
717.873	28754.92
718.216	28608.03
718.559	28577.3
718.902	28471.77
719.246	28498.21
719.589	28315.61
719.932	28339.57
720.275	28290.08
720.617	28222.28
720.96	28284.88
721.303	28180.02
721.646	28076.97
721.989	28028.16
722.331	28191.09
722.674	27908.16
723.016	27988.16
723.359	27960.37
723.701	28003.53
724.044	27799.92
724.386	27599.02
724.729	27742.52
725.071	27669.98
725.413	27714.05
725.755	27611
726.097	27503.66
726.439	27382.3
726.782	27307.05
727.124	27518.12
727.465	27375.07
727.807	27277.9
728.149	27338.01
728.491	27200.84
728.833	27231.35
729.175	27192.48
729.516	27077.45
729.858	27019.83
730.199	26991.35
730.541	27140.5
730.882	26905.93
731.224	27011.01
731.565	26810.57
731.906	26921.3
732.248	26792.94
732.589	26643.34
732.93	26694.41
733.271	26573.51
733.612	26765.14
733.953	26728.08
734.294	26478.82
734.635	26491.7
734.976	26528.31
735.317	26452.16
735.658	26303.46
735.999	26495.55
736.339	26240.41
736.68	26331.71
737.021	26199.73
737.361	26246.29
737.702	26251.26
738.042	26197.25
738.383	26140.53
738.723	26144.37
739.063	25943.02
739.404	26084.48
739.744	26034.54
740.084	25878.39
740.424	25975.56
740.764	25842
741.104	25809.91
741.444	25699.18
741.784	25712.74
742.124	25740.99
742.464	25741.89
742.804	25552.52
743.143	25650.37
743.483	25558.17
743.823	25519.3
744.162	25426.2
744.502	25511.17
744.841	25292.64
745.181	25439.98
745.52	25339.42
745.86	25392.52
746.199	25280.66
746.538	25296.93
746.877	25382.58
747.216	25130.38
747.556	25099.65
747.895	25115.92
748.234	24978.07
748.573	24954.34
748.911	24872.99
749.25	24895.81
749.589	24680
749.928	24927.68
750.267	24863.05
750.605	24782.14
750.944	24722.49
751.283	24559.33
751.621	24688.81
751.96	24511.19
752.298	24557.07
752.636	24477.52
752.975	24373.34
753.313	24302.84
753.651	24420.12
753.989	24212.89
754.327	24184.87
754.666	24076.17
755.004	24167.92
755.342	24187.58
755.679	24098.1
756.017	23996.18
756.355	24058.1
756.693	23909.63
757.031	23933.58
757.368	23787.14
757.706	23798.67
758.044	23691.78
758.381	23689.52
758.719	23652.91
759.056	23560.48
759.394	23505.79
759.731	23304.44
760.068	23301.96
760.405	23209.98
760.743	23199.36
761.08	23218.57
761.417	22975.41
761.754	23100.16
762.091	22962.31
762.428	22858.58
762.765	22824
763.102	22734.29
763.438	22682.54
763.775	22539.49
764.112	22506.72
764.449	22635.76
764.785	22499.27
765.122	22349.67
765.458	22289.33
765.795	22178.15
766.131	22173.4
766.467	22140.41
766.804	21943.8
767.14	21930.02
767.476	21874.88
767.812	21869.23
768.148	21799.17
768.485	21696.58
768.821	21547.65
769.157	21570.03
769.492	21486.19
769.828	21389.69
770.164	21237.61
770.5	21260.43
770.836	21168.68
771.171	21075.12
771.507	20970.27
771.842	20944.96
772.178	20889.59
772.513	20840.1
772.849	20832.87
773.184	20644.4
773.519	20639.2
773.855	20511.07
774.19	20474.91
774.525	20343.84
774.86	20258.87
775.195	20302.49
775.53	20160.8
775.865	20190.63
776.2	19910.86
776.535	19753.8
776.87	19793.35
777.205	19783.41
777.539	19739.57
777.874	19754.48
778.209	19526.92
778.543	19567.82
778.878	19350.65
779.212	19245.79
779.547	19234.27
779.881	19314.94
780.215	19123.76
780.55	19225.23
780.884	18897.55
781.218	19037.89
781.552	18975.52
781.886	18936.42
782.22	18883.32
782.554	18641.29
782.888	18528.52
783.222	18486.49
783.556	18410.34
783.889	18380.05
784.223	18321.52
784.557	18213.5
784.89	18276.1
785.224	18135.31
785.557	18162.21
785.891	18107.29
786.224	17928.54
786.558	17983.45
786.891	17789.11
787.224	17736.23
787.557	17638.15
787.891	17640.41
788.224	17588.66
788.557	17580.75
788.89	17467.99
789.223	17478.16
789.556	17451.94
789.888	17279.97
790.221	17215.34
790.554	17129.24
790.887	17114.78
791.219	16970.37
791.552	17019.86
791.884	16886.31
792.217	16834.56
792.549	16909.13
792.882	16707.78
793.214	16638.63
793.546	16686.54
793.879	16540.55
794.211	16416.04
794.543	16521.57
794.875	16393.89
795.207	16521.35
795.539	16300.11
795.871	16340.11
796.203	16291.97
796.535	16078.65
796.867	16004.3
797.198	16067.12
797.53	16019.44
797.862	15902.6
798.193	15943.96
798.525	15803.62
798.856	15832.55
799.188	15712.55
799.519	15563.86
799.85	15517.08
800.182	15571.31
800.513	15603.18
800.844	15370.42
801.175	15492.67
801.506	15425.55
801.837	15346.69
802.168	15245.22
802.499	15285.67
802.83	15196.63
803.161	15097.2
803.491	15124.09
803.822	15145.11
804.153	15000.03
804.483	14970.43
804.814	14840.49
805.145	14843.65
805.475	14857.43
805.805	14734.05
806.136	14750.54
806.466	14819.24
806.796	14724.56
807.126	14483.43
807.457	14469.2
807.787	14540.38
808.117	14588.97
808.447	14425.13
808.777	14455.86
809.107	14348.97
809.436	14315.53
809.766	14287.05
810.096	14343.32
810.426	14209.32
810.755	14157.79
811.085	14183.78
811.414	14100.62
811.744	14030.56
812.073	13981.75
812.403	14028.3
812.732	13919.83
813.061	13920.96
813.39	13854.3
813.719	13824.24
814.049	13843.45
814.378	13857.01
814.707	13696.79
815.036	13807.52
815.365	13600.52
815.693	13490.69
816.022	13610.24
816.351	13563.23
816.68	13401.65
817.008	13517.36
817.337	13399.85
817.665	13367.53
817.994	13384.7
818.322	13372.05
818.651	13280.53
818.979	13269.68
819.307	13282.11
819.636	13160.98
819.964	13198.04
820.292	13171.6
820.62	13099.06
820.948	13154.88
821.276	13152.62
821.604	13096.8
821.932	13175.44
822.259	13109.68
822.587	13142.23
822.915	13113.53
823.243	13238.49
823.57	13012.96
823.898	13068.33
824.225	12999.86
824.553	13017.48
824.88	13033.75
825.207	13050.48
825.535	12991.27
825.862	13110.14
826.189	13068.1
826.516	13027.65
826.843	13090.25
827.17	13104.71
827.497	13141.32
827.824	13055.22
828.151	13072.17
828.478	13079.18
828.805	13079.18
829.131	12984.04
829.458	12997.37
829.785	12942.91
830.111	13009.12
830.438	13053.87
830.764	13040.31
831.09	13010.93
831.417	12982.46
831.743	13016.8
832.069	13002.12
832.395	12815.23
832.722	12916.02
833.048	12957.15
833.374	12959.86
833.7	12912.63
834.026	12883.02
834.351	12852.29
834.677	12868.79
835.003	12880.09
835.329	12867.66
835.654	12858.39
835.98	12848.67
836.306	12773.2
836.631	12836.02
836.956	12772.07
837.282	12762.57
837.607	12731.61
837.932	12700.2
838.258	12618.62
838.583	12703.14
838.908	12602.35
839.233	12613.88
839.558	12623.14
839.883	12492.52
840.208	12513.99
840.533	12495.24
840.858	12430.38
841.182	12566.2
841.507	12500.21
841.832	12416.14
842.156	12357.16
842.481	12402.58
842.805	12340.21
843.13	12317.84
843.454	12356.93
843.778	12290.72
844.103	12189.03
844.427	12147.9
844.751	12191.06
845.075	12168.92
845.399	12019.99
845.723	12124.17
846.047	12024.97
846.371	11917.85
846.695	11940.22
847.019	11868.36
847.343	11845.76
847.666	11765.31
847.99	11668.82
848.313	11672.43
848.637	11635.15
848.96	11643.51
849.284	11500.69
849.607	11508.14
849.931	11406.9
850.254	11341.37
850.577	11288.04
850.9	11250.3
851.223	11151.99
851.546	11133.24
851.869	11036.07
852.192	11114.26
852.515	11077.42
852.838	10939.57
853.161	11011.21
853.483	10966.24
853.806	10891.21
854.129	10864.32
854.451	10921.72
854.774	10732.57
855.096	10764.89
855.419	10752.68
855.741	10762.85
856.063	10701.39
856.385	10605.12
856.708	10599.24
857.03	10588.62
857.352	10530.32
857.674	10496.19
857.996	10496.42
858.318	10318.57
858.64	10451.67
858.961	10432.47
859.283	10354.05
859.605	10276.76
859.926	10296.65
860.248	10262.07
860.57	10270.66
860.891	10230.89
861.212	10221.4
861.534	10210.78
861.855	10125.13
862.176	10170.78
862.498	10110.67
862.819	10108.86
863.14	10079.25
863.461	10098.69
863.782	9974.62
864.103	10024.57
864.424	10001.06
864.745	9947.05
865.065	9962.42
865.386	9912.03
865.707	9967.62
866.027	9935.53
866.348	9840.16
866.668	9865.25
866.989	9878.13
867.309	9786.38
867.63	9834.74
867.95	9766.49
868.27	9716.1
868.59	9745.25
868.91	9741.86
869.23	9667.74
869.55	9683.33
869.87	9708.87
870.19	9705.03
870.51	9629.1
870.83	9657.8
871.15	9646.05
871.469	9562.43
871.789	9604.92
872.109	9620.51
872.428	9505.48
872.748	9555.88
873.067	9487.18
873.386	9605.82
873.706	9550
874.025	9462.55
874.344	9485.6
874.663	9501.19
874.982	9526.73
875.301	9451.02
875.62	9383.91
875.939	9334.87
876.258	9415.09
876.577	9299.39
876.896	9343.68
877.214	9298.26
877.533	9333.74
877.852	9298.94
878.17	9344.36
878.489	9291.48
878.807	9253.74
879.125	9259.39
879.444	9317.01
879.762	9173.52
880.08	9175.1
880.398	9152.5
880.716	9198.15
881.034	9158.6
881.352	9168.32
881.67	9079.73
881.988	9049
882.306	9103.91
882.624	9046.06
882.941	9059.17
883.259	9009.9
883.577	8959.06
883.894	8996.35
884.212	8902.79
884.529	8922.45
884.846	8897.14
885.164	8834.32
885.481	8804.26
885.798	8857.37
886.115	8762.45
886.432	8808.33
886.75	8827.31
887.067	8778.5
887.383	8779.63
887.7	8722.45
888.017	8735.56
888.334	8630.03
888.651	8627.77
888.967	8588.67
889.284	8596.81
889.6	8529.46
889.917	8503.7
890.233	8467.32
890.55	8496.92
890.866	8514.78
891.182	8459.18
891.498	8461.44
891.815	8489.24
892.131	8377.15
892.447	8351.84
892.763	8360.2
893.079	8303.71
893.395	8262.13
893.71	8281.79
894.026	8314.33
894.342	8260.09
894.657	8180.32
894.973	8121.57
895.289	8160.44
895.604	8174.67
895.92	8040.21
896.235	8081.12
896.55	8101
896.865	8048.35
897.181	8009.7
897.496	7922.25
897.811	7944.62
898.126	7937.16
898.441	7889.93
898.756	7896.71
899.071	7789.6
899.386	7855.13
899.7	7753.44
900.015	7724.06
900.33	7661.24
900.644	7634.57
900.959	7671.63
901.273	7641.35
901.588	7526.55
901.902	7587.57
902.216	7489.94
902.531	7508.93
902.845	7490.17
903.159	7482.26
903.473	7432.77
903.787	7327.91
904.101	7319.33
904.415	7363.85
904.729	7343.51
905.042	7268.93
905.356	7274.36
905.67	7232.1
905.984	7220.57
906.297	7224.87
906.611	7133.12
906.924	7110.07
907.237	7057.19
907.551	7081.14
907.864	6995.72
908.177	7087.92
908.491	7030.07
908.804	6955.04
909.117	6946.91
909.43	6896.29
909.743	6877.53
910.056	6796.86
910.368	6787.14
910.681	6811.77
910.994	6807.93
911.307	6783.52
911.619	6715.28
911.932	6704.43
912.244	6679.34
912.557	6684.54
912.869	6594.37
913.181	6579.69
913.494	6563.64
913.806	6524.09
914.118	6527.94
914.43	6484.1
914.742	6447.03
915.054	6478.67
915.366	6405.91
915.678	6373.82
915.99	6371.56
916.302	6259.02
916.613	6257.89
916.925	6275.74
917.236	6224.89
917.548	6166.14
917.859	6201.84
918.171	6121.62
918.482	6139.92
918.794	6056.99
919.105	6067.61
919.416	6052.92
919.727	6061.28
920.038	6047.27
920.349	5960.04
920.66	5939.7
920.971	5930.66
921.282	5937.22
921.593	5849.76
921.903	5828.29
922.214	5858.57
922.525	5802.53
922.835	5775.87
923.146	5784
923.456	5732.25
923.767	5749.2
924.077	5727.73
924.387	5713.95
924.697	5631.46
925.008	5644.57
925.318	5577.45
925.628	5562.76
925.938	5560.05
926.248	5519.83
926.558	5546.04
926.867	5499.26
927.177	5426.72
927.487	5445.03
927.796	5381.75
928.106	5418.59
928.416	5392.15
928.725	5433.5
929.034	5322.09
929.344	5380.62
929.653	5325.71
929.962	5235.31
930.271	5204.35
930.581	5232.15
930.89	5163.23
931.199	5180.4
931.508	5188.99
931.817	5171.14
932.125	5096.11
932.434	5123.23
932.743	5027.41
933.051	5015.89
933.36	5014.3
933.669	4997.81
933.977	4986.28
934.286	4993.74
934.594	4967.3
934.902	4912.61
935.21	4865.61
935.519	4832.84
935.827	4839.17
936.135	4817.02
936.443	4817.02
936.751	4796.91
937.059	4745.84
937.367	4780.19
937.674	4765.04
937.982	4727.31
938.29	4683.24
938.597	4656.12
938.905	4703.58
939.213	4613.64
939.52	4561.43
939.827	4624.03
940.135	4562.79
940.442	4520.98
940.749	4540.42
941.056	4549.91
941.363	4502.45
941.67	4483.24
941.977	4431.49
942.284	4412.51
942.591	4433.75
942.898	4374.09
943.205	4396.47
943.511	4367.31
943.818	4370.93
944.125	4282.35
944.431	4288.22
944.738	4273.08
945.044	4239.41
945.35	4244.61
945.657	4243.48
945.963	4231.95
946.269	4187.88
946.575	4204.38
946.881	4131.84
947.187	4150.37
947.493	4116.7
947.799	4101.56
948.105	4117.15
948.41	4065.85
948.716	4062.92
949.022	4037.15
949.327	4012.52
949.633	4005.06
949.938	3996.25
950.244	4019.98
950.549	3968.91
950.854	3952.86
951.16	3966.65
951.465	3913.54
951.77	3873.99
952.075	3860.21
952.38	3834.45
952.685	3869.25
952.99	3821.79
953.294	3758.07
953.599	3814.56
953.904	3769.14
954.209	3709.03
954.513	3733.88
954.818	3712.87
955.122	3672.19
955.426	3693.43
955.731	3638.97
956.035	3636.26
956.339	3637.62
956.643	3640.55
956.948	3618.86
957.252	3587.9
957.556	3590.61
957.86	3586.09
958.163	3579.99
958.467	3533.89
958.771	3491.86
959.075	3497.96
959.378	3478.75
959.682	3457.73
959.985	3476.72
960.289	3445.98
960.592	3440.33
960.896	3404.63
961.199	3398.75
961.502	3397.85
961.805	3399.66
962.108	3319.66
962.411	3330.51
962.714	3327.34
963.017	3284.86
963.32	3301.58
963.623	3293.9
963.926	3292.31
964.228	3283.5
964.531	3274.01
964.833	3230.62
965.136	3178.65
965.438	3175.93
965.741	3186.78
966.043	3163.5
966.345	3150.17
966.648	3177.97
966.95	3133.9
967.252	3105.88
967.554	3097.29
967.856	3057.07
968.158	3098.87
968.46	3099.78
968.761	3067.69
969.063	3040.57
969.365	3022.49
969.666	3008.48
969.968	3005.32
970.269	3011.19
970.571	2993.34
970.872	3010.29
971.174	2964.19
971.475	2966.22
971.776	2939.33
972.077	2910.86
972.378	2882.38
972.679	2872.66
972.98	2866.11
973.281	2880.35
973.582	2862.27
973.883	2862.95
974.183	2778.66
974.484	2825.43
974.785	2810.75
975.085	2813.46
975.386	2786.79
975.686	2752.67
975.986	2747.24
976.287	2767.13
976.587	2714.25
976.887	2691.65
977.187	2729.84
977.487	2691.65
977.787	2690.75
978.087	2642.84
978.387	2646.46
978.687	2669.05
978.987	2621.37
979.286	2629.06
979.586	2611.65
979.885	2617.3
980.185	2609.39
980.484	2566.91
980.784	2553.8
981.083	2552.67
981.382	2532.33
981.682	2534.82
981.981	2528.27
982.28	2532.79
982.579	2524.65
982.878	2502.5
983.177	2476.52
983.475	2444.43
983.774	2432.9
984.073	2446.24
984.372	2434.94
984.67	2408.95
984.969	2395.16
985.267	2372.11
985.566	2409.4
985.864	2358.78
986.162	2354.49
986.461	2339.12
986.759	2343.86
987.057	2318.78
987.355	2345.67
987.653	2328.05
987.951	2307.71
988.249	2303.87
988.547	2293.47
988.844	2308.39
989.142	2273.36
989.44	2273.13
989.737	2227.26
990.035	2247.6
990.332	2237.43
990.63	2211.67
990.927	2210.76
991.224	2175.96
991.521	2208.95
991.819	2156.53
992.116	2156.07
992.413	2131.44
992.71	2125.79
993.006	2155.4
993.303	2114.04
993.6	2117.66
993.897	2128.73
994.193	2102.74
994.49	2060.93
994.787	2122.85
995.083	2074.49
995.379	2072.69
995.676	2048.28
995.972	2062.06
996.268	2037.88
996.565	2009.18
996.861	2029.52
997.157	2016.64
997.453	2007.6
997.749	1999.69
998.044	1939.58
998.34	1987.94
998.636	1956.3
998.932	1947.94
999.227	1940.94
999.523	1932.58
999.818	1924.89
1000.114	1875.85
1000.409	1875.85
1000.704	1879.92
1001	1852.58
1001.295	1854.16
1001.59	1841.28
1001.885	1890.32
1002.18	1866.82
1002.475	1872.92
1002.77	1839.25
1003.065	1799.25
1003.359	1791.34
1003.654	1808.51
1003.949	1775.29
1004.243	1787.27
1004.538	1777.55
1004.832	1765.35
1005.127	1727.61
1005.421	1707.05
1005.715	1694.16
1006.009	1698.91
1006.304	1695.97
1006.598	1695.52
1006.892	1661.85
1007.186	1692.13
1007.48	1698.46
1007.773	1679.25
1008.067	1678.12
1008.361	1627.05
1008.655	1664.79
1008.948	1659.82
1009.242	1620.04
1009.535	1618.46
1009.829	1603.09
1010.122	1576.2
1010.415	1593.83
1010.708	1583.88
1011.001	1559.25
1011.295	1550.89
1011.588	1549.54
1011.881	1545.02
1012.173	1553.83
1012.466	1511.8
1012.759	1506.82
1013.052	1513.83
1013.344	1506.6
1013.637	1505.47
1013.93	1469.31
1014.222	1498.24
1014.514	1455.53
1014.807	1472.7
1015.099	1458.24
1015.391	1465.24
1015.683	1437.67
1015.976	1422.76
1016.268	1435.41
1016.56	1402.65
1016.851	1379.82
1017.143	1397
1017.435	1404.68
1017.727	1380.95
1018.018	1349.31
1018.31	1346.83
1018.602	1337.79
1018.893	1330.11
1019.185	1350.9
1019.476	1351.35
1019.767	1300.28
1020.058	1299.15
1020.35	1323.78
1020.641	1269.54
1020.932	1307.51
1021.223	1241.97
1021.514	1257.34
1021.804	1268.64
1022.095	1260.96
1022.386	1232.93
1022.677	1215.53
1022.967	1231.13
1023.258	1227.74
1023.548	1219.6
1023.839	1206.27
1024.129	1189.09
1024.419	1192.26
1024.709	1186.16
1025	1170.11
1025.29	1175.99
1025.58	1146.38
1025.87	1188.87
1026.16	1145.93
1026.449	1151.58
1026.739	1133.73
1027.029	1113.84
1027.319	1106.84
1027.608	1093.95
1027.898	1093.05
1028.187	1103.45
1028.477	1081.75
1028.766	1104.8
1029.055	1042.66
1029.344	1078.14
1029.634	1049.89
1029.923	1066.38
1030.212	1033.39
1030.501	1037.23
1030.79	1021.87
1031.078	1039.49
1031.367	1017.57
1031.656	999.49
1031.945	1001.75
1032.233	994.75
1032.522	993.39
1032.81	999.72
1033.099	978.7
1033.387	972.83
1033.675	959.72
1033.963	971.47
1034.251	954.75
1034.54	931.47
1034.828	942.09
1035.116	925.37
1035.403	944.13
1035.691	944.35
1035.979	919.27
1036.267	938.25
1036.554	886.05
1036.842	918.59
1037.129	886.28
1037.417	911.59
1037.704	898.48
1037.992	888.08
1038.279	884.47
1038.566	894.86
1038.853	894.86
1039.14	894.86
