Data from hue_80_FLMS001491_30.txt Node
Date: Mon Feb 06 15:22:45 GMT 2017
User: dcchb
Spectrometer: FLMS00149
Trigger mode: 0
Integration Time (sec): 2.000000E-2
Scans to average: 10
Electric dark correction enabled: true
Nonlinearity correction enabled: false
Boxcar width: 0
XAxis mode: Wavelengths
Number of Pixels in Spectrum: 2048
>>>>>Begin Spectral Data<<<<<
341.393	5.41
341.776	5.41
342.16	5.41
342.543	-47.02
342.927	-61.93
343.31	-71.88
343.693	-69.39
344.077	-61.93
344.46	-58.32
344.843	-29.84
345.226	-27.36
345.61	-24.19
345.993	-26.68
346.376	-19
346.759	13.77
347.142	3.6
347.525	42.7
347.908	45.63
348.291	70.04
348.674	113.66
349.057	99.19
349.44	123.6
349.823	135.58
350.206	153.88
350.588	181
350.971	201.11
351.354	223.26
351.737	229.13
352.119	249.7
352.502	265.29
352.884	267.55
353.267	292.63
353.65	285.85
354.032	331.95
354.414	316.36
354.797	307.55
355.179	311.84
355.562	343.93
355.944	339.19
356.326	313.42
356.709	335.34
357.091	338.06
357.473	329.24
357.855	304.84
358.238	342.35
358.62	340.32
359.002	338.96
359.384	315.46
359.766	331.5
360.148	327.89
360.53	336.02
360.912	314.1
361.294	329.02
361.676	319.07
362.057	329.69
362.439	328.34
362.821	319.3
363.203	336.25
363.584	310.71
363.966	314.1
364.348	348
364.729	320.66
365.111	317.72
365.493	291.73
365.874	316.36
366.256	301.22
366.637	326.53
367.019	307.55
367.4	300.32
367.781	298.96
368.163	322.92
368.544	304.84
368.925	312.97
369.306	310.26
369.688	294.44
370.069	305.74
370.45	290.37
370.831	308.45
371.212	308.45
371.593	303.93
371.974	302.35
372.355	314.78
372.736	324.5
373.117	320.88
373.498	297.83
373.879	319.3
374.26	308.45
374.641	308
375.021	308.23
375.402	326.98
375.783	324.95
376.163	322.69
376.544	288.34
376.925	323.14
377.305	324.95
377.686	316.81
378.066	338.06
378.447	315.91
378.827	329.47
379.208	320.88
379.588	321.79
379.968	327.66
380.349	333.76
380.729	334.44
381.109	342.8
381.489	323.14
381.87	311.16
382.25	331.05
382.63	311.16
383.01	316.59
383.39	331.95
383.77	337.6
384.15	342.8
384.53	339.86
384.91	329.24
385.29	348.45
385.67	342.58
386.049	363.37
386.429	357.04
386.809	350.71
387.189	345.29
387.568	338.51
387.948	361.11
388.328	343.93
388.707	336.47
389.087	337.6
389.466	352.29
389.846	331.95
390.225	359.98
390.605	348.9
390.984	358.17
391.363	364.27
391.743	352.52
392.122	358.62
392.501	362.91
392.881	351.39
393.26	369.02
393.639	364.95
394.018	366.98
394.397	379.41
394.776	352.97
395.155	355.23
395.534	363.82
395.913	362.91
396.292	385.06
396.671	371.5
397.05	354.55
397.429	370.6
397.808	374.44
398.186	362.01
398.565	373.08
398.944	363.14
399.323	388.68
399.701	370.37
400.08	375.57
400.458	367.43
400.837	395.46
401.215	399.75
401.594	402.69
401.972	377.15
402.351	375.34
402.729	406.3
403.107	399.3
403.486	376.93
403.864	373.08
404.242	402.24
404.62	388.68
404.999	401.33
405.377	389.81
405.755	409.47
406.133	404.27
406.511	421.44
406.889	387.55
407.267	417.15
407.645	428.9
408.023	418.51
408.401	412.86
408.779	438.39
409.156	417.38
409.534	394.78
409.912	423.03
410.29	424.61
410.667	412.63
411.045	440.2
411.422	436.13
411.8	439.07
412.178	425.51
412.555	439.07
412.933	452.4
413.31	461.67
413.687	466.64
414.065	443.36
414.442	442.23
414.819	429.81
415.197	471.16
415.574	453.53
415.951	444.49
416.328	469.35
416.705	453.08
417.082	461.89
417.46	496.47
417.837	484.94
418.214	495.34
418.591	468.22
418.967	487.88
419.344	490.82
419.721	496.02
420.098	499.63
420.475	510.48
420.852	469.35
421.228	517.71
421.605	529.24
421.982	500.76
422.358	514.32
422.735	499.41
423.111	508.67
423.488	527.2
423.864	522.01
424.241	516.81
424.617	526.07
424.994	518.84
425.37	521.78
425.746	560.88
426.123	562.46
426.499	541.44
426.875	547.09
427.251	546.64
427.627	555.9
428.003	548.45
428.379	552.74
428.756	568.33
429.132	558.62
429.507	542.8
429.883	592.74
430.259	588.22
430.635	585.06
431.011	591.16
431.387	587.32
431.763	595.45
432.138	619.18
432.514	619.63
432.89	606.75
433.265	617.82
433.641	625.51
434.016	642.23
434.392	627.09
434.767	666.86
435.143	633.42
435.518	632.74
435.894	634.09
436.269	642.68
436.644	668.67
437.02	664.15
437.395	651.95
437.77	661.66
438.145	693.3
438.52	670.93
438.895	663.7
439.271	696.24
439.646	715
440.021	686.97
440.395	710.48
440.77	691.27
441.145	721.77
441.52	726.29
441.895	733.53
442.27	736.01
442.645	737.37
443.019	754.54
443.394	736.92
443.769	725.16
444.143	755.9
444.518	749.12
444.892	744.15
445.267	745.05
445.641	759.97
446.016	752.73
446.39	763.13
446.764	770.59
447.139	752.28
447.513	779.4
447.887	784.82
448.262	795.22
448.636	793.41
449.01	793.41
449.384	798.16
449.758	812.62
450.132	797.93
450.506	825.05
450.88	822.34
451.254	839.51
451.628	853.75
452.002	837.03
452.376	847.87
452.75	854.2
453.123	863.24
453.497	878.61
453.871	898.49
454.244	889.45
454.618	875.44
454.992	903.69
455.365	906.63
455.739	946.4
456.112	914.99
456.486	941.88
456.859	968.55
457.232	961.32
457.606	971.03
457.979	964.25
458.352	978.04
458.725	982.33
459.099	1018.49
459.472	1039.51
459.845	1033.86
460.218	1018.04
460.591	1074.53
460.964	1062.56
461.337	1074.76
461.71	1074.31
462.083	1098.71
462.456	1103.69
462.829	1119.05
463.201	1158.6
463.574	1136.68
463.947	1176
464.32	1179.16
464.692	1174.19
465.065	1190.01
465.438	1192.5
465.81	1227.75
466.183	1215.55
466.555	1280.86
466.928	1277.69
467.3	1274.53
467.672	1321.08
468.045	1364.02
468.417	1368.54
468.789	1375.54
469.161	1408.99
469.534	1412.15
469.906	1475.43
470.278	1465.71
470.65	1481.08
471.022	1526.27
471.394	1563.56
471.766	1545.71
472.138	1609.89
472.51	1640.85
472.882	1679.04
473.253	1705.25
473.625	1728.08
473.997	1808.98
474.369	1790.45
474.74	1860.05
475.112	1880.84
475.484	1912.48
475.855	1976.88
476.227	2008.07
476.598	2078.12
476.97	2087.84
477.341	2187.27
477.713	2222.53
478.084	2251.23
478.455	2324.22
478.827	2380.71
479.198	2463.42
479.569	2494.61
479.94	2578.9
480.311	2606.47
480.682	2736.64
481.053	2821.15
481.424	2889.4
481.795	2935.5
482.166	3048.72
482.537	3079
482.908	3237.87
483.279	3278.54
483.65	3373.46
484.021	3487.13
484.391	3594.69
484.762	3630.85
485.133	3765.08
485.503	3846.89
485.874	3987.45
486.244	4082.82
486.615	4196.49
486.985	4259.31
487.356	4388.8
487.726	4489.36
488.097	4687.09
488.467	4746.3
488.837	4893.19
489.207	5038.5
489.578	5171.83
489.948	5217.02
490.318	5378.6
490.688	5488.43
491.058	5652.72
491.428	5746.95
491.798	5885.71
492.168	6037.12
492.538	6213.83
492.908	6275.3
493.278	6422.87
493.648	6533.6
494.017	6647.04
494.387	6794.38
494.757	6970.42
495.126	7068.05
495.496	7145.56
495.866	7255.84
496.235	7404.31
496.605	7532.44
496.974	7713.91
497.344	7829.61
497.713	7934.01
498.082	8038.87
498.452	8284.29
498.821	8339.43
499.19	8408.8
499.559	8570.16
499.928	8688.57
500.298	8753.88
500.667	8869.36
501.036	8994.1
501.405	9080.2
501.774	9147.54
502.143	9373.07
502.512	9468.21
502.88	9577.36
503.249	9603.58
503.618	9805.38
503.987	9845.83
504.356	9984.36
504.724	10074.3
505.093	10168.53
505.462	10218.47
505.83	10278.81
506.199	10457.56
506.567	10566.49
506.936	10559.26
507.304	10738.46
507.672	10802.64
508.041	10893.94
508.409	10965.8
508.777	11163.53
509.145	11171.67
509.514	11260.25
509.882	11383.87
510.25	11442.62
510.618	11490.08
510.986	11581.6
511.354	11714.03
511.722	11760.58
512.09	11894.81
512.458	11906.79
512.826	12118.99
513.193	12100.91
513.561	12148.37
513.929	12289.61
514.297	12398.98
514.664	12481.01
515.032	12454.57
515.4	12540.45
515.767	12646.21
516.135	12747.45
516.502	12696.6
516.869	12888.01
517.237	12939.98
517.604	12950.38
517.972	13054.33
518.339	13151.96
518.706	13132.52
519.073	13235.12
519.44	13288.45
519.808	13357.15
520.175	13430.14
520.542	13496.81
520.909	13602.79
521.276	13615
521.643	13720.53
522.009	13804.59
522.376	13890.47
522.743	13909.22
523.11	13993.74
523.477	14134.76
523.843	14099.73
524.21	14207.52
524.577	14399.38
524.943	14304.69
525.31	14364.35
525.676	14482.09
526.043	14494.97
526.409	14620.62
526.776	14772.93
527.142	14711.01
527.508	14777.45
527.874	14844.79
528.241	14859.03
528.607	14824.91
528.973	15016.77
529.339	14966.37
529.705	15073.49
530.071	15094.96
530.437	15245.91
530.803	15217.44
531.169	15169.08
531.535	15122.07
531.901	15251.34
532.267	15248.4
532.632	15292.92
532.998	15383.76
533.364	15371.33
533.73	15333.37
534.095	15441.39
534.461	15443.65
534.826	15536.98
535.192	15475.29
535.557	15628.05
535.923	15557.09
536.288	15531.55
536.653	15580.59
537.019	15499.01
537.384	15585.79
537.749	15626.24
538.114	15594.15
538.479	15536.98
538.845	15607.03
539.21	15525.45
539.575	15629.86
539.94	15539.46
540.305	15579.01
540.67	15583.3
541.034	15754.15
541.399	15584.21
541.764	15625.11
542.129	15661.72
542.494	15606.36
542.858	15603.87
543.223	15533.14
543.587	15669.18
543.952	15619.24
544.316	15590.31
544.681	15552.12
545.045	15721.38
545.41	15634.83
545.774	15652.46
546.138	15570.88
546.503	15611.78
546.867	15535.17
547.231	15628.05
547.595	15661.72
547.959	15640.03
548.324	15543.76
548.688	15651.55
549.052	15540.37
549.416	15646.81
549.779	15587.6
550.143	15597.54
550.507	15628.5
550.871	15591.44
551.235	15556.86
551.599	15699.46
551.962	15636.64
552.326	15681.16
552.689	15664.66
553.053	15507.37
553.417	15553.7
553.78	15733.81
554.143	15609.52
554.507	15619.01
554.87	15640.03
555.234	15728.16
555.597	15604.77
555.96	15587.37
556.323	15680.7
556.686	15676.64
557.05	15717.76
557.413	15710.76
557.776	15714.6
558.139	15694.26
558.502	15765.22
558.865	15753.47
559.228	15750.08
559.59	15831.43
559.953	15758.67
560.316	15893.81
560.679	15788.05
561.041	15906.91
561.404	16021.26
561.767	16020.81
562.129	15925.89
562.492	16054.48
562.854	16025.55
563.217	15981.26
563.579	15976.29
563.941	16095.16
564.304	16267.58
564.666	16309.16
565.028	16130.41
565.39	16282.72
565.753	16298.31
566.115	16316.39
566.477	16451.3
566.839	16418.09
567.201	16448.14
567.563	16458.54
567.925	16522.72
568.287	16408.59
568.648	16482.72
569.01	16508.93
569.372	16632.32
569.734	16572.21
570.095	16727.68
570.457	16775.82
570.819	16752.77
571.18	16684.07
571.542	16771.97
571.903	16822.14
572.265	16863.05
572.626	16978.75
572.987	16905.3
573.349	16796.15
573.71	16952.31
574.071	17061.91
574.432	16988.01
574.794	17096.03
575.155	17132.42
575.516	17014.23
575.877	17050.61
576.238	17150.5
576.599	17148.69
576.96	17170.83
577.32	17073.89
577.681	17153.43
578.042	17117.73
578.403	17205.64
578.763	17241.34
579.124	17263.49
579.485	17334.45
579.845	17307.33
580.206	17290.83
580.566	17254.45
580.927	17245.63
581.287	17289.02
581.648	17242.24
582.008	17295.58
582.368	17299.64
582.728	17354.56
583.089	17280.89
583.449	17269.59
583.809	17343.48
584.169	17296.25
584.529	17171.29
584.889	17290.38
585.249	17230.95
585.609	17248.57
585.969	17251.74
586.329	17190.27
586.688	17281.11
587.048	17237.27
587.408	17110.5
587.768	17233.43
588.127	17175.81
588.487	17220.32
588.846	17302.36
589.206	17134.45
589.565	17130.38
589.925	17196.14
590.284	17210.61
590.643	17282.47
591.003	17202.47
591.362	17189.82
591.721	17124.73
592.08	17044.96
592.44	17259.42
592.799	17160.89
593.158	17168.57
593.517	17110.95
593.876	17216.03
594.235	17008.35
594.593	17161.12
594.952	17195.01
595.311	17135.58
595.67	17171.74
596.029	17170.61
596.387	17232.08
596.746	17244.5
597.104	17099.42
597.463	17175.13
597.822	17188.23
598.18	17098.97
598.538	17131.06
598.897	17208.57
599.255	16997.96
599.613	17289.47
599.972	17184.39
600.33	17197.27
600.688	17052.64
601.046	17241.79
601.404	17324.95
601.762	17187.33
602.12	17286.99
602.478	17313.88
602.836	17202.02
603.194	17121.12
603.552	17270.27
603.91	17082.93
604.268	17266.65
604.625	17108.24
604.983	17290.15
605.341	17146.65
605.698	17305.07
606.056	17224.84
606.413	17268.46
606.771	17371.28
607.128	17361.56
607.485	17276.59
607.843	17268.46
608.2	17357.27
608.557	17406.53
608.914	17373.09
609.272	17357.95
609.629	17575.12
609.986	17464.84
610.343	17372.86
610.7	17572.63
611.057	17508.23
611.414	17418.51
611.771	17490.37
612.127	17544.84
612.484	17513.88
612.841	17621.44
613.198	17539.64
613.554	17498.51
613.911	17587.55
614.267	17685.62
614.624	17622.35
614.98	17776.47
615.337	17681.78
615.693	17699.63
616.05	17729.46
616.406	17825.28
616.762	17755.23
617.118	17736.69
617.475	17731.5
617.831	17744.6
618.187	17754.55
618.543	17860.53
618.899	17920.87
619.255	17830.03
619.611	17862.57
619.967	17825.05
620.323	17853.08
620.678	17872.51
621.034	17786.86
621.39	17824.6
621.746	17783.02
622.101	18041.55
622.457	17895.11
622.812	17971.49
623.168	17905.28
623.523	18019.85
623.879	17918.16
624.234	17898.05
624.589	17923.13
624.945	18005.84
625.3	18094.2
625.655	17962.23
626.01	18007.87
626.365	17976.24
626.72	17989.57
627.075	17985.95
627.43	17933.75
627.785	17822.79
628.14	17955.22
628.495	17943.47
628.85	18003.35
629.205	17812.4
629.559	18054.65
629.914	17939.18
630.269	17936.69
630.623	17814.66
630.978	17710.03
631.332	17866.18
631.687	17922.68
632.041	17812.85
632.396	17913.64
632.75	17752.29
633.104	17773.08
633.459	17705.51
633.813	17676.58
634.167	17660.09
634.521	17705.06
634.875	17701.89
635.229	17678.17
635.583	17584.16
635.937	17615.79
636.291	17536.93
636.645	17525.17
636.999	17477.94
637.352	17641.56
637.706	17456.7
638.06	17579.64
638.413	17475.68
638.767	17460.32
639.121	17518.17
639.474	17375.35
639.828	17424.39
640.181	17394.33
640.534	17350.94
640.888	17356.37
641.241	17279.31
641.594	17403.14
641.947	17411.05
642.301	17326.99
642.654	17331.51
643.007	17406.08
643.36	17350.26
643.713	17291.06
644.066	17337.16
644.419	17245.41
644.771	17106.88
645.124	17012.19
645.477	16955.25
645.83	16799.54
646.182	16840.22
646.535	16614.24
646.888	16732.2
647.24	16726.78
647.593	16728.81
647.945	16753.44
648.298	16634.12
648.65	16616.27
649.002	16670.96
649.355	16605.88
649.707	16640
650.059	16691.3
650.411	16953.44
650.763	16889.94
651.115	17155.47
651.467	16985.08
651.819	17122.02
652.171	17093.77
652.523	16995.47
652.875	16997.05
653.227	16927
653.578	17095.13
653.93	17026.66
654.282	16916.38
654.633	17037.73
654.985	17012.42
655.337	16963.83
655.688	17057.16
656.039	17096.49
656.391	16874.57
656.742	17006.32
657.094	16939.88
657.445	17048.8
657.796	16924.74
658.147	17031.85
658.498	16898.07
658.849	17027.33
659.2	16917.06
659.551	16939.43
659.902	16985.53
660.253	16997.51
660.604	17094.9
660.955	17012.87
661.306	17059.65
661.656	17018.07
662.007	17006.77
662.358	17062.59
662.708	17005.87
663.059	17025.07
663.409	16961.8
663.76	17030.5
664.11	16991.86
664.461	17019.88
664.811	17004.96
665.161	17034.79
665.511	17032.98
665.862	17067.33
666.212	17131.51
666.562	17085.64
666.912	17071.63
667.262	17010.84
667.612	17129.25
667.962	17065.75
668.312	17085.19
668.662	17086.77
669.011	17105.75
669.361	17004.28
669.711	16996.83
670.06	17088.12
670.41	16997.51
670.76	16931.29
671.109	17016.49
671.459	17022.59
671.808	16925.87
672.157	16993.21
672.507	16928.58
672.856	16873.67
673.205	16818.98
673.554	16908.02
673.904	16803.16
674.253	16941.24
674.602	16875.25
674.951	16660.79
675.3	16517.29
675.649	16856.04
675.998	16821.46
676.346	16736.72
676.695	16833.22
677.044	16771.07
677.393	16625.99
677.741	16814.46
678.09	16740.34
678.438	16707.8
678.787	16686.78
679.135	16732.88
679.484	16601.13
679.832	16730.62
680.181	16664.86
680.529	16585.54
680.877	16498.31
681.225	16525.88
681.573	16548.25
681.922	16505.99
682.27	16472.1
682.618	16373.79
682.966	16343.96
683.314	16355.94
683.661	16336.96
684.009	16311.65
684.357	16222.61
684.705	16238.43
685.053	16253.12
685.4	16225.32
685.748	16150.97
686.095	16147.81
686.443	16065.78
686.79	16056.29
687.138	16097.64
687.485	16049.73
687.832	15894.48
688.18	15983.52
688.527	15850.42
688.874	15958.66
689.221	15792.79
689.568	15761.83
689.915	15666.01
690.262	15704.43
690.609	15663.53
690.956	15601.38
691.303	15637.77
691.65	15424.89
691.997	15586.02
692.344	15367.72
692.69	15346.7
693.037	15341.05
693.383	15259.02
693.73	15322.52
694.077	15059.93
694.423	15174.5
694.769	15047.73
695.116	15105.35
695.462	15025.13
695.808	14961.17
696.155	14954.62
696.501	14846.15
696.847	14950.55
697.193	14717.34
697.539	14796.66
697.885	14670.56
698.231	14534.97
698.577	14569.09
698.923	14483.9
699.269	14428.08
699.614	14352.6
699.96	14297.24
700.306	14403.22
700.651	14256.33
700.997	14260.63
701.342	14222.66
701.688	14150.12
702.033	14171.82
702.379	14081.88
702.724	13979.05
703.069	14079.84
703.415	13890.92
703.76	13910.81
704.105	13950.81
704.45	13824.03
704.795	13737.03
705.14	13706.07
705.485	13620.19
705.83	13656.35
706.175	13612.96
706.52	13547.2
706.865	13511.27
707.209	13535.45
707.554	13389.46
707.899	13477.15
708.243	13473.53
708.588	13349.24
708.932	13222.01
709.277	13206.42
709.621	13335
709.966	13140.66
710.31	13225.63
710.654	13061.11
710.998	13050.26
711.342	13044.61
711.687	13087.78
712.031	12975.46
712.375	12877.61
712.719	12913.77
713.063	12845.75
713.407	12892.53
713.75	12811.85
714.094	12815.69
714.438	12730.5
714.782	12824.73
715.125	12658.18
715.469	12689.14
715.812	12705.19
716.156	12574.57
716.499	12645.76
716.843	12631.52
717.186	12558.07
717.53	12612.54
717.873	12648.01
718.216	12557.4
718.559	12614.8
718.902	12450.05
719.246	12481.92
719.589	12473.56
719.932	12365.08
720.275	12434.01
720.617	12386.55
720.96	12320.11
721.303	12316.72
721.646	12348.81
721.989	12275.6
722.331	12322.15
722.674	12338.87
723.016	12331.19
723.359	12307.68
723.701	12293.45
724.044	12183.17
724.386	12151.08
724.729	12265.65
725.071	12193.79
725.413	12200.57
725.755	12146.33
726.097	12098.65
726.439	12095.94
726.782	12056.62
727.124	12164.41
727.465	12097.75
727.807	12065.21
728.149	12049.61
728.491	11994.92
728.833	12133.68
729.175	12030.18
729.516	11994.92
729.858	11929.16
730.199	11911.09
730.541	12008.71
730.882	11970.74
731.224	12003.51
731.565	11948.37
731.906	11991.76
732.248	11988.6
732.589	11924.42
732.93	11922.16
733.271	11976.17
733.612	11878.77
733.953	12001.7
734.294	11917.64
734.635	11955.15
734.976	11973.46
735.317	11861.37
735.658	11908.37
735.999	11836.74
736.339	11853.01
736.68	11874.93
737.021	11908.37
737.361	11886.9
737.702	11936.17
738.042	11967.81
738.383	11864.98
738.723	11907.7
739.063	11902.27
739.404	11968.71
739.744	11908.37
740.084	11914.7
740.424	12009.16
740.764	12004.87
741.104	12062.95
741.444	11950.41
741.784	12015.72
742.124	11952.21
742.464	12027.47
742.804	12011.65
743.143	12009.39
743.483	12017.07
743.823	11980.01
744.162	12046.22
744.502	12198.76
744.841	12093.68
745.181	12188.37
745.52	12150.85
745.86	12158.99
746.199	12139.78
746.538	12263.62
746.877	12329.38
747.216	12319.89
747.556	12417.51
747.895	12431.52
748.234	12483.5
748.573	12436.27
748.911	12576.83
749.25	12587.23
749.589	12645.53
749.928	12687.34
750.267	12818.18
750.605	12733.44
750.944	12900.44
751.283	12881
751.621	13035.8
751.96	13016.14
752.298	13166.87
752.636	13202.58
752.975	13199.64
753.313	13227.43
753.651	13462.91
753.989	13576.8
754.327	13552.62
754.666	13696.57
755.004	13767.99
755.342	13830.58
755.679	13961.2
756.017	13946.06
756.355	14155.32
756.693	14205.04
757.031	14351.25
757.368	14388.99
757.706	14505.82
758.044	14520.06
758.381	14643.44
758.719	14782.87
759.056	14934.73
759.394	15029.65
759.731	15076.88
760.068	15120.04
760.405	15248.85
760.743	15313.03
761.08	15560.71
761.417	15600.25
761.754	15663.08
762.091	15837.76
762.428	15794.37
762.765	15937.19
763.102	16171.09
763.438	16258.99
763.775	16197.3
764.112	16317.07
764.449	16595.93
764.785	16424.41
765.122	16545.31
765.458	16576.05
765.795	16735.37
766.131	16774.23
766.467	16958.86
766.804	16843.61
767.14	16963.83
767.476	16978.52
767.812	17114.11
768.148	17198.4
768.485	17182.81
768.821	17155.47
769.157	17252.64
769.492	17275.01
769.828	17367.44
770.164	17279.31
770.5	17318.17
770.836	17355.46
771.171	17493.09
771.507	17436.82
771.842	17451.05
772.178	17522.46
772.513	17462.58
772.849	17519.53
773.184	17543.03
773.519	17575.79
773.855	17520.88
774.19	17546.42
774.525	17540.99
774.86	17614.66
775.195	17708.22
775.53	17575.57
775.865	17564.72
776.2	17379.64
776.535	17373.09
776.87	17463.48
777.205	17362.24
777.539	17355.01
777.874	17460.54
778.209	17353.43
778.543	17321.56
778.878	17320.89
779.212	17324.5
779.547	17222.58
779.881	17356.37
780.215	17205.18
780.55	17232.3
780.884	17204.28
781.218	17202.7
781.552	17160.44
781.886	17209.02
782.22	17009.03
782.554	17052.19
782.888	17025.75
783.222	16881.58
783.556	16748.47
783.889	16803.16
784.223	16763.84
784.557	16655.14
784.89	16794.12
785.224	16750.05
785.557	16656.95
785.891	16615.14
786.224	16625.54
786.558	16603.39
786.891	16473.23
787.224	16421.93
787.557	16423.06
787.891	16421.93
788.224	16370.4
788.557	16413.79
788.89	16273.91
789.223	16326.56
789.556	16155.72
789.888	16147.58
790.221	16110.97
790.554	16069.17
790.887	16085.44
791.219	16010.19
791.552	15969.96
791.884	15862.85
792.217	15857.65
792.549	15818.55
792.882	15704.43
793.214	15708.95
793.546	15680.7
793.879	15628.73
794.211	15558.45
794.543	15537.43
794.875	15520.93
795.207	15523.87
795.539	15459.92
795.871	15471.9
796.203	15280.26
796.535	15245.23
796.867	15252.47
797.198	15243.2
797.53	15189.19
797.862	15028.52
798.193	15184.9
798.525	15087.5
798.856	15127.05
799.188	14902.87
799.519	14857.22
799.85	14868.3
800.182	14858.58
800.513	14903.55
800.844	14632.37
801.175	14682.31
801.506	14706.04
801.837	14688.87
802.168	14645.7
802.499	14575.2
802.83	14519.15
803.161	14541.75
803.491	14438.93
803.822	14465.14
804.153	14371.36
804.483	14291.14
804.814	14268.54
805.145	14224.02
805.475	14225.15
805.805	14143.34
806.136	14235.54
806.466	14159.61
806.796	14204.13
807.126	14043.68
807.457	13981.09
807.787	14020.18
808.117	13931.37
808.447	13876.23
808.777	13933.63
809.107	13802.11
809.436	13836.46
809.766	13863.35
810.096	13739.96
810.426	13704.03
810.755	13669.91
811.085	13626.52
811.414	13601.89
811.744	13505.17
812.073	13526.41
812.403	13474.43
812.732	13472.63
813.061	13443.25
813.39	13419.97
813.719	13402.12
814.049	13385.17
814.378	13297.94
814.707	13254.78
815.036	13273.76
815.365	13142.47
815.693	13109.7
816.022	13151.5
816.351	13106.53
816.68	13086.65
817.008	13059.76
817.337	12930.04
817.665	12893.21
817.994	13024.28
818.322	12910.38
818.651	12928.91
818.979	12770.5
819.307	12905.64
819.636	12836.71
819.964	12672.65
820.292	12825.86
820.62	12797.62
820.948	12710.16
821.276	12720.78
821.604	12726.88
821.932	12774.79
822.259	12725.3
822.587	12742.25
822.915	12702.02
823.243	12802.59
823.57	12737.96
823.898	12711.97
824.225	12627.9
824.553	12670.16
824.88	12699.31
825.207	12714.45
825.535	12679.2
825.862	12738.18
826.189	12664.74
826.516	12712.65
826.843	12677.62
827.17	12759.65
827.497	12754.68
827.824	12667
828.151	12729.14
828.478	12652.53
828.805	12801.23
829.131	12658.64
829.458	12596.26
829.785	12653.21
830.111	12653.66
830.438	12693.44
830.764	12645.3
831.09	12654.57
831.417	12583.84
831.743	12667.22
832.069	12630.16
832.395	12590.62
832.722	12596.72
833.048	12564.63
833.374	12587.23
833.7	12549.26
834.026	12572.31
834.351	12601.24
834.677	12565.98
835.003	12560.79
835.329	12610.05
835.654	12507.68
835.98	12489.15
836.306	12485.53
836.631	12352.43
836.956	12364.63
837.282	12447.12
837.607	12388.36
837.932	12332.09
838.258	12394.24
838.583	12331.19
838.908	12296.84
839.233	12306.1
839.558	12259.55
839.883	12232.88
840.208	12176.84
840.533	12213.68
840.858	12219.33
841.182	12193.11
841.507	12164.64
841.832	12173.23
842.156	12130.06
842.481	12111.08
842.805	12071.98
843.13	12051.87
843.454	12035.6
843.778	11923.51
844.103	11940.24
844.427	11952.21
844.751	11949.28
845.075	11875.38
845.399	11770.07
845.723	11767.13
846.047	11846
846.371	11656.63
846.695	11729.62
847.019	11621.15
847.343	11554.94
847.666	11466.58
847.99	11434.26
848.313	11396.75
848.637	11328.73
848.96	11355.17
849.284	11354.04
849.607	11223.87
849.931	11195.62
850.254	11164.44
850.577	11055.97
850.9	11034.95
851.223	10989.08
851.546	10982.07
851.869	10832.24
852.192	10924.22
852.515	10805.13
852.838	10722.87
853.161	10736.88
853.483	10684.45
853.806	10641.06
854.129	10629.99
854.451	10594.06
854.774	10553.38
855.096	10534.17
855.419	10485.59
855.741	10476.09
856.063	10442.65
856.385	10423.89
856.708	10414.18
857.03	10316.1
857.352	10343.89
857.674	10317.68
857.996	10253.95
858.318	10169.66
858.64	10246.27
858.961	10171.7
859.283	10176.67
859.605	10143.67
859.926	10104.58
860.248	10035.2
860.57	10045.37
860.891	10071.13
861.212	10016.22
861.534	9966.73
861.855	9959.95
862.176	9947.75
862.498	9905.71
862.819	9892.16
863.14	9886.05
863.461	9872.04
863.782	9755.66
864.103	9820.29
864.424	9793.63
864.745	9880.63
865.065	9757.24
865.386	9724.7
865.707	9750.24
866.027	9725.83
866.348	9736.45
866.668	9609.22
866.989	9630.69
867.309	9571.71
867.63	9647.87
867.95	9568.1
868.27	9578.49
868.59	9515.67
868.91	9544.14
869.23	9475.22
869.55	9498.95
869.87	9508.44
870.19	9470.25
870.51	9500.53
870.83	9445.16
871.15	9344.6
871.469	9415.11
871.789	9435.44
872.109	9383.92
872.428	9399.29
872.748	9331.49
873.067	9364.49
873.386	9374.65
873.706	9396.35
874.025	9283.58
874.344	9320.64
874.663	9354.54
874.982	9257.37
875.301	9258.5
875.62	9219.4
875.939	9264.83
876.258	9189.57
876.577	9177.15
876.896	9198.84
877.214	9107.99
877.533	9159.29
877.852	9152.74
878.17	9113.87
878.489	9127.43
878.807	9112.29
879.125	9107.99
879.444	9043.36
879.762	9035.68
880.08	9032.06
880.398	9013.31
880.716	9060.31
881.034	8975.12
881.352	8952.29
881.67	8969.02
881.988	8967.43
882.306	8955.46
882.624	8909.58
882.941	8840.66
883.259	8827.55
883.577	8728.57
883.894	8793.43
884.212	8774.22
884.529	8734.9
884.846	8734.22
885.164	8709.36
885.481	8627.78
885.798	8672.07
886.115	8599.99
886.432	8650.15
886.75	8568.12
887.067	8615.35
887.383	8568.57
887.7	8558.18
888.017	8456.26
888.334	8493.77
888.651	8498.29
888.967	8519.08
889.284	8429.59
889.6	8385.53
889.917	8289.71
890.233	8302.59
890.55	8348.01
890.866	8315.47
891.182	8272.31
891.498	8278.64
891.815	8241.13
892.131	8189.38
892.447	8218.53
892.763	8097.63
893.079	8119.09
893.395	8103.5
893.71	8139.43
894.026	8087.91
894.342	8076.84
894.657	7995.26
894.973	8064.41
895.289	7949.83
895.604	7963.39
895.92	7946.44
896.235	7901.25
896.55	7843.62
896.865	7868.93
897.181	7838.88
897.496	7829.38
897.811	7815.37
898.126	7716.85
898.441	7694.92
898.756	7680.91
899.071	7659.67
899.386	7593.46
899.7	7544.87
900.015	7523.18
900.33	7474.82
900.644	7505.1
900.959	7515.72
901.273	7463.29
901.588	7467.36
901.902	7333.13
902.216	7358.44
902.531	7337.87
902.845	7345.78
903.159	7277.76
903.473	7243.64
903.787	7268.27
904.101	7190.31
904.415	7181.94
904.729	7088.84
905.042	7105.34
905.356	7069.86
905.67	7081.16
905.984	7088.84
906.297	6990.31
906.611	7001.38
906.924	6924.1
907.237	6977.66
907.551	6959.8
907.864	6887.26
908.177	6897.21
908.491	6887.71
908.804	6795.29
909.117	6815.17
909.43	6762.07
909.743	6707.61
910.056	6750.32
910.368	6673.48
910.681	6634.61
910.994	6631
911.307	6555.07
911.619	6541.73
911.932	6506.03
912.244	6524.56
912.557	6496.09
912.869	6465.58
913.181	6454.96
913.494	6435.3
913.806	6415.41
914.118	6397.56
914.43	6320.72
914.742	6289.31
915.054	6269.65
915.366	6268.52
915.678	6252.7
915.99	6216.09
916.302	6158.47
916.613	6092.48
916.925	6136.1
917.236	6127.73
917.548	6039.83
917.859	6097.45
918.171	6010.22
918.482	6009.09
918.794	6011.81
919.105	5978.36
919.416	5927.06
919.727	5924.12
920.038	5866.95
920.349	5871.24
920.66	5787.86
920.971	5800.06
921.282	5847.74
921.593	5781.53
921.903	5685.71
922.214	5694.98
922.525	5716.9
922.835	5643.45
923.146	5608.65
923.456	5611.82
923.767	5573.62
924.077	5623.34
924.387	5573.85
924.697	5470.35
925.008	5480.52
925.318	5501.76
925.628	5480.75
925.938	5492.04
926.248	5435.1
926.558	5406.85
926.867	5374.08
927.177	5345.16
927.487	5313.07
927.796	5303.8
928.106	5289.79
928.416	5237.81
928.725	5288.89
929.034	5231.03
929.344	5210.7
929.653	5201.88
929.962	5130.25
930.271	5103.81
930.581	5104.71
930.89	5075.78
931.199	5034.43
931.508	5066.29
931.817	5056.12
932.125	5032.4
932.434	5011.83
932.743	4946.52
933.051	4907.2
933.36	4935.68
933.669	4913.3
933.977	4850.48
934.286	4855.68
934.594	4857.49
934.902	4819.97
935.21	4786.98
935.519	4784.49
935.827	4765.96
936.135	4713.99
936.443	4680.77
936.751	4671.05
937.059	4680.77
937.367	4671.95
937.674	4675.34
937.982	4638.28
938.29	4609.13
938.597	4620.66
938.905	4583.59
939.213	4563.71
939.52	4484.16
939.827	4512.41
940.135	4461.11
940.442	4441.68
940.749	4479.19
941.056	4450.49
941.363	4408.68
941.67	4432.19
941.977	4336.14
942.284	4365.75
942.591	4300.66
942.898	4378.85
943.205	4324.62
943.511	4304.96
943.818	4270.38
944.125	4278.97
944.431	4263.15
944.738	4186.54
945.044	4203.27
945.35	4214.56
945.657	4154.9
945.963	4117.17
946.269	4108.35
946.575	4107.22
946.881	4121.46
947.187	4095.25
947.493	4000.11
947.799	4063.38
948.105	4037.85
948.41	3995.36
948.716	3979.99
949.022	4005.3
949.327	3947
949.633	3911.07
949.938	3934.8
950.244	3911.52
950.549	3903.61
950.854	3862.48
951.16	3850.51
951.465	3812.99
951.77	3831.98
952.075	3846.44
952.38	3786.55
952.685	3790.39
952.99	3725.09
953.294	3737.06
953.599	3745.2
953.904	3675.82
954.209	3631.08
954.513	3679.66
954.818	3651.87
955.122	3668.82
955.426	3665.65
955.731	3637.86
956.035	3584.07
956.339	3605.09
956.643	3561.93
956.948	3541.36
957.252	3574.81
957.556	3526.67
957.86	3497.75
958.163	3506.56
958.467	3499.33
958.771	3481.48
959.075	3460.01
959.378	3442.16
959.682	3428.37
959.985	3443.74
960.289	3364.87
960.592	3360.35
960.896	3347.47
961.199	3336.85
961.502	3336.85
961.805	3309.96
962.108	3304.31
962.411	3292.55
962.714	3294.14
963.017	3260.01
963.32	3239.22
963.623	3276.51
963.926	3258.66
964.228	3213.01
964.531	3140.47
964.833	3173.69
965.136	3171.2
965.438	3198.55
965.741	3137.08
966.043	3149.96
966.345	3141.82
966.648	3109.51
966.95	3076.06
967.252	3066.35
967.554	3100.47
967.856	3081.49
968.158	3014.14
968.46	3014.6
968.761	2981.6
969.063	2991.09
969.365	3003.3
969.666	2968.04
969.968	2949.51
970.269	2941.38
970.571	2935.5
970.872	2886.69
971.174	2889.85
971.475	2918.33
971.776	2896.41
972.077	2875.62
972.378	2834.71
972.679	2828.39
972.98	2853.02
973.281	2829.74
973.582	2805.56
973.883	2787.71
974.183	2788.16
974.484	2795.39
974.785	2780.7
975.085	2710.88
975.386	2724.89
975.686	2725.79
975.986	2722.63
976.287	2730.31
976.587	2664.77
976.887	2670.2
977.187	2682.4
977.487	2630.88
977.787	2613.7
978.087	2591.56
978.387	2627.49
978.687	2591.33
978.987	2612.35
979.286	2592.69
979.586	2570.31
979.885	2568.96
980.185	2514.5
980.484	2520.82
980.784	2512.01
981.083	2480.15
981.382	2516.76
981.682	2506.59
981.981	2455.51
982.28	2511.33
982.579	2431.56
982.878	2487.15
983.177	2433.37
983.475	2446.93
983.774	2414.84
984.073	2389.08
984.372	2409.87
984.67	2394.5
984.969	2378.45
985.267	2410.54
985.566	2357.89
985.864	2348.85
986.162	2334.61
986.461	2331.68
986.759	2326.25
987.057	2284.45
987.355	2307.72
987.653	2302.75
987.951	2311.79
988.249	2286.03
988.547	2260.49
988.844	2200.15
989.142	2251.68
989.44	2224.11
989.737	2210.32
990.035	2218.23
990.332	2185.24
990.63	2187.95
990.927	2184.79
991.224	2159.48
991.521	2119.03
991.819	2175.97
992.116	2130.55
992.413	2124
992.71	2121.96
993.006	2128.29
993.303	2123.77
993.6	2087.16
993.897	2098.91
994.193	2069.08
994.49	2042.64
994.787	2047.39
995.083	2030.89
995.379	2056.88
995.676	2012.14
995.972	2036.77
996.268	2004.23
996.565	1989.09
996.861	1981.85
997.157	1996.54
997.453	1939.82
997.749	1987.73
998.044	1945.47
998.34	1940.05
998.636	1921.29
998.932	1938.01
999.227	1893.5
999.523	1914.06
999.818	1884.91
1000.114	1850.33
1000.409	1857.56
1000.704	1857.56
1001	1834.74
1001.295	1819.15
1001.59	1861.86
1001.885	1854.63
1002.18	1822.76
1002.475	1807.4
1002.77	1807.17
1003.065	1784.8
1003.359	1808.53
1003.654	1757.23
1003.949	1737.34
1004.243	1760.84
1004.538	1741.86
1004.832	1706.38
1005.127	1724.69
1005.421	1711.35
1005.715	1701.18
1006.009	1706.61
1006.304	1679.26
1006.598	1667.06
1006.892	1655.99
1007.186	1664.8
1007.48	1644.46
1007.773	1633.39
1008.067	1614.63
1008.361	1601.3
1008.655	1585.48
1008.948	1588.42
1009.242	1599.49
1009.535	1590
1009.829	1573.05
1010.122	1585.71
1010.415	1560.17
1010.708	1554.97
1011.001	1532.6
1011.295	1520.17
1011.588	1528.08
1011.881	1537.8
1012.173	1533.73
1012.466	1510.45
1012.759	1486.5
1013.052	1496.22
1013.344	1471.59
1013.637	1436.78
1013.93	1448.99
1014.222	1451.7
1014.514	1434.98
1014.807	1437.46
1015.099	1421.42
1015.391	1435.43
1015.683	1397.01
1015.976	1391.59
1016.268	1366.28
1016.56	1397.69
1016.851	1363.57
1017.143	1363.57
1017.435	1375.54
1017.727	1340.29
1018.018	1340.29
1018.31	1348.88
1018.602	1341.87
1018.893	1301.65
1019.185	1333.51
1019.476	1304.36
1019.767	1307.97
1020.058	1320.18
1020.35	1282.44
1020.641	1276.34
1020.932	1266.39
1021.223	1256.22
1021.514	1258.26
1021.804	1244.25
1022.095	1230.46
1022.386	1215.77
1022.677	1189.11
1022.967	1197.47
1023.258	1199.05
1023.548	1203.57
1023.839	1186.4
1024.129	1187.98
1024.419	1186.17
1024.709	1186.85
1025	1163.57
1025.29	1164.93
1025.58	1155.66
1025.87	1112.72
1026.16	1133.97
1026.449	1108.88
1026.739	1113.85
1027.029	1094.19
1027.319	1093.29
1027.608	1096
1027.898	1093.29
1028.187	1094.19
1028.477	1063.46
1028.766	1073.4
1029.055	1069.34
1029.344	1058.49
1029.634	1052.16
1029.923	1029.11
1030.212	1076.79
1030.501	1010.81
1030.79	1037.92
1031.078	1001.54
1031.367	1016
1031.656	986.63
1031.945	980.3
1032.233	974.2
1032.522	977.81
1032.81	976.01
1033.099	980.07
1033.387	965.84
1033.675	963.35
1033.963	955.67
1034.251	936.01
1034.54	937.81
1034.828	940.53
1035.116	952.73
1035.403	912.05
1035.691	933.29
1035.979	922.45
1036.267	901.66
1036.554	906.85
1036.842	909.11
1037.129	905.05
1037.417	867.99
1037.704	886.06
1037.992	892.39
1038.279	871.38
1038.566	861.21
1038.853	861.21
1039.14	861.21
