Data from hue_170_FLMS001491_00004.txt Node
Date: Tue Feb 07 16:48:09 GMT 2017
User: dcchb
Spectrometer: FLMS00149
Trigger mode: 0
Integration Time (sec): 2.000000E-2
Scans to average: 10
Electric dark correction enabled: true
Nonlinearity correction enabled: false
Boxcar width: 0
XAxis mode: Wavelengths
Number of Pixels in Spectrum: 2048
>>>>>Begin Spectral Data<<<<<
341.393	-3.83
341.776	-3.83
342.16	-3.83
342.543	-58.74
342.927	-75.92
343.31	-85.41
343.693	-73.43
344.077	-78.85
344.46	-60.1
344.843	-70.49
345.226	-35.69
345.61	-43.15
345.993	-9.25
346.376	-3.38
346.759	19.45
347.142	26.23
347.525	43.63
347.908	47.7
348.291	97.64
348.674	87.02
349.057	138.09
349.44	112.33
349.823	115.72
350.206	169.28
350.588	187.13
350.971	185.77
351.354	223.96
351.737	242.95
352.119	238.2
352.502	244.53
352.884	257.41
353.267	281.59
353.65	288.82
354.032	305.99
354.414	291.08
354.797	301.02
355.179	308.25
355.562	310.97
355.944	325.66
356.326	341.25
356.709	343.28
357.091	317.07
357.473	334.69
357.855	315.49
358.238	339.89
358.62	332.43
359.002	329.5
359.384	331.53
359.766	331.98
360.148	331.3
360.53	346.45
360.912	348.03
361.294	331.98
361.676	323.85
362.057	329.27
362.439	320.46
362.821	310.29
363.203	309.84
363.584	325.66
363.966	339.21
364.348	324.53
364.729	322.04
365.111	348.48
365.493	294.47
365.874	310.97
366.256	319.1
366.637	304.19
367.019	328.37
367.4	303.96
367.781	314.13
368.163	308.48
368.544	322.94
368.925	291.31
369.306	327.69
369.688	315.94
370.069	324.75
370.45	318.65
370.831	288.82
371.212	311.64
371.593	308.48
371.974	310.51
372.355	310.29
372.736	316.39
373.117	321.14
373.498	329.95
373.879	320.91
374.26	310.51
374.641	335.6
375.021	324.98
375.402	315.49
375.783	295.15
376.163	333.34
376.544	325.2
376.925	315.26
377.305	319.1
377.686	313.68
378.066	319.1
378.447	334.69
378.827	337.86
379.208	313.45
379.588	346.45
379.968	344.41
380.349	336.95
380.729	316.16
381.109	321.81
381.489	332.66
381.87	336.73
382.25	332.43
382.63	348.93
383.01	347.58
383.39	328.37
383.77	318.88
384.15	332.66
384.53	351.19
384.91	348.03
385.29	334.92
385.67	339.44
386.049	350.74
386.429	343.06
386.809	364.75
387.189	360.23
387.568	354.81
387.948	346.45
388.328	357.52
388.707	382.6
389.087	350.97
389.466	357.29
389.846	359.78
390.225	365.65
390.605	360.23
390.984	360
391.363	362.72
391.743	387.57
392.122	378.31
392.501	375.82
392.881	387.8
393.26	366.56
393.639	377.63
394.018	377.18
394.397	376.28
394.776	400.23
395.155	386.22
395.534	351.42
395.913	416.95
396.292	398.65
396.671	399.78
397.05	373.79
397.429	393
397.808	371.98
398.186	387.35
398.565	407.24
398.944	418.99
399.323	393.22
399.701	413.56
400.08	387.35
400.458	385.09
400.837	401.59
401.215	406.33
401.594	416.5
401.972	408.36
402.351	388.7
402.729	426.22
403.107	422.83
403.486	424.18
403.864	415.6
404.242	425.99
404.62	427.57
404.999	438.65
405.377	440.23
405.755	436.61
406.133	441.58
406.511	451.3
406.889	460.57
407.267	469.38
407.645	448.59
408.023	473.9
408.401	465.76
408.779	469.83
409.156	468.7
409.534	496.95
409.912	476.84
410.29	483.84
410.667	512.32
411.045	502.15
411.422	500.11
411.8	510.28
412.178	494.46
412.555	509.61
412.933	511.64
413.31	554.35
413.687	547.34
414.065	538.53
414.442	512.99
414.819	528.81
415.197	547.57
415.574	548.25
415.951	582.37
416.328	559.55
416.705	581.92
417.082	571.98
417.46	566.78
417.837	583.73
418.214	592.09
418.591	585.76
418.967	598.64
419.344	609.94
419.721	610.85
420.098	606.1
420.475	604.97
420.852	628.92
421.228	633.44
421.605	639.09
421.982	626.44
422.358	651.75
422.735	663.95
423.111	659.66
423.488	658.3
423.864	690.39
424.241	677.96
424.617	715.02
424.994	706.89
425.37	701.69
425.746	718.41
426.123	722.03
426.499	734.91
426.875	741.92
427.251	744.18
427.627	752.54
428.003	765.19
428.379	746.21
428.756	794.8
429.132	770.39
429.507	804.06
429.883	803.16
430.259	825.76
430.635	801.35
431.011	821.91
431.387	815.36
431.763	833.44
432.138	822.59
432.514	832.08
432.89	861.01
433.265	874.57
433.641	911.18
434.016	879.09
434.392	897.17
434.767	936.03
435.143	929.48
435.518	953.89
435.894	962.93
436.269	979.88
436.644	961.8
437.02	995.69
437.395	1003.38
437.77	999.99
438.145	991.63
438.52	1018.74
438.895	1048.8
439.271	1025.07
439.646	1055.58
440.021	1095.8
440.395	1080.66
440.77	1089.03
441.145	1094.9
441.52	1108.91
441.895	1111.17
442.27	1103.94
442.645	1119.76
443.019	1148.23
443.394	1161.11
443.769	1160.21
444.143	1173.32
444.518	1209.47
444.892	1190.49
445.267	1218.51
445.641	1209.7
446.016	1209.02
446.39	1237.27
446.764	1251.73
447.139	1256.25
447.513	1272.98
447.887	1287.66
448.262	1274.78
448.636	1231.39
449.01	1289.25
449.384	1347.1
449.758	1323.37
450.132	1344.84
450.506	1360.2
450.88	1347.1
451.254	1371.05
451.628	1366.76
452.002	1421.45
452.376	1426.42
452.75	1391.39
453.123	1429.81
453.497	1456.92
453.871	1471.61
454.244	1515.68
454.618	1514.1
454.992	1499.41
455.365	1521.78
455.739	1549.13
456.112	1568.33
456.486	1609.24
456.859	1605.17
457.232	1624.83
457.606	1621.89
457.979	1639.75
458.352	1707.31
458.725	1721.32
459.099	1735.11
459.472	1749.8
459.845	1740.08
460.218	1798.84
460.591	1815.11
460.964	1822.34
461.337	1881.09
461.71	1864.37
462.083	1919.06
462.456	1902.56
462.829	1930.81
463.201	1970.58
463.574	1978.27
463.947	2010.81
464.32	2085.38
464.692	2116.12
465.065	2100.52
465.438	2155.66
465.81	2169.67
466.183	2198.83
466.555	2236.79
466.928	2274.98
467.3	2284.02
467.672	2321.99
468.045	2391.36
468.417	2414.64
468.789	2416.22
469.161	2481.08
469.534	2517.69
469.906	2598.59
470.278	2646.5
470.65	2663.9
471.022	2714.29
471.394	2807.85
471.766	2805.36
472.138	2846.27
472.51	2902.76
472.882	2984.57
473.253	3015.53
473.625	3098.24
473.997	3210.33
474.369	3230.21
474.74	3244.67
475.112	3315.86
475.484	3409.19
475.855	3429.53
476.227	3482.41
476.598	3646.25
476.97	3691.22
477.341	3785.68
477.713	3853.25
478.084	3919.46
478.455	4067.48
478.827	4117.42
479.198	4229.73
479.569	4293.46
479.94	4428.6
480.311	4512.66
480.682	4635.15
481.053	4778.19
481.424	4844.18
481.795	4911.98
482.166	5038.07
482.537	5152.65
482.908	5291.4
483.279	5375.69
483.65	5488.46
484.021	5625.85
484.391	5712.86
484.762	5828.11
485.133	5897.94
485.503	6060.19
485.874	6226.07
486.244	6312.84
486.615	6519.62
486.985	6626.28
487.356	6800.29
487.726	6827.18
488.097	6978.36
488.467	7072.14
488.837	7310.78
489.207	7413.15
489.578	7584.45
489.948	7678
490.318	7849.07
490.688	7871.45
491.058	8096.98
491.428	8226.92
491.798	8348.5
492.168	8619.67
492.538	8616.51
492.908	8776.28
493.278	8930.17
493.648	8934.02
494.017	9087.23
494.387	9253.78
494.757	9420.33
495.126	9464.62
495.496	9576.26
495.866	9684.28
496.235	9802.47
496.605	9917.49
496.974	10015.8
497.344	10152.74
497.713	10235.68
498.082	10256.92
498.452	10478.38
498.821	10542.34
499.19	10545.5
499.559	10716.34
499.928	10707.08
500.298	10883.8
500.667	11019.61
501.036	10980.52
501.405	11052.6
501.774	11164.92
502.143	11296.67
502.512	11349.55
502.88	11427.28
503.249	11424.12
503.618	11530.56
503.987	11650.56
504.356	11730.33
504.724	11802.87
505.093	11814.84
505.462	11808.74
505.83	11987.27
506.199	12063.43
506.567	12151.56
506.936	12156.08
507.304	12326.92
507.672	12327.37
508.041	12339.12
508.409	12455.28
508.777	12496.63
509.145	12642.17
509.514	12486.01
509.882	12671.77
510.25	12667.7
510.618	12713.13
510.986	12783.41
511.354	12868.6
511.722	12937.53
512.09	13010.52
512.458	13027.47
512.826	13061.37
513.193	13140.01
513.561	13136.84
513.929	13235.6
514.297	13240.57
514.664	13324.86
515.032	13389.04
515.4	13327.35
515.767	13472.43
516.135	13485.08
516.502	13362.6
516.869	13643.05
517.237	13550.84
517.604	13466.1
517.972	13622.71
518.339	13673.33
518.706	13681.01
519.073	13740.9
519.44	13741.57
519.808	13802.59
520.175	13761.91
520.542	13838.75
520.909	13852.53
521.276	13884.85
521.643	13966.43
522.009	13928.24
522.376	13992.41
522.743	13976.37
523.11	14109.47
523.477	14213.65
523.843	14103.15
524.21	14209.36
524.577	14304.04
524.943	14322.35
525.31	14332.29
525.676	14487.99
526.043	14478.05
526.409	14522.34
526.776	14486.86
527.142	14455.68
527.508	14447.32
527.874	14563.92
528.241	14521.21
528.607	14490.71
528.973	14591.27
529.339	14501.1
529.705	14576.81
530.071	14626.52
530.437	14642.12
530.803	14528.67
531.169	14593.75
531.535	14377.49
531.901	14441.22
532.267	14570.25
532.632	14566.64
532.998	14442.35
533.364	14491.61
533.73	14549.46
534.095	14528.45
534.461	14527.99
534.826	14495.45
535.192	14453.87
535.557	14468.11
535.923	14417.71
536.288	14426.98
536.653	14435.11
537.019	14294.78
537.384	14307.89
537.749	14291.16
538.114	14249.81
538.479	14228.11
538.845	14258.17
539.21	14051.17
539.575	14180.88
539.94	14081.9
540.305	14130.04
540.67	14071.51
541.034	13956.26
541.399	13959.65
541.764	13884.62
542.129	13892.08
542.494	13870.38
542.858	13818.41
543.223	13778.86
543.587	13748.35
543.952	13710.16
544.316	13722.14
544.681	13713.78
545.045	13615.7
545.41	13629.94
545.774	13578.41
546.138	13585.19
546.503	13461.36
546.867	13380.23
547.231	13472.65
547.595	13450.51
547.959	13405.99
548.324	13264.75
548.688	13276.73
549.052	13233.34
549.416	13266.78
549.779	13107.47
550.143	13098.65
550.507	13115.15
550.871	13189.27
551.235	13125.54
551.599	13042.16
551.962	13111.99
552.326	13022.95
552.689	12970.97
553.053	12826.12
553.417	12865.89
553.78	12946.11
554.143	12874.25
554.507	12879
554.87	12806.46
555.234	12841.94
555.597	12789.06
555.96	12702.73
556.323	12820.69
556.686	12680.81
557.05	12779.11
557.413	12691.66
557.776	12649.17
558.139	12727.59
558.502	12596.75
558.865	12576.18
559.228	12650.08
559.59	12556.52
559.953	12535.05
560.316	12673.81
560.679	12576.86
561.041	12719.68
561.404	12620.25
561.767	12730.3
562.129	12496.41
562.492	12611.89
562.854	12617.31
563.217	12559.68
563.579	12615.95
563.941	12616.18
564.304	12676.07
564.666	12646.46
565.028	12612.79
565.39	12640.13
565.753	12645.33
566.115	12603.75
566.477	12639.46
566.839	12687.59
567.201	12778.89
567.563	12720.81
567.925	12754.71
568.287	12716.52
568.648	12697.31
569.01	12766.68
569.372	12763.97
569.734	12697.08
570.095	12799.45
570.457	12841.26
570.819	12742.05
571.18	12791.32
571.542	12812.11
571.903	12869.73
572.265	12777.98
572.626	12932.1
572.987	12762.62
573.349	12883.74
573.71	12810.07
574.071	12889.84
574.432	12830.41
574.794	12917.64
575.155	12937.08
575.516	12842.84
575.877	12952.44
576.238	12881.26
576.599	12970.29
576.96	12928.49
577.32	12877.64
577.681	12992.21
578.042	12834.48
578.403	12895.27
578.763	12888.26
579.124	12910.64
579.485	12913.57
579.845	13031.99
580.206	12840.35
580.566	12907.7
580.927	12902.5
581.287	12978.43
581.648	12875.38
582.008	12898.21
582.368	12870.41
582.728	12864.08
583.089	12902.27
583.449	12797.87
583.809	12857.3
584.169	12860.69
584.529	12797.19
584.889	12866.34
585.249	12802.62
585.609	12735.5
585.969	12822.05
586.329	12727.59
586.688	12808.94
587.048	12772.11
587.408	12711.54
587.768	12740.24
588.127	12708.38
588.487	12737.98
588.846	12745.89
589.206	12685.78
589.565	12731.88
589.925	12763.97
590.284	12756.97
590.643	12728.04
591.003	12739.34
591.362	12763.07
591.721	12656.18
592.08	12614.6
592.44	12666.35
592.799	12637.65
593.158	12641.49
593.517	12578.21
593.876	12610.08
594.235	12629.51
594.593	12566.46
594.952	12575.5
595.311	12596.29
595.67	12549.97
596.029	12603.3
596.387	12617.08
596.746	12657.31
597.104	12558.1
597.463	12529.4
597.822	12586.58
598.18	12599.91
598.538	12444.43
598.897	12630.64
599.255	12492.34
599.613	12599.68
599.972	12610.53
600.33	12564.43
600.688	12525.56
601.046	12578.21
601.404	12550.87
601.762	12641.26
602.12	12597.65
602.478	12544.54
602.836	12525.79
603.194	12497.76
603.552	12646.01
603.91	12449.4
604.268	12537.31
604.625	12418.67
604.983	12613.69
605.341	12445.11
605.698	12542.51
606.056	12503.19
606.413	12554.03
606.771	12517.65
607.128	12594.71
607.485	12513.13
607.843	12560.14
608.2	12569.63
608.557	12576.63
608.914	12629.29
609.272	12622.28
609.629	12602.85
609.986	12700.02
610.343	12634.48
610.7	12736.4
611.057	12651.66
611.414	12632.45
611.771	12651.66
612.127	12807.36
612.484	12747.48
612.841	12714.26
613.198	12613.24
613.554	12689.17
613.911	12725.1
614.267	12736.63
614.624	12657.99
614.98	12755.84
615.337	12805.1
615.693	12753.35
616.05	12656.86
616.406	12768.49
616.762	12740.24
617.118	12702.96
617.475	12775.05
617.831	12790.64
618.187	12808.94
618.543	12820.47
618.899	12877.64
619.255	12858.89
619.611	12834.03
619.967	12938.43
620.323	12985.44
620.678	12810.52
621.034	12886
621.39	12879
621.746	12779.57
622.101	12954.93
622.457	12856.85
622.812	12895.27
623.168	13006.23
623.523	12875.83
623.879	12881.71
624.234	12881.26
624.589	12846
624.945	12841.03
625.3	12870.64
625.655	12842.16
626.01	12836.29
626.365	12871.99
626.72	12856.17
627.075	12824.54
627.43	12814.37
627.785	12755.84
628.14	12809.85
628.495	12913.8
628.85	12776.85
629.205	12737.31
629.559	12804.2
629.914	12772.11
630.269	12847.81
630.623	12795.38
630.978	12720.13
631.332	12766.46
631.687	12888.04
632.041	12712
632.396	12752.9
632.75	12729.85
633.104	12683.97
633.459	12565.11
633.813	12577.76
634.167	12617.76
634.521	12689.17
634.875	12673.35
635.229	12581.83
635.583	12626.8
635.937	12511.78
636.291	12510.19
636.645	12604.43
636.999	12585.45
637.352	12534.37
637.706	12488.73
638.06	12572.34
638.413	12471.55
638.767	12474.49
639.121	12447.37
639.474	12398.56
639.828	12467.71
640.181	12414.38
640.534	12382.74
640.888	12422.51
641.241	12256.87
641.594	12322.85
641.947	12317.43
642.301	12260.03
642.654	12417.31
643.007	12366.24
643.36	12323.53
643.713	12303.87
644.066	12320.59
644.419	12239.24
644.771	12192.46
645.124	11974.39
645.477	12061.39
645.83	11956.99
646.182	11942.52
646.535	11850.1
646.888	11954.5
647.24	11766.03
647.593	11901.4
647.945	11851.23
648.298	11858.91
648.65	11834.51
649.002	11818.01
649.355	11890.77
649.707	11833.83
650.059	11801.51
650.411	12042.41
650.763	12065.46
651.115	12135.74
651.467	12216.42
651.819	12116.53
652.171	12099.58
652.523	12080.6
652.875	12097.55
653.227	12004.67
653.578	12188.39
653.93	12192.69
654.282	12082.86
654.633	12096.42
654.985	12134.84
655.337	12104.55
655.688	12202.18
656.039	12152.46
656.391	12116.53
656.742	12165.57
657.094	12135.74
657.445	12155.63
657.796	12111.79
658.147	12164.21
658.498	12153.82
658.849	12193.59
659.2	12188.85
659.551	12099.36
659.902	12169.86
660.253	12114.5
660.604	12205.12
660.955	12190.2
661.306	12203.54
661.656	12103.2
662.007	12203.76
662.358	12173.71
662.708	12173.03
663.059	12146.36
663.409	12138.68
663.76	12140.49
664.11	12205.79
664.461	12234.95
664.811	12162.63
665.161	12170.54
665.511	12235.4
665.862	12195.17
666.212	12252.57
666.562	12159.02
666.912	12289.41
667.262	12145.23
667.612	12212.57
667.962	12162.86
668.312	12158.56
668.662	12244.89
669.011	12209.64
669.361	12251.9
669.711	12169.41
670.06	12105.23
670.41	12141.16
670.76	12073.14
671.109	12210.31
671.459	12192.91
671.808	12171.45
672.157	12216.87
672.507	12069.98
672.856	12177.1
673.205	12102.97
673.554	12102.52
673.904	12106.36
674.253	12102.52
674.602	12076.53
674.951	11954.95
675.3	11869.08
675.649	12055.52
675.998	11949.53
676.346	12054.39
676.695	11986.59
677.044	11920.6
677.393	12051.45
677.741	12048.74
678.09	11912.7
678.438	11905.46
678.787	11904.79
679.135	11923.32
679.484	11855.07
679.832	11872.24
680.181	11835.41
680.529	11861.85
680.877	11799.7
681.225	11809.65
681.573	11905.24
681.922	11758.58
682.27	11766.03
682.618	11725.58
682.966	11714.06
683.314	11748.86
683.661	11618.01
684.009	11551.57
684.357	11613.72
684.705	11539.37
685.053	11560.84
685.4	11537.34
685.748	11440.62
686.095	11480.62
686.443	11511.58
686.79	11374.18
687.138	11462.76
687.485	11402.88
687.832	11354.29
688.18	11372.6
688.527	11286.95
688.874	11193.17
689.221	11265.93
689.568	11248.31
689.915	11172.6
690.262	11199.72
690.609	11048.31
690.956	10992.04
691.303	11055.77
691.65	10975.54
691.997	11020.97
692.344	10906.62
692.69	10907.3
693.037	10864.14
693.383	10825.94
693.73	10834.08
694.077	10819.84
694.423	10780.97
694.769	10731.03
695.116	10719.28
695.462	10674.76
695.808	10586.4
696.155	10596.35
696.501	10529.45
696.847	10506.63
697.193	10460.76
697.539	10425.5
697.885	10310.7
698.231	10313.42
698.577	10306.64
698.923	10317.93
699.269	10184.38
699.614	10194.77
699.96	10118.39
700.306	10108
700.651	10138.28
700.997	10043.14
701.342	10048.79
701.688	10047.89
702.033	9921.56
702.379	9961.56
702.724	9899.87
703.069	9990.03
703.415	9826.87
703.76	9789.36
704.105	9787.78
704.45	9785.07
704.795	9676.37
705.14	9606.32
705.485	9588.46
705.83	9566.54
706.175	9583.72
706.52	9535.36
706.865	9527.45
707.209	9501.69
707.554	9548.69
707.899	9508.69
708.243	9387.11
708.588	9402.25
708.932	9308.02
709.277	9310.73
709.621	9282.71
709.966	9256.49
710.31	9251.3
710.654	9211.07
710.998	9174.69
711.342	9168.59
711.687	9132.88
712.031	9114.35
712.375	9071.19
712.719	9151.41
713.063	9085.65
713.407	9077.97
713.75	8973.56
714.094	8972.43
714.438	8995.03
714.782	8998.65
715.125	8940.34
715.469	8969.72
715.812	8929.04
716.156	8833
716.499	8902.6
716.843	8921.59
717.186	8868.03
717.53	8840.69
717.873	8894.7
718.216	8865.32
718.559	8791.42
718.902	8778.77
719.246	8780.57
719.589	8687.24
719.932	8698.54
720.275	8760.24
720.617	8722.5
720.96	8685.66
721.303	8715.27
721.646	8671.42
721.989	8605.44
722.331	8644.31
722.674	8596.17
723.016	8654.93
723.359	8524.76
723.701	8613.57
724.044	8607.25
724.386	8542.16
724.729	8612.22
725.071	8531.54
725.413	8625.32
725.755	8503.97
726.097	8527.47
726.439	8455.39
726.782	8527.7
727.124	8506.01
727.465	8526.8
727.807	8498.55
728.149	8473.24
728.491	8434.59
728.833	8540.35
729.175	8456.51
729.516	8487.02
729.858	8482.28
730.199	8517.3
730.541	8435.05
730.882	8561.14
731.224	8490.19
731.565	8420.13
731.906	8460.36
732.248	8508.49
732.589	8473.01
732.93	8453.35
733.271	8441.83
733.612	8401.83
733.953	8493.12
734.294	8418.78
734.635	8426.46
734.976	8445.22
735.317	8355.5
735.658	8466.23
735.999	8512.56
736.339	8467.59
736.68	8474.59
737.021	8482.73
737.361	8441.37
737.702	8510.07
738.042	8480.92
738.383	8497.42
738.723	8546.46
739.063	8484.54
739.404	8521.6
739.744	8545.78
740.084	8525.67
740.424	8546.23
740.764	8553.46
741.104	8573.35
741.444	8550.52
741.784	8537.87
742.124	8649.73
742.464	8652.67
742.804	8610.64
743.143	8710.07
743.483	8703.29
743.823	8686.11
744.162	8739.67
744.502	8739.45
744.841	8746.68
745.181	8858.99
745.52	8924.3
745.86	8938.76
746.199	8983.28
746.538	8965.43
746.877	9047.91
747.216	9047.46
747.556	9181.02
747.895	9095.37
748.234	9210.85
748.573	9253.1
748.911	9279.77
749.25	9383.72
749.589	9423.72
749.928	9509.14
750.267	9609.93
750.605	9674.79
750.944	9689.48
751.283	9768.57
751.621	9892.64
751.96	9917.72
752.298	10025.74
752.636	10108
752.975	10244.04
753.313	10377.37
753.651	10480.87
753.989	10543.24
754.327	10677.7
754.666	10717.25
755.004	10875.89
755.342	11070.23
755.679	11179.38
756.017	11323.11
756.355	11443.1
756.693	11555.87
757.031	11733.49
757.368	11869.98
757.706	12041.73
758.044	12197.21
758.381	12401.72
758.719	12519.23
759.056	12671.09
759.394	12894.36
759.731	12972.55
760.068	13199.22
760.405	13275.82
760.743	13408.25
761.08	13684.4
761.417	13796.49
761.754	13925.52
762.091	14138.17
762.428	14313.54
762.765	14422.23
763.102	14698.38
763.438	14870.13
763.775	14920.53
764.112	15141.99
764.449	15433.51
764.785	15428.31
765.122	15616.55
765.458	15753.95
765.795	15916.88
766.131	16111.23
766.467	16216.54
766.804	16446.36
767.14	16413.82
767.476	16687.94
767.812	16838.22
768.148	16990.53
768.485	17110.07
768.821	17220.58
769.157	17330.18
769.492	17495.83
769.828	17614.69
770.164	17568.14
770.5	17777.63
770.836	17944.85
771.171	17926.32
771.507	18035.7
771.842	18095.36
772.178	18216.03
772.513	18357.27
772.849	18383.94
773.184	18526.76
773.519	18512.97
773.855	18597.94
774.19	18617.38
774.525	18633.65
774.86	18845.85
775.195	18878.39
775.53	18940.31
775.865	18886.52
776.2	18870.7
776.535	19010.59
776.87	19041.32
777.205	19074.54
777.539	19157.02
777.874	19160.64
778.209	19086.07
778.543	19154.31
778.878	19142.34
779.212	19241.77
779.547	19266.63
779.881	19273.18
780.215	19303.91
780.55	19358.6
780.884	19355.89
781.218	19379.39
781.552	19401.09
781.886	19321.77
782.22	19345.04
782.554	19295.78
782.888	19157.02
783.222	19305.5
783.556	19184.37
783.889	19271.37
784.223	19124.93
784.557	19224.14
784.89	19164.93
785.224	19134.65
785.557	19144.37
785.891	19126.52
786.224	19102.79
786.558	19143.01
786.891	18996.58
787.224	19049.46
787.557	18957.26
787.891	19062.11
788.224	19069.57
788.557	18969.68
788.89	18972.4
789.223	19093.3
789.556	18952.96
789.888	18889.23
790.221	18851.04
790.554	18743.02
790.887	18680.65
791.219	18745.96
791.552	18688.79
791.884	18682.23
792.217	18634.55
792.549	18672.07
792.882	18543.71
793.214	18537.61
793.546	18591.16
793.879	18426.42
794.211	18442.02
794.543	18423.71
794.875	18315.69
795.207	18347.78
795.539	18351.62
795.871	18257.16
796.203	18099.43
796.535	18239.99
796.867	18134
797.198	18053.1
797.53	18043.16
797.862	17951.18
798.193	17998.18
798.525	17906.89
798.856	17901.69
799.188	17744.18
799.519	17753.22
799.85	17666.67
800.182	17740.56
800.513	17720.68
800.844	17506.22
801.175	17647.91
801.506	17554.81
801.837	17472.55
802.168	17542.83
802.499	17446.79
802.83	17412.44
803.161	17333.8
803.491	17377.64
803.822	17335.38
804.153	17217.64
804.483	17121.37
804.814	17055.38
805.145	17083.41
805.475	17135.38
805.805	17044.99
806.136	17055.38
806.466	16923.64
806.796	17020.36
807.126	16832.79
807.457	16767.71
807.787	16795.73
808.117	16745.56
808.447	16703.08
808.777	16758.67
809.107	16710.99
809.436	16660.82
809.766	16602.29
810.096	16533.14
810.426	16529.75
810.755	16479.81
811.085	16414.95
811.414	16457.21
811.744	16295.4
812.073	16241.85
812.403	16293.6
812.732	16245.69
813.061	16247.5
813.39	16147.61
813.719	16155.07
814.049	16104.9
814.378	16106.71
814.707	16107.84
815.036	16066.26
815.365	15998.92
815.693	15944.23
816.022	15853.38
816.351	15864
816.68	15683.67
817.008	15848.86
817.337	15632.6
817.665	15708.3
817.994	15687.06
818.322	15699.04
818.651	15591.02
818.979	15591.69
819.307	15659.94
819.636	15598.93
819.964	15514.86
820.292	15607.29
820.62	15577.23
820.948	15502.43
821.276	15559.38
821.604	15441.42
821.932	15440.51
822.259	15485.26
822.587	15515.09
822.915	15515.76
823.243	15541.98
823.57	15393.06
823.898	15443.68
824.225	15408.2
824.553	15437.12
824.88	15511.02
825.207	15485.03
825.535	15404.13
825.862	15464.01
826.189	15424.02
826.516	15470.34
826.843	15601.86
827.17	15580.85
827.497	15511.47
827.824	15494.52
828.151	15577.91
828.478	15480.06
828.805	15584.24
829.131	15574.07
829.458	15506.73
829.785	15479.61
830.111	15552.6
830.438	15552.15
830.764	15596.21
831.09	15511.92
831.417	15423.56
831.743	15490.68
832.069	15522.54
832.395	15454.3
832.722	15455.65
833.048	15328.2
833.374	15489.1
833.7	15371.36
834.026	15440.74
834.351	15372.49
834.677	15426.28
835.003	15370.01
835.329	15327.07
835.654	15230.35
835.98	15262.89
836.306	15320.74
836.631	15219.73
836.956	15197.35
837.282	15337.46
837.607	15172.04
837.932	15117.13
838.258	15193.06
838.583	15067.64
838.908	15052.73
839.233	15098.37
839.558	15080.97
839.883	14982.22
840.208	15033.52
840.533	15014.99
840.858	14909.9
841.182	14924.14
841.507	14903.8
841.832	14857.93
842.156	14809.57
842.481	14791.49
842.805	14779.74
843.13	14699.06
843.454	14718.05
843.778	14753.98
844.103	14693.19
844.427	14616.8
844.751	14653.19
845.075	14645.05
845.399	14499.07
845.723	14431.95
846.047	14451.16
846.371	14386.53
846.695	14325.06
847.019	14178.85
847.343	14226.98
847.666	14057.72
847.99	14027.44
848.313	14060.89
848.637	13976.82
848.96	13933.43
849.284	13899.76
849.607	13763.27
849.931	13837.62
850.254	13685.53
850.577	13607.79
850.9	13550.17
851.223	13522.14
851.546	13352.21
851.869	13276.73
852.192	13397.63
852.515	13311.3
852.838	13254.35
853.161	13295.71
853.483	13176.39
853.806	13179.33
854.129	13069.5
854.451	13090.07
854.774	13037.86
855.096	13010.97
855.419	12890.97
855.741	12850.52
856.063	12800.36
856.385	12856.63
856.708	12721.04
857.03	12667.03
857.352	12783.63
857.674	12659.34
857.996	12645.33
858.318	12572.79
858.64	12584.09
858.961	12497.09
859.283	12437.2
859.605	12385.68
859.926	12468.84
860.248	12356.75
860.57	12331.89
860.891	12324.44
861.212	12319.69
861.534	12186.59
861.855	12243.08
862.176	12251.9
862.498	12193.59
862.819	12194.95
863.14	12193.82
863.461	12147.27
863.782	12036.76
864.103	12110.2
864.424	12049.41
864.745	12054.84
865.065	11984.11
865.386	11902.53
865.707	11919.25
866.027	11929.87
866.348	11881.96
866.668	11856.65
866.989	11878.57
867.309	11832.25
867.63	11757.67
867.95	11790.44
868.27	11679.03
868.59	11767.39
868.91	11708.41
869.23	11660.05
869.55	11639.93
869.87	11702.31
870.19	11678.35
870.51	11692.81
870.83	11640.16
871.15	11604.91
871.469	11579.82
871.789	11632.48
872.109	11592.7
872.428	11562.87
872.748	11526.72
873.067	11495.53
873.386	11452.37
873.706	11477.23
874.025	11443.78
874.344	11425.93
874.663	11385.25
874.982	11351.81
875.301	11408.3
875.62	11331.24
875.939	11343.9
876.258	11366.27
876.577	11314.74
876.896	11281.98
877.214	11201.98
877.533	11243.33
877.852	11166.73
878.17	11176.22
878.489	11171.02
878.807	11166.05
879.125	11112.72
879.444	11122.43
879.762	11033.17
880.08	11084.69
880.398	11000.4
880.716	11035.66
881.034	11052.38
881.352	10989.1
881.67	10922.66
881.988	10983.68
882.306	10915.66
882.624	10814.65
882.941	10813.74
883.259	10832.95
883.577	10784.82
883.894	10797.7
884.212	10782.56
884.529	10797.7
884.846	10688.77
885.164	10716.79
885.481	10668.89
885.798	10658.26
886.115	10575.56
886.432	10591.83
886.75	10509.34
887.067	10571.71
887.383	10554.99
887.7	10481.55
888.017	10439.97
888.334	10507.53
888.651	10442
888.967	10465.95
889.284	10375.79
889.6	10357.93
889.917	10290.59
890.233	10221.44
890.55	10176.24
890.866	10296.69
891.182	10206.75
891.498	10112.74
891.815	10121.1
892.131	10075.23
892.447	10014.44
892.763	10024.61
893.079	9906.65
893.395	10006.08
893.71	9959.53
894.026	9965.85
894.342	9867.33
894.657	9737.61
894.973	9792.75
895.289	9717.95
895.604	9832.98
895.92	9779.64
896.235	9637.73
896.55	9655.13
896.865	9620.33
897.181	9588.91
897.496	9564.28
897.811	9554.11
898.126	9441.12
898.441	9456.04
898.756	9401.35
899.071	9351.41
899.386	9431.63
899.7	9284.29
900.015	9291.3
900.33	9159.1
900.644	9211.3
900.959	9262.82
901.273	9167
901.588	9167.91
901.902	9073
902.216	9021.7
902.531	9026.9
902.845	9039.55
903.159	8973.79
903.473	8905.54
903.787	8854.92
904.101	8820.8
904.415	8823.06
904.729	8766.34
905.042	8685.66
905.356	8703.51
905.67	8730.86
905.984	8652.44
906.297	8645.44
906.611	8650.41
906.924	8592.1
907.237	8523.86
907.551	8482.95
907.864	8515.72
908.177	8442.73
908.491	8477.31
908.804	8387.82
909.117	8290.42
909.43	8282.51
909.743	8212
910.056	8189.86
910.368	8128.16
910.681	8152.57
910.994	8144.43
911.307	8013.81
911.619	8015.4
911.932	7978.79
912.244	7940.14
912.557	7948.28
912.869	7919.35
913.181	7908.96
913.494	7900.15
913.806	7791.45
914.118	7804.33
914.43	7736.31
914.742	7751.45
915.054	7685.69
915.366	7678.46
915.678	7662.86
915.99	7666.03
916.302	7618.57
916.613	7509.2
916.925	7536.54
917.236	7480.5
917.548	7437.11
917.859	7392.81
918.171	7381.74
918.482	7360.72
918.794	7316.88
919.105	7350.1
919.416	7214.29
919.727	7186.27
920.038	7202.76
920.349	7178.13
920.66	7137.68
920.971	7135.65
921.282	7114.86
921.593	7046.61
921.903	7006.38
922.214	6981.3
922.525	7000.73
922.835	6932.26
923.146	6886.61
923.456	6868.76
923.767	6836.44
924.077	6826.05
924.387	6785.82
924.697	6741.31
925.008	6765.03
925.318	6707.41
925.628	6674.87
925.938	6681.19
926.248	6622.89
926.558	6572.72
926.867	6554.19
927.177	6538.37
927.487	6486.62
927.796	6497.02
928.106	6450.69
928.416	6421.99
928.725	6374.76
929.034	6367.76
929.344	6369.56
929.653	6325.05
929.962	6340.19
930.271	6285.27
930.581	6217.93
930.89	6176.35
931.199	6219.96
931.508	6180.19
931.817	6095.9
932.125	6133.64
932.434	6128.89
932.743	5997.6
933.051	6014.09
933.36	6016.81
933.669	5973.42
933.977	5969.8
934.286	6005.73
934.594	5935.23
934.902	5855
935.21	5848.22
935.519	5848
935.827	5851.61
936.135	5796.25
936.443	5747.89
936.751	5713.08
937.059	5720.09
937.367	5748.34
937.674	5735.46
937.982	5621.11
938.29	5638.28
938.597	5650.26
938.905	5517.84
939.213	5557.83
939.52	5551.96
939.827	5590.83
940.135	5495.24
940.442	5444.84
940.749	5400.78
941.056	5443.03
941.363	5427.22
941.67	5356.03
941.977	5358.97
942.284	5329.82
942.591	5332.3
942.898	5280.1
943.205	5259.99
943.511	5239.2
943.818	5229.26
944.125	5215.02
944.431	5241.91
944.738	5166.66
945.044	5156.49
945.35	5076.04
945.657	5091.86
945.963	5040.11
946.269	4993.78
946.575	4972.54
946.881	4948.13
947.187	4991.75
947.493	4940
947.799	4940.9
948.105	4898.64
948.41	4889.15
948.716	4914.01
949.022	4875.37
949.327	4841.92
949.633	4796.27
949.938	4747.01
950.244	4762.6
950.549	4714.01
950.854	4714.47
951.16	4744.52
951.465	4680.57
951.77	4699.1
952.075	4583.62
952.38	4630.85
952.685	4607.35
952.99	4582.27
953.294	4546.11
953.599	4482.61
953.904	4534.13
954.209	4430.41
954.513	4431.76
954.818	4434.47
955.122	4419.33
955.426	4447.35
955.731	4422.95
956.035	4328.94
956.339	4381.82
956.643	4340.01
956.948	4318.54
957.252	4302.5
957.556	4311.99
957.86	4269.96
958.163	4282.16
958.467	4229.28
958.771	4189.51
959.075	4190.41
959.378	4177.31
959.682	4167.81
959.985	4190.19
960.289	4137.53
960.592	4176.18
960.896	4121.71
961.199	4091.21
961.502	4074.48
961.805	4048.72
962.108	4033.35
962.411	3992.68
962.714	3969.85
963.017	3914.26
963.32	3917.65
963.623	3932.34
963.926	3858.9
964.228	3923.75
964.531	3879.69
964.833	3850.99
965.136	3811.21
965.438	3798.56
965.741	3845.11
966.043	3789.07
966.345	3789.97
966.648	3765.79
966.95	3787.26
967.252	3749.07
967.554	3731.89
967.856	3728.28
968.158	3675.17
968.46	3661.84
968.761	3664.32
969.063	3648.51
969.365	3641.95
969.666	3637.88
969.968	3586.59
970.269	3586.13
970.571	3573.25
970.872	3541.16
971.174	3524.44
971.475	3499.13
971.776	3526.02
972.077	3467.95
972.378	3488.06
972.679	3484.89
972.98	3422.97
973.281	3374.84
973.582	3401.28
973.883	3402.41
974.183	3380.49
974.484	3376.2
974.785	3330.55
975.085	3375.97
975.386	3334.62
975.686	3325.8
975.986	3287.39
976.287	3277.67
976.587	3270.66
976.887	3269.98
977.187	3231.79
977.487	3251
977.787	3198.12
978.087	3170.78
978.387	3150.21
978.687	3159.93
978.987	3163.77
979.286	3117.45
979.586	3133.94
979.885	3095.07
980.185	3095.75
980.484	3058.01
980.784	3081.52
981.083	3067.5
981.382	3032.48
981.682	3020.73
981.981	3015.3
982.28	2978.01
982.579	2970.56
982.878	2991.35
983.177	2947.51
983.475	2939.6
983.774	2901.63
984.073	2903.89
984.372	2862.09
984.67	2908.64
984.969	2878.81
985.267	2841.97
985.566	2838.81
985.864	2849.66
986.162	2808.53
986.461	2770.79
986.759	2801.52
987.057	2795.19
987.355	2745.03
987.653	2777.79
987.951	2733.5
988.249	2719.94
988.547	2738.47
988.844	2702.32
989.142	2701.64
989.44	2652.83
989.737	2632.71
990.035	2634.97
990.332	2667.97
990.63	2645.82
990.927	2624.13
991.224	2626.39
991.521	2588.87
991.819	2550.46
992.116	2597.46
992.413	2527.41
992.71	2551.13
993.006	2552.26
993.303	2532.38
993.6	2503.45
993.897	2506.84
994.193	2489.89
994.49	2469.55
994.787	2486.28
995.083	2438.59
995.379	2432.27
995.676	2431.59
995.972	2416.67
996.268	2417.35
996.565	2371.93
996.861	2392.27
997.157	2360.86
997.453	2352.72
997.749	2358.14
998.044	2328.31
998.34	2307.52
998.636	2315.66
998.932	2285.38
999.227	2296
999.523	2282.67
999.818	2303.46
1000.114	2272.5
1000.409	2257.58
1000.704	2195.44
1001	2210.8
1001.295	2216.45
1001.59	2159.51
1001.885	2210.13
1002.18	2134.42
1002.475	2125.16
1002.77	2151.6
1003.065	2116.79
1003.359	2110.92
1003.654	2129.45
1003.949	2102.56
1004.243	2092.16
1004.538	2047.19
1004.832	2067.98
1005.127	2086.96
1005.421	2019.17
1005.715	2017.59
1006.009	2034.99
1006.304	2002.9
1006.598	1967.19
1006.892	1985.95
1007.186	1967.19
1007.48	1944.37
1007.773	1960.41
1008.067	1952.96
1008.361	1914.09
1008.655	1890.13
1008.948	1901.21
1009.242	1892.85
1009.535	1879.51
1009.829	1869.8
1010.122	1839.29
1010.415	1856.24
1010.708	1843.13
1011.001	1816.24
1011.295	1811.94
1011.588	1799.29
1011.881	1816.69
1012.173	1784.83
1012.466	1787.31
1012.759	1752.96
1013.052	1769.91
1013.344	1712.96
1013.637	1741.21
1013.93	1753.64
1014.222	1691.27
1014.514	1707.54
1014.807	1679.74
1015.099	1705.73
1015.391	1667.31
1015.683	1660.76
1015.976	1666.41
1016.268	1650.59
1016.56	1665.96
1016.851	1616.24
1017.143	1616.02
1017.435	1566.3
1017.727	1569.92
1018.018	1579.86
1018.31	1550.93
1018.602	1552.29
1018.893	1547.09
1019.185	1573.98
1019.476	1531.05
1019.767	1512.74
1020.058	1486.3
1020.35	1512.06
1020.641	1476.36
1020.932	1469.35
1021.223	1475.23
1021.514	1461.44
1021.804	1467.77
1022.095	1454.67
1022.386	1446.08
1022.677	1412.18
1022.967	1421.9
1023.258	1423.93
1023.548	1392.07
1023.839	1363.59
1024.129	1386.19
1024.419	1365.63
1024.709	1353.88
1025	1362.92
1025.29	1355.01
1025.58	1339.87
1025.87	1284.73
1026.16	1302.8
1026.449	1300.09
1026.739	1306.87
1027.029	1319.3
1027.319	1270.94
1027.608	1282.24
1027.898	1301.45
1028.187	1256.93
1028.477	1247.89
1028.766	1248.12
1029.055	1219.19
1029.344	1246.99
1029.634	1211.96
1029.923	1176.03
1030.212	1212.86
1030.501	1193.2
1030.79	1196.37
1031.078	1187.78
1031.367	1173.77
1031.656	1168.34
1031.945	1136.03
1032.233	1144.62
1032.522	1149.36
1032.81	1126.54
1033.099	1108.01
1033.387	1119.08
1033.675	1103.71
1033.963	1115.47
1034.251	1080.21
1034.54	1078.18
1034.828	1089.93
1035.116	1051.51
1035.403	1068.46
1035.691	1065.52
1035.979	1073.21
1036.267	1055.81
1036.554	1050.83
1036.842	1030.95
1037.129	1045.64
1037.417	998.86
1037.704	1025.75
1037.992	1014.45
1038.279	988.46
1038.566	988.01
1038.853	988.01
1039.14	988.01
