Data from hue_100_FLMS001491_00098.txt Node
Date: Tue Feb 07 17:03:55 GMT 2017
User: dcchb
Spectrometer: FLMS00149
Trigger mode: 0
Integration Time (sec): 2.000000E-2
Scans to average: 10
Electric dark correction enabled: true
Nonlinearity correction enabled: false
Boxcar width: 0
XAxis mode: Wavelengths
Number of Pixels in Spectrum: 2048
>>>>>Begin Spectral Data<<<<<
341.393	-14.03
341.776	-14.03
342.16	-14.03
342.543	-59.67
342.927	-55.38
343.31	-54.48
343.693	-72.78
344.077	-66.68
344.46	-57.64
344.843	-65.1
345.226	-39.79
345.61	-48.37
345.993	-18.32
346.376	-8.15
346.759	14.45
347.142	27.56
347.525	36.6
347.908	59.87
348.291	77.27
348.674	95.35
349.057	120.21
349.44	117.04
349.823	138.29
350.206	168.57
350.588	177.38
350.971	238.85
351.354	226.65
351.737	226.65
352.119	246.53
352.502	277.27
352.884	283.59
353.267	270.94
353.65	305.51
354.032	284.27
354.414	300.54
354.797	317.94
355.179	301.22
355.562	312.75
355.944	289.92
356.326	325.85
356.709	349.58
357.091	340.09
357.473	352.97
357.855	347.32
358.238	349.13
358.62	338.28
359.002	354.78
359.384	331.73
359.766	336.7
360.148	357.26
360.53	357.26
360.912	361.78
361.294	336.02
361.676	338.28
362.057	338.06
362.439	330.37
362.821	341.22
363.203	324.5
363.584	337.6
363.966	340.54
364.348	329.24
364.729	322.69
365.111	314.1
365.493	318.4
365.874	320.66
366.256	333.31
366.637	317.49
367.019	319.53
367.4	325.4
367.781	321.79
368.163	314.1
368.544	326.3
368.925	320.43
369.306	307.32
369.688	329.69
370.069	300.32
370.45	335.8
370.831	296.02
371.212	308.68
371.593	332.41
371.974	328.79
372.355	340.77
372.736	324.5
373.117	334.21
373.498	329.47
373.879	311.16
374.26	326.76
374.641	332.18
375.021	317.94
375.402	325.85
375.783	342.58
376.163	335.8
376.544	323.82
376.925	330.15
377.305	334.21
377.686	324.72
378.066	326.76
378.447	329.92
378.827	340.09
379.208	336.25
379.588	338.51
379.968	347.1
380.349	348
380.729	342.8
381.109	343.48
381.489	349.58
381.87	361.33
382.25	350.71
382.63	341.67
383.01	363.14
383.39	359.07
383.77	340.54
384.15	354.1
384.53	371.05
384.91	350.26
385.29	353.42
385.67	360.2
386.049	342.35
386.429	344.38
386.809	366.98
387.189	358.62
387.568	363.14
387.948	364.04
388.328	371.95
388.707	379.86
389.087	373.76
389.466	354.55
389.846	375.57
390.225	355.46
390.605	360.88
390.984	371.95
391.363	362.69
391.743	406.75
392.122	390.03
392.501	358.62
392.881	378.28
393.26	363.37
393.639	412.18
394.018	395.23
394.397	387.77
394.776	390.26
395.155	379.86
395.534	402.91
395.913	391.39
396.292	386.42
396.671	396.36
397.05	388.45
397.429	393.2
397.808	390.48
398.186	410.82
398.565	384.16
398.944	399.3
399.323	430.03
399.701	404.27
400.08	418.96
400.458	416.02
400.837	427.77
401.215	431.84
401.594	435.91
401.972	419.86
402.351	441.1
402.729	435.45
403.107	418.96
403.486	418.28
403.864	428.45
404.242	435.23
404.62	424.38
404.999	429.35
405.377	456.92
405.755	460.76
406.133	463.02
406.511	455.57
406.889	450.82
407.267	460.09
407.645	454.21
408.023	456.92
408.401	446.98
408.779	468.9
409.156	455.34
409.534	466.41
409.912	453.99
410.29	483.14
410.667	487.2
411.045	500.09
411.422	492.85
411.8	492.18
412.178	481.78
412.555	510.48
412.933	489.01
413.31	522.23
413.687	519.07
414.065	511.16
414.442	522.91
414.819	514.1
415.197	524.04
415.574	535.11
415.951	497.83
416.328	538.73
416.705	543.02
417.082	545.06
417.46	524.27
417.837	550.71
418.214	543.93
418.591	552.74
418.967	560.2
419.344	550.25
419.721	579.41
420.098	580.08
420.475	578.5
420.852	570.59
421.228	591.38
421.605	582.57
421.982	604.94
422.358	601.78
422.735	586.19
423.111	590.03
423.488	608.33
423.864	611.72
424.241	625.73
424.617	617.82
424.994	620.99
425.37	628.22
425.746	630.7
426.123	623.92
426.499	646.3
426.875	619.86
427.251	652.4
427.627	660.08
428.003	640.2
428.379	643.81
428.756	644.94
429.132	677.48
429.507	659.18
429.883	697.59
430.259	683.13
430.635	695.79
431.011	703.47
431.387	699.4
431.763	706.41
432.138	715
432.514	733.75
432.89	717.93
433.265	745.73
433.641	741.21
434.016	737.59
434.392	721.77
434.767	797.93
435.143	770.36
435.518	752.28
435.894	785.95
436.269	796.12
436.644	783.02
437.02	812.62
437.395	801.77
437.77	823.24
438.145	820.3
438.52	865.05
438.895	844.94
439.271	845.84
439.646	869.34
440.021	851.49
440.395	853.75
440.77	872.96
441.145	889
441.52	904.14
441.895	894.43
442.27	904.37
442.645	910.47
443.019	903.92
443.394	924.71
443.769	906.18
444.143	919.74
444.518	933.97
444.892	932.62
445.267	934.88
445.641	926.97
446.016	967.42
446.39	968.77
446.764	952.96
447.139	964.25
447.513	989.79
447.887	967.19
448.262	973.97
448.636	976.68
449.01	994.99
449.384	996.8
449.758	1015.55
450.132	1021.43
450.506	1007.19
450.88	1041.54
451.254	1021.65
451.628	1075.89
452.002	1072.95
452.376	1054.2
452.75	1070.24
453.123	1095.1
453.497	1125.83
453.871	1108.21
454.244	1134.65
454.618	1145.49
454.992	1142.55
455.365	1147.75
455.739	1193.17
456.112	1193.63
456.486	1203.57
456.859	1238.15
457.232	1231.59
457.606	1228.43
457.979	1275.66
458.352	1297.58
458.725	1294.64
459.099	1288.54
459.472	1344.58
459.845	1352.04
460.218	1343.68
460.591	1373.74
460.964	1368.09
461.337	1404.47
461.71	1450.8
462.083	1441.98
462.456	1474.3
462.829	1463.45
463.201	1516.56
463.574	1486.73
463.947	1511.81
464.32	1559.94
464.692	1556.1
465.065	1596.33
465.438	1598.81
465.81	1610.56
466.183	1623.22
466.555	1699.6
466.928	1665.93
467.3	1709.32
467.672	1733.5
468.045	1780.5
468.417	1815.76
468.789	1811.01
469.161	1831.8
469.534	1881.52
469.906	1924
470.278	1941.18
470.65	1961.97
471.022	2016.43
471.394	2071.12
471.766	2107.05
472.138	2129.42
472.51	2186.37
472.882	2218.23
473.253	2266.82
473.625	2284.45
473.997	2357.89
474.369	2411.22
474.74	2448.06
475.112	2502.52
475.484	2561.27
475.855	2636.53
476.227	2620.48
476.598	2742.06
476.97	2795.39
477.341	2888.5
477.713	2954.94
478.084	2966.01
478.455	3124.2
478.827	3175.27
479.198	3276.28
479.569	3319.22
479.94	3423.4
480.311	3508.82
480.682	3604.18
481.053	3704.52
481.424	3795.82
481.795	3901.13
482.166	4013.21
482.537	4093.44
482.908	4206.65
483.279	4327.33
483.65	4444.84
484.021	4526.19
484.391	4652.29
484.762	4768.9
485.133	4835.56
485.503	4951.95
485.874	5121.89
486.244	5254.99
486.615	5400.07
486.985	5515.32
487.356	5693.85
487.726	5777.46
488.097	5975.65
488.467	6022.88
488.837	6214.51
489.207	6307.84
489.578	6486.82
489.948	6617.44
490.318	6746.7
490.688	6895.62
491.058	7047.71
491.428	7169.74
491.798	7268.04
492.168	7552.56
492.538	7650.18
492.908	7757.3
493.278	8030.96
493.648	8030.28
494.017	8189.83
494.387	8380.1
494.757	8487.9
495.126	8659.19
495.496	8831.62
495.866	8858.28
496.235	8960.65
496.605	9157.03
496.974	9287.65
497.344	9378.95
497.713	9539.17
498.082	9720.41
498.452	9822.78
498.821	9951.36
499.19	10037.01
499.559	10212.82
499.928	10275.65
500.298	10394.51
500.667	10518.35
501.036	10586.83
501.405	10702.08
501.774	10714.96
502.143	10791.79
502.512	10910.43
502.88	11106.59
503.249	11117.89
503.618	11298.45
503.987	11351.1
504.356	11468.38
504.724	11514.94
505.093	11635.61
505.462	11670.19
505.83	11817.53
506.199	11892.55
506.567	12020.23
506.936	12081.25
507.304	12194.02
507.672	12303.17
508.041	12377.97
508.409	12473.56
508.777	12569.82
509.145	12604.4
509.514	12674.45
509.882	12781.8
510.25	12839.42
510.618	12872.64
510.986	12935.69
511.354	13028.8
511.722	13121
512.09	13272.63
512.458	13237.15
512.826	13323.25
513.193	13423.81
513.561	13428.79
513.929	13524.6
514.297	13620.87
514.664	13599.18
515.032	13619.51
515.4	13781.09
515.767	13765.27
516.135	13852.73
516.502	13773.18
516.869	13988.09
517.237	14028.77
517.604	13938.15
517.972	14042.78
518.339	14163
518.706	14122.55
519.073	14156
519.44	14229.89
519.808	14282.1
520.175	14293.4
520.542	14464.01
520.909	14427.63
521.276	14425.82
521.643	14534.52
522.009	14577.23
522.376	14662.88
522.743	14611.81
523.11	14725.7
523.477	14839.82
523.843	14922.98
524.21	14962.53
524.577	15048.18
524.943	15023.55
525.31	15010.21
525.676	15132.02
526.043	15175.86
526.409	15152.36
526.776	15335.85
527.142	15288.62
527.508	15301.96
527.874	15476.42
528.241	15393.71
528.607	15353.03
528.973	15440.26
529.339	15386.47
529.705	15501.73
530.071	15557.32
530.437	15606.36
530.803	15586.24
531.169	15623.08
531.535	15497.88
531.901	15586.47
532.267	15516.64
532.632	15603.42
532.998	15590.08
533.364	15582.4
533.73	15584.21
534.095	15655.85
534.461	15693.58
534.826	15629.63
535.192	15554.38
535.557	15692.91
535.923	15601.16
536.288	15647.03
536.653	15680.7
537.019	15537.88
537.384	15503.53
537.749	15517.09
538.114	15499.47
538.479	15481.61
538.845	15428.51
539.21	15388.96
539.575	15391.45
539.94	15396.64
540.305	15380.82
540.67	15415.17
541.034	15439.35
541.399	15412.46
541.764	15284.56
542.129	15289.08
542.494	15238.23
542.858	15241.62
543.223	15213.15
543.587	15234.39
543.952	15220.6
544.316	15172.69
544.681	15082.3
545.045	15190.77
545.41	15115.97
545.774	15080.95
546.138	15037.56
546.503	14942.42
546.867	14994.17
547.231	14946.03
547.595	14975.41
547.959	14992.13
548.324	14957.56
548.688	14902.64
549.052	14878.24
549.416	14853.61
549.779	14841.4
550.143	14797.79
550.507	14857.9
550.871	14799.82
551.235	14727.96
551.599	14847.96
551.962	14664.46
552.326	14682.54
552.689	14705.59
553.053	14624.91
553.417	14600.28
553.78	14734.29
554.143	14530.45
554.507	14620.39
554.87	14641.63
555.234	14682.54
555.597	14549.89
555.96	14617.91
556.323	14579.49
556.686	14563.9
557.05	14675.98
557.413	14550.79
557.776	14570.9
558.139	14538.13
558.502	14567.29
558.865	14519.15
559.228	14605.7
559.59	14560.73
559.953	14460.17
560.316	14619.26
560.679	14628.98
561.041	14621.07
561.404	14642.99
561.767	14671.24
562.129	14575.2
562.492	14709.66
562.854	14654.74
563.217	14683.44
563.579	14680.05
563.941	14682.09
564.304	14768.64
564.666	14786.26
565.028	14724.12
565.39	14848.41
565.753	14873.72
566.115	14857.67
566.477	14822.65
566.839	14771.12
567.201	14924.79
567.563	14881.85
567.925	14948.29
568.287	14989.2
568.648	14937.67
569.01	14984.68
569.372	15071.68
569.734	14999.82
570.095	15078.01
570.457	15062.64
570.819	15032.81
571.18	15078.01
571.542	15123.66
571.903	15070.78
572.265	15162.07
572.626	15171.79
572.987	15085.01
573.349	15160.27
573.71	15194.61
574.071	15188.74
574.432	15207.95
574.794	15322.75
575.155	15273.26
575.516	15167.72
575.877	15271.67
576.238	15315.29
576.599	15336.08
576.96	15297.21
577.32	15298.57
577.681	15364.1
578.042	15365.91
578.403	15342.63
578.763	15343.99
579.124	15454.72
579.485	15389.19
579.845	15347.6
580.206	15425.79
580.566	15342.86
580.927	15395.29
581.287	15423.54
581.648	15313.48
582.008	15374.95
582.368	15319.81
582.728	15314.39
583.089	15283.88
583.449	15277.55
583.809	15309.64
584.169	15333.59
584.529	15248.85
584.889	15390.77
585.249	15259.92
585.609	15242.75
585.969	15280.71
586.329	15318
586.688	15402.07
587.048	15286.82
587.408	15205.69
587.768	15243.2
588.127	15198.46
588.487	15145.8
588.846	15259.25
589.206	15123.43
589.565	15162.75
589.925	15217.89
590.284	15073.94
590.643	15139.25
591.003	15200.94
591.362	15207.72
591.721	15157.55
592.08	15171.79
592.44	15256.99
592.799	15288.62
593.158	15152.36
593.517	15090.66
593.876	15134.96
594.235	15095.63
594.593	15154.39
594.952	15019.25
595.311	15049.08
595.67	15081.17
596.029	15142.19
596.387	15054.05
596.746	15123.2
597.104	15099.93
597.463	15028.29
597.822	15050.89
598.18	15060.38
598.538	14969.31
598.897	15108.29
599.255	14955.75
599.613	15240.26
599.972	15146.25
600.33	15152.81
600.688	15071.91
601.046	15107.16
601.404	15184.9
601.762	15043.88
602.12	15199.13
602.478	15175.41
602.836	15136.54
603.194	15058.35
603.552	15070.1
603.91	15044.34
604.268	15098.12
604.625	14963.43
604.983	15119.59
605.341	14994.17
605.698	15038.46
606.056	15082.08
606.413	15049.99
606.771	15147.38
607.128	15117.33
607.485	15112.36
607.843	15120.72
608.2	15163.2
608.557	15216.76
608.914	15142.64
609.272	15252.69
609.629	15246.36
609.986	15213.15
610.343	15187.61
610.7	15309.64
611.057	15163.88
611.414	15242.75
611.771	15210.66
612.127	15262.64
612.484	15247.27
612.841	15337.44
613.198	15207.95
613.554	15272.13
613.911	15421.73
614.267	15311.22
614.624	15382.86
614.98	15335.4
615.337	15371.56
615.693	15372.91
616.05	15470.31
616.406	15521.61
616.762	15430.99
617.118	15358
617.475	15369.98
617.831	15471.44
618.187	15444.78
618.543	15414.5
618.899	15563.64
619.255	15574.49
619.611	15440.26
619.967	15629.41
620.323	15564.1
620.678	15556.64
621.034	15470.54
621.39	15500.37
621.746	15531.33
622.101	15625.79
622.457	15558.22
622.812	15551.44
623.168	15550.31
623.523	15599.8
623.879	15579.24
624.234	15472.35
624.589	15567.94
624.945	15485.68
625.3	15541.72
625.655	15487.04
626.01	15550.54
626.365	15472.12
626.72	15443.87
627.075	15463.76
627.43	15526.13
627.785	15459.47
628.14	15546.02
628.495	15498.79
628.85	15415.63
629.205	15413.59
629.559	15611.55
629.914	15425.57
630.269	15513.48
630.623	15398.9
630.978	15433.93
631.332	15462.86
631.687	15526.81
632.041	15361.84
632.396	15401.61
632.75	15420.82
633.104	15397.55
633.459	15272.13
633.813	15332.01
634.167	15358.9
634.521	15299.02
634.875	15328.17
635.229	15228.51
635.583	15134.96
635.937	15108.06
636.291	15125.92
636.645	15166.37
636.999	15116.2
637.352	15200.94
637.706	15045.69
638.06	15115.75
638.413	15120.04
638.767	15028.29
639.121	15051.12
639.474	14927.73
639.828	14988.97
640.181	14940.16
640.534	15058.57
640.888	14908.75
641.241	14886.37
641.594	14902.19
641.947	14997.11
642.301	14841.18
642.654	14918.46
643.007	14937.45
643.36	14913.72
643.713	14873.95
644.066	14825.58
644.419	14849.31
644.771	14759.15
645.124	14634.86
645.477	14560.28
645.83	14467.63
646.182	14488.42
646.535	14381.53
646.888	14419.27
647.24	14402.32
647.593	14395.31
647.945	14377.91
648.298	14315.54
648.65	14311.47
649.002	14323.45
649.355	14316.67
649.707	14391.47
650.059	14457.23
650.411	14600.05
650.763	14628.53
651.115	14803.66
651.467	14693.38
651.819	14720.5
652.171	14593.95
652.523	14642.09
652.875	14593.27
653.227	14512.6
653.578	14675.53
653.93	14647.06
654.282	14576.33
654.633	14614.06
654.985	14539.26
655.337	14607.51
655.688	14594.4
656.039	14698.13
656.391	14594.4
656.742	14676.66
657.094	14623.33
657.445	14724.34
657.796	14624.01
658.147	14636.66
658.498	14660.84
658.849	14758.47
659.2	14672.59
659.551	14574.52
659.902	14654.74
660.253	14661.3
660.604	14675.31
660.955	14594.18
661.306	14735.19
661.656	14670.56
662.007	14766.38
662.358	14715.76
662.708	14719.6
663.059	14745.59
663.409	14609.77
663.76	14683.44
664.11	14729.77
664.461	14760.5
664.811	14737.68
665.161	14755.3
665.511	14704.23
665.862	14716.44
666.212	14757.56
666.562	14687.51
666.912	14742.65
667.262	14682.31
667.612	14731.35
667.962	14757.79
668.312	14679.15
668.662	14708.53
669.011	14750.33
669.361	14706.94
669.711	14687.74
670.06	14628.53
670.41	14623.78
670.76	14568.87
671.109	14681.63
671.459	14585.14
671.808	14654.74
672.157	14654.97
672.507	14576.1
672.856	14527.51
673.205	14566.38
673.554	14647.96
673.904	14563.9
674.253	14646.15
674.602	14546.72
674.951	14405.48
675.3	14284.58
675.649	14533.39
675.998	14524.12
676.346	14470.57
676.695	14490.9
677.044	14479.61
677.393	14395.77
677.741	14509.89
678.09	14479.83
678.438	14346.95
678.787	14419.04
679.135	14322.77
679.484	14331.13
679.832	14332.04
680.181	14295.43
680.529	14244.58
680.877	14228.54
681.225	14134.08
681.573	14265.83
681.922	14119.84
682.27	14147.64
682.618	14123.46
682.966	14089.33
683.314	14091.37
683.661	13974.31
684.009	13943.57
684.357	13904.93
684.705	13933.63
685.053	13977.47
685.4	13906.74
685.748	13840.53
686.095	13819.06
686.443	13787.87
686.79	13742
687.138	13758.95
687.485	13793.97
687.832	13663.36
688.18	13726.18
688.527	13639.18
688.874	13593.98
689.221	13478.73
689.568	13591.04
689.915	13513.08
690.262	13474.66
690.609	13446.41
690.956	13363.7
691.303	13361.22
691.65	13273.31
691.997	13310.82
692.344	13184.5
692.69	13137.49
693.037	13180.88
693.383	12991.06
693.73	13103.82
694.077	13049.36
694.423	12942.7
694.769	12884.39
695.116	12908.57
695.462	12880.33
695.808	12772.08
696.155	12788.35
696.501	12656.38
696.847	12673.55
697.193	12619.32
697.539	12679.2
697.885	12539.54
698.231	12462.71
698.577	12437.62
698.923	12433.78
699.269	12372.32
699.614	12267.01
699.96	12285.09
700.306	12246.9
700.651	12166.45
700.997	12134.58
701.342	12103.17
701.688	12083.96
702.033	12049.61
702.379	12001.03
702.724	11911.54
703.069	11944.3
703.415	11779.56
703.76	11896.85
704.105	11799
704.45	11836.74
704.795	11694.37
705.14	11718.1
705.485	11672
705.83	11525.56
706.175	11627.25
706.52	11607.59
706.865	11542.96
707.209	11546.35
707.554	11442.17
707.899	11433.36
708.243	11348.39
708.588	11391.1
708.932	11229.75
709.277	11294.6
709.621	11291.67
709.966	11181.84
710.31	11220.93
710.654	11205.79
710.998	11173.25
711.342	11131.44
711.687	11091.67
712.031	11041.05
712.375	11015.06
712.719	11031.79
713.063	10991.79
713.407	11012.58
713.75	10923.31
714.094	10951.11
714.438	10958.79
714.782	10869.08
715.125	10851.45
715.469	10893.26
715.812	10797.67
716.156	10741.17
716.499	10772.58
716.843	10757.9
717.186	10623.66
717.53	10735.3
717.873	10720.83
718.216	10723.09
718.559	10668.86
718.902	10601.06
719.246	10609.42
719.589	10568.75
719.932	10525.81
720.275	10563.78
720.617	10563.55
720.96	10492.37
721.303	10567.62
721.646	10499.37
721.989	10522.87
722.331	10444.68
722.674	10511.35
723.016	10455.98
723.359	10443.33
723.701	10466.83
724.044	10342.54
724.386	10371.46
724.729	10395.42
725.071	10363.1
725.413	10358.81
725.755	10375.53
726.097	10291.92
726.439	10304.57
726.782	10268.19
727.124	10286.27
727.465	10279.94
727.807	10320.39
728.149	10286.27
728.491	10216.89
728.833	10270.9
729.175	10149.55
729.516	10232.94
729.858	10223.22
730.199	10231.58
730.541	10239.04
730.882	10212.37
731.224	10295.31
731.565	10098.48
731.906	10132.83
732.248	10245.82
732.589	10173.73
732.93	10113.84
733.271	10198.36
733.612	10208.53
733.953	10239.49
734.294	10134.86
734.635	10162.43
734.976	10245.14
735.317	10221.19
735.658	10209.21
735.999	10149.78
736.339	10175.99
736.68	10142.09
737.021	10140.74
737.361	10170.57
737.702	10209.43
738.042	10165.14
738.383	10201.53
738.723	10245.82
739.063	10271.13
739.404	10235.87
739.744	10228.87
740.084	10194.07
740.424	10142.32
740.764	10228.19
741.104	10238.13
741.444	10327.17
741.784	10208.98
742.124	10300.51
742.464	10300.28
742.804	10344.8
743.143	10397.45
743.483	10360.62
743.823	10338.02
744.162	10353.16
744.502	10483.55
744.841	10419.37
745.181	10560.39
745.52	10483.1
745.86	10558.35
746.199	10548.86
746.538	10618.01
746.877	10717.67
747.216	10718.35
747.556	10720.61
747.895	10807.61
748.234	10846.71
748.573	10942.97
748.911	10947.27
749.25	11073.59
749.589	11050.32
749.928	11102.07
750.267	11245.79
750.605	11363.75
750.944	11302.29
751.283	11380.7
751.621	11446.69
751.96	11633.35
752.298	11730.52
752.636	11800.81
752.975	11759.45
753.313	11926.45
753.651	12138.42
753.989	12168.25
754.327	12243.73
754.666	12336.16
755.004	12487.12
755.342	12578.41
755.679	12675.58
756.017	12808.46
756.355	13123.48
756.693	13150.6
757.031	13271.05
757.368	13404.83
757.706	13497.71
758.044	13563.02
758.381	13871.03
758.719	14003.69
759.056	14142.44
759.394	14239.61
759.731	14372.26
760.068	14576.33
760.405	14659.71
760.743	14749.43
761.08	14981.96
761.417	15128.63
761.754	15246.82
762.091	15481.16
762.428	15604.1
762.765	15657.43
763.102	15941.04
763.438	16012.9
763.775	16205.89
764.112	16395.26
764.449	16501.7
764.785	16630.06
765.122	16750.51
765.458	16872.08
765.795	16990.27
766.131	17273.2
766.467	17400.88
766.804	17416.48
767.14	17539.41
767.476	17816.24
767.812	17727.43
768.148	17960.64
768.485	18023.47
768.821	18109.79
769.157	18287.41
769.492	18294.19
769.828	18533.51
770.164	18506.17
770.5	18587.07
770.836	18752.94
771.171	18773.28
771.507	18856.67
771.842	18990.67
772.178	19011.92
772.513	19058.69
772.849	19089.2
773.184	19149.99
773.519	19459.81
773.855	19325.35
774.19	19364.67
774.525	19403.54
774.86	19512.92
775.195	19596.08
775.53	19585.69
775.865	19612.58
776.2	19555.4
776.535	19482.64
776.87	19628.62
777.205	19675.4
777.539	19747.94
777.874	19826.58
778.209	19669.07
778.543	19801.73
778.878	19699.81
779.212	19767.38
779.547	19809.86
779.881	19753.36
780.215	19770.54
780.55	19945.22
780.884	19787.49
781.218	19800.6
781.552	19877.66
781.886	19808.73
782.22	19702.74
782.554	19754.27
782.888	19601.5
783.222	19718.34
783.556	19660.26
783.889	19606.02
784.223	19467.5
784.557	19605.35
784.89	19547.72
785.224	19449.64
785.557	19476.76
785.891	19477.21
786.224	19484.22
786.558	19455.75
786.891	19413.49
787.224	19397.44
787.557	19342.08
787.891	19406.93
788.224	19347.73
788.557	19308.86
788.89	19371.68
789.223	19234.96
789.556	19126.71
789.888	19176.66
790.221	19058.47
790.554	19011.01
790.887	19029.32
791.219	18957.91
791.552	18894.18
791.884	18926.95
792.217	18905.48
792.549	18775.54
792.882	18637.69
793.214	18693.05
793.546	18712.26
793.879	18700.06
794.211	18497.8
794.543	18665.48
794.875	18546.84
795.207	18651.7
795.539	18529.44
795.871	18469.56
796.203	18297.58
796.535	18326.74
796.867	18192.28
797.198	18293.29
797.53	18287.87
797.862	18238.38
798.193	18202.67
798.525	17989.57
798.856	18098.04
799.188	17854.88
799.519	17803.13
799.85	17748.22
800.182	17816.69
800.513	17811.72
800.844	17625.96
801.175	17736.24
801.506	17751.16
801.837	17586.87
802.168	17569.02
802.499	17445.85
802.83	17445.18
803.161	17409.47
803.491	17458.51
803.822	17458.51
804.153	17299.42
804.483	17143.49
804.814	17138.29
805.145	17177.16
805.475	17202.7
805.805	17099.88
806.136	17117.28
806.466	17110.95
806.796	16937.85
807.126	16863.95
807.457	16785.08
807.787	16947.11
808.117	16862.82
808.447	16795.25
808.777	16901.01
809.107	16714.57
809.436	16705.31
809.766	16675.25
810.096	16569.49
810.426	16559.32
810.755	16530.4
811.085	16557.29
811.414	16455.15
811.744	16459.89
812.073	16339.44
812.403	16330.86
812.732	16324.3
813.061	16235.72
813.39	16174.48
813.719	16185.1
814.049	16260.35
814.378	16140.58
814.707	16100.58
815.036	16154.14
815.365	16063.74
815.693	15883.86
816.022	15952.33
816.351	15849.74
816.68	15750.31
817.008	15944.88
817.337	15703.75
817.665	15785.56
817.994	15785.33
818.322	15841.6
818.651	15616.75
818.979	15588.05
819.307	15601.61
819.636	15611.1
819.964	15468.28
820.292	15534.94
820.62	15654.04
820.948	15561.38
821.276	15513.25
821.604	15489.97
821.932	15502.63
822.259	15514.38
822.587	15528.84
822.915	15383.54
823.243	15567.49
823.57	15513.25
823.898	15479.35
824.225	15475.74
824.553	15409.07
824.88	15389.64
825.207	15453.82
825.535	15513.48
825.862	15491.56
826.189	15409.75
826.516	15475.06
826.843	15590.08
827.17	15552.8
827.497	15522.29
827.824	15462.4
828.151	15514.38
828.478	15583.98
828.805	15553.25
829.131	15450.2
829.458	15525
829.785	15376.98
830.111	15466.7
830.438	15534.49
830.764	15522.29
831.09	15553.7
831.417	15497.21
831.743	15461.27
832.069	15507.37
832.395	15295.4
832.722	15393.25
833.048	15446.36
833.374	15470.77
833.7	15392.8
834.026	15445.23
834.351	15409.3
834.677	15256.53
835.003	15331.56
835.329	15396.42
835.654	15320.71
835.98	15352.58
836.306	15261.73
836.631	15223.99
836.956	15267.16
837.282	15282.75
837.607	15165.46
837.932	15199.13
838.258	15126.82
838.583	15100.61
838.908	15053.83
839.233	15081.62
839.558	15019.7
839.883	14998.46
840.208	14962.53
840.533	14987.84
840.858	14926.83
841.182	14984.45
841.507	14991.46
841.832	14833.95
842.156	14738.13
842.481	14845.25
842.805	14725.25
843.13	14745.36
843.454	14642.54
843.778	14617.23
844.103	14718.47
844.427	14637.79
844.751	14588.08
845.075	14569.55
845.399	14479.38
845.723	14456.1
846.047	14497.68
846.371	14376.78
846.695	14399.83
847.019	14243.23
847.343	14145.6
847.666	14038.94
847.99	13978.83
848.313	14050.69
848.637	13976.34
848.96	13896.57
849.284	13932.05
849.607	13754.65
849.931	13766.4
850.254	13694.77
850.577	13564.37
850.9	13496.35
851.223	13507.43
851.546	13442.34
851.869	13409.35
852.192	13403.48
852.515	13252.97
852.838	13224.27
853.161	13222.46
853.483	13114.44
853.806	13112.86
854.129	13054.33
854.451	12964.16
854.774	12948.8
855.096	12932.75
855.419	12881.23
855.741	12821.34
856.063	12795.81
856.385	12833.55
856.708	12709.71
857.03	12682.82
857.352	12696.83
857.674	12555.36
857.996	12601.24
858.318	12589.03
858.64	12522.37
858.961	12471.07
859.283	12490.28
859.605	12367.8
859.926	12461.13
860.248	12358.53
860.57	12242.38
860.891	12283.05
861.212	12222.26
861.534	12218.87
861.855	12091.19
862.176	12157.63
862.498	12156.05
862.819	12097.97
863.14	12069.05
863.461	12142.94
863.782	12085.77
864.103	12049.16
864.424	12012.78
864.745	12018.65
865.065	11880.35
865.386	11850.52
865.707	11847.13
866.027	11918.09
866.348	11808.94
866.668	11820.01
866.989	11851.65
867.309	11803.97
867.63	11758.77
867.95	11835.38
868.27	11690.98
868.59	11748.6
868.91	11692.79
869.23	11639.68
869.55	11640.58
869.87	11627.93
870.19	11596.74
870.51	11658.21
870.83	11685.33
871.15	11593.58
871.469	11578.21
871.789	11617.31
872.109	11553.58
872.428	11483.75
872.748	11482.62
873.067	11425.67
873.386	11493.69
873.706	11388.39
874.025	11366.69
874.344	11399.23
874.663	11381.83
874.982	11325.11
875.301	11373.02
875.62	11228.17
875.939	11275.62
876.258	11341.61
876.577	11260.03
876.896	11272.01
877.214	11164.21
877.533	11175.51
877.852	11140.26
878.17	11194.04
878.489	11134.83
878.807	11126.47
879.125	11099.81
879.444	11127.6
879.762	11008.74
880.08	11113.14
880.398	11038.57
880.716	11085.8
881.034	11002.18
881.352	10938.23
881.67	10959.7
881.988	10969.87
882.306	10893.48
882.624	10877.67
882.941	10877.89
883.259	10816.42
883.577	10784.34
883.894	10787.27
884.212	10805.13
884.529	10748.4
884.846	10661.85
885.164	10723.09
885.481	10568.97
885.798	10659.59
886.115	10671.34
886.432	10463.21
886.75	10581.85
887.067	10582.76
887.383	10508.41
887.7	10513.61
888.017	10483.33
888.334	10484
888.651	10367.4
888.967	10397.9
889.284	10330.34
889.6	10320.17
889.917	10222.54
890.233	10255.54
890.55	10191.81
890.866	10237.46
891.182	10096.22
891.498	10150.68
891.815	10034.52
892.131	10070.68
892.447	10017.58
892.763	9992.27
893.079	10026.39
893.395	9973.73
893.71	9957.46
894.026	9937.58
894.342	9857.13
894.657	9818.26
894.973	9767.64
895.289	9829.56
895.604	9780.97
895.92	9663.23
896.235	9629.34
896.55	9529.23
896.865	9596.8
897.181	9546.85
897.496	9543.92
897.811	9444.48
898.126	9511.6
898.441	9474.31
898.756	9354.99
899.071	9332.17
899.386	9361.55
899.7	9236.81
900.015	9218.95
900.33	9192.74
900.644	9176.02
900.959	9160.42
901.273	9146.64
901.588	9116.36
901.902	9014.21
902.216	9014.66
902.531	9012.63
902.845	9039.97
903.159	8902.12
903.473	8931.5
903.787	8833.88
904.101	8806.08
904.415	8819.64
904.729	8778.74
905.042	8689.7
905.356	8738.51
905.67	8706.42
905.984	8623.26
906.297	8605.41
906.611	8557.05
906.924	8585.52
907.237	8566.09
907.551	8442.7
907.864	8422.82
908.177	8431.18
908.491	8392.76
908.804	8319.32
909.117	8306.89
909.43	8234.35
909.743	8193.89
910.056	8213.33
910.368	8117.29
910.681	8103.5
910.994	8078.42
911.307	8087
911.619	8018.53
911.932	8006.56
912.244	7953.22
912.557	7949.38
912.869	7903.73
913.181	7903.51
913.494	7829.84
913.806	7757.07
914.118	7806.11
914.43	7700.8
914.742	7759.1
915.054	7615.6
915.366	7638.66
915.678	7580.58
915.99	7566.11
916.302	7456.96
916.613	7478.21
916.925	7474.37
917.236	7527.25
917.548	7403.86
917.859	7412.22
918.171	7299.45
918.482	7310.3
918.794	7281.83
919.105	7266.91
919.416	7238.89
919.727	7219.23
920.038	7209.06
920.349	7150.08
920.66	7120.25
920.971	7126.13
921.282	7101.72
921.593	6999.58
921.903	7001.84
922.214	6975.62
922.525	6940.14
922.835	6919.58
923.146	6850.2
923.456	6871.67
923.767	6819.92
924.077	6832.8
924.387	6793.03
924.697	6726.59
925.008	6714.61
925.318	6701.05
925.628	6695.4
925.938	6602.52
926.248	6611.56
926.558	6592.81
926.867	6576.76
927.177	6534.96
927.487	6486.82
927.796	6474.84
928.106	6497.22
928.416	6391.46
928.725	6413.15
929.034	6333.6
929.344	6314.85
929.653	6300.61
929.962	6291.8
930.271	6286.83
930.581	6209.09
930.89	6160.73
931.199	6174.06
931.508	6157.56
931.817	6117.34
932.125	6144.46
932.434	6089.54
932.743	6050.22
933.051	6036.66
933.36	5981.98
933.669	5906.05
933.977	5966.83
934.286	5997.57
934.594	5934.75
934.902	5891.81
935.21	5897.91
935.519	5855.65
935.827	5806.16
936.135	5805.03
936.443	5756.9
936.751	5720.06
937.059	5694.53
937.367	5641.42
937.674	5697.69
937.982	5695.2
938.29	5618.14
938.597	5621.76
938.905	5581.76
939.213	5547.86
939.52	5525.26
939.827	5515.77
940.135	5474.87
940.442	5467.64
940.749	5450.24
941.056	5424.48
941.363	5360.3
941.67	5379.96
941.977	5332.73
942.284	5261.99
942.591	5316.46
942.898	5294.31
943.205	5251.83
943.511	5211.15
943.818	5192.17
944.125	5198.95
944.431	5176.35
944.738	5184.48
945.044	5117.59
945.35	5071.26
945.657	5087.54
945.963	5045.28
946.269	4996.92
946.575	5007.54
946.881	4952.17
947.187	4940.87
947.493	5001.21
947.799	4943.58
948.105	4864.04
948.41	4842.8
948.716	4822.68
949.022	4787.2
949.327	4839.18
949.633	4792.4
949.938	4801.67
950.244	4731.84
950.549	4736.81
950.854	4702.91
951.16	4693.87
951.465	4629.69
951.77	4690.71
952.075	4627.66
952.38	4626.76
952.685	4618.85
952.99	4549.47
953.294	4587.21
953.599	4476.48
953.904	4546.08
954.209	4482.35
954.513	4429.02
954.818	4405.52
955.122	4471.28
955.426	4412.07
955.731	4405.97
956.035	4355.8
956.339	4320.55
956.643	4320.1
956.948	4324.84
957.252	4284.84
957.556	4262.92
957.86	4199.88
958.163	4231.51
958.467	4256.37
958.771	4210.04
959.075	4195.58
959.378	4171.4
959.682	4113.1
959.985	4133.66
960.289	4119.88
960.592	4103.38
960.896	4111.29
961.199	4077.84
961.502	4037.62
961.805	4016.6
962.108	3994.91
962.411	4018.64
962.714	3957.4
963.017	3928.92
963.32	3991.97
963.623	3918.98
963.926	3932.31
964.228	3862.94
964.531	3912.2
964.833	3860.45
965.136	3814.57
965.438	3808.7
965.741	3774.35
966.043	3805.76
966.345	3775.25
966.648	3723.96
966.95	3746.55
967.252	3720.11
967.554	3707.46
967.856	3683.73
968.158	3632.88
968.46	3643.73
968.761	3680.79
969.063	3614.13
969.365	3572.1
969.666	3558.99
969.968	3594.69
970.269	3591.53
970.571	3546.56
970.872	3509.95
971.174	3517.86
971.475	3536.39
971.776	3482.61
972.077	3478.54
972.378	3445.32
972.679	3430.86
972.98	3439.67
973.281	3374.81
973.582	3423.85
973.883	3372.78
974.183	3332.33
974.484	3380.91
974.785	3345.66
975.085	3342.95
975.386	3339.11
975.686	3284.87
975.986	3288.94
976.287	3307.02
976.587	3248.49
976.887	3269.73
977.187	3231.54
977.487	3203.52
977.787	3200.58
978.087	3166.46
978.387	3191.31
978.687	3166.68
978.987	3164.65
979.286	3092.79
979.586	3072.67
979.885	3084.88
980.185	3053.46
980.484	3071.77
980.784	3046.01
981.083	3038.32
981.382	2985.9
981.682	3053.01
981.981	2999.23
982.28	3009.17
982.579	3008.72
982.878	2974.6
983.177	2938.21
983.475	2998.33
983.774	2937.08
984.073	2919.23
984.372	2878.78
984.67	2868.39
984.969	2870.19
985.267	2871.55
985.566	2861.15
985.864	2846.24
986.162	2864.77
986.461	2838.33
986.759	2808.27
987.057	2788.39
987.355	2744.09
987.653	2750.2
987.951	2785.22
988.249	2739.35
988.547	2741.16
988.844	2705
989.142	2711.55
989.44	2684.21
989.737	2659.58
990.035	2656.87
990.332	2648.28
990.63	2630.2
990.927	2577.09
991.224	2606.25
991.521	2599.69
991.819	2585
992.116	2545.23
992.413	2576.42
992.71	2551.11
993.006	2508.39
993.303	2538
993.6	2527.6
993.897	2480.37
994.193	2491.22
994.49	2484.67
994.787	2469.98
995.083	2438.57
995.379	2431.11
995.676	2435.63
995.972	2439.47
996.268	2378.68
996.565	2383.43
996.861	2365.57
997.157	2347.27
997.453	2350.21
997.749	2347.72
998.044	2307.27
998.34	2314.05
998.636	2328.29
998.932	2336.65
999.227	2284.45
999.523	2270.66
999.818	2282.19
1000.114	2239.7
1000.409	2227.05
1000.704	2244.45
1001	2190.89
1001.295	2180.95
1001.59	2160.83
1001.885	2188.4
1002.18	2175.52
1002.475	2132.13
1002.77	2149.76
1003.065	2117.44
1003.359	2107.05
1003.654	2086.26
1003.949	2091.23
1004.243	2078.12
1004.538	2074.51
1004.832	2068.41
1005.127	2018.69
1005.421	2035.86
1005.715	2002.65
1006.009	2016.66
1006.304	2005.36
1006.598	1991.12
1006.892	1992.25
1007.186	1967.84
1007.48	1938.69
1007.773	1926.94
1008.067	1927.84
1008.361	1905.47
1008.655	1921.07
1008.948	1925.81
1009.242	1914.96
1009.535	1858.92
1009.829	1888.75
1010.122	1873.83
1010.415	1840.16
1010.708	1820.28
1011.001	1816.66
1011.295	1794.74
1011.588	1807.85
1011.881	1782.09
1012.173	1767.17
1012.466	1773.95
1012.759	1754.97
1013.052	1763.1
1013.344	1757
1013.637	1721.3
1013.93	1721.75
1014.222	1717.45
1014.514	1727.4
1014.807	1697.57
1015.099	1672.48
1015.391	1672.71
1015.683	1646.27
1015.976	1664.12
1016.268	1638.59
1016.56	1628.19
1016.851	1625.71
1017.143	1622.99
1017.435	1612.15
1017.727	1592.71
1018.018	1601.3
1018.31	1559.27
1018.602	1557.69
1018.893	1539.15
1019.185	1504.81
1019.476	1560.85
1019.767	1552.49
1020.058	1522.21
1020.35	1495.09
1020.641	1473.85
1020.932	1480.17
1021.223	1460.29
1021.514	1481.98
1021.804	1427.52
1022.095	1446.28
1022.386	1419.61
1022.677	1418.71
1022.967	1424.81
1023.258	1392.72
1023.548	1396.11
1023.839	1392.94
1024.129	1386.39
1024.419	1356.11
1024.709	1367.86
1025	1352.27
1025.29	1338.26
1025.58	1329.22
1025.87	1329.89
1026.16	1284.47
1026.449	1294.87
1026.739	1299.84
1027.029	1290.12
1027.319	1289.22
1027.608	1296.9
1027.898	1246.73
1028.187	1264.13
1028.477	1263
1028.766	1256.22
1029.055	1244.25
1029.344	1247.86
1029.634	1210.8
1029.923	1232.27
1030.212	1235.21
1030.501	1200.63
1030.79	1217.58
1031.078	1187.3
1031.367	1170.58
1031.656	1155.21
1031.945	1152.05
1032.233	1154.76
1032.522	1148.66
1032.81	1129.22
1033.099	1122.22
1033.387	1135.32
1033.675	1104.59
1033.963	1093.74
1034.251	1091.26
1034.54	1091.48
1034.828	1082.67
1035.116	1074.99
1035.403	1055.1
1035.691	1083.8
1035.979	1062.1
1036.267	1047.19
1036.554	1033.86
1036.842	1017.81
1037.129	1018.72
1037.417	1013.97
1037.704	1036.79
1037.992	1021.65
1038.279	994.99
1038.566	976.01
1038.853	976.01
1039.14	976.01
