Data from hue_120_FLMS001491_00045.txt Node
Date: Tue Feb 07 16:59:26 GMT 2017
User: dcchb
Spectrometer: FLMS00149
Trigger mode: 0
Integration Time (sec): 2.000000E-2
Scans to average: 10
Electric dark correction enabled: true
Nonlinearity correction enabled: false
Boxcar width: 0
XAxis mode: Wavelengths
Number of Pixels in Spectrum: 2048
>>>>>Begin Spectral Data<<<<<
341.393	-16.45
341.776	-16.45
342.16	-16.45
342.543	-60.3
342.927	-51.93
343.31	-63.68
343.693	-78.15
344.077	-78.83
344.46	-76.79
344.843	-64.59
345.226	-52.61
345.61	-18.71
345.993	-20.52
346.376	3.21
346.759	20.83
347.142	36.88
347.525	12.92
347.908	56.99
348.291	96.99
348.674	104.45
349.057	121.62
349.44	152.58
349.823	143.99
350.206	141.06
350.588	200.49
350.971	192.35
351.354	230.32
351.737	238.45
352.119	231.45
352.502	256.76
352.884	284.1
353.267	295.4
353.65	282.29
354.032	301.96
354.414	318.68
354.797	296.08
355.179	325.01
355.562	331.11
355.944	315.97
356.326	329.75
356.709	345.57
357.091	312.8
357.473	341.05
357.855	341.05
358.238	367.49
358.62	327.49
359.002	355.97
359.384	333.82
359.766	349.86
360.148	342.41
360.53	359.81
360.912	332.69
361.294	349.64
361.676	347.15
362.057	344.89
362.439	339.02
362.821	348.51
363.203	329.98
363.584	347.38
363.966	328.17
364.348	316.19
364.729	325.91
365.111	322.97
365.493	310.32
365.874	308.06
366.256	320.26
366.637	315.74
367.019	303.54
367.4	313.48
367.781	323.2
368.163	306.93
368.544	312.58
368.925	327.72
369.306	323.88
369.688	320.71
370.069	318.9
370.45	335.17
370.831	330.88
371.212	318.45
371.593	331.11
371.974	305.57
372.355	318
372.736	324.55
373.117	333.59
373.498	302.86
373.879	327.49
374.26	315.06
374.641	319.81
375.021	338.79
375.402	328.4
375.783	336.53
376.163	331.79
376.544	337.66
376.925	327.94
377.305	334.27
377.686	330.43
378.066	332.46
378.447	347.15
378.827	318
379.208	339.92
379.588	325.68
379.968	352.35
380.349	344.21
380.729	318
381.109	332.69
381.489	339.24
381.87	333.59
382.25	357.1
382.63	345.57
383.01	328.62
383.39	360.03
383.77	344.44
384.15	363.2
384.53	324.1
384.91	353.48
385.29	349.19
385.67	347.15
386.049	372.24
386.429	346.02
386.809	362.52
387.189	353.48
387.568	367.94
387.948	368.39
388.328	365.91
388.707	362.97
389.087	370.88
389.466	364.33
389.846	390.77
390.225	378.79
390.605	391.67
390.984	398
391.363	383.08
391.743	383.76
392.122	393.25
392.501	385.57
392.881	375.63
393.26	389.86
393.639	394.83
394.018	396.64
394.397	407.72
394.776	416.53
395.155	401.16
395.534	393.25
395.913	406.36
396.292	440.48
396.671	423.53
397.05	415.17
397.429	419.47
397.808	395.06
398.186	409.52
398.565	408.17
398.944	397.77
399.323	410.2
399.701	404.1
400.08	429.86
400.458	414.95
400.837	411.78
401.215	428.73
401.594	428.51
401.972	431.22
402.351	438.9
402.729	425.79
403.107	447.71
403.486	450.43
403.864	437.77
404.242	462.4
404.62	454.04
404.999	440.93
405.377	459.24
405.755	449.75
406.133	470.31
406.511	464.66
406.889	478.9
407.267	490.2
407.645	485.91
408.023	472.12
408.401	486.13
408.779	469.63
409.156	491.55
409.534	499.46
409.912	482.97
410.29	479.35
410.667	503.08
411.045	504.66
411.422	490.88
411.8	511.67
412.178	504.89
412.555	515.28
412.933	518.67
413.31	555.28
413.687	525.9
414.065	539.24
414.442	534.04
414.819	541.27
415.197	558.67
415.574	541.27
415.951	556.64
416.328	554.83
416.705	570.65
417.082	561.16
417.46	547.6
417.837	570.87
418.214	578.56
418.591	576.07
418.967	581.5
419.344	581.95
419.721	586.69
420.098	589.18
420.475	593.93
420.852	595.96
421.228	596.18
421.605	606.13
421.982	601.61
422.358	617.88
422.735	649.29
423.111	620.82
423.488	614.04
423.864	627.14
424.241	637.09
424.617	656.75
424.994	668.73
425.37	675.5
425.746	673.7
426.123	679.8
426.499	670.76
426.875	680.48
427.251	676.63
427.627	673.47
428.003	701.94
428.379	692.23
428.756	715.05
429.132	719.12
429.507	712.34
429.883	722.06
430.259	756.63
430.635	717.09
431.011	729.06
431.387	741.72
431.763	755.73
432.138	761.83
432.514	803.86
432.89	773.36
433.265	787.14
433.641	764.09
434.016	789.17
434.392	806.35
434.767	825.78
435.143	814.71
435.518	857.19
435.894	842.73
436.269	840.25
436.644	838.89
437.02	872.56
437.395	840.02
437.77	873.69
438.145	877.76
438.52	877.53
438.895	889.96
439.271	921.15
439.646	924.99
440.021	922.5
440.395	914.82
440.77	915.27
441.145	904.65
441.52	955.72
441.895	960.24
442.27	958.44
442.645	960.02
443.019	989.85
443.394	1005.21
443.769	996.63
444.143	998.89
444.518	1029.62
444.892	1009.28
445.267	1009.96
445.641	1000.24
446.016	1041.14
446.39	1017.42
446.764	1035.72
447.139	1056.06
447.513	1042.05
447.887	1053.35
448.262	1056.51
448.636	1066.91
449.01	1073.46
449.384	1082.95
449.758	1097.87
450.132	1079.79
450.506	1106.23
450.88	1126.79
451.254	1098.32
451.628	1131.76
452.002	1136.96
452.376	1140.58
452.75	1161.82
453.123	1169.96
453.497	1214.47
453.871	1223.29
454.244	1228.03
454.618	1209.5
454.992	1252.89
455.365	1253.12
455.739	1286.34
456.112	1273.46
456.486	1308.26
456.859	1331.76
457.232	1341.93
457.606	1333.34
457.979	1374.02
458.352	1376.5
458.725	1398.88
459.099	1390.51
459.472	1444.3
459.845	1432.32
460.218	1440.91
460.591	1479.33
460.964	1475.26
461.337	1499.44
461.71	1550.74
462.083	1595.71
462.456	1609.04
462.829	1570.85
463.201	1597.29
463.574	1586.89
463.947	1651.75
464.32	1679.09
464.692	1680.22
465.065	1717.96
465.438	1773.56
465.81	1754.12
466.183	1812.42
466.555	1857.17
466.928	1845.64
467.3	1863.5
467.672	1875.47
468.045	1964.96
468.417	1941.69
468.789	1978.75
469.161	1997.05
469.534	2071.4
469.906	2078.41
470.278	2153.66
470.65	2133.77
471.022	2213.32
471.394	2255.35
471.766	2299.87
472.138	2337.38
472.51	2338.29
472.882	2418.06
473.253	2450.6
473.625	2493.76
473.997	2600.2
474.369	2599.97
474.74	2617.15
475.112	2715
475.484	2815.11
475.855	2867.31
476.227	2890.14
476.598	3009
476.97	3047.19
477.341	3155.89
477.713	3193.4
478.084	3261.88
478.455	3383.46
478.827	3444.25
479.198	3568.76
479.569	3617.8
479.94	3717.46
480.311	3812.82
480.682	3941.63
481.053	4031.12
481.424	4122.87
481.795	4225.24
482.166	4356.76
482.537	4412.58
482.908	4597.21
483.279	4671.33
483.65	4812.35
484.021	4937.77
484.391	5068.84
484.762	5166.69
485.133	5228.15
485.503	5395.83
485.874	5538.65
486.244	5656.62
486.615	5781.59
486.985	5943.16
487.356	6099.54
487.726	6183.83
488.097	6367.33
488.467	6517.61
488.837	6670.15
489.207	6885.51
489.578	7010.71
489.948	7088.67
490.318	7298.83
490.688	7362.33
491.058	7604.14
491.428	7797.13
491.798	7881.42
492.168	8150.34
492.538	8238.47
492.908	8417.67
493.278	8545.35
493.648	8608.63
494.017	8828.06
494.387	8993.03
494.757	9154.15
495.126	9302.17
495.496	9378.1
495.866	9530.87
496.235	9704.65
496.605	9839.56
496.974	9908.71
497.344	10148.02
497.713	10210.62
498.082	10360.67
498.452	10524.51
498.821	10552.76
499.19	10706.65
499.559	10831.4
499.928	10984.61
500.298	11028
500.667	11218.28
501.036	11258.96
501.405	11413.75
501.774	11442.68
502.143	11614.43
502.512	11695.1
502.88	11844.48
503.249	11921.76
503.618	11953.4
503.987	12068.88
504.356	12148.88
504.724	12264.8
505.093	12433.84
505.462	12540.5
505.83	12493.05
506.199	12673.83
506.567	12775.53
506.936	12851
507.304	13014.39
507.672	13108.62
508.041	13132.35
508.409	13207.15
508.777	13296.64
509.145	13421.38
509.514	13386.36
509.882	13533.7
510.25	13596.97
510.618	13616.86
510.986	13763.07
511.354	13880.13
511.722	13910.19
512.09	14000.58
512.458	14001.93
512.826	14187.47
513.193	14132.55
513.561	14269.95
513.929	14285.54
514.297	14388.14
514.664	14457.29
515.032	14558.98
515.4	14499.1
515.767	14611.86
516.135	14701.12
516.502	14588.13
516.869	14804.4
517.237	14866.09
517.604	14761.24
517.972	14949.71
518.339	15004.39
518.706	14977.95
519.073	15034.22
519.44	15045.97
519.808	15176.37
520.175	15130.49
520.542	15318.06
520.909	15338.4
521.276	15289.36
521.643	15444.83
522.009	15491.84
522.376	15450.03
522.743	15509.69
523.11	15678.95
523.477	15762.79
523.843	15737.26
524.21	15864.03
524.577	15974.99
524.943	15953.75
525.31	15920.75
525.676	16054.08
526.043	16038.94
526.409	16165.72
526.776	16220.63
527.142	16153.97
527.508	16261.54
527.874	16320.74
528.241	16374.98
528.607	16295.89
528.973	16468.31
529.339	16344.92
529.705	16462.43
530.071	16473.73
530.437	16475.54
530.803	16534.3
531.169	16534.97
531.535	16497.01
531.901	16471.02
532.267	16492.26
532.632	16591.24
532.998	16468.99
533.364	16586.72
533.73	16526.39
534.095	16556.44
534.461	16562.54
534.826	16629.21
535.192	16587.63
535.557	16638.02
535.923	16607.06
536.288	16568.42
536.653	16630.34
537.019	16517.12
537.384	16429.44
537.749	16502.21
538.114	16468.08
538.479	16485.71
538.845	16440.06
539.21	16328.2
539.575	16374.3
539.94	16408.42
540.305	16453.85
540.67	16320.52
541.034	16305.6
541.399	16394.41
541.764	16375.21
542.129	16345.83
542.494	16226.06
542.858	16257.24
543.223	16191.48
543.587	16214.08
543.952	16185.61
544.316	16250.91
544.681	16162.56
545.045	16138.6
545.41	16099.05
545.774	16151.93
546.138	16019.06
546.503	16058.38
546.867	15985.16
547.231	15989.23
547.595	16018.15
547.959	15900.87
548.324	15937.48
548.688	15905.84
549.052	15883.01
549.416	15854.54
549.779	15865.61
550.143	15820.42
550.507	15857.7
550.871	15800.53
551.235	15746.97
551.599	15804.37
551.962	15727.99
552.326	15811.6
552.689	15810.47
553.053	15715.56
553.417	15591.72
553.78	15878.49
554.143	15625.85
554.507	15679.4
554.87	15720.98
555.234	15771.61
555.597	15538.39
555.96	15629.91
556.323	15566.19
556.686	15537.71
557.05	15619.52
557.413	15607.77
557.776	15614.77
558.139	15608.67
558.502	15691.61
558.865	15593.98
559.228	15740.65
559.59	15677.14
559.953	15659.74
560.316	15771.61
560.679	15747.42
561.041	15788.55
561.404	15773.64
561.767	15834.65
562.129	15776.35
562.492	15820.87
562.854	15812.06
563.217	15745.62
563.579	15871.49
563.941	15886.18
564.304	15844.15
564.666	15989.68
565.028	15826.29
565.39	15885.05
565.753	15991.03
566.115	15973.63
566.477	16076
566.839	16076.23
567.201	16046.4
567.563	16064.03
567.925	16166.85
568.287	16126.17
568.648	16126.17
569.01	16180.63
569.372	16240.52
569.734	16198.71
570.095	16239.39
570.457	16252.72
570.819	16261.08
571.18	16250.24
571.542	16355.09
571.903	16386.28
572.265	16351.93
572.626	16397.35
572.987	16388.31
573.349	16440.74
573.71	16507.86
574.071	16483.9
574.432	16444.81
574.794	16625.59
575.155	16558.48
575.516	16448.42
575.877	16527.07
576.238	16537.46
576.599	16630.57
576.96	16603.45
577.32	16625.82
577.681	16690.22
578.042	16579.72
578.403	16687.74
578.763	16653.39
579.124	16625.82
579.485	16751.69
579.845	16732.48
580.206	16727.06
580.566	16617.46
580.927	16701.52
581.287	16800.5
581.648	16667.63
582.008	16717.34
582.368	16742.43
582.728	16628.31
583.089	16690.9
583.449	16703.11
583.809	16642.54
584.169	16667.63
584.529	16531.81
584.889	16750.11
585.249	16648.19
585.609	16542.66
585.969	16633.28
586.329	16595.99
586.688	16645.48
587.048	16556.22
587.408	16608.42
587.768	16597.35
588.127	16548.08
588.487	16545.82
588.846	16650
589.206	16546.5
589.565	16394.87
589.925	16493.85
590.284	16542.43
590.643	16460.85
591.003	16498.59
591.362	16578.82
591.721	16509.44
592.08	16510.34
592.44	16547.18
592.799	16512.83
593.158	16479.84
593.517	16587.85
593.876	16471.02
594.235	16523.45
594.593	16495.43
594.952	16502.66
595.311	16455.2
595.67	16451.59
596.029	16581.08
596.387	16517.57
596.746	16617.01
597.104	16425.37
597.463	16324.36
597.822	16388.31
598.18	16392.61
598.538	16389.44
598.897	16449.33
599.255	16376.11
599.613	16526.61
599.972	16393.51
600.33	16492.49
600.688	16428.08
601.046	16456.56
601.404	16483.9
601.762	16514.41
602.12	16506.73
602.478	16522.55
602.836	16476.67
603.194	16360.97
603.552	16478.93
603.91	16318.26
604.268	16410.23
604.625	16361.42
604.983	16508.53
605.341	16468.31
605.698	16477.12
606.056	16491.36
606.413	16417.01
606.771	16550.34
607.128	16488.65
607.485	16463.34
607.843	16456.11
608.2	16588.08
608.557	16545.37
608.914	16552.38
609.272	16602.32
609.629	16656.1
609.986	16619.04
610.343	16564.58
610.7	16765.25
611.057	16734.52
611.414	16690.22
611.771	16650.45
612.127	16727.06
612.484	16747.4
612.841	16752.37
613.198	16812.71
613.554	16652.49
613.911	16758.7
614.267	16697.91
614.624	16770.9
614.98	16790.34
615.337	16862.42
615.693	16741.3
616.05	16743.78
616.406	16901.29
616.762	16775.87
617.118	16788.75
617.475	16868.53
617.831	16880.95
618.187	16923.89
618.543	16932.93
618.899	16935.64
619.255	16914.17
619.611	16933.16
619.967	16963.66
620.323	17083.43
620.678	16937.45
621.034	16954.62
621.39	16983.32
621.746	16901.07
622.101	17109.42
622.457	16954.4
622.812	17083.21
623.168	17032.59
623.523	16987.62
623.879	17064.68
624.234	16964.34
624.589	16994.4
624.945	17024.23
625.3	16943.33
625.655	17001.18
626.01	17050.22
626.365	16942.42
626.72	16933.16
627.075	16946.49
627.43	16960.05
627.785	17044.79
628.14	17103.32
628.495	17035.07
628.85	16875.76
629.205	16856.55
629.559	16950.56
629.914	16882.31
630.269	16882.08
630.623	16953.49
630.978	16801.18
631.332	16978.13
631.687	17046.15
632.041	16855.87
632.396	16872.14
632.75	16813.61
633.104	16795.53
633.459	16710.34
633.813	16741.75
634.167	16770.45
634.521	16792.37
634.875	16682.09
635.229	16691.81
635.583	16583.79
635.937	16629.44
636.291	16611.81
636.645	16689.1
636.999	16525.03
637.352	16598.25
637.706	16475.99
638.06	16536.56
638.413	16557.35
638.767	16521.64
639.121	16574.52
639.474	16375.43
639.828	16378.59
640.181	16378.37
640.534	16375.66
640.888	16377.46
641.241	16352.83
641.594	16343.34
641.947	16391.48
642.301	16328.2
642.654	16316.22
643.007	16294.08
643.36	16287.52
643.713	16341.31
644.066	16304.02
644.419	16277.35
644.771	16090.69
645.124	16046.85
645.477	15934.54
645.83	15877.14
646.182	15843.69
646.535	15754.88
646.888	15890.47
647.24	15619.52
647.593	15746.52
647.945	15716.92
648.298	15730.25
648.65	15666.98
649.002	15603.25
649.355	15736.58
649.707	15619.74
650.059	15837.82
650.411	15955.56
650.763	15976.12
651.115	16092.95
651.467	16119.84
651.819	16074.87
652.171	16001.88
652.523	16005.5
652.875	15980.87
653.227	15949.45
653.578	15975.67
653.93	16041.2
654.282	15981.09
654.633	15980.64
654.985	16005.27
655.337	15971.6
655.688	16007.98
656.039	16100.64
656.391	15937.48
656.742	16013.18
657.094	15985.38
657.445	15961.66
657.796	15991.26
658.147	16018.15
658.498	16003.24
658.849	16080.07
659.2	16009.11
659.551	16069.22
659.902	16071.94
660.253	16007.08
660.604	15953.3
660.955	15961.43
661.306	16058.6
661.656	16076
662.007	16050.47
662.358	16042.33
662.708	16058.83
663.059	16084.37
663.409	15983.8
663.76	16178.83
664.11	16104.03
664.461	16025.38
664.811	16053.63
665.161	16142.44
665.511	16006.85
665.862	16018.6
666.212	16073.97
666.562	16123.01
666.912	16069
667.262	15972.73
667.612	16037.81
667.962	16041.2
668.312	15950.81
668.662	16096.34
669.011	16036.46
669.361	15883.92
669.711	15939.28
670.06	15986.29
670.41	15877.37
670.76	15908.55
671.109	15948.55
671.459	15981.09
671.808	15903.8
672.157	15991.71
672.507	15854.31
672.856	15848.89
673.205	15858.38
673.554	15928.66
673.904	15844.6
674.253	15897.7
674.602	15895.22
674.951	15680.76
675.3	15566.19
675.649	15883.01
675.998	15841.43
676.346	15850.02
676.695	15850.93
677.044	15668.56
677.393	15751.49
677.741	15745.84
678.09	15745.17
678.438	15758.05
678.787	15702.68
679.135	15710.82
679.484	15610.03
679.832	15540.42
680.181	15625.39
680.529	15515.57
680.877	15481.9
681.225	15511.05
681.573	15639.41
681.922	15426.3
682.27	15424.95
682.618	15429.24
682.966	15392.63
683.314	15447.09
683.661	15265.18
684.009	15233.31
684.357	15242.81
684.705	15262.92
685.053	15272.18
685.4	15172.98
685.748	15092.98
686.095	15114.22
686.443	15030.16
686.79	14966.2
687.138	14984.06
687.485	15036.26
687.832	14918.29
688.18	14925.07
688.527	14814.12
688.874	14828.35
689.221	14744.74
689.568	14786.32
689.915	14710.16
690.262	14722.14
690.609	14699.32
690.956	14636.27
691.303	14525.08
691.65	14469.27
691.997	14470.4
692.344	14316.73
692.69	14352.43
693.037	14321.47
693.383	14279.67
693.73	14210.29
694.077	14230.85
694.423	14191.31
694.769	14085.77
695.116	14079.67
695.462	13996.28
695.808	14025.44
696.155	14062.05
696.501	13919.9
696.847	13908.15
697.193	13807.14
697.539	13799.45
697.885	13753.13
698.231	13661.15
698.577	13633.13
698.923	13752.68
699.269	13574.15
699.614	13422.74
699.96	13478.33
700.306	13396.3
700.651	13345.68
700.997	13208.51
701.342	13190.66
701.688	13204.67
702.033	13118.34
702.379	13161.73
702.724	13150.43
703.069	13141.84
703.415	12914.51
703.76	12965.35
704.105	13020.04
704.45	12864.79
704.795	12820.72
705.14	12807.39
705.485	12785.47
705.83	12739.37
706.175	12705.92
706.52	12690.56
706.865	12640.61
707.209	12645.59
707.554	12549.09
707.899	12586.38
708.243	12523.1
708.588	12574.85
708.932	12413.95
709.277	12434.29
709.621	12337.8
709.966	12334.86
710.31	12339.38
710.654	12225.03
710.998	12196.11
711.342	12271.36
711.687	12124.02
712.031	12109.78
712.375	12145.03
712.719	12039.5
713.063	12085.15
713.407	12086.28
713.75	12106.84
714.094	12107.07
714.438	11939.62
714.782	11992.5
715.125	11998.6
715.469	11945.27
715.812	11883.35
716.156	11805.61
716.499	11774.2
716.843	11737.13
717.186	11738.94
717.53	11843.12
717.873	11833.63
718.216	11712.73
718.559	11718.38
718.902	11604.26
719.246	11595.67
719.589	11624.37
719.932	11508.44
720.275	11548.89
720.617	11592.96
720.96	11594.99
721.303	11585.5
721.646	11555.44
721.989	11485.84
722.331	11560.64
722.674	11469.35
723.016	11445.17
723.359	11409.01
723.701	11418.73
724.044	11348.44
724.386	11352.06
724.729	11397.26
725.071	11392.29
725.413	11347.99
725.755	11359.52
726.097	11286.3
726.439	11280.2
726.782	11270.03
727.124	11281.78
727.465	11327.43
727.807	11266.19
728.149	11191.61
728.491	11258.05
728.833	11326.52
729.175	11202.69
729.516	11213.31
729.858	11208.56
730.199	11220.99
730.541	11261.44
730.882	11188
731.224	11153.87
731.565	11121.78
731.906	11179.64
732.248	11202.46
732.589	11082.01
732.93	11175.12
733.271	11120.65
733.612	11178.05
733.953	11113.2
734.294	11086.08
734.635	11111.39
734.976	11130.15
735.317	11026.19
735.658	11060.09
735.999	11099.86
736.339	11126.08
736.68	11224.15
737.021	11122.24
737.361	11039.53
737.702	11149.58
738.042	11177.15
738.383	11066.42
738.723	11133.31
739.063	11115.46
739.404	11150.94
739.744	11148.68
740.084	11080.65
740.424	11131.28
740.764	11133.08
741.104	11201.1
741.444	11137.15
741.784	11151.84
742.124	11202.01
742.464	11171.27
742.804	11205.17
743.143	11227.77
743.483	11230.26
743.823	11275.9
744.162	11253.76
744.502	11264.38
744.841	11270.25
745.181	11410.59
745.52	11384.15
745.86	11480.87
746.199	11483.81
746.538	11456.01
746.877	11530.36
747.216	11601.77
747.556	11678.15
747.895	11708.66
748.234	11688.32
748.573	11841.09
748.911	11914.08
749.25	11892.16
749.589	11900.07
749.928	11983.46
750.267	12137.35
750.605	12224.13
750.944	12226.16
751.283	12257.35
751.621	12316.1
751.96	12380.73
752.298	12489.21
752.636	12622.76
752.975	12706.37
753.313	12798.12
753.651	12958.57
753.989	12985.69
754.327	13117.44
754.666	13166.02
755.004	13246.25
755.342	13414.38
755.679	13604.2
756.017	13562.62
756.355	13883.97
756.693	13911.77
757.031	14094.59
757.368	14141.14
757.706	14375.71
758.044	14492.54
758.381	14596.04
758.719	14825.42
759.056	15041
759.394	15136.59
759.731	15297.49
760.068	15362.35
760.405	15511.5
760.743	15592.85
761.08	15856.57
761.417	15989.45
761.754	16203.91
762.091	16332.95
762.428	16435.32
762.765	16557.12
763.102	16871.01
763.438	16950.33
763.775	17156.88
764.112	17281.4
764.449	17574.95
764.785	17633.25
765.122	17761.84
765.458	17797.54
765.795	18078.21
766.131	18181.49
766.467	18342.16
766.804	18476.17
767.14	18541.93
767.476	18674.58
767.812	18780.57
768.148	19049.48
768.485	19002.93
768.821	19125.42
769.157	19334.45
769.492	19376.03
769.828	19513.2
770.164	19520.43
770.5	19765.4
770.836	19850.82
771.171	19863.25
771.507	19889.01
771.842	19950.48
772.178	20075.67
772.513	20188.66
772.849	20281.99
773.184	20256.68
773.519	20353.86
773.855	20390.24
774.19	20427.08
774.525	20537.36
774.86	20628.65
775.195	20672.95
775.53	20644.25
775.865	20650.35
776.2	20626.62
776.535	20620.97
776.87	20763.34
777.205	20745.49
777.539	20714.07
777.874	20926.95
778.209	20731.93
778.543	20818.48
778.878	20793.17
779.212	20833.84
779.547	20844.01
779.881	20900.96
780.215	20901.64
780.55	20951.36
780.884	20898.48
781.218	20929.66
781.552	20955.65
781.886	20898.7
782.22	20874.52
782.554	20838.14
782.888	20780.51
783.222	20791.13
783.556	20746.16
783.889	20752.49
784.223	20646.96
784.557	20555.21
784.89	20737.35
785.224	20581.87
785.557	20650.57
785.891	20584.59
786.224	20514.08
786.558	20648.99
786.891	20463.69
787.224	20462.33
787.557	20503.68
787.891	20389.56
788.224	20528.32
788.557	20398.38
788.89	20405.83
789.223	20512.05
789.556	20295.33
789.888	20236.57
790.221	20315.89
790.554	20079.97
790.887	20109.34
791.219	20050.81
791.552	20062.11
791.884	19947.99
792.217	19963.81
792.549	20041.78
792.882	19857.83
793.214	19866.41
793.546	19889.46
793.879	19782.57
794.211	19678.17
794.543	19689.47
794.875	19661.45
795.207	19675.68
795.539	19596.59
795.871	19633.2
796.203	19461
796.535	19390.04
796.867	19424.39
797.198	19360.89
797.53	19310.95
797.862	19184.17
798.193	19264.62
798.525	19178.3
798.856	19199.54
799.188	18932.65
799.519	18872.77
799.85	18847.68
800.182	18904.4
800.513	18828.93
800.844	18649.72
801.175	18856.5
801.506	18787.34
801.837	18753.45
802.168	18669.61
802.499	18594.36
802.83	18536.96
803.161	18471.42
803.491	18468.03
803.822	18435.04
804.153	18476.17
804.483	18334.48
804.814	18166.57
805.145	18343.06
805.475	18186
805.805	18153.69
806.136	18145.33
806.466	18108.04
806.796	18187.81
807.126	17932.23
807.457	17915.96
807.787	17913.47
808.117	17942.4
808.447	17877.76
808.777	17944.66
809.107	17739.24
809.436	17689.97
809.766	17774.26
810.096	17710.99
810.426	17473.93
810.755	17657.88
811.085	17653.82
811.414	17600.03
811.744	17487.49
812.073	17372.47
812.403	17421.05
812.732	17263.32
813.061	17330.66
813.39	17243.88
813.719	17240.27
814.049	17244.33
814.378	17139.48
814.707	17094.96
815.036	17161.4
815.365	17073.04
815.693	16893.61
816.022	16960.27
816.351	16939.26
816.68	16751.69
817.008	16866.27
817.337	16759.38
817.665	16728.87
817.994	16765.7
818.322	16717.34
818.651	16608.19
818.979	16567.06
819.307	16673.95
819.636	16632.15
819.964	16553.96
820.292	16591.24
820.62	16497.91
820.948	16483.45
821.276	16530.46
821.604	16519.61
821.932	16595.31
822.259	16522.09
822.587	16540.4
822.915	16461.98
823.243	16489.33
823.57	16499.27
823.898	16516.44
824.225	16385.37
824.553	16472.15
824.88	16405.49
825.207	16461.08
825.535	16465.37
825.862	16473.96
826.189	16443
826.516	16473.96
826.843	16523.68
827.17	16504.24
827.497	16526.39
827.824	16503.79
828.151	16577.91
828.478	16558.25
828.805	16568.87
829.131	16514.41
829.458	16583.11
829.785	16413.4
830.111	16558.03
830.438	16481.87
830.764	16400.29
831.09	16452.04
831.417	16431.47
831.743	16552.6
832.069	16554.64
832.395	16499.04
832.722	16492.04
833.048	16448.88
833.374	16419.72
833.7	16363.68
834.026	16297.24
834.351	16394.19
834.677	16322.55
835.003	16314.87
835.329	16348.31
835.654	16347.18
835.98	16232.16
836.306	16260.41
836.631	16134.08
836.956	16310.35
837.282	16186.74
837.607	16084.37
837.932	16163.01
838.258	16037.59
838.583	16088.21
838.908	15975.44
839.233	16096.57
839.558	16032.62
839.883	15932.05
840.208	15923.92
840.533	15859.51
840.858	15915.33
841.182	15911.94
841.507	15766.86
841.832	15753.53
842.156	15790.59
842.481	15760.98
842.805	15675.56
843.13	15701.1
843.454	15687.77
843.778	15622.68
844.103	15494.1
844.427	15536.13
844.751	15500.43
845.075	15497.71
845.399	15366.19
845.723	15351.05
846.047	15332.75
846.371	15235.35
846.695	15340.43
847.019	15098.18
847.343	15077.39
847.666	15028.57
847.99	14896.15
848.313	15001.23
848.637	14827.9
848.96	14903.38
849.284	14789.71
849.607	14745.19
849.931	14644.18
850.254	14511.53
850.577	14401.7
850.9	14371.42
851.223	14428.82
851.546	14289.84
851.869	14166
852.192	14306.78
852.515	14126
852.838	14114.02
853.161	14010.3
853.483	13963.07
853.806	13993.35
854.129	13868.83
854.451	13836.51
854.774	13803.75
855.096	13733.69
855.419	13650.76
855.741	13701.6
856.063	13534.38
856.385	13547.03
856.708	13500.93
857.03	13507.48
857.352	13491.67
857.674	13449.41
857.996	13394.94
858.318	13286.7
858.64	13233.14
858.961	13225.01
859.283	13178.68
859.605	13151.79
859.926	13224.78
860.248	13149.75
860.57	13046.03
860.891	13105.01
861.212	12954.5
861.534	13029.53
861.855	12908.18
862.176	13011
862.498	12939.14
862.819	12897.1
863.14	12831.57
863.461	12815.98
863.782	12833.38
864.103	12834.06
864.424	12798.8
864.745	12771.01
865.065	12731.69
865.386	12716.09
865.707	12614.85
866.027	12733.49
866.348	12616.43
866.668	12587.51
866.989	12563.33
867.309	12462.31
867.63	12570.79
867.95	12480.84
868.27	12390.9
868.59	12430
868.91	12467.51
869.23	12449.66
869.55	12407.17
869.87	12454.4
870.19	12387.74
870.51	12310.68
870.83	12416.21
871.15	12297.12
871.469	12329.89
871.789	12277.46
872.109	12254.64
872.428	12259.83
872.748	12209.44
873.067	12215.99
873.386	12230.23
873.706	12179.16
874.025	12089.22
874.344	12018.48
874.663	12204.69
874.982	12074.3
875.301	12121.08
875.62	12036.79
875.939	12035.43
876.258	12008.54
876.577	11961.76
876.896	12023
877.214	11908.66
877.533	11945.49
877.852	11885.38
878.17	11940.52
878.489	11905.27
878.807	11895.1
879.125	11799.28
879.444	11839.05
879.762	11807.19
880.08	11755.21
880.398	11781.43
880.716	11668.66
881.034	11692.84
881.352	11734.42
881.67	11585.73
881.988	11612.62
882.306	11600.42
882.624	11517.03
882.941	11483.81
883.259	11491.49
883.577	11417.37
883.894	11452.85
884.212	11482.45
884.529	11418.27
884.846	11445.17
885.164	11304.6
885.481	11240.65
885.798	11297.37
886.115	11189.8
886.432	11188.9
886.75	11177.15
887.067	11211.5
887.383	11142.35
887.7	11174.89
888.017	11066.19
888.334	11105.06
888.651	11108
888.967	10987.32
889.284	10952.07
889.6	11030.49
889.917	10824.39
890.233	10896.25
890.55	10905.97
890.866	10818.29
891.182	10837.95
891.498	10730.38
891.815	10702.81
892.131	10692.19
892.447	10650.84
892.763	10631.85
893.079	10563.61
893.395	10529.03
893.71	10556.83
894.026	10541.01
894.342	10522.93
894.657	10453.33
894.973	10388.47
895.289	10385.31
895.604	10362.03
895.92	10334.23
896.235	10218.53
896.55	10256.95
896.865	10159.78
897.181	10158.42
897.496	10156.61
897.811	10101.02
898.126	10121.13
898.441	10080.23
898.756	9976.28
899.071	9936.5
899.386	9883.4
899.7	9852.21
900.015	9766.57
900.33	9745.77
900.644	9734.7
900.959	9774.93
901.273	9706.45
901.588	9660.13
901.902	9599.34
902.216	9565.44
902.531	9621.71
902.845	9501.94
903.159	9452.68
903.473	9442.96
903.787	9398.89
904.101	9388.5
904.415	9367.25
904.729	9298.55
905.042	9219.69
905.356	9192.34
905.67	9186.47
905.984	9215.17
906.297	9141.5
906.611	9052.46
906.924	9084.78
907.237	9032.57
907.551	8951.45
907.864	8992.8
908.177	8973.59
908.491	8931.11
908.804	8825.57
909.117	8786.03
909.43	8798.23
909.743	8782.18
910.056	8672.36
910.368	8653.37
910.681	8652.24
910.994	8646.37
911.307	8553.49
911.619	8529.76
911.932	8478.92
912.244	8435.75
912.557	8408.63
912.869	8410.44
913.181	8339.26
913.494	8368.18
913.806	8240.73
914.118	8255.42
914.43	8172.93
914.742	8164.8
915.054	8153.05
915.366	8184.01
915.678	8059.27
915.99	8102.2
916.302	8009.55
916.613	7963.45
916.925	8005.71
917.236	7969.55
917.548	7840.74
917.859	7876.9
918.171	7826.05
918.482	7772.27
918.794	7840.74
919.105	7786.05
919.416	7670.12
919.727	7664.02
920.038	7638.26
920.349	7640.52
920.66	7580.86
920.971	7557.36
921.282	7611.37
921.593	7460.86
921.903	7388.77
922.214	7375.22
922.525	7411.82
922.835	7405.05
923.146	7240.3
923.456	7320.75
923.767	7257.7
924.077	7288.44
924.387	7199.85
924.697	7111.04
925.008	7168.22
925.318	7111.27
925.628	7113.3
925.938	7053.42
926.248	7026.07
926.558	7010.71
926.867	7001.67
927.177	6928.22
927.487	6894.1
927.796	6856.13
928.106	6774.1
928.416	6824.27
928.725	6776.14
929.034	6757.38
929.344	6821.11
929.653	6711.05
929.962	6698.62
930.271	6636.7
930.581	6625.63
930.89	6596.48
931.199	6572.98
931.508	6565.75
931.817	6493.2
932.125	6481.91
932.434	6506.76
932.743	6418.63
933.051	6389.48
933.36	6379.31
933.669	6318.52
933.977	6351.97
934.286	6306.54
934.594	6292.08
934.902	6264.96
935.21	6206.43
935.519	6152.42
935.827	6198.98
936.135	6151.97
936.443	6121.24
936.751	6114.01
937.059	6097.74
937.367	6051.63
937.674	6052.54
937.982	6049.37
938.29	5958.76
938.597	5958.76
938.905	5905.88
939.213	5867.91
939.52	5821.58
939.827	5875.59
940.135	5809.38
940.442	5834.92
940.749	5730.74
941.056	5808.03
941.363	5676.28
941.67	5651.42
941.977	5669.5
942.284	5610.06
942.591	5641.7
942.898	5546.11
943.205	5574.36
943.511	5530.52
943.818	5496.17
944.125	5494.81
944.431	5518.32
944.738	5443.74
945.044	5396.51
945.35	5431.76
945.657	5387.02
945.963	5330.75
946.269	5310.64
946.575	5325.78
946.881	5282.16
947.187	5250.98
947.493	5205.33
947.799	5281.03
948.105	5232.67
948.41	5129.85
948.716	5201.71
949.022	5138.44
949.327	5141.6
949.633	5043.3
949.938	5094.82
950.244	5078.1
950.549	5011.89
950.854	5005.33
951.16	4947.03
951.465	4963.3
951.77	4937.31
952.075	4886.69
952.38	4880.37
952.685	4914.26
952.99	4815.51
953.294	4808.96
953.599	4804.44
953.904	4754.04
954.209	4781.84
954.513	4737.54
954.818	4697.32
955.122	4689.41
955.426	4677.43
955.731	4637.21
956.035	4603.54
956.339	4607.83
956.643	4634.95
956.948	4582.07
957.252	4578.45
957.556	4542.07
957.86	4497.33
958.163	4491.22
958.467	4471.34
958.771	4447.38
959.075	4500.71
959.378	4429.53
959.682	4366.93
959.985	4378.91
960.289	4355.41
960.592	4369.42
960.896	4345.92
961.199	4300.72
961.502	4281.06
961.805	4290.1
962.108	4233.38
962.411	4240.61
962.714	4231.57
963.017	4208.52
963.32	4216.65
963.623	4159.03
963.926	4150.22
964.228	4130.56
964.531	4108.41
964.833	4136.2
965.136	4069.09
965.438	4063.66
965.741	3985.7
966.043	3980.5
966.345	3993.38
966.648	3983.21
966.95	3976.66
967.252	3925.36
967.554	3927.4
967.856	3920.17
968.158	3910.9
968.46	3863.9
968.761	3837
969.063	3848.08
969.365	3807.85
969.666	3833.39
969.968	3744.35
970.269	3762.2
970.571	3793.61
970.872	3805.14
971.174	3744.35
971.475	3686.95
971.776	3700.51
972.077	3715.42
972.378	3705.03
972.679	3650.79
972.98	3662.77
973.281	3631.59
973.582	3601.76
973.883	3602.21
974.183	3604.02
974.484	3554.53
974.785	3548.2
975.085	3550.23
975.386	3494.87
975.686	3475.88
975.986	3508.42
976.287	3476.34
976.587	3420.52
976.887	3413.96
977.187	3443.79
977.487	3436.34
977.787	3371.71
978.087	3384.13
978.387	3322.89
978.687	3337.13
978.987	3342.55
979.286	3279.28
979.586	3305.72
979.885	3295.77
980.185	3267.3
980.484	3278.37
980.784	3207.87
981.083	3238.83
981.382	3226.17
981.682	3221.43
981.981	3159.51
982.28	3168.55
982.579	3136.23
982.878	3139.17
983.177	3138.49
983.475	3139.62
983.774	3110.7
984.073	3091.26
984.372	3077.48
984.67	3048.78
984.969	3055.1
985.267	3006.52
985.566	3034.31
985.864	2951.38
986.162	2979.4
986.461	2962.68
986.759	2952.73
987.057	2928.33
987.355	2920.19
987.653	2915.45
987.951	2907.08
988.249	2886.52
988.547	2893.07
988.844	2897.14
989.142	2852.4
989.44	2788.9
989.737	2818.5
990.035	2786.86
990.332	2797.03
990.63	2776.01
990.927	2764.72
991.224	2718.39
991.521	2731.95
991.819	2687.66
992.116	2707.54
992.413	2679.29
992.71	2675.9
993.006	2647.66
993.303	2674.55
993.6	2664.61
993.897	2637.49
994.193	2644.49
994.49	2599.07
994.787	2590.26
995.083	2559.98
995.379	2576.47
995.676	2526.53
995.972	2524.27
996.268	2503.25
996.565	2482.01
996.861	2521.33
997.157	2504.61
997.453	2487.43
997.749	2490.15
998.044	2473.65
998.34	2458.73
998.636	2453.09
998.932	2411.73
999.227	2413.76
999.523	2385.52
999.818	2367.89
1000.114	2373.99
1000.409	2342.58
1000.704	2365.18
1001	2359.08
1001.295	2312.3
1001.59	2299.87
1001.885	2312.98
1002.18	2271.4
1002.475	2265.52
1002.77	2263.71
1003.065	2262.13
1003.359	2233.66
1003.654	2200.44
1003.949	2208.57
1004.243	2215.35
1004.538	2208.8
1004.832	2180.78
1005.127	2184.62
1005.421	2163.38
1005.715	2178.06
1006.009	2140.55
1006.304	2126.77
1006.598	2108.24
1006.892	2070.27
1007.186	2080.67
1007.48	2058.97
1007.773	2042.25
1008.067	2015.81
1008.361	2024.17
1008.655	2041.57
1008.948	2019.65
1009.242	1997.96
1009.535	1969.71
1009.829	1990.5
1010.122	1961.35
1010.415	1923.16
1010.708	1910.95
1011.001	1930.39
1011.295	1915.02
1011.588	1916.6
1011.881	1875.7
1012.173	1899.88
1012.466	1880.67
1012.759	1865.98
1013.052	1843.61
1013.344	1835.47
1013.637	1824.4
1013.93	1825.76
1014.222	1808.13
1014.514	1824.63
1014.807	1785.98
1015.099	1769.04
1015.391	1783.5
1015.683	1732.2
1015.976	1761.58
1016.268	1721.13
1016.56	1709.6
1016.851	1693.78
1017.143	1694.69
1017.435	1652.88
1017.727	1691.52
1018.018	1663.73
1018.31	1644.07
1018.602	1647.46
1018.893	1624.86
1019.185	1621.69
1019.476	1642.49
1019.767	1589.83
1020.058	1590.74
1020.35	1585.99
1020.641	1590.06
1020.932	1578.31
1021.223	1546.89
1021.514	1546.67
1021.804	1517.52
1022.095	1542.37
1022.386	1488.36
1022.677	1490.4
1022.967	1504.41
1023.258	1470.51
1023.548	1488.36
1023.839	1448.14
1024.129	1456.5
1024.419	1449.04
1024.709	1426.45
1025	1425.99
1025.29	1426.67
1025.58	1379.44
1025.87	1393.68
1026.16	1392.55
1026.449	1386.22
1026.739	1368.82
1027.029	1357.75
1027.319	1345.09
1027.608	1328.82
1027.898	1343.96
1028.187	1317.97
1028.477	1334.47
1028.766	1306.45
1029.055	1309.16
1029.344	1263.96
1029.634	1292.21
1029.923	1273.68
1030.212	1253.79
1030.501	1245.43
1030.79	1227.81
1031.078	1253.12
1031.367	1221.71
1031.656	1211.31
1031.945	1221.48
1032.233	1180.58
1032.522	1206.34
1032.81	1174.93
1033.099	1197.98
1033.387	1183.51
1033.675	1165.89
1033.963	1160.24
1034.251	1148.03
1034.54	1123.4
1034.828	1134.02
1035.116	1121.14
1035.403	1102.39
1035.691	1112.56
1035.979	1099.67
1036.267	1075.72
1036.554	1091.99
1036.842	1078.88
1037.129	1069.39
1037.417	1081.6
1037.704	1072.1
1037.992	1053.12
1038.279	1014.93
1038.566	1032.11
1038.853	1032.11
1039.14	1032.11
