Data from hue_350_FLMS001491_48.txt Node
Date: Mon Feb 06 15:38:05 GMT 2017
User: dcchb
Spectrometer: FLMS00149
Trigger mode: 0
Integration Time (sec): 2.000000E-2
Scans to average: 10
Electric dark correction enabled: true
Nonlinearity correction enabled: false
Boxcar width: 0
XAxis mode: Wavelengths
Number of Pixels in Spectrum: 2048
>>>>>Begin Spectral Data<<<<<
341.393	-5.25
341.776	-5.25
342.16	-5.25
342.543	-68.76
342.927	-65.14
343.31	-78.25
343.693	-52.26
344.077	-67.17
344.46	-61.07
344.843	-71.02
345.226	-42.09
345.61	-34.63
345.993	1.98
346.376	-2.54
346.759	-7.29
347.142	24.8
347.525	53.95
347.908	69.32
348.291	73.16
348.674	91.69
349.057	101.41
349.44	133.73
349.823	157.45
350.206	144.8
350.588	178.47
350.971	201.75
351.354	212.37
351.737	222.76
352.119	253.27
352.502	258.69
352.884	279.71
353.267	288.07
353.65	308.41
354.032	303.44
354.414	301.63
354.797	301.63
355.179	331.46
355.562	335.53
355.944	326.71
356.326	328.75
356.709	341.63
357.091	315.64
357.473	342.53
357.855	336.66
358.238	345.92
358.62	357
359.002	333.95
359.384	339.37
359.766	331.46
360.148	335.3
360.53	351.12
360.912	319.71
361.294	309.09
361.676	351.57
362.057	345.25
362.439	328.3
362.821	323.1
363.203	338.01
363.584	307.73
363.966	309.99
364.348	331.91
364.729	310.9
365.111	333.27
365.493	312.48
365.874	314.74
366.256	314.06
366.637	347.96
367.019	311.35
367.4	306.38
367.781	307.96
368.163	300.27
368.544	323.1
368.925	300.05
369.306	298.24
369.688	273.83
370.069	318.13
370.45	329.2
370.831	319.71
371.212	314.06
371.593	311.8
371.974	305.25
372.355	298.24
372.736	298.01
373.117	318.13
373.498	314.74
373.879	315.42
374.26	297.56
374.641	329.2
375.021	313.38
375.402	302.99
375.783	296.43
376.163	326.49
376.544	339.6
376.925	325.81
377.305	312.93
377.686	304.79
378.066	317.22
378.447	322.19
378.827	334.62
379.208	325.58
379.588	321.29
379.968	324.23
380.349	339.82
380.729	333.04
381.109	332.82
381.489	331.01
381.87	344.12
382.25	328.75
382.63	342.31
383.01	330.78
383.39	347.73
383.77	342.99
384.15	339.14
384.53	358.35
384.91	347.5
385.29	369.2
385.67	343.44
386.049	361.97
386.429	334.85
386.809	355.87
387.189	347.05
387.568	346.38
387.948	336.66
388.328	351.57
388.707	353.61
389.087	341.18
389.466	347.05
389.846	368.97
390.225	363.55
390.605	356.09
390.984	352.48
391.363	351.8
391.743	345.25
392.122	361.29
392.501	349.09
392.881	342.76
393.26	360.16
393.639	376.2
394.018	376.88
394.397	367.84
394.776	385.92
395.155	369.88
395.534	354.28
395.913	367.62
396.292	378.92
396.671	366.04
397.05	376.88
397.429	375.98
397.808	388.18
398.186	364.23
398.565	371.69
398.944	375.98
399.323	407.39
399.701	399.03
400.08	378.69
400.458	392.02
400.837	377.33
401.215	379.82
401.594	354.51
401.972	387.73
402.351	378.01
402.729	385.02
403.107	387.96
403.486	413.27
403.864	393.61
404.242	395.19
404.62	401.74
404.999	408.52
405.377	405.58
405.755	419.59
406.133	417.11
406.511	412.59
406.889	425.47
407.267	432.47
407.645	394.28
408.023	422.31
408.401	426.6
408.779	433.83
409.156	429.31
409.534	408.29
409.912	429.76
410.29	440.16
410.667	443.32
411.045	439.48
411.422	439.93
411.8	442.87
412.178	471.8
412.555	443.32
412.933	463.89
413.31	470.89
413.687	472.7
414.065	442.64
414.442	473.15
414.819	474.73
415.197	464.11
415.574	493.94
415.951	463.89
416.328	477.67
416.705	488.07
417.082	465.69
417.46	489.65
417.837	501.4
418.214	499.82
418.591	495.75
418.967	503.21
419.344	493.26
419.721	518.57
420.098	516.54
420.475	527.61
420.852	517.67
421.228	533.94
421.605	530.55
421.982	534.17
422.358	513.38
422.735	550.89
423.111	543.43
423.488	544.34
423.864	537.78
424.241	578.46
424.617	549.99
424.994	559.93
425.37	551.34
425.746	548.86
426.123	571
426.499	566.48
426.875	563.77
427.251	588.85
427.627	576.88
428.003	594.05
428.379	599.93
428.756	611.45
429.132	615.52
429.507	600.38
429.883	613.49
430.259	632.02
430.635	611.23
431.011	631.79
431.387	625.24
431.763	648.74
432.138	650.32
432.514	636.08
432.89	629.31
433.265	650.77
433.641	663.88
434.016	662.75
434.392	693.03
434.767	677.21
435.143	705.01
435.518	671.34
435.894	719.02
436.269	700.04
436.644	717.89
437.02	686.71
437.395	719.7
437.77	724.9
438.145	729.64
438.52	714.28
438.895	721.28
439.271	731
439.646	719.02
440.021	738.91
440.395	754.27
440.77	751.11
441.145	742.97
441.52	756.08
441.895	774.39
442.27	770.09
442.645	787.04
443.019	786.14
443.394	749.98
443.769	773.26
444.143	804.67
444.518	802.18
444.892	785.01
445.267	800.15
445.641	825.91
446.016	788.4
446.39	794.05
446.764	825.23
447.139	814.84
447.513	814.39
447.887	812.8
448.262	813.93
448.636	822.29
449.01	830.2
449.384	822.07
449.758	837.89
450.132	859.81
450.506	858.68
450.88	837.66
451.254	850.54
451.628	854.38
452.002	871.56
452.376	872.69
452.75	877.43
453.123	899.81
453.497	888.96
453.871	876.53
454.244	917.66
454.618	927.6
454.992	935.29
455.365	910.43
455.739	937.32
456.112	949.75
456.486	935.51
456.859	947.49
457.232	975.06
457.606	962.63
457.979	968.73
458.352	979.58
458.725	998.34
459.099	990.43
459.472	991.78
459.845	1041.95
460.218	1019.13
460.591	1064.77
460.964	1024.55
461.337	1067.71
461.71	1088.73
462.083	1094.6
462.456	1093.02
462.829	1080.37
463.201	1092.8
463.574	1104.55
463.947	1094.38
464.32	1148.39
464.692	1141.83
465.065	1128.73
465.438	1193.58
465.81	1166.47
466.183	1185
466.555	1220.25
466.928	1194.04
467.3	1227.03
467.672	1248.72
468.045	1280.59
468.417	1271.55
468.789	1281.94
469.161	1281.04
469.534	1299.12
469.906	1317.42
470.278	1361.72
470.65	1356.74
471.022	1347.93
471.394	1394.71
471.766	1381.83
472.138	1387.48
472.51	1416.4
472.882	1449.17
473.253	1457.98
473.625	1501.37
473.997	1529.17
474.369	1520.58
474.74	1535.27
475.112	1567.36
475.484	1614.36
475.855	1655.04
476.227	1594.25
476.598	1662.05
476.97	1707.7
477.341	1721.48
477.713	1766.68
478.084	1756.51
478.455	1804.42
478.827	1816.17
479.198	1871.31
479.569	1881.02
479.94	1928.71
480.311	1915.6
480.682	1997.18
481.053	2028.82
481.424	2061.36
481.795	2074.92
482.166	2141.36
482.537	2147.01
482.908	2182.48
483.279	2195.82
483.65	2217.06
484.021	2281.92
484.391	2330.05
484.762	2337.74
485.133	2343.16
485.503	2365.76
485.874	2474.68
486.244	2482.14
486.615	2500.89
486.985	2538.86
487.356	2596.49
487.726	2607.11
488.097	2652.98
488.467	2672.87
488.837	2703.6
489.207	2762.13
489.578	2824.5
489.948	2803.49
490.318	2866.31
490.688	2882.35
491.058	2911.96
491.428	3000.77
491.798	2973.88
492.168	3042.12
492.538	3055.23
492.908	3096.81
493.278	3150.37
493.648	3181.33
494.017	3203.48
494.387	3245.28
494.757	3255
495.126	3309.24
495.496	3275.34
495.866	3341.78
496.235	3371.83
496.605	3409.57
496.974	3411.15
497.344	3449.12
497.713	3459.97
498.082	3497.25
498.452	3505.16
498.821	3532.51
499.19	3563.24
499.559	3576.57
499.928	3605.5
500.298	3615.22
500.667	3668.32
501.036	3645.05
501.405	3652.05
501.774	3704.25
502.143	3749.9
502.512	3718.26
502.88	3795.55
503.249	3800.52
503.618	3758.26
503.987	3847.07
504.356	3837.81
504.724	3900.86
505.093	3864.93
505.462	3890.91
505.83	3924.13
506.199	3934.98
506.567	3942.44
506.936	3985.15
507.304	4026.96
507.672	4026.96
508.041	4011.36
508.409	4082.55
508.777	4048.2
509.145	4115.32
509.514	4106.73
509.882	4119.38
510.25	4109.21
510.618	4190.34
510.986	4166.16
511.354	4154.41
511.722	4277.12
512.09	4275.09
512.458	4206.61
512.826	4270.79
513.193	4248.19
513.561	4292.49
513.929	4292.03
514.297	4341.52
514.664	4311.69
515.032	4365.48
515.4	4388.3
515.767	4361.41
516.135	4376.33
516.502	4372.71
516.869	4437.79
517.237	4468.53
517.604	4463.78
517.972	4427.17
518.339	4512.14
518.706	4471.24
519.073	4526.15
519.44	4548.52
519.808	4532.25
520.175	4588.3
520.542	4603.44
520.909	4595.08
521.276	4601.18
521.643	4630.78
522.009	4715.75
522.376	4685.7
522.743	4685.7
523.11	4725.02
523.477	4742.19
523.843	4751.91
524.21	4814.73
524.577	4830.78
524.943	4851.79
525.31	4872.58
525.676	4878.69
526.043	4939.7
526.409	4899.48
526.776	5004.33
527.142	4962.52
527.508	5045.01
527.874	5042.97
528.241	5059.92
528.607	5050.43
528.973	5103.99
529.339	5097.44
529.705	5134.05
530.071	5162.29
530.437	5181.73
530.803	5250.2
531.169	5217.66
531.535	5274.38
531.901	5270.54
532.267	5279.58
532.632	5294.27
532.998	5314.61
533.364	5394.6
533.73	5409.07
534.095	5425.11
534.461	5464.43
534.826	5446.58
535.192	5500.59
535.557	5507.14
535.923	5494.71
536.288	5550.31
536.653	5576.75
537.019	5578.1
537.384	5600.7
537.749	5603.41
538.114	5661.26
538.479	5625.78
538.845	5660.81
539.21	5748.27
539.575	5679.79
539.94	5758.89
540.305	5770.64
540.67	5742.17
541.034	5812.45
541.399	5862.16
541.764	5894.48
542.129	5894.7
542.494	5932.67
542.858	5930.18
543.223	5950.07
543.587	5984.64
543.952	6061.93
544.316	6006.11
544.681	6002.95
545.045	6056.96
545.41	6106.22
545.774	6101.48
546.138	6124.53
546.503	6168.14
546.867	6179.67
547.231	6227.35
547.595	6252.66
547.959	6271.42
548.324	6262.6
548.688	6291.3
549.052	6344.41
549.416	6342.15
549.779	6348.25
550.143	6321.13
550.507	6416.95
550.871	6444.07
551.235	6421.7
551.599	6480.23
551.962	6473.22
552.326	6495.59
552.689	6520.22
553.053	6499.21
553.417	6548.25
553.78	6628.47
554.143	6611.07
554.507	6627.11
554.87	6651.97
555.234	6712.31
555.597	6703.95
555.96	6690.39
556.323	6689.94
556.686	6738.07
557.05	6745.3
557.413	6831.85
557.776	6796.6
558.139	6781.91
558.502	6922.47
558.865	6838.63
559.228	6904.39
559.59	6880.21
559.953	6894.9
560.316	7023.26
560.679	6998.86
561.041	7075.24
561.404	7023.26
561.767	7140.32
562.129	7095.58
562.492	7082.47
562.854	7126.99
563.217	7111.17
563.579	7124.73
563.941	7212.86
564.304	7240.66
564.666	7265.52
565.028	7339.19
565.39	7288.79
565.753	7307.55
566.115	7359.75
566.477	7416.47
566.839	7408.11
567.201	7487.2
567.563	7512.29
567.925	7456.24
568.287	7549.12
568.648	7549.35
569.01	7591.61
569.372	7619.18
569.734	7599.29
570.095	7691.04
570.457	7753.41
570.819	7771.26
571.18	7718.84
571.542	7738.72
571.903	7908.89
572.265	7834.09
572.626	7867.99
572.987	7934.88
573.349	8034.31
573.71	8045.83
574.071	8071.82
574.432	8154.98
574.794	8162.21
575.155	8239.27
575.516	8242.44
575.877	8335.32
576.238	8405.15
576.599	8456.22
576.96	8529.66
577.32	8577.8
577.681	8636.78
578.042	8750.45
578.403	8818.24
578.763	8862.31
579.124	8921.52
579.485	9039.03
579.845	9186.37
580.206	9295.07
580.566	9314.95
580.927	9455.29
581.287	9615.96
581.648	9661.38
582.008	9891.21
582.368	9919.23
582.728	10093.92
583.089	10178.88
583.449	10322.16
583.809	10416.39
584.169	10651.87
584.529	10791.98
584.889	11069.03
585.249	11093.89
585.609	11325.52
585.969	11480.09
586.329	11707.21
586.688	11846.86
587.048	12007.09
587.408	12220.87
587.768	12518.94
588.127	12729.33
588.487	12909.21
588.846	13163.89
589.206	13360.95
589.565	13667.61
589.925	13886.36
590.284	14080.93
590.643	14420.36
591.003	14637.07
591.362	14990.51
591.721	15131.98
592.08	15473.66
592.44	15714.56
592.799	16104.38
593.158	16243.58
593.517	16533.07
593.876	16816.45
594.235	17065.26
594.593	17403.1
594.952	17723.77
595.311	17984.78
595.67	18202.85
596.029	18638.1
596.387	18960.8
596.746	19302.03
597.104	19443.27
597.463	19681.23
597.822	20062.47
598.18	20147.21
598.538	20525.28
598.897	20894.76
599.255	21120.97
599.613	21569.32
599.972	21815.42
600.33	22134.05
600.688	22409.52
601.046	22670.31
601.404	23009.06
601.762	23192.78
602.12	23646.78
602.478	23955.02
602.836	24112.98
603.194	24343.94
603.552	24604.72
603.91	24783.47
604.268	25159.73
604.625	25360.63
604.983	25687.18
605.341	25816.21
605.698	26219.14
606.056	26413.94
606.413	26596.08
606.771	27018.22
607.128	27241.04
607.485	27356.51
607.843	27711.76
608.2	28017.96
608.557	28214.34
608.914	28386.32
609.272	28780.66
609.629	29059.97
609.986	29100.87
610.343	29245.73
610.7	29700.41
611.057	29828.09
611.414	29934.75
611.771	30195.08
612.127	30570.89
612.484	30572.47
612.841	31031.67
613.198	31094.04
613.554	31270.31
613.911	31590.07
614.267	31627.81
614.624	31779.9
614.98	31933.57
615.337	32317.51
615.693	32333.33
616.05	32504.85
616.406	32899.87
616.762	32728.8
617.118	32962.01
617.475	33075.23
617.831	33275
618.187	33600.87
618.543	33557.03
618.899	33795.21
619.255	33963.57
619.611	34062.1
619.967	34292.15
620.323	34479.94
620.678	34418.93
621.034	34539.83
621.39	34664.79
621.746	34736.88
622.101	35173.26
622.457	35060.04
622.812	35236.53
623.168	35321.95
623.523	35328.96
623.879	35570.08
624.234	35406.24
624.589	35679.91
624.945	35708.16
625.3	35854.37
625.655	36002.39
626.01	35916.97
626.365	36068.15
626.72	36097.98
627.075	36249.16
627.43	36304.75
627.785	36275.37
628.14	36379.33
628.495	36498.64
628.85	36429.72
629.205	36370.06
629.559	36823.16
629.914	36561.92
630.269	36600.34
630.623	36584.07
630.978	36511.98
631.332	36856.38
631.687	36925.98
632.041	36760.78
632.396	36924.4
632.75	36749.49
633.104	36874.23
633.459	36816.38
633.813	36689.15
634.167	36830.16
634.521	36952.42
634.875	37030.38
635.229	36977.73
635.583	36795.13
635.937	36724.85
636.291	36773.21
636.645	36899.99
636.999	36885.98
637.352	37079.19
637.706	37000.78
638.06	37053.66
638.413	36920.55
638.767	36861.57
639.121	36989.93
639.474	36711.07
639.828	36724.63
640.181	36867.45
640.534	36873.78
640.888	36889.82
641.241	36699.09
641.594	36769.37
641.947	36952.42
642.301	36779.54
642.654	36810.73
643.007	36889.6
643.36	36833.33
643.713	36776.83
644.066	36960.55
644.419	36674.69
644.771	36558.76
645.124	36076.28
645.477	36158.54
645.83	35976.85
646.182	35776.18
646.535	35863.41
646.888	35818.66
647.24	35606.01
647.593	35909.06
647.945	35763.07
648.298	35604.88
648.65	35554.04
649.002	35507.48
649.355	35725.11
649.707	35589.29
650.059	35740.92
650.411	36042.16
650.763	36234.47
651.115	36652.09
651.467	36461.81
651.819	36309.95
652.171	36406.22
652.523	36446.22
652.875	36347.24
653.227	36242.61
653.578	36475.14
653.93	36299.1
654.282	36081.25
654.633	36094.36
654.985	36253.23
655.337	36283.28
655.688	36191.99
656.039	36450.28
656.391	35953.57
656.742	36024.08
657.094	36201.48
657.445	36315.37
657.796	36235.15
658.147	36094.59
658.498	36104.98
658.849	36132.33
659.2	36272.66
659.551	36082.61
659.902	36197.41
660.253	36175.94
660.604	36162.83
660.955	36009.84
661.306	36061.37
661.656	36097.75
662.007	35951.09
662.358	36062.5
662.708	36036.28
663.059	35923.97
663.409	35837.19
663.76	36174.81
664.11	35953.12
664.461	36073.35
664.811	35983.86
665.161	36009.17
665.511	35959.22
665.862	35902.05
666.212	36145.21
666.562	36042.16
666.912	36033.8
667.262	35893.46
667.612	35839
667.962	36039.22
668.312	35847.81
668.662	36136.39
669.011	35851.88
669.361	35987.7
669.711	35968.72
670.06	36048.94
670.41	35839.45
670.76	35780.7
671.109	35963.07
671.459	35822.96
671.808	35869.06
672.157	35859.57
672.507	35589.29
672.856	35738.21
673.205	35800.36
673.554	35847.14
673.904	35697.54
674.253	35934.59
674.602	35777.76
674.951	35216.19
675.3	34912.7
675.649	35657.76
675.998	35661.83
676.346	35558.78
676.695	35815.27
677.044	35360.6
677.393	35463.42
677.741	35511.33
678.09	35499.58
678.438	35398.33
678.787	35494.6
679.135	35558.1
679.484	35205.57
679.832	35398.33
680.181	35249.64
680.529	35237.21
680.877	35222.97
681.225	35121.05
681.573	35367.15
681.922	35105.91
682.27	34946.6
682.618	34914.73
682.966	34895.3
683.314	34858.01
683.661	34785.47
684.009	34708.41
684.357	34781.18
684.705	34570.11
685.053	34644.91
685.4	34644.68
685.748	34437.23
686.095	34572.59
686.443	34225.03
686.79	34199.5
687.138	34302.54
687.485	34276.56
687.832	34164.69
688.18	34268.42
688.527	34041.08
688.874	33993.4
689.221	33970.8
689.568	33972.38
689.915	33789.79
690.262	33866.62
690.609	33679.51
690.956	33512.28
691.303	33672.28
691.65	33392.29
691.997	33468.44
692.344	33189.81
692.69	33220.54
693.037	33173.31
693.383	32946.42
693.73	33092.86
694.077	32810.15
694.423	32935.57
694.769	32770.83
695.116	32769.7
695.462	32577.62
695.808	32570.16
696.155	32584.85
696.501	32399.54
696.847	32424.18
697.193	32080.91
697.539	32286.33
697.885	32106.44
698.231	31864.42
698.577	32017.63
698.923	31873.46
699.269	31633.24
699.614	31584.65
699.96	31574.93
700.306	31574.25
700.651	31423.75
700.997	31328.61
701.342	31303.3
701.688	31205.22
702.033	31210.42
702.379	31181.27
702.724	30923.2
703.069	31121.39
703.415	30625.58
703.76	30813.14
704.105	30738.57
704.45	30618.8
704.795	30518.92
705.14	30374.51
705.485	30378.81
705.83	30187.62
706.175	30342.42
706.52	30139.49
706.865	30176.1
707.209	30000.96
707.554	30032.37
707.899	30088.87
708.243	29812.94
708.588	29868.54
708.932	29581.76
709.277	29625.15
709.621	29650.92
709.966	29498.38
710.31	29421.54
710.654	29308.55
710.998	29281.66
711.342	29438.94
711.687	29149.46
712.031	29135.9
712.375	29047.32
712.719	29015.9
713.063	29045.96
713.407	29073.53
713.75	29057.71
714.094	28910.14
714.438	28701.34
714.782	28756.02
715.125	28652.75
715.469	28655.91
715.812	28523.49
716.156	28448.69
716.499	28534.79
716.843	28549.48
717.186	28285.08
717.53	28405.3
717.873	28467.67
718.216	28285.53
718.559	28113.33
718.902	28078.98
719.246	28052.54
719.589	27920.79
719.932	27854.35
720.275	27826.78
720.617	27753.79
720.96	27659.33
721.303	27865.2
721.646	27680.35
721.989	27640.12
722.331	27633.34
722.674	27550.63
723.016	27616.62
723.359	27625.21
723.701	27516.73
724.044	27253.92
724.386	27241.49
724.729	27345.21
725.071	27271.32
725.413	27374.59
725.755	27142.73
726.097	27103.86
726.439	27026.13
726.782	27015.5
727.124	27059.12
727.465	27046.92
727.807	27044.88
728.149	26811.22
728.491	26818.45
728.833	26761.73
729.175	26753.36
729.516	26657.55
729.858	26650.54
730.199	26528.96
730.541	26641.5
730.882	26540.26
731.224	26681.73
731.565	26362.41
731.906	26462.07
732.248	26440.6
732.589	26323.09
732.93	26199.71
733.271	26288.07
733.612	26329.87
733.953	26383.88
734.294	26135.53
734.635	26050.33
734.976	26136.21
735.317	25911.13
735.658	25971.46
735.999	26005.81
736.339	26027.51
736.68	26075.64
737.021	25925.59
737.361	25766.95
737.702	25926.72
738.042	25754.97
738.383	25667.97
738.723	25723.11
739.063	25631.59
739.404	25732.6
739.744	25690.79
740.084	25474.53
740.424	25491.02
740.764	25493.28
741.104	25523.79
741.444	25380.29
741.784	25373.97
742.124	25381.65
742.464	25380.52
742.804	25290.35
743.143	25218.04
743.483	25235.21
743.823	25052.62
744.162	25094.65
744.502	25144.82
744.841	24947.76
745.181	25072.05
745.52	24980.3
745.86	24980.08
746.199	25010.59
746.538	24912.28
746.877	24947.99
747.216	24840.19
747.556	24757.48
747.895	24857.82
748.234	24726.52
748.573	24706.64
748.911	24695.34
749.25	24679.07
749.589	24500.32
749.928	24457.83
750.267	24550.71
750.605	24486.08
750.944	24508.9
751.283	24429.13
751.621	24327.44
751.96	24295.35
752.298	24217.16
752.636	24212.19
752.975	24104.62
753.313	23994.11
753.651	24231.17
753.989	24019.42
754.327	24021.91
754.666	23879.54
755.004	23883.84
755.342	23918.64
755.679	23815.14
756.017	23590.06
756.355	23665.08
756.693	23607.01
757.031	23706.66
757.368	23463.06
757.706	23497.18
758.044	23447.24
758.381	23362.95
758.719	23279.33
759.056	23330.4
759.394	23144.87
759.731	23155.49
760.068	23093.12
760.405	22920.92
760.743	22884.99
761.08	22947.14
761.417	22892.22
761.754	22860.13
762.091	22694.49
762.428	22647.48
762.765	22556.41
763.102	22583.08
763.438	22408.85
763.775	22302.63
764.112	22377.89
764.449	22351.45
764.785	22282.3
765.122	22065.35
765.458	22040.49
765.795	22058.8
766.131	21937.9
766.467	21849.09
766.804	21862.65
767.14	21693.38
767.476	21735.87
767.812	21529.09
768.148	21636.21
768.485	21481.86
768.821	21374.07
769.157	21343.56
769.492	21314.64
769.828	21211.82
770.164	20972.05
770.5	21056.34
770.836	20934.53
771.171	20796.01
771.507	20685.95
771.842	20751.04
772.178	20644.37
772.513	20604.37
772.849	20531.83
773.184	20442.57
773.519	20426.53
773.855	20268.56
774.19	20214.1
774.525	20232.63
774.86	20234.21
775.195	20126.87
775.53	20024.05
775.865	19881.91
776.2	19847.11
776.535	19788.12
776.87	19784.73
777.205	19608.47
777.539	19447.12
777.874	19569.82
778.209	19366.89
778.543	19289.61
778.878	19237.18
779.212	19278.08
779.547	19053.68
779.881	19154.92
780.215	19023.17
780.55	18997.18
780.884	18807.81
781.218	18932.1
781.552	18862.95
781.886	18756.96
782.22	18638.55
782.554	18582.05
782.888	18379.8
783.222	18393.36
783.556	18311.33
783.889	18261.16
784.223	18088.51
784.557	18085.34
784.89	18223.87
785.224	17945.46
785.557	17823.43
785.891	17820.72
786.224	17822.3
786.558	17771.91
786.891	17619.82
787.224	17522.65
787.557	17551.57
787.891	17507.73
788.224	17482.87
788.557	17478.58
788.89	17364.01
789.223	17399.94
789.556	17234.97
789.888	17083.56
790.221	17088.99
790.554	16886.51
790.887	16971.7
791.219	16981.42
791.552	16855.77
791.884	16839.27
792.217	16783.91
792.549	16720.18
792.882	16534.88
793.214	16598.83
793.546	16547.08
793.879	16411.72
794.211	16354.54
794.543	16424.82
794.875	16298.95
795.207	16416.24
795.539	16222.79
795.871	16184.6
796.203	16116.13
796.535	16081.55
796.867	15951.61
797.198	15907.55
797.53	15931.28
797.862	15772.64
798.193	15824.84
798.525	15689.47
798.856	15781.68
799.188	15608.57
799.519	15516.82
799.85	15449.03
800.182	15470.5
800.513	15517.95
800.844	15346.43
801.175	15394.57
801.506	15371.06
801.837	15196.61
802.168	15239.54
802.499	15092.2
802.83	15025.09
803.161	15074.8
803.491	15047.23
803.822	14980.11
804.153	14847.24
804.483	14810.18
804.814	14774.02
805.145	14704.64
805.475	14676.62
805.805	14644.08
806.136	14773.79
806.466	14642.04
806.796	14626.9
807.126	14456.51
807.457	14414.71
807.787	14539.45
808.117	14378.77
808.447	14314.6
808.777	14358.89
809.107	14251.55
809.436	14240.47
809.766	14194.37
810.096	14196.41
810.426	14168.38
810.755	14149.4
811.085	14040.03
811.414	14087.93
811.744	13960.48
812.073	13943.08
812.403	13969.97
812.732	13819.02
813.061	13847.49
813.39	13793.03
813.719	13733.14
814.049	13703.99
814.378	13769.52
814.707	13734.27
815.036	13646.82
815.365	13506.03
815.693	13421.29
816.022	13511.68
816.351	13442.53
816.68	13301.74
817.008	13438.23
817.337	13205.92
817.665	13237.79
817.994	13306.49
818.322	13275.07
818.651	13131.35
818.979	13182.42
819.307	13199.37
819.636	13153.5
819.964	13066.72
820.292	13149.65
820.62	13053.84
820.948	13052.71
821.276	13052.48
821.604	13040.5
821.932	13109.88
822.259	13045.25
822.587	12996.66
822.915	12996.44
823.243	13031.47
823.57	12946.72
823.898	12981.98
824.225	12887.97
824.553	13011.8
824.88	13011.8
825.207	12998.25
825.535	13008.87
825.862	12993.73
826.189	12863.56
826.516	13013.16
826.843	12996.21
827.17	12965.03
827.497	13056.32
827.824	12939.94
828.151	13005.7
828.478	12932.94
828.805	12946.27
829.131	12944.46
829.458	12906.27
829.785	12836.22
830.111	12869.66
830.438	12940.85
830.764	12895.2
831.09	12947.85
831.417	12858.59
831.743	12919.83
832.069	12902.2
832.395	12885.03
832.722	12841.87
833.048	12811.81
833.374	12800.51
833.7	12774.07
834.026	12861.75
834.351	12833.28
834.677	12756.44
835.003	12867.63
835.329	12815.43
835.654	12759.38
835.98	12694.3
836.306	12756.9
836.631	12636.45
836.956	12718.93
837.282	12691.81
837.607	12565.71
837.932	12573.85
838.258	12609.78
838.583	12595.32
838.908	12434.19
839.233	12561.42
839.558	12521.42
839.883	12390.35
840.208	12477.81
840.533	12439.39
840.858	12463.34
841.182	12415.21
841.507	12405.72
841.832	12346.74
842.156	12344.03
842.481	12321.2
842.805	12170.7
843.13	12277.36
843.454	12186.06
843.778	12138.38
844.103	12166.18
844.427	12100.87
844.751	12116.01
845.075	11986.97
845.399	11964.15
845.723	11891.83
846.047	11952.62
846.371	11940.42
846.695	11820.42
847.019	11648.45
847.343	11780.42
847.666	11672.63
847.99	11560.54
848.313	11643.25
848.637	11522.13
848.96	11531.84
849.284	11471.51
849.607	11398.51
849.931	11335.92
850.254	11320.55
850.577	11247.56
850.9	11222.47
851.223	11196.49
851.546	11133.44
851.869	11047.11
852.192	11056.6
852.515	10961.69
852.838	10926.66
853.161	10914.91
853.483	10894.35
853.806	10824.52
854.129	10798.76
854.451	10826.78
854.774	10714.69
855.096	10661.13
855.419	10702.71
855.741	10628.82
856.063	10610.51
856.385	10547.46
856.708	10556.73
857.03	10468.14
857.352	10548.37
857.674	10392.44
857.996	10427.24
858.318	10421.14
858.64	10436.96
858.961	10301.14
859.283	10302.27
859.605	10178.21
859.926	10181.6
860.248	10132.33
860.57	10194.93
860.891	10184.99
861.212	10081.49
861.534	10134.59
861.855	10080.13
862.176	10060.47
862.498	10016.63
862.819	10057.98
863.14	10019.12
863.461	9956.52
863.782	9943.86
864.103	9940.47
864.424	9943.18
864.745	9936.63
865.065	9878.78
865.386	9872.45
865.707	9855.28
866.027	9879.01
866.348	9859.12
866.668	9769.86
866.989	9759.01
867.309	9673.81
867.63	9719.46
867.95	9672.68
868.27	9648.28
868.59	9688.5
868.91	9706.81
869.23	9660.93
869.55	9649.41
869.87	9663.87
870.19	9701.16
870.51	9633.14
870.83	9639.24
871.15	9522.4
871.469	9538.45
871.789	9559.47
872.109	9526.25
872.428	9470.2
872.748	9492.12
873.067	9490.09
873.386	9486.02
873.706	9464.1
874.025	9413.71
874.344	9418.9
874.663	9439.92
874.982	9424.78
875.301	9433.14
875.62	9353.6
875.939	9260.04
876.258	9363.77
876.577	9317.44
876.896	9181.17
877.214	9241.73
877.533	9294.16
877.852	9254.62
878.17	9237.89
878.489	9232.02
878.807	9250.1
879.125	9152.02
879.444	9147.27
879.762	9158.57
880.08	9192.02
880.398	9095.3
880.716	9140.95
881.034	9098.46
881.352	9112.7
881.67	9081.51
881.988	9066.15
882.306	9034.06
882.624	8985.02
882.941	8945.92
883.259	8956.77
883.577	8951.12
883.894	8894.4
884.212	8889.2
884.529	8910.67
884.846	8848.3
885.164	8833.84
885.481	8809.43
885.798	8787.96
886.115	8744.12
886.432	8767.85
886.75	8747.06
887.067	8758.81
887.383	8660.51
887.7	8646.95
888.017	8675.42
888.334	8662.09
888.651	8599.27
888.967	8637.23
889.284	8588.19
889.6	8488.53
889.917	8481.98
890.233	8491.92
890.55	8481.53
890.866	8477.46
891.182	8423.45
891.498	8333.06
891.815	8392.94
892.131	8324.47
892.447	8300.74
892.763	8264.81
893.079	8253.51
893.395	8200.41
893.71	8223.23
894.026	8206.96
894.342	8170.8
894.657	8096.23
894.973	8092.61
895.289	8109.33
895.604	8119.28
895.92	8004.03
896.235	7973.75
896.55	7940.07
896.865	7962.45
897.181	7877.7
897.496	7915.89
897.811	7870.92
898.126	7845.39
898.441	7778.5
898.756	7787.76
899.071	7787.31
899.386	7730.14
899.7	7723.36
900.015	7617.82
900.33	7629.57
900.644	7647.2
900.959	7650.36
901.273	7634.77
901.588	7508.9
901.902	7502.12
902.216	7488.56
902.531	7439.3
902.845	7426.64
903.159	7377.38
903.473	7342.8
903.787	7360.2
904.101	7313.42
904.415	7294.44
904.729	7312.07
905.042	7183.71
905.356	7249.92
905.67	7211.51
905.984	7160.66
906.297	7190.26
906.611	7129.02
906.924	7121.56
907.237	7075.69
907.551	7080.21
907.864	7041.57
908.177	7039.53
908.491	6971.06
908.804	6944.85
909.117	6839.76
909.43	6880.67
909.743	6853.1
910.056	6822.81
910.368	6795.92
910.681	6772.19
910.994	6704.63
911.307	6694.91
911.619	6679.77
911.932	6681.8
912.244	6602.48
912.557	6616.94
912.869	6576.49
913.181	6578.75
913.494	6545.99
913.806	6480
914.118	6520.68
914.43	6444.52
914.742	6445.42
915.054	6424.63
915.366	6389.61
915.678	6337.4
915.99	6287.69
916.302	6230.74
916.613	6252.89
916.925	6263.51
917.236	6228.71
917.548	6158.43
917.859	6141.93
918.171	6169.95
918.482	6085.89
918.794	6048.82
919.105	6049.28
919.416	6029.62
919.727	6026.45
920.038	5981.03
920.349	5976.28
920.66	5926.34
920.971	5894.25
921.282	5864.42
921.593	5837.3
921.903	5797.53
922.214	5811.09
922.525	5786.91
922.835	5749.4
923.146	5740.13
923.456	5712.79
923.767	5709.4
924.077	5687.25
924.387	5646.8
924.697	5625.11
925.008	5560.02
925.318	5604.09
925.628	5529.29
925.938	5499.46
926.248	5479.35
926.558	5439.12
926.867	5409.07
927.177	5383.3
927.487	5414.26
927.796	5370.2
928.106	5406.58
928.416	5335.4
928.725	5348.96
929.034	5325
929.344	5304.89
929.653	5300.82
929.962	5223.31
930.271	5227.83
930.581	5202.74
930.89	5141.96
931.199	5088.62
931.508	5135.4
931.817	5115.06
932.125	5069.41
932.434	5092.69
932.743	5030.77
933.051	5000.04
933.36	4965.46
933.669	4983.32
933.977	4902.64
934.286	4971.11
934.594	4910.1
934.902	4913.94
935.21	4861.06
935.519	4856.31
935.827	4864.67
936.135	4804.56
936.443	4752.59
936.751	4735.64
937.059	4714.17
937.367	4718.92
937.674	4732.47
937.982	4671.01
938.29	4644.34
938.597	4651.8
938.905	4638.24
939.213	4563.21
939.52	4560.95
939.827	4584.46
940.135	4554.17
940.442	4514.63
940.749	4510.79
941.056	4522.08
941.363	4462.2
941.67	4430.11
941.977	4388.75
942.284	4427.85
942.591	4385.82
942.898	4373.16
943.205	4321.41
943.511	4333.61
943.818	4348.3
944.125	4297.91
944.431	4267.85
944.738	4280.28
945.044	4250.68
945.35	4183.11
945.657	4189.44
945.963	4222.43
946.269	4155.31
946.575	4173.39
946.881	4132.26
947.187	4124.81
947.493	4108.31
947.799	4089.78
948.105	4076.67
948.41	4051.59
948.716	4016.11
949.022	4028.76
949.327	4011.14
949.633	3980.18
949.938	3967.97
950.244	3966.62
950.549	3926.17
950.854	3937.92
951.16	3863.12
951.465	3883.46
951.77	3878.94
952.075	3818.37
952.38	3800.97
952.685	3826.96
952.99	3802.56
953.294	3785.38
953.599	3782.22
953.904	3746.06
954.209	3742.67
954.513	3738.6
954.818	3696.8
955.122	3685.95
955.426	3701.99
955.731	3636.91
956.035	3648.89
956.339	3638.04
956.643	3606.85
956.948	3596.46
957.252	3590.13
957.556	3577.02
957.86	3501.32
958.163	3472.17
958.467	3520.53
958.771	3516.69
959.075	3493.86
959.378	3478.27
959.682	3484.15
959.985	3441.43
960.289	3414.09
960.592	3423.13
960.896	3363.24
961.199	3409.35
961.502	3330.93
961.805	3345.62
962.108	3330.93
962.411	3321.66
962.714	3311.49
963.017	3314.43
963.32	3342.45
963.623	3260.87
963.926	3278.95
964.228	3225.62
964.531	3205.06
964.833	3244.6
965.136	3214.32
965.438	3152.85
965.741	3203.93
966.043	3181.55
966.345	3162.35
966.648	3134.78
966.95	3147.88
967.252	3099.52
967.554	3063.82
967.856	3100.2
968.158	3046.19
968.46	3087.77
968.761	3057.72
969.063	3042.35
969.365	3014.78
969.666	2993.09
969.968	2970.26
970.269	3021.33
970.571	2942.92
970.872	2935.69
971.174	2907.21
971.475	2939.08
971.776	2917.38
972.077	2907.21
972.378	2911.51
972.679	2879.19
972.98	2871.73
973.281	2822.02
973.582	2844.39
973.883	2845.07
974.183	2814.78
974.484	2817.72
974.785	2723.04
975.085	2760.1
975.386	2778.18
975.686	2760.32
975.986	2720.55
976.287	2705.41
976.587	2725.07
976.887	2700.21
977.187	2640.78
977.487	2690.27
977.787	2640.55
978.087	2650.95
978.387	2632.42
978.687	2660.21
978.987	2578.86
979.286	2601.23
979.586	2628.35
979.885	2587.45
980.185	2575.69
980.484	2548.58
980.784	2553.55
981.083	2571.63
981.382	2533.66
981.682	2531.85
981.981	2528.46
982.28	2490.95
982.579	2498.18
982.878	2466.77
983.177	2487.11
983.475	2472.19
983.774	2415.7
984.073	2422.03
984.372	2409.82
984.67	2440.78
984.969	2412.08
985.267	2381.58
985.566	2388.36
985.864	2381.8
986.162	2375.25
986.461	2338.87
986.759	2347.23
987.057	2335.02
987.355	2323.05
987.653	2309.94
987.951	2297.28
988.249	2284.18
988.547	2299.77
988.844	2277.62
989.142	2288.92
989.44	2259.55
989.737	2239.21
990.035	2214.35
990.332	2217.29
990.63	2216.38
990.927	2196.95
991.224	2187.23
991.521	2195.14
991.819	2157.85
992.116	2164.41
992.413	2158.53
992.71	2160.79
993.006	2134.8
993.303	2115.37
993.6	2122.83
993.897	2108.81
994.193	2083.28
994.49	2069.27
994.787	2062.71
995.083	2049.83
995.379	2039.89
995.676	2028.59
995.972	2036.95
996.268	2018.87
996.565	2021.13
996.861	2021.81
997.157	1992.89
997.453	1980.23
997.749	1945.88
998.044	1978.65
998.34	1960.8
998.636	1932.32
998.932	1914.47
999.227	1900.23
999.523	1939.1
999.818	1897.52
1000.114	1904.53
1000.409	1915.6
1000.704	1879.67
1001	1855.04
1001.295	1855.71
1001.59	1836.28
1001.885	1845.32
1002.18	1832.44
1002.475	1816.62
1002.77	1826.11
1003.065	1808.48
1003.359	1798.09
1003.654	1817.52
1003.949	1744.3
1004.243	1741.37
1004.538	1767.35
1004.832	1754.02
1005.127	1740.91
1005.421	1729.62
1005.715	1732.78
1006.009	1710.63
1006.304	1686
1006.598	1672.44
1006.892	1699.79
1007.186	1694.59
1007.48	1670.63
1007.773	1664.76
1008.067	1643.29
1008.361	1629.05
1008.655	1626.34
1008.948	1624.99
1009.242	1586.57
1009.535	1592.22
1009.829	1589.96
1010.122	1572.78
1010.415	1604.87
1010.708	1568.04
1011.001	1561.94
1011.295	1560.35
1011.588	1567.81
1011.881	1555.38
1012.173	1549.73
1012.466	1505.44
1012.759	1488.49
1013.052	1477.64
1013.344	1506.34
1013.637	1487.81
1013.93	1476.97
1014.222	1492.56
1014.514	1464.09
1014.807	1453.92
1015.099	1467.93
1015.391	1414.37
1015.683	1403.3
1015.976	1408.49
1016.268	1394.94
1016.56	1425.67
1016.851	1407.36
1017.143	1392.22
1017.435	1394.71
1017.727	1379.57
1018.018	1364.65
1018.31	1362.39
1018.602	1346.12
1018.893	1348.61
1019.185	1349.96
1019.476	1307.71
1019.767	1309.74
1020.058	1318.1
1020.35	1297.31
1020.641	1297.31
1020.932	1287.82
1021.223	1307.93
1021.514	1274.26
1021.804	1277.2
1022.095	1255.5
1022.386	1246.69
1022.677	1232.91
1022.967	1212.34
1023.258	1246.69
1023.548	1238.78
1023.839	1215.5
1024.129	1210.53
1024.419	1223.87
1024.709	1182.06
1025	1181.83
1025.29	1164.88
1025.58	1146.35
1025.87	1125.79
1026.16	1147.03
1026.449	1124.21
1026.739	1118.11
1027.029	1130.08
1027.319	1105.9
1027.608	1100.25
1027.898	1102.74
1028.187	1091.21
1028.477	1082.4
1028.766	1064.32
1029.055	1072.01
1029.344	1088.5
1029.634	1069.29
1029.923	1067.49
1030.212	1062.97
1030.501	1045.34
1030.79	1043.98
1031.078	1059.35
1031.367	1010.31
1031.656	1027.04
1031.945	1014.15
1032.233	992.46
1032.522	993.59
1032.81	1000.14
1033.099	1006.47
1033.387	955.62
1033.675	979.13
1033.963	981.84
1034.251	962.86
1034.54	952.01
1034.828	949.75
1035.116	961.73
1035.403	951.1
1035.691	933.03
1035.979	908.39
1036.267	951.33
1036.554	919.47
1036.842	905.68
1037.129	893.48
1037.417	903.42
1037.704	886.93
1037.992	899.58
1038.279	891.22
1038.566	894.61
1038.853	894.61
1039.14	894.61
