Data from hue_270_FLMS001491_00050.txt Node
Date: Tue Feb 07 15:57:15 GMT 2017
User: dcchb
Spectrometer: FLMS00149
Trigger mode: 0
Integration Time (sec): 2.000000E-2
Scans to average: 10
Electric dark correction enabled: true
Nonlinearity correction enabled: false
Boxcar width: 0
XAxis mode: Wavelengths
Number of Pixels in Spectrum: 2048
>>>>>Begin Spectral Data<<<<<
341.393	-4.76
341.776	-4.76
342.16	-4.76
342.543	-72.78
342.927	-70.29
343.31	-71.42
343.693	-74.59
344.077	-67.81
344.46	-52.44
344.843	-61.26
345.226	-32.1
345.61	-31.88
345.993	-16.51
346.376	-0.69
346.759	8.8
347.142	26.65
347.525	47.89
347.908	66.42
348.291	81.11
348.674	81.57
349.057	96.25
349.44	116.14
349.823	133.32
350.206	159.3
350.588	171.96
350.971	198.4
351.354	218.96
351.737	210.83
352.119	234.33
352.502	261.67
352.884	251.96
353.267	267.1
353.65	274.55
354.032	281.11
354.414	290.83
354.797	313.65
355.179	279.53
355.562	315.91
355.944	295.12
356.326	312.29
356.709	330.37
357.091	320.43
357.473	313.42
357.855	328.11
358.238	326.76
358.62	320.88
359.002	322.69
359.384	330.6
359.766	303.03
360.148	323.82
360.53	324.5
360.912	346.19
361.294	336.47
361.676	310.94
362.057	322.69
362.439	288.34
362.821	319.98
363.203	300.09
363.584	319.53
363.966	324.95
364.348	316.59
364.729	327.66
365.111	317.49
365.493	309.81
365.874	299.64
366.256	313.42
366.637	298.06
367.019	300.09
367.4	279.53
367.781	296.93
368.163	317.27
368.544	291.96
368.925	320.88
369.306	305.06
369.688	298.51
370.069	287.66
370.45	295.8
370.831	300.54
371.212	295.35
371.593	320.66
371.974	312.52
372.355	313.42
372.736	305.06
373.117	319.3
373.498	313.65
373.879	308
374.26	331.05
374.641	315.68
375.021	322.92
375.402	318.4
375.783	332.41
376.163	317.27
376.544	316.14
376.925	330.37
377.305	334.21
377.686	318.4
378.066	318.62
378.447	316.36
378.827	320.43
379.208	327.21
379.588	320.66
379.968	310.71
380.349	309.13
380.729	329.69
381.109	324.95
381.489	329.69
381.87	311.39
382.25	328.56
382.63	336.02
383.01	332.63
383.39	363.59
383.77	335.12
384.15	341.9
384.53	332.63
384.91	326.53
385.29	344.84
385.67	365.63
386.049	350.94
386.429	346.87
386.809	334.89
387.189	363.82
387.568	343.71
387.948	359.75
388.328	356.13
388.707	357.26
389.087	366.3
389.466	352.07
389.846	363.82
390.225	347.55
390.605	355.46
390.984	365.85
391.363	360.88
391.743	355.23
392.122	364.95
392.501	374.67
392.881	383.7
393.26	365.4
393.639	369.24
394.018	375.8
394.397	378.06
394.776	354.78
395.155	384.83
395.534	390.03
395.913	391.61
396.292	400.2
396.671	408.34
397.05	411.5
397.429	392.29
397.808	404.72
398.186	407.66
398.565	397.72
398.944	379.64
399.323	404.04
399.701	414.89
400.08	405.4
400.458	406.53
400.837	425.29
401.215	409.69
401.594	430.93
401.972	403.82
402.351	427.55
402.729	421.44
403.107	430.93
403.486	451.73
403.864	435.68
404.242	424.38
404.62	416.92
404.999	440.65
405.377	431.84
405.755	433.87
406.133	464.38
406.511	460.99
406.889	482.46
407.267	471.84
407.645	466.19
408.023	455.34
408.401	481.56
408.779	485.85
409.156	513.64
409.534	509.35
409.912	528.56
410.29	523.81
410.667	503.02
411.045	519.07
411.422	537.6
411.8	532.4
412.178	555
412.555	564.04
412.933	549.8
413.31	554.77
413.687	564.94
414.065	569.46
414.442	571.27
414.819	587.99
415.197	592.06
415.574	612.85
415.951	606.52
416.328	633.87
416.705	591.61
417.082	618.73
417.46	642.91
417.837	663.92
418.214	652.62
418.591	643.58
418.967	657.82
419.344	677.71
419.721	674.32
420.098	667.31
420.475	684.26
420.852	693.75
421.228	697.37
421.605	713.64
421.982	734.66
422.358	728.55
422.735	729.46
423.111	732.4
423.488	760.87
423.864	749.57
424.241	764.03
424.617	769.68
424.994	792.06
425.37	795.67
425.746	799.74
426.123	840.87
426.499	829.57
426.875	857.82
427.251	862.79
427.627	896.23
428.003	874.77
428.379	891.04
428.756	902.56
429.132	929.45
429.507	893.52
429.883	942.11
430.259	959.06
430.635	952.5
431.011	960.19
431.387	994.99
431.763	986.63
432.138	1020.98
432.514	1007.19
432.89	1033.18
433.265	1052.39
433.641	1071.82
434.016	1082.9
434.392	1092.61
434.767	1127.87
435.143	1129
435.518	1146.62
435.894	1161.09
436.269	1154.31
436.644	1187.75
437.02	1186.62
437.395	1199.73
437.77	1233.85
438.145	1284.92
438.52	1260.97
438.895	1301.19
439.271	1293.29
439.646	1311.59
440.021	1350.01
440.395	1353.62
440.77	1340.29
441.145	1370.57
441.52	1417.35
441.895	1392.72
442.27	1404.02
442.645	1405.82
443.019	1413.51
443.394	1451.93
443.769	1452.6
444.143	1430
444.518	1480.85
444.892	1473.17
445.267	1502.77
445.641	1511.81
446.016	1507.97
446.39	1521.75
446.764	1536.22
447.139	1524.69
447.513	1534.86
447.887	1554.07
448.262	1549.55
448.636	1575.09
449.01	1577.8
449.384	1602.2
449.758	1599.72
450.132	1645.82
450.506	1624.58
450.88	1650.11
451.254	1645.37
451.628	1673.84
452.002	1677.23
452.376	1694.4
452.75	1693.27
453.123	1702.09
453.497	1757.91
453.871	1750
454.244	1780.05
454.618	1782.76
454.992	1825.25
455.365	1839.71
455.739	1879.94
456.112	1862.54
456.486	1860.5
456.859	1880.39
457.232	1942.08
457.606	1908.64
457.979	1915.42
458.352	1970.56
458.725	1975.53
459.099	2025.24
459.472	2051.23
459.845	2037.67
460.218	2062.08
460.591	2080.38
460.964	2114.05
461.337	2139.82
461.71	2150.44
462.083	2185.69
462.456	2163.09
462.829	2187.72
463.201	2209.65
463.574	2199.93
463.947	2261.85
464.32	2281.06
464.692	2300.26
465.065	2322.41
465.438	2342.75
465.81	2386.36
466.183	2398.11
466.555	2453.48
466.928	2446.25
467.3	2435.85
467.672	2500.71
468.045	2526.93
468.417	2554.95
468.789	2561.73
469.161	2585
469.534	2638.79
469.906	2681.72
470.278	2665.68
470.65	2699.58
471.022	2737.54
471.394	2778.44
471.766	2807.14
472.138	2790.19
472.51	2863.87
472.882	2916.29
473.253	2939.34
473.625	2940.47
473.997	3021.83
474.369	3055.72
474.74	3042.39
475.112	3101.83
475.484	3157.87
475.855	3178.21
476.227	3229.28
476.598	3224.31
476.97	3299.56
477.341	3350.86
477.713	3426.79
478.084	3412.78
478.455	3479.67
478.827	3467.47
479.198	3603.51
479.569	3535.71
479.94	3689.15
480.311	3678.08
480.682	3738.87
481.053	3848.47
481.424	3869.04
481.795	3860.22
482.166	3942.93
482.537	4003.04
482.908	4066.32
483.279	4081.91
483.65	4128.92
484.021	4225.86
484.391	4222.02
484.762	4287.56
485.133	4281.91
485.503	4328.23
485.874	4421.79
486.244	4483.03
486.615	4550.15
486.985	4577.72
487.356	4655.46
487.726	4679.86
488.097	4760.99
488.467	4732.74
488.837	4817.49
489.207	4920.99
489.578	4939.52
489.948	4996.46
490.318	4989.46
490.688	5021.77
491.058	5124.14
491.428	5166.4
491.798	5236.01
492.168	5309.45
492.538	5312.16
492.908	5308.09
493.278	5342.9
493.648	5377.7
494.017	5473.51
494.387	5487.98
494.757	5482.55
495.126	5597.8
495.496	5518.94
495.866	5618.6
496.235	5658.14
496.605	5679.16
496.974	5716.9
497.344	5732.94
497.713	5819.95
498.082	5800.74
498.452	5834.86
498.821	5861.75
499.19	5831.7
499.559	5940.17
499.928	5953.05
500.298	5980.17
500.667	6035.53
501.036	6007.96
501.405	6078.24
501.774	6030.79
502.143	6086.38
502.512	6099.03
502.88	6160.05
503.249	6165.47
503.618	6148.98
503.987	6197.11
504.356	6170.22
504.724	6220.84
505.093	6261.97
505.462	6257.9
505.83	6341.97
506.199	6304.45
506.567	6398.46
506.936	6379.48
507.304	6409.31
507.672	6424.9
508.041	6441.62
508.409	6473.04
508.777	6532.02
509.145	6557.55
509.514	6504.9
509.882	6597.78
510.25	6592.81
510.618	6614.73
510.986	6615.63
511.354	6610.66
511.722	6683.65
512.09	6742.18
512.458	6666.48
512.826	6728.17
513.193	6709.41
513.561	6756.19
513.929	6880.93
514.297	6804.55
514.664	6862.86
515.032	6841.61
515.4	6942.85
515.767	6880.26
516.135	6945.34
516.502	6827.15
516.869	6941.5
517.237	6985.11
517.604	6934.94
517.972	6998.67
518.339	7011.55
518.706	6984.43
519.073	7037.09
519.44	7079.12
519.808	7069.18
520.175	7085.68
520.542	7108.5
520.909	7080.03
521.276	7125.67
521.643	7194.37
522.009	7209.51
522.376	7257.65
522.743	7197.31
523.11	7254.26
523.477	7315.73
523.843	7332.67
524.21	7406.34
524.577	7428.72
524.943	7370.64
525.31	7435.5
525.676	7520.24
526.043	7568.6
526.409	7456.51
526.776	7567.24
527.142	7602.72
527.508	7555.95
527.874	7639.11
528.241	7652.21
528.607	7646.56
528.973	7659.22
529.339	7690.63
529.705	7786.67
530.071	7748.03
530.437	7796.62
530.803	7799.55
531.169	7815.15
531.535	7816.28
531.901	7780.57
532.267	7915.26
532.632	7883.39
532.998	7841.81
533.364	7930.17
533.73	7932.43
534.095	7985.09
534.461	7941.02
534.826	7998.65
535.192	7990.28
535.557	8073.22
535.923	8052.88
536.288	8089.72
536.653	8058.53
537.019	8055.82
537.384	8067.34
537.749	8103.95
538.114	8134.91
538.479	8084.75
538.845	8175.59
539.21	8036.84
539.575	8148.92
539.94	8087.68
540.305	8138.08
540.67	8171.07
541.034	8162.03
541.399	8171.3
541.764	8181.47
542.129	8166.32
542.494	8240.45
542.858	8216.27
543.223	8228.47
543.587	8265.08
543.952	8198.41
544.316	8271.63
544.681	8249.26
545.045	8290.39
545.41	8323.38
545.774	8267.34
546.138	8287
546.503	8308.47
546.867	8324.29
547.231	8347.11
547.595	8329.03
547.959	8341.46
548.324	8355.25
548.688	8301.91
549.052	8315.7
549.416	8359.09
549.779	8345.3
550.143	8392.53
550.507	8445.19
550.871	8406.77
551.235	8378.97
551.599	8487.45
551.962	8493.32
552.326	8463.94
552.689	8555.02
553.053	8411.97
553.417	8477.96
553.78	8545.98
554.143	8582.36
554.507	8590.27
554.87	8609.7
555.234	8615.13
555.597	8611.74
555.96	8588.01
556.323	8632.3
556.686	8589.82
557.05	8654
557.413	8660.55
557.776	8687.44
558.139	8727.67
558.502	8743.71
558.865	8775.12
559.228	8828.45
559.59	8788
559.953	8807.44
560.316	8852.86
560.679	8943.48
561.041	8959.07
561.404	8919.3
561.767	9057.6
562.129	8973.08
562.492	9104.38
562.854	9101.44
563.217	9050.6
563.579	9153.19
563.941	9119.97
564.304	9159.75
564.666	9163.59
565.028	9208.56
565.39	9213.75
565.753	9341.89
566.115	9323.81
566.477	9314.32
566.839	9345.05
567.201	9466.18
567.563	9453.97
567.925	9432.05
568.287	9480.19
568.648	9463.01
569.01	9542.79
569.372	9689.45
569.734	9553.63
570.095	9652.39
570.457	9729.45
570.819	9659.62
571.18	9660.75
571.542	9808.32
571.903	9745.94
572.265	9827.07
572.626	9857.58
572.987	9863.46
573.349	9922.89
573.71	9905.26
574.071	9954.75
574.432	10025.94
574.794	10136.89
575.155	10046.5
575.516	10072.72
575.877	10128.99
576.238	10167.63
576.599	10176.67
576.96	10197.01
577.32	10259.38
577.681	10301.64
578.042	10268.19
578.403	10322.43
578.763	10317.91
579.124	10380.28
579.485	10360.39
579.845	10452.37
580.206	10470.45
580.566	10437
580.927	10517.9
581.287	10540.05
581.648	10514.51
582.008	10692.81
582.368	10659.82
582.728	10685.81
583.089	10633.15
583.449	10748.63
583.809	10719.7
584.169	10750.21
584.529	10787.27
584.889	10914.05
585.249	10839.25
585.609	10745.92
585.969	10976.42
586.329	10885.12
586.688	10920.15
587.048	10945.91
587.408	10971.67
587.768	11002.63
588.127	10986.82
588.487	10949.75
588.846	11122.63
589.206	11087.38
589.565	11077.21
589.925	11141.16
590.284	11146.59
590.643	11156.08
591.003	11214.38
591.362	11281.5
591.721	11282.63
592.08	11246.92
592.44	11345.68
592.799	11361.27
593.158	11290.76
593.517	11380.93
593.876	11425
594.235	11419.8
594.593	11428.39
594.952	11485.33
595.311	11439.23
595.67	11488.95
596.029	11524.65
596.387	11527.82
596.746	11585.22
597.104	11574.37
597.463	11577.31
597.822	11619.79
598.18	11579.57
598.538	11599.68
598.897	11699.79
599.255	11648.49
599.613	11711.54
599.972	11731.88
600.33	11740.47
600.688	11750.86
601.046	11746.34
601.404	11829.05
601.762	11787.47
602.12	11846.45
602.478	11813.69
602.836	11876.74
603.194	11825.89
603.552	11853.01
603.91	11774.37
604.268	11863.85
604.625	11820.92
604.983	11888.71
605.341	11840.13
605.698	11919.22
606.056	11895.27
606.413	11879
606.771	11977.75
607.128	12014.13
607.485	11935.49
607.843	11898.2
608.2	12045.77
608.557	12075.83
608.914	11947.02
609.272	12033.34
609.629	12039.67
609.986	12104.53
610.343	12024.3
610.7	12161.47
611.057	12124.86
611.414	12136.84
611.771	12150.63
612.127	12178.87
612.484	12232.66
612.841	12220.46
613.198	12219.33
613.554	12192.66
613.911	12227.46
614.267	12271.08
614.624	12221.13
614.98	12271.08
615.337	12351.53
615.693	12324.41
616.05	12253.9
616.406	12298.87
616.762	12309.49
617.118	12344.52
617.475	12354.24
617.831	12358.98
618.187	12422.48
618.543	12451.18
618.899	12445.53
619.255	12481.69
619.611	12488.92
619.967	12485.08
620.323	12484.4
620.678	12409.15
621.034	12436.72
621.39	12353.11
621.746	12434.01
622.101	12514.91
622.457	12397.63
622.812	12517.17
623.168	12433.78
623.523	12412.77
623.879	12534.12
624.234	12411.86
624.589	12431.07
624.945	12435.82
625.3	12511.75
625.655	12471.52
626.01	12478.3
626.365	12465.65
626.72	12487.34
627.075	12422.48
627.43	12438.98
627.785	12359.89
628.14	12504.29
628.495	12421.35
628.85	12444.63
629.205	12374.35
629.559	12463.16
629.914	12314.92
630.269	12509.94
630.623	12367.34
630.978	12375.25
631.332	12456.61
631.687	12414.12
632.041	12386.55
632.396	12420
632.75	12294.8
633.104	12370.96
633.459	12253.22
633.813	12254.8
634.167	12252.55
634.521	12249.38
634.875	12294.35
635.229	12221.81
635.583	12166.67
635.937	12177.07
636.291	12186.56
636.645	12234.24
636.999	12202.6
637.352	12171.87
637.706	12119.22
638.06	12121.02
638.413	12121.48
638.767	12059.33
639.121	12058.65
639.474	12006.45
639.828	12027.47
640.181	12071.31
640.534	11992.21
640.888	11951.76
641.241	11954.7
641.594	11990.18
641.947	12058.65
642.301	12045.32
642.654	11955.83
643.007	11923.97
643.36	11967.35
643.713	11955.83
644.066	11983.63
644.419	11853.23
644.771	11869.05
645.124	11768.26
645.477	11746.12
645.83	11632.67
646.182	11587.03
646.535	11524.2
646.888	11620.25
647.24	11542.28
647.593	11535.95
647.945	11580.02
648.298	11483.07
648.65	11442.4
649.002	11429.06
649.355	11503.41
649.707	11502.96
650.059	11592
650.411	11694.82
650.763	11695.27
651.115	11746.12
651.467	11773.91
651.819	11784.31
652.171	11751.99
652.523	11721.94
652.875	11757.42
653.227	11724.2
653.578	11760.35
653.93	11694.37
654.282	11695.72
654.633	11639.91
654.985	11716.97
655.337	11687.14
655.688	11671.32
656.039	11757.64
656.391	11636.52
656.742	11627.48
657.094	11703.86
657.445	11753.58
657.796	11692.79
658.147	11745.67
658.498	11707.25
658.849	11787.92
659.2	11710.64
659.551	11715.16
659.902	11740.02
660.253	11746.34
660.604	11780.02
660.955	11684.2
661.306	11700.7
661.656	11726.68
662.007	11721.49
662.358	11747.93
662.708	11718.32
663.059	11799.68
663.409	11672
663.76	11758.55
664.11	11796.96
664.461	11689.85
664.811	11743.18
665.161	11702.05
665.511	11720.36
665.862	11715.38
666.212	11687.81
666.562	11752.45
666.912	11705.44
667.262	11698.21
667.612	11743.18
667.962	11777.53
668.312	11717.19
668.662	11772.78
669.011	11730.07
669.361	11797.42
669.711	11695.5
670.06	11674.71
670.41	11633.13
670.76	11680.36
671.109	11680.81
671.459	11693.92
671.808	11704.76
672.157	11639.45
672.507	11604.43
672.856	11609.4
673.205	11616.86
673.554	11692.79
673.904	11647.59
674.253	11680.36
674.602	11609.85
674.951	11410.99
675.3	11394.04
675.649	11621.38
675.998	11522.62
676.346	11511.1
676.695	11580.47
677.044	11511.1
677.393	11468.38
677.741	11454.15
678.09	11496.63
678.438	11454.15
678.787	11548.61
679.135	11435.17
679.484	11383.42
679.832	11353.81
680.181	11402.4
680.529	11452.11
680.877	11374.38
681.225	11361.95
681.573	11428.84
681.922	11336.64
682.27	11269.75
682.618	11327.6
682.966	11293.25
683.314	11331.21
683.661	11229.75
684.009	11202.18
684.357	11172.57
684.705	11150.43
685.053	11126.47
685.4	11135.51
685.748	11092.8
686.095	11040.15
686.443	10990.21
686.79	10970.32
687.138	10991.79
687.485	10940.04
687.832	10915.41
688.18	10989.75
688.527	10874.28
688.874	10904.11
689.221	10811.45
689.568	10824.11
689.915	10840.15
690.262	10737.1
690.609	10737.56
690.956	10687.84
691.303	10633.38
691.65	10664.11
691.997	10590.22
692.344	10502.31
692.69	10528.07
693.037	10499.37
693.383	10448.98
693.73	10538.24
694.077	10373.05
694.423	10416.21
694.769	10399.49
695.116	10349.32
695.462	10322.43
695.808	10209.43
696.155	10244.24
696.501	10167.63
696.847	10174.63
697.193	10165.82
697.539	10175.99
697.885	10016.9
698.231	10001.08
698.577	10006.28
698.923	10006.05
699.269	9922.44
699.614	9886.51
699.96	9831.37
700.306	9881.99
700.651	9772.61
700.997	9729.22
701.342	9758.37
701.688	9679.73
702.033	9611.94
702.379	9707.98
702.724	9580.75
703.069	9657.13
703.415	9580.75
703.76	9515.22
704.105	9545.5
704.45	9515.44
704.795	9424.37
705.14	9418.95
705.485	9375.78
705.83	9333.53
706.175	9355.22
706.52	9316.13
706.865	9269.12
707.209	9276.8
707.554	9165.39
707.899	9203.81
708.243	9191.83
708.588	9129.92
708.932	9118.39
709.277	9099.41
709.621	9130.14
709.966	9032.97
710.31	9054.89
710.654	8987.09
710.998	9018.05
711.342	8976.7
711.687	8945.51
712.031	8864.84
712.375	8885.4
712.719	8922.92
713.063	8816.25
713.407	8862.35
713.75	8804.95
714.094	8809.02
714.438	8738.74
714.782	8806.99
715.125	8722.92
715.469	8750.94
715.812	8737.16
716.156	8705.29
716.499	8744.84
716.843	8758.17
717.186	8659.65
717.53	8754.78
717.873	8724.28
718.216	8667.33
718.559	8612.41
718.902	8573.55
719.246	8611.96
719.589	8535.58
719.932	8527.9
720.275	8474.57
720.617	8561.12
720.96	8510.27
721.303	8563.15
721.646	8525.19
721.989	8496.94
722.331	8544.85
722.674	8480.67
723.016	8522.02
723.359	8475.24
723.701	8461.46
724.044	8370.84
724.386	8377.62
724.729	8430.72
725.071	8383.27
725.413	8386.43
725.755	8422.59
726.097	8352.99
726.439	8295.36
726.782	8304.4
727.124	8376.94
727.465	8319.54
727.807	8343.95
728.149	8331.07
728.491	8275.25
728.833	8348.47
729.175	8316.6
729.516	8243.84
729.858	8254.23
730.199	8266.89
730.541	8318.41
730.882	8246.32
731.224	8280.9
731.565	8214.46
731.906	8277.96
732.248	8283.38
732.589	8239.32
732.93	8207.23
733.271	8265.76
733.612	8178.08
733.953	8230.28
734.294	8162.48
734.635	8211.07
734.976	8179.21
735.317	8156.16
735.658	8192.76
735.999	8242.26
736.339	8155.48
736.68	8226.89
737.021	8228.02
737.361	8164.74
737.702	8235.48
738.042	8230.05
738.383	8197.28
738.723	8282.03
739.063	8242.71
739.404	8283.84
739.744	8279.54
740.084	8303.27
740.424	8265.08
740.764	8211.52
741.104	8314.8
741.444	8315.47
741.784	8244.29
742.124	8282.93
742.464	8305.08
742.804	8305.53
743.143	8300.33
743.483	8317.51
743.823	8309.82
744.162	8302.14
744.502	8415.58
744.841	8419.2
745.181	8436.15
745.52	8463.49
745.86	8511.17
746.199	8508.01
746.538	8588.91
746.877	8594.56
747.216	8661
747.556	8618.74
747.895	8649.25
748.234	8675.46
748.573	8723.37
748.911	8757.72
749.25	8855.35
749.589	8878.4
749.928	8879.98
750.267	9071.39
750.605	9048.34
750.944	9166.75
751.283	9162.23
751.621	9266.41
751.96	9263.7
752.298	9373.52
752.636	9485.39
752.975	9482
753.313	9566.29
753.651	9684.93
753.989	9773.74
754.327	9836.56
754.666	9973.06
755.004	10086.73
755.342	10235.42
755.679	10276.1
756.017	10296.66
756.355	10485.81
756.693	10629.54
757.031	10725.35
757.368	10868.4
757.706	10927.38
758.044	11074.27
758.381	11239.01
758.719	11340.93
759.056	11523.3
759.394	11623.18
759.731	11710.86
760.068	11876.28
760.405	12020.69
760.743	12132.55
761.08	12391.98
761.417	12528.47
761.754	12560.79
762.091	12820.89
762.428	12887.33
762.765	12983.15
763.102	13278.73
763.438	13349.24
763.775	13461.55
764.112	13687.54
764.449	13824.71
764.785	13936.34
765.122	14064.93
765.458	14182.44
765.795	14297.69
766.131	14523.22
766.467	14670.33
766.804	14695.42
767.14	14853.83
767.476	15005.02
767.812	15161.17
768.148	15258.12
768.485	15339.02
768.821	15407.94
769.157	15521.39
769.492	15760.7
769.828	15789.18
770.164	15937.65
770.5	15995.27
770.836	16129.96
771.171	16189.84
771.507	16268.94
771.842	16309.84
772.178	16420.35
772.513	16576.95
772.849	16641.36
773.184	16689.72
773.519	16697.63
773.855	16823.05
774.19	16893.78
774.525	16998.86
774.86	17082.93
775.195	17096.49
775.53	17057.62
775.865	17234.11
776.2	17143.72
776.535	17219.42
776.87	17331.28
777.205	17390.72
777.539	17398.17
777.874	17438.4
778.209	17338.06
778.543	17405.86
778.878	17439.98
779.212	17444.72
779.547	17480.88
779.881	17717.49
780.215	17527.66
780.55	17789.12
780.884	17612.86
781.218	17659.86
781.552	17751.38
781.886	17597.72
782.22	17620.54
782.554	17604.49
782.888	17596.59
783.222	17477.04
783.556	17566.08
783.889	17538.28
784.223	17494.89
784.557	17515.01
784.89	17566.53
785.224	17544.61
785.557	17466.65
785.891	17507.1
786.224	17443.14
786.558	17448.34
786.891	17424.39
787.224	17266.65
787.557	17382.58
787.891	17385.97
788.224	17455.35
788.557	17407.89
788.89	17316.14
789.223	17408.34
789.556	17294.22
789.888	17326.76
790.221	17337.84
790.554	17181.46
790.887	17237.72
791.219	17184.84
791.552	17178.74
791.884	17108.01
792.217	17146.65
792.549	17023.49
792.882	16994.57
793.214	16959.99
793.546	16911.18
793.879	16837.51
794.211	16794.8
794.543	16868.69
794.875	16889.94
795.207	16903.27
795.539	16906.66
795.871	16880.22
796.203	16663.5
796.535	16685.87
796.867	16621.02
797.198	16622.83
797.53	16571.53
797.862	16507.57
798.193	16539.89
798.525	16355.71
798.856	16435.49
799.188	16344.64
799.519	16307.35
799.85	16220.12
800.182	16384.41
800.513	16310.29
800.844	16077.76
801.175	16261.25
801.506	16203.85
801.837	16097.42
802.168	16031.88
802.499	16051.77
802.83	15963.18
803.161	15942.62
803.491	15920.02
803.822	15940.81
804.153	15814.71
804.483	15675.28
804.814	15782.4
805.145	15730.87
805.475	15690.42
805.805	15674.6
806.136	15687.26
806.466	15573.14
806.796	15553.7
807.126	15503.76
807.457	15452.91
807.787	15428.28
808.117	15362.52
808.447	15294.95
808.777	15463.53
809.107	15313.48
809.436	15274.61
809.766	15219.02
810.096	15278.45
810.426	15175.18
810.755	15254.73
811.085	15195.52
811.414	15074.62
811.744	15020.16
812.073	14987.16
812.403	15073.49
812.732	14921.63
813.061	14994.85
813.39	14907.16
813.719	14904.45
814.049	14945.13
814.378	14886.6
814.707	14771.8
815.036	14804.57
815.365	14801.86
815.693	14622.88
816.022	14594.18
816.351	14685.7
816.68	14565.25
817.008	14632.6
817.337	14473.28
817.665	14350.12
817.994	14556.67
818.322	14460.62
818.651	14397.35
818.979	14364.13
819.307	14460.4
819.636	14386.95
819.964	14253.4
820.292	14367.29
820.62	14304.02
820.948	14305.37
821.276	14308.08
821.604	14341.76
821.932	14349.89
822.259	14306.28
822.587	14234.64
822.915	14208.43
823.243	14324.58
823.57	14266.96
823.898	14250.91
824.225	14238.93
824.553	14228.54
824.88	14312.6
825.207	14352.38
825.535	14247.07
825.862	14363
826.189	14186.96
826.516	14374.75
826.843	14364.58
827.17	14328.42
827.497	14389.44
827.824	14322.77
828.151	14397.57
828.478	14339.27
828.805	14358.48
829.131	14369.78
829.458	14356.44
829.785	14325.71
830.111	14353.73
830.438	14382.43
830.764	14281.19
831.09	14351.47
831.417	14309.67
831.743	14365.03
832.069	14375.2
832.395	14300.4
832.722	14318.93
833.048	14283.9
833.374	14240.74
833.7	14174.53
834.026	14250.01
834.351	14285.49
834.677	14189.9
835.003	14286.16
835.329	14249.78
835.654	14135.89
835.98	14167.07
836.306	14221.98
836.631	14112.84
836.956	14076.45
837.282	14166.85
837.607	14104.02
837.932	14066.06
838.258	14110.58
838.583	14078.94
838.908	13944.48
839.233	13994.65
839.558	13855.89
839.883	13853.41
840.208	13798.72
840.533	13799.17
840.858	13838.72
841.182	13835.78
841.507	13860.64
841.832	13756.23
842.156	13721.88
842.481	13743.13
842.805	13636.24
843.13	13672.85
843.454	13656.12
843.778	13512.17
844.103	13567.09
844.427	13593.53
844.751	13548.1
845.075	13499.07
845.399	13487.99
845.723	13379.07
846.047	13316.02
846.371	13279.64
846.695	13284.16
847.019	13154.89
847.343	13102.01
847.666	12992.19
847.99	13032.86
848.313	12987.44
848.637	12882.58
848.96	12864.28
849.284	12826.54
849.607	12645.76
849.931	12742.25
850.254	12664.06
850.577	12602.14
850.9	12487.79
851.223	12506.1
851.546	12391.52
851.869	12354.46
852.192	12437.62
852.515	12417.74
852.838	12277.86
853.161	12257.06
853.483	12189.27
853.806	12229.49
854.129	12148.82
854.451	12103.4
854.774	12060.01
855.096	11989.5
855.419	11907.92
855.741	11937.3
856.063	11961.93
856.385	11883.74
856.708	11803.29
857.03	11796.06
857.352	11749.28
857.674	11738.89
857.996	11643.75
858.318	11563.07
858.64	11588.61
858.961	11560.13
859.283	11502.06
859.605	11459.8
859.926	11572.11
860.248	11522.39
860.57	11444.66
860.891	11381.61
861.212	11378.67
861.534	11337.77
861.855	11267.71
862.176	11348.84
862.498	11291.44
862.819	11234.04
863.14	11236.07
863.461	11251.67
863.782	11146.36
864.103	11212.12
864.424	11148.62
864.745	11165.34
865.065	11029.07
865.386	11023.65
865.707	11065.01
866.027	11034.5
866.348	10980.26
866.668	11026.36
866.989	10975.52
867.309	10918.34
867.63	10966.93
867.95	10915.86
868.27	10780.04
868.59	10899.13
868.91	10882.64
869.23	10857.33
869.55	10826.37
869.87	10891.45
870.19	10812.36
870.51	10836.99
870.83	10797.67
871.15	10732.13
871.469	10725.81
871.789	10719.03
872.109	10709.08
872.428	10639.71
872.748	10682.42
873.067	10691.91
873.386	10594.74
873.706	10578.69
874.025	10564.23
874.344	10563.55
874.663	10566.49
874.982	10510.67
875.301	10493.5
875.62	10458.24
875.939	10443.55
876.258	10426.15
876.577	10445.13
876.896	10368.53
877.214	10411.01
877.533	10385.25
877.852	10458.47
878.17	10378.47
878.489	10339.38
878.807	10367.85
879.125	10327.62
879.444	10338.7
879.762	10275.65
880.08	10269.32
880.398	10205.37
880.716	10273.16
881.034	10251.47
881.352	10227.29
881.67	10230.45
881.988	10185.93
882.306	10117.91
882.624	10153.39
882.941	10082.88
883.259	10018.03
883.577	10036.56
883.894	9960.63
884.212	9943.68
884.529	10006.05
884.846	9876.56
885.164	9935.32
885.481	9823.46
885.798	9906.62
886.115	9842.44
886.432	9862.78
886.75	9794.3
887.067	9851.7
887.383	9707.53
887.7	9771.03
888.017	9703.69
888.334	9666.62
888.651	9724.02
888.967	9660.52
889.284	9608.55
889.6	9563.12
889.917	9480.19
890.233	9574.2
890.55	9503.92
890.866	9493.97
891.182	9427.53
891.498	9393.64
891.815	9331.04
892.131	9352.06
892.447	9340.08
892.763	9264.83
893.079	9356.12
893.395	9197.26
893.71	9166.3
894.026	9241.32
894.342	9144.15
894.657	9134.21
894.973	9076.81
895.289	9092.18
895.604	9066.19
895.92	8971.5
896.235	8984.16
896.55	8908
896.865	8877.72
897.181	8841.56
897.496	8836.14
897.811	8830.49
898.126	8810.6
898.441	8734.9
898.756	8696.25
899.071	8636.37
899.386	8709.36
899.7	8609.48
900.015	8564.51
900.33	8495.36
900.644	8571.29
900.959	8505.75
901.273	8463.49
901.588	8430.72
901.902	8400.44
902.216	8336.72
902.531	8362.25
902.845	8271.63
903.159	8285.64
903.473	8249.49
903.787	8188.25
904.101	8187.79
904.415	8080.45
904.729	8127.68
905.042	8095.14
905.356	8081.81
905.67	8012.66
905.984	8045.88
906.297	8012.88
906.611	7890.17
906.924	7957.06
907.237	7911.19
907.551	7887.69
907.864	7819.67
908.177	7799.1
908.491	7778.09
908.804	7722.95
909.117	7681.14
909.43	7607.92
909.743	7629.39
910.056	7690.41
910.368	7531.09
910.681	7546
910.994	7477.76
911.307	7518.66
911.619	7416.97
911.932	7477.98
912.244	7346.01
912.557	7310.53
912.869	7323.86
913.181	7327.7
913.494	7286.35
913.806	7231.43
914.118	7184.66
914.43	7194.82
914.742	7157.99
915.054	7106.47
915.366	7082.74
915.678	7081.16
915.99	7043.19
916.302	6993.25
916.613	6942.4
916.925	6968.39
917.236	6923.42
917.548	6847.26
917.859	6869.41
918.171	6840.48
918.482	6745.57
918.794	6758.23
919.105	6723.65
919.416	6658.79
919.727	6694.73
920.038	6671.45
920.349	6585.58
920.66	6609.08
920.971	6597.78
921.282	6549.87
921.593	6538.57
921.903	6465.13
922.214	6466.93
922.525	6497.67
922.835	6380.16
923.146	6369.31
923.456	6379.25
923.767	6321.63
924.077	6317.11
924.387	6246.15
924.697	6266.71
925.008	6229.43
925.318	6238.69
925.628	6195.3
925.938	6209.09
926.248	6098.13
926.558	6092.93
926.867	6048.64
927.177	6061.07
927.487	6080.73
927.796	6013.61
928.106	5982.43
928.416	5973.84
928.725	5937.46
929.034	5939.26
929.344	5879.61
929.653	5848.19
929.962	5828.31
930.271	5804.8
930.581	5816.78
930.89	5720.97
931.199	5766.16
931.508	5739.5
931.817	5716.67
932.125	5724.58
932.434	5647.07
932.743	5589.22
933.051	5599.16
933.36	5565.49
933.669	5536.79
933.977	5596.45
934.286	5517.35
934.594	5511.25
934.902	5480.75
935.21	5452.5
935.519	5397.36
935.827	5369.34
936.135	5396.45
936.443	5346.29
936.751	5322.33
937.059	5332.73
937.367	5289.34
937.674	5249.57
937.982	5214.31
938.29	5197.82
938.597	5231.49
938.905	5120.98
939.213	5153.75
939.52	5126.4
939.827	5152.39
940.135	5071.04
940.442	5054.99
940.749	5095.22
941.056	5053.41
941.363	5030.81
941.67	4957.37
941.977	4913.3
942.284	4951.04
942.591	4915.56
942.898	4889.57
943.205	4890.03
943.511	4845.73
943.818	4862.91
944.125	4778.84
944.431	4834.44
944.738	4792.85
945.044	4745.62
945.35	4723.25
945.657	4697.72
945.963	4672.86
946.269	4670.6
946.575	4627.21
946.881	4620.66
947.187	4594.44
947.493	4580.2
947.799	4564.61
948.105	4558.06
948.41	4516.25
948.716	4526.65
949.022	4463.15
949.327	4455.91
949.633	4431.96
949.938	4450.26
950.244	4447.78
950.549	4407.33
950.854	4378.4
951.16	4391.06
951.465	4376.59
951.77	4328.91
952.075	4293.43
952.38	4267.9
952.685	4265.41
952.99	4236.26
953.294	4226.99
953.599	4187.45
953.904	4186.54
954.209	4192.19
954.513	4166.43
954.818	4147.67
955.122	4140.89
955.426	4124.4
955.731	4062.48
956.035	4046.89
956.339	4023.38
956.643	4050.95
956.948	4028.58
957.252	4017.96
957.556	4015.93
957.86	4008.92
958.163	3959.88
958.467	3938.41
958.771	3930.96
959.075	3891.41
959.378	3887.34
959.682	3881.92
959.985	3882.82
960.289	3841.69
960.592	3818.42
960.896	3762.37
961.199	3772.09
961.502	3759.21
961.805	3730.96
962.108	3736.16
962.411	3730.06
962.714	3688.7
963.017	3692.54
963.32	3677.18
963.623	3649.61
963.926	3649.38
964.228	3631.98
964.531	3637.86
964.833	3592.21
965.136	3564.64
965.438	3533
965.741	3568.25
966.043	3524.19
966.345	3505.88
966.648	3501.14
966.95	3478.99
967.252	3421.82
967.554	3468.82
967.856	3453.23
968.158	3430.18
968.46	3427.69
968.761	3377.07
969.063	3388.37
969.365	3363.06
969.666	3351.76
969.968	3340.24
970.269	3293.46
970.571	3282.16
970.872	3274.7
971.174	3252.56
971.475	3301.59
971.776	3259.79
972.077	3229.51
972.378	3213.23
972.679	3250.07
972.98	3163.07
973.281	3152.45
973.582	3148.15
973.883	3154.48
974.183	3133.01
974.484	3116.97
974.785	3110.41
975.085	3088.49
975.386	3069.28
975.686	3076.52
975.986	3060.47
976.287	3055.5
976.587	3042.62
976.887	3063.63
977.187	2996.74
977.487	3016.63
977.787	2988.83
978.087	2961.49
978.387	2928.04
978.687	2940.7
978.987	2916.52
979.286	2922.85
979.586	2914.03
979.885	2890.76
980.185	2882.62
980.484	2850.31
980.784	2817.31
981.083	2845.33
981.382	2847.37
981.682	2815.73
981.981	2778.22
982.28	2806.01
982.579	2772.12
982.878	2771.89
983.177	2739.12
983.475	2718.78
983.774	2728.28
984.073	2732.57
984.372	2680.14
984.67	2699.35
984.969	2697.99
985.267	2680.14
985.566	2645.79
985.864	2646.24
986.162	2638.33
986.461	2592.23
986.759	2597.21
987.057	2589.52
987.355	2554.04
987.653	2585.23
987.951	2552.24
988.249	2536.87
988.547	2538.22
988.844	2507.94
989.142	2492.58
989.44	2491.45
989.737	2467.94
990.035	2454.84
990.332	2491.67
990.63	2400.37
990.927	2429.75
991.224	2437.21
991.521	2422.52
991.819	2417.32
992.116	2403.99
992.413	2399.92
992.71	2338.91
993.006	2396.31
993.303	2368.74
993.6	2375.29
993.897	2349.75
994.193	2308.63
994.49	2296.42
994.787	2301.17
995.083	2277.21
995.379	2269.98
995.676	2302.52
995.972	2236.76
996.268	2239.02
996.565	2192.47
996.861	2182.98
997.157	2178.46
997.453	2202.41
997.749	2177.56
998.044	2168.29
998.34	2170.32
998.636	2141.85
998.932	2115.41
999.227	2135.52
999.523	2139.82
999.818	2072.47
1000.114	2100.27
1000.409	2072.47
1000.704	2083.32
1001	2060.5
1001.295	2054.62
1001.59	2051.91
1001.885	2017.11
1002.18	2005.13
1002.475	2008.97
1002.77	2001.29
1003.065	1971.46
1003.359	1959.03
1003.654	1964
1003.949	1965.81
1004.243	1948.64
1004.538	1916.77
1004.832	1898.02
1005.127	1899.37
1005.421	1855.53
1005.715	1903.44
1006.009	1873.83
1006.304	1829.32
1006.598	1863.21
1006.892	1846.04
1007.186	1839.71
1007.48	1828.86
1007.773	1816.44
1008.067	1799.26
1008.361	1806.27
1008.655	1784.35
1008.948	1785.93
1009.242	1760.62
1009.535	1750.9
1009.829	1716.55
1010.122	1740.96
1010.415	1739.6
1010.708	1728.98
1011.001	1669.09
1011.295	1713.61
1011.588	1681.52
1011.881	1685.82
1012.173	1673.39
1012.466	1669.55
1012.759	1634.07
1013.052	1620.96
1013.344	1635.2
1013.637	1605.14
1013.93	1602.43
1014.222	1575.54
1014.514	1572.37
1014.807	1584.35
1015.099	1561.3
1015.391	1572.83
1015.683	1527.86
1015.976	1564.01
1016.268	1539.38
1016.56	1499.16
1016.851	1515.65
1017.143	1535.31
1017.435	1470.46
1017.727	1475.65
1018.018	1471.81
1018.31	1469.1
1018.602	1479.04
1018.893	1421.42
1019.185	1442.66
1019.476	1452.83
1019.767	1450.12
1020.058	1397.24
1020.35	1403.11
1020.641	1386.39
1020.932	1395.66
1021.223	1386.39
1021.514	1383.9
1021.804	1349.78
1022.095	1350.23
1022.386	1326.73
1022.677	1344.81
1022.967	1310.69
1023.258	1315.43
1023.548	1278.37
1023.839	1330.57
1024.129	1283.57
1024.419	1274.08
1024.709	1286.51
1025	1254.64
1025.29	1266.39
1025.58	1215.77
1025.87	1249.44
1026.16	1224.81
1026.449	1217.58
1026.739	1222.33
1027.029	1179.39
1027.319	1195.43
1027.608	1199.73
1027.898	1201.31
1028.187	1210.8
1028.477	1165.83
1028.766	1158.37
1029.055	1170.35
1029.344	1166.96
1029.634	1165.83
1029.923	1134.65
1030.212	1120.18
1030.501	1096.45
1030.79	1115.89
1031.078	1100.07
1031.367	1104.36
1031.656	1066.4
1031.945	1066.17
1032.233	1067.98
1032.522	1071.82
1032.81	1038.38
1033.099	1046.06
1033.387	1040.86
1033.675	1051.94
1033.963	1039.73
1034.251	1017.36
1034.54	1021.2
1034.828	1010.81
1035.116	1006.29
1035.403	978.04
1035.691	1010.58
1035.979	990.69
1036.267	990.92
1036.554	983.01
1036.842	985.72
1037.129	978.49
1037.417	964.03
1037.704	957.7
1037.992	946.4
1038.279	949.34
1038.566	919.28
1038.853	919.28
1039.14	919.28
