Data from hue_32_FLMS001491_00054.txt Node
Date: Tue Feb 07 17:23:36 GMT 2017
User: dcchb
Spectrometer: FLMS00149
Trigger mode: 0
Integration Time (sec): 2.000000E-2
Scans to average: 10
Electric dark correction enabled: true
Nonlinearity correction enabled: false
Boxcar width: 0
XAxis mode: Wavelengths
Number of Pixels in Spectrum: 2048
>>>>>Begin Spectral Data<<<<<
341.393	-10.24
341.776	-10.24
342.16	-10.24
342.543	-69.45
342.927	-91.14
343.31	-56.79
343.693	-60.63
344.077	-75.32
344.46	-54.53
344.843	-43.91
345.226	-40.75
345.61	-43.23
345.993	-8.43
346.376	1.96
346.759	18.91
347.142	15.3
347.525	27.73
347.908	53.94
348.291	45.8
348.674	95.52
349.057	124.45
349.44	131.68
349.823	130.55
350.206	159.47
350.588	195.18
350.971	203.54
351.354	242.63
351.737	243.09
352.119	257.1
352.502	261.84
352.884	286.7
353.267	276.76
353.65	276.08
354.032	288.06
354.414	301.84
354.797	311.79
355.179	311.33
355.562	328.06
355.944	324.21
356.326	338.45
356.709	339.36
357.091	347.72
357.473	346.81
357.855	334.16
358.238	357.89
358.62	326.7
359.002	327.15
359.384	347.94
359.766	343.2
360.148	334.61
360.53	331.67
360.912	330.32
361.294	337.1
361.676	323.54
362.057	294.16
362.439	358.11
362.821	326.25
363.203	329.19
363.584	332.12
363.966	340.49
364.348	315.4
364.729	329.64
365.111	337.77
365.493	316.98
365.874	328.51
366.256	318.57
366.637	338.45
367.019	293.26
367.4	302.29
367.781	309.3
368.163	307.72
368.544	319.47
368.925	325.12
369.306	336.19
369.688	324.44
370.069	321.05
370.45	280.37
370.831	309.07
371.212	309.3
371.593	300.94
371.974	327.15
372.355	301.84
372.736	304.1
373.117	356.08
373.498	307.49
373.879	314.95
374.26	336.19
374.641	313.14
375.021	330.77
375.402	339.58
375.783	328.73
376.163	329.41
376.544	305.68
376.925	323.31
377.305	326.47
377.686	329.64
378.066	330.09
378.447	321.5
378.827	337.1
379.208	317.44
379.588	330.54
379.968	331.67
380.349	337.32
380.729	342.52
381.109	298.9
381.489	331.9
381.87	340.71
382.25	361.28
382.63	338.23
383.01	332.58
383.39	327.83
383.77	354.27
384.15	346.13
384.53	353.14
384.91	342.29
385.29	354.5
385.67	363.76
386.049	323.76
386.429	353.14
386.809	358.11
387.189	341.62
387.568	366.7
387.948	331.9
388.328	344.1
388.707	355.85
389.087	356.53
389.466	338.45
389.846	367.6
390.225	346.36
390.605	383.42
390.984	354.04
391.363	359.92
391.743	366.25
392.122	376.87
392.501	387.49
392.881	363.99
393.26	367.83
393.639	362.86
394.018	387.26
394.397	386.13
394.776	364.44
395.155	407.15
395.534	389.07
395.913	393.82
396.292	400.6
396.671	398.56
397.05	411.9
397.429	370.54
397.808	408.96
398.186	378.45
398.565	384.1
398.944	376.87
399.323	401.05
399.701	400.14
400.08	392.91
400.458	390.43
400.837	399.24
401.215	420.03
401.594	390.65
401.972	402.18
402.351	421.16
402.729	408.51
403.107	389.52
403.486	404.66
403.864	433.82
404.242	411.9
404.62	410.77
404.999	408.28
405.377	435.4
405.755	419.81
406.133	414.16
406.511	412.35
406.889	440.37
407.267	431.78
407.645	437.66
408.023	431.1
408.401	444.21
408.779	460.93
409.156	432.69
409.534	440.37
409.912	441.05
410.29	467.26
410.667	453.7
411.045	452.35
411.422	453.93
411.8	453.7
412.178	457.09
412.555	450.54
412.933	477.66
413.31	482.63
413.687	469.75
414.065	481.5
414.442	475.17
414.819	484.66
415.197	481.72
415.574	493.7
415.951	508.16
416.328	492.57
416.705	497.54
417.082	526.47
417.46	516.98
417.837	509.29
418.214	528.05
418.591	508.84
418.967	507.03
419.344	495.51
419.721	503.87
420.098	508.16
420.475	518.79
420.852	534.6
421.228	526.24
421.605	530.99
421.982	524.21
422.358	563.08
422.735	551.78
423.111	570.54
423.488	547.26
423.864	550.2
424.241	552.46
424.617	565.11
424.994	568.5
425.37	557.2
425.746	537.99
426.123	564.21
426.499	567.15
426.875	581.83
427.251	570.99
427.627	574.15
428.003	603.53
428.379	604.21
428.756	588.84
429.132	603.98
429.507	612.12
429.883	615.73
430.259	624.77
430.635	622.29
431.011	625.68
431.387	649.86
431.763	646.01
432.138	648.05
432.514	657.77
432.89	672.91
433.265	653.02
433.641	681.04
434.016	674.49
434.392	685.11
434.767	703.41
435.143	684.88
435.518	693.92
435.894	710.42
436.269	702.96
436.644	717.2
437.02	710.42
437.395	726.92
437.77	725.33
438.145	749.29
438.52	729.63
438.895	737.09
439.271	742.28
439.646	742.51
440.021	773.24
440.395	764.66
440.77	766.01
441.145	754.26
441.52	784.32
441.895	786.8
442.27	780.02
442.645	803.3
443.019	790.87
443.394	802.85
443.769	809.4
444.143	788.16
444.518	798.33
444.892	800.36
445.267	832.22
445.641	802.39
446.016	790.64
446.39	844.43
446.764	822.73
447.139	812.79
447.513	837.42
447.887	827.93
448.262	855.73
448.636	859.12
449.01	866.12
449.384	863.41
449.758	875.39
450.132	863.41
450.506	901.37
450.88	903.63
451.254	885.1
451.628	887.59
452.002	908.38
452.376	923.07
452.75	922.17
453.123	932.11
453.497	940.92
453.871	941.6
454.244	970.3
454.618	980.47
454.992	952.45
455.365	989.96
455.739	993.35
456.112	990.64
456.486	999
456.859	1014.82
457.232	1027.7
457.606	1022.05
457.979	1040.58
458.352	1056.4
458.725	1077.19
459.099	1050.75
459.472	1097.53
459.845	1114.48
460.218	1108.6
460.591	1109.73
460.964	1137.07
461.337	1158.32
461.71	1178.66
462.083	1162.16
462.456	1157.87
462.829	1194.02
463.201	1205.1
463.574	1180.92
463.947	1218.88
464.32	1233.34
464.692	1239.9
465.065	1281.7
465.438	1285.55
465.81	1297.75
466.183	1304.08
466.555	1330.06
466.928	1366.45
467.3	1346.33
467.672	1361.93
468.045	1417.29
468.417	1412.55
468.789	1426.56
469.161	1450.06
469.534	1472.66
469.906	1507.23
470.278	1513.56
470.65	1542.71
471.022	1516.5
471.394	1605.54
471.766	1629.94
472.138	1645.76
472.51	1675.82
472.882	1707.91
473.253	1725.31
473.625	1767.11
473.997	1791.29
474.369	1782.03
474.74	1818.19
475.112	1852.31
475.484	1882.82
475.855	1940.67
476.227	1969.6
476.598	2007.11
476.97	2053.43
477.341	2092.53
477.713	2128.91
478.084	2158.52
478.455	2214.11
478.827	2264.95
479.198	2335.69
479.569	2364.61
479.94	2456.14
480.311	2488.23
480.682	2582.01
481.053	2612.29
481.424	2677.6
481.795	2750.82
482.166	2784.04
482.537	2877.59
482.908	2909.46
483.279	2932.06
483.65	3065.84
484.021	3084.82
484.391	3180.86
484.762	3179.28
485.133	3297.92
485.503	3327.53
485.874	3430.8
486.244	3494.98
486.615	3591.02
486.985	3666.05
487.356	3770.9
487.726	3812.03
488.097	3946.27
488.467	3960.5
488.837	4047.51
489.207	4172.93
489.578	4237.78
489.948	4304
490.318	4416.76
490.688	4472.58
491.058	4513.48
491.428	4647.04
491.798	4651.11
492.168	4830.76
492.538	4885.22
492.908	4974.04
493.278	5028.5
493.648	5103.52
494.017	5190.75
494.387	5256.06
494.757	5349.17
495.126	5412.22
495.496	5443.85
495.866	5535.38
496.235	5635.71
496.605	5731.3
496.974	5757.29
497.344	5837.52
497.713	5906.67
498.082	6004.74
498.452	6076.61
498.821	6070.73
499.19	6149.82
499.559	6171.52
499.928	6282.48
500.298	6337.62
500.667	6462.81
501.036	6462.13
501.405	6542.58
501.774	6592.98
502.143	6711.62
502.512	6688.12
502.88	6824.16
503.249	6830.71
503.618	6879.75
503.987	6929.24
504.356	6997.71
504.724	7078.39
505.093	7114.54
505.462	7168.55
505.83	7174.2
506.199	7244.03
506.567	7425.04
506.936	7358.61
507.304	7504.59
507.672	7505.04
508.041	7598.83
508.409	7560.86
508.777	7698.71
509.145	7738.93
509.514	7792.27
509.882	7848.99
510.25	7877.91
510.618	7895.54
510.986	7949.1
511.354	8021.87
511.722	8135.08
512.09	8112.26
512.458	8160.17
512.826	8236.55
513.193	8310.45
513.561	8368.3
513.929	8342.99
514.297	8413.72
514.664	8571
515.032	8519.71
515.4	8659.59
515.767	8667.95
516.135	8701.62
516.502	8589.99
516.869	8814.16
517.237	8750.21
517.604	8851.45
517.972	8923.54
518.339	8956.08
518.706	9046.47
519.073	9004.89
519.44	9099.8
519.808	9163.3
520.175	9159.69
520.542	9221.61
520.909	9272.91
521.276	9360.59
521.643	9347.48
522.009	9424.31
522.376	9433.81
522.743	9559.45
523.11	9647.36
523.477	9700.69
523.843	9727.58
524.21	9832.44
524.577	9956.5
524.943	9916.05
525.31	9911.99
525.676	10134.8
526.043	10102.49
526.409	10116.73
526.776	10293.44
527.142	10289.6
527.508	10311.75
527.874	10414.57
528.241	10499.54
528.607	10509.03
528.973	10596.26
529.339	10577.73
529.705	10610.72
530.071	10802.58
530.437	10782.7
530.803	10850.49
531.169	10903.6
531.535	10841.68
531.901	10907.89
532.267	10996.25
532.632	11114.89
532.998	11064.27
533.364	11199.86
533.73	11304.49
534.095	11279.18
534.461	11305.62
534.826	11396.47
535.192	11413.64
535.557	11523.69
535.923	11506.29
536.288	11549.46
536.653	11611.83
537.019	11690.24
537.384	11645.95
537.749	11712.39
538.114	11796.68
538.479	11861.31
538.845	11858.6
539.21	11903.35
539.575	11944.47
539.94	11986.73
540.305	12077.13
540.67	12059.27
541.034	12125.49
541.399	12202.55
541.764	12206.16
542.129	12204.35
542.494	12325.71
542.858	12476.44
543.223	12389.66
543.587	12551.46
543.952	12499.26
544.316	12506.27
544.681	12642.08
545.045	12635.76
545.41	12743.55
545.774	12788.75
546.138	12760.27
546.503	12855.64
546.867	12860.61
547.231	12919.14
547.595	12897.9
547.959	12983.99
548.324	13063.09
548.688	13154.61
549.052	13128.85
549.416	13234.38
549.779	13230.99
550.143	13279.13
550.507	13388.05
550.871	13379.69
551.235	13384.21
551.599	13553.02
551.962	13535.39
552.326	13556.41
552.689	13553.02
553.053	13607.03
553.417	13644.54
553.78	13839.11
554.143	13789.85
554.507	13841.15
554.87	13869.62
555.234	14029.39
555.597	13938.09
555.96	14024.19
556.323	14018.54
556.686	14084.76
557.05	14197.97
557.413	14272.32
557.776	14195.49
558.139	14382.38
558.502	14363.17
558.865	14356.84
559.228	14547.34
559.59	14543.05
559.953	14553.67
560.316	14667.79
560.679	14614.01
561.041	14769.71
561.404	14815.59
561.767	14871.63
562.129	14945.98
562.492	15037.5
562.854	15017.84
563.217	15012.64
563.579	15099.19
563.941	15219.19
564.304	15154.56
564.666	15317.94
565.028	15398.85
565.39	15406.08
565.753	15407.21
566.115	15452.4
566.477	15522.91
566.839	15607.43
567.201	15715.45
567.563	15717.26
567.925	15788.89
568.287	15862.56
568.648	15831.15
569.01	15937.82
569.372	16070.69
569.734	15964.03
570.095	16103.23
570.457	16235.21
570.819	16234.08
571.18	16346.62
571.542	16363.34
571.903	16457.8
572.265	16508.2
572.626	16594.07
572.987	16730.79
573.349	16721.75
573.71	16829.32
574.071	16913.38
574.432	16977.56
574.794	17194.28
575.155	17192.92
575.516	17162.64
575.877	17368.96
576.238	17475.18
576.599	17552.24
576.96	17733.25
577.32	17709.29
577.681	17865.45
578.042	18013.24
578.403	18073.35
578.763	18239
579.124	18385.43
579.485	18537.75
579.845	18747.69
580.206	18727.57
580.566	18907
580.927	19079.43
581.287	19239.65
581.648	19416.82
582.008	19665.63
582.368	19723.48
582.728	19903.59
583.089	19951.95
583.449	20153.52
583.809	20294.54
584.169	20566.17
584.529	20769.33
584.889	21105.59
585.249	21214.51
585.609	21304
585.969	21669.87
586.329	21897.21
586.688	22025.11
587.048	22240.25
587.408	22374.03
587.768	22731.08
588.127	22828.93
588.487	23185.08
588.846	23454.45
589.206	23610.83
589.565	23861.22
589.925	24248.11
590.284	24297.6
590.643	24666.63
591.003	24979.16
591.362	25270.68
591.721	25390.22
592.08	25692.14
592.44	26014.16
592.799	26325.11
593.158	26466.58
593.517	26728.04
593.876	26944.31
594.235	27138.2
594.593	27439.66
594.952	27796.49
595.311	27862.02
595.67	28237.6
596.029	28693.41
596.387	28962.78
596.746	29246.62
597.104	29237.8
597.463	29508.08
597.822	29887.28
598.18	30069.65
598.538	30140.38
598.897	30671.21
599.255	30678.22
599.613	31288.82
599.972	31374.92
600.33	31763.84
600.688	31712.99
601.046	32112.53
601.404	32490.37
601.762	32430.94
602.12	32875.22
602.478	33055.78
602.836	33256
603.194	33284.03
603.552	33636.11
603.91	33733.73
604.268	34083.55
604.625	34035.64
604.983	34396.77
605.341	34521.96
605.698	34963.08
606.056	35083.75
606.413	35279.68
606.771	35391.99
607.128	35689.84
607.485	35744.75
607.843	35823.39
608.2	36253.67
608.557	36570.72
608.914	36496.82
609.272	36848.68
609.629	37025.4
609.986	37406.4
610.343	37184.71
610.7	37664.48
611.057	37735.89
611.414	37803.46
611.771	37896.11
612.127	38226.04
612.484	38351.69
612.841	38529.31
613.198	38497.22
613.554	38605.24
613.911	38916.65
614.267	39259.91
614.624	39120.48
614.98	39299.46
615.337	39623.97
615.693	39535.61
616.05	39650.41
616.406	40052.21
616.762	39986
617.118	40145.31
617.475	40183.96
617.831	40382.6
618.187	40413.33
618.543	40579.43
618.899	40775.58
619.255	40854.67
619.611	40851.28
619.967	41129.7
620.323	41233.87
620.678	41296.7
621.034	41227.55
621.39	41305.74
621.746	41346.41
622.101	41829.79
622.457	41497.82
622.812	41731.94
623.168	41685.16
623.523	41943.23
623.879	41989.33
624.234	41816.23
624.589	42103.23
624.945	42114.3
625.3	42248.76
625.655	42181.42
626.01	42342.54
626.365	42469.1
626.72	42331.02
627.075	42453.95
627.43	42505.48
627.785	42445.37
628.14	42468.19
628.495	42565.59
628.85	42534.4
629.205	42616.44
629.559	42857.33
629.914	42565.14
630.269	42661.63
630.623	42624.57
630.978	42633.61
631.332	42782.08
631.687	42856.2
632.041	42866.82
632.396	42769.65
632.75	42705.25
633.104	42951.34
633.459	42662.08
633.813	42799.93
634.167	42806.04
634.521	42795.41
634.875	42917.22
635.229	42763.55
635.583	42589.32
635.937	42818.24
636.291	42668.86
636.645	42705.93
636.999	42714.06
637.352	42896.43
637.706	42717.68
638.06	42839.71
638.413	42670.22
638.767	42563.78
639.121	42806.49
639.474	42469.32
639.828	42520.17
640.181	42666.38
640.534	42581.18
640.888	42471.81
641.241	42330.34
641.594	42502.77
641.947	42565.59
642.301	42410.79
642.654	42432.26
643.007	42459.6
643.36	42417.57
643.713	42433.84
644.066	42717.45
644.419	42479.49
644.771	42137.58
645.124	41760.64
645.477	41768.1
645.83	41378.95
646.182	41332.18
646.535	41274.78
646.888	41324.04
647.24	40981.9
647.593	41373.3
647.945	41298.5
648.298	41081.79
648.65	41197.26
649.002	40985.52
649.355	41200.2
649.707	41151.84
650.059	41307.54
650.411	41784.37
650.763	41724.48
651.115	42185.71
651.467	42058.48
651.819	42096.9
652.171	41867.98
652.523	41883.57
652.875	41864.82
653.227	41655.56
653.578	41992.05
653.93	41880.18
654.282	41719.96
654.633	41713.63
654.985	41811.49
655.337	41791.15
655.688	41787.31
656.039	41977.36
656.391	41493.98
656.742	41722.22
657.094	41764.03
657.445	41985.72
657.796	41744.82
658.147	41745.27
658.498	41637.93
658.849	41837.25
659.2	41626.41
659.551	41610.81
659.902	41754.54
660.253	41622.56
660.604	41638.16
660.955	41533.98
661.306	41753.18
661.656	41638.83
662.007	41592.06
662.358	41543.02
662.708	41581.89
663.059	41498.05
663.409	41240.2
663.76	41486.07
664.11	41417.15
664.461	41519.52
664.811	41511.83
665.161	41637.03
665.511	41406.98
665.862	41337.15
666.212	41550.02
666.562	41523.36
666.912	41379.86
667.262	41400.65
667.612	41460.31
667.962	41484.04
668.312	41266.19
668.662	41510.48
669.011	41427.77
669.361	41425.28
669.711	41333.53
670.06	41284.95
670.41	41228
670.76	41210.37
671.109	41470.25
671.459	41315.23
671.808	41168.79
672.157	41318.39
672.507	41114.55
672.856	41117.94
673.205	41118.62
673.554	41301.89
673.904	41138.73
674.253	41269.8
674.602	41345.73
674.951	40576.04
675.3	40414.23
675.649	41078.17
675.998	41176.7
676.346	41078.4
676.695	41230.94
677.044	40797.27
677.393	41047.89
677.741	41063.03
678.09	41045.63
678.438	40899.19
678.787	41042.69
679.135	40915.69
679.484	40606.09
679.832	40869.59
680.181	40578.98
680.529	40697.62
680.877	40515.7
681.225	40680.44
681.573	40837.5
681.922	40440.9
682.27	40322.26
682.618	40410.84
682.966	40227.8
683.314	40443.39
683.661	40370.17
684.009	40096.5
684.357	39983.74
684.705	39930.18
685.053	40102.38
685.4	40133.11
685.748	39876.4
686.095	39805.21
686.443	39717.98
686.79	39524.77
687.138	39714.14
687.485	39826
687.832	39436.86
688.18	39607.93
688.527	39283.64
688.874	39221.05
689.221	39152.35
689.568	39084.1
689.915	39127.04
690.262	39005.23
690.609	38777.67
690.956	38830.32
691.303	38890.88
691.65	38790.77
691.997	38635.98
692.344	38442.31
692.69	38271.69
693.037	38440.5
693.383	38240.51
693.73	38358.69
694.077	37937.46
694.423	38067.85
694.769	37867.41
695.116	37774.98
695.462	37860.63
695.808	37714.42
696.155	37840.06
696.501	37359.85
696.847	37512.39
697.193	37179.52
697.539	37352.39
697.885	37028.11
698.231	37023.36
698.577	36989.24
698.923	36946.98
699.269	36819.53
699.614	36523.94
699.96	36463.15
700.306	36661.56
700.651	36355.58
700.997	36341.57
701.342	36239.88
701.688	36182.25
702.033	36084.18
702.379	36090.51
702.724	35920.79
703.069	35932.09
703.415	35429.51
703.76	35544.98
704.105	35516.51
704.45	35479.45
704.795	35284.43
705.14	35255.05
705.485	35152.45
705.83	34972.57
706.175	35179.12
706.52	34945
706.865	34990.87
707.209	34780.48
707.554	34693.25
707.899	34846.47
708.243	34559.02
708.588	34651
708.932	34390.21
709.277	34440.61
709.621	34319.93
709.966	34099.37
710.31	34215.98
710.654	33928.53
710.998	34062.76
711.342	34017.57
711.687	33661.87
712.031	33741.42
712.375	33613.06
712.719	33701.19
713.063	33607.63
713.407	33733.51
713.75	33459.16
714.094	33488.99
714.438	33374.42
714.782	33397.24
715.125	33196.57
715.469	33211.71
715.812	33133.75
716.156	32899.86
716.499	32945.5
716.843	33176.23
717.186	32818.5
717.53	32864.6
717.873	32910.93
718.216	32885.17
718.559	32612.63
718.902	32555.23
719.246	32563.82
719.589	32416.03
719.932	32296.71
720.275	32375.35
720.617	32402.47
720.96	32154.56
721.303	32255.35
721.646	32233.66
721.989	31989.6
722.331	32135.36
722.674	31940.56
723.016	31954.57
723.359	31900.33
723.701	31941.69
724.044	31763.84
724.386	31540.12
724.729	31770.17
725.071	31663.96
725.413	31521.59
725.755	31597.74
726.097	31475.26
726.439	31390.52
726.782	31321.82
727.124	31485.43
727.465	31287.02
727.807	31404.98
728.149	31164.53
728.491	31188.26
728.833	31278.2
729.175	31017.87
729.516	30990.07
729.858	30940.13
730.199	30991.2
730.541	30926.12
730.882	30815.62
731.224	30935.61
731.565	30656.52
731.906	30655.17
732.248	30829.4
732.589	30581.95
732.93	30493.36
733.271	30474.61
733.612	30543.31
733.953	30587.37
734.294	30452.46
734.635	30369.75
734.976	30341.05
735.317	30226.71
735.658	30296.31
735.999	30237.78
736.339	30207.5
736.68	30182.19
737.021	30134.28
737.361	29892.7
737.702	30157.1
738.042	30006.82
738.383	29946.26
738.723	30049.99
739.063	29865.81
739.404	29885.02
739.744	29801.41
740.084	29691.58
740.424	29847.51
740.764	29600.28
741.104	29792.14
741.444	29628.75
741.784	29406.39
742.124	29554.18
742.464	29511.24
742.804	29417.46
743.143	29218.14
743.483	29315.77
743.823	29261.53
744.162	29228.09
744.502	29225.6
744.841	29121.88
745.181	29276.9
745.52	29051.59
745.86	29089.33
746.199	29054.31
746.538	28965.72
746.877	29078.94
747.216	28943.58
747.556	28949.68
747.895	28898.83
748.234	28898.83
748.573	28792.39
748.911	28793.97
749.25	28765.05
749.589	28720.98
749.928	28606.41
750.267	28702.45
750.605	28657.25
750.944	28496.81
751.283	28413.87
751.621	28549.91
751.96	28333.65
752.298	28202.35
752.636	28239.86
752.975	28220.43
753.313	27987.67
753.651	28205.74
753.989	28017.5
754.327	28026.99
754.666	27915.35
755.004	27874
755.342	27905.64
755.679	27917.16
756.017	27727.34
756.355	27721.46
756.693	27730.05
757.031	27682.59
757.368	27506.32
757.706	27492.54
758.044	27417.29
758.381	27464.07
758.719	27321.7
759.056	27354.24
759.394	27161.93
759.731	27124.41
760.068	26904.31
760.405	26924.87
760.743	26962.61
761.08	26882.84
761.417	26756.97
761.754	26785.44
762.091	26731.43
762.428	26556.97
762.765	26387.48
763.102	26475.84
763.438	26276.3
763.775	26208.96
764.112	26276.98
764.449	26198.79
764.785	25966.48
765.122	25914.28
765.458	25711.12
765.795	25749.31
766.131	25705.24
766.467	25605.13
766.804	25522.87
767.14	25295.99
767.476	25375.08
767.812	25239.94
768.148	25224.8
768.485	25166.27
768.821	25062.77
769.157	24909.33
769.492	25002.89
769.828	24986.84
770.164	24720.64
770.5	24728.32
770.836	24700.07
771.171	24478.61
771.507	24456.01
771.842	24341.89
772.178	24289.46
772.513	24228.9
772.849	24070.48
773.184	24067.09
773.519	24010.6
773.855	23918.85
774.19	23835.91
774.525	23732.19
774.86	23741.9
775.195	23642.92
775.53	23532.42
775.865	23369.94
776.2	23302.59
776.535	23043.17
776.87	23132.43
777.205	22962.26
777.539	22887.92
777.874	22874.81
778.209	22771.76
778.543	22711.2
778.878	22559.79
779.212	22628.03
779.547	22444.09
779.881	22451.32
780.215	22332.9
780.55	22334.94
780.884	22165.45
781.218	22122.74
781.552	22092.91
781.886	21964.78
782.22	21842.97
782.554	21805.68
782.888	21571.57
783.222	21562.07
783.556	21468.97
783.889	21475.52
784.223	21221.52
784.557	21266.04
784.89	21269.88
785.224	21121.86
785.557	20963.45
785.891	20945.14
786.224	20890
786.558	20840.29
786.891	20592.16
787.224	20597.13
787.557	20517.13
787.891	20446.4
788.224	20500.63
788.557	20433.52
788.89	20350.58
789.223	20291.15
789.556	20189
789.888	20122.79
790.221	20000.99
790.554	19955.56
790.887	19975.68
791.219	19861.55
791.552	19782.91
791.884	19741.56
792.217	19686.87
792.549	19535.69
792.882	19397.84
793.214	19434.45
793.546	19299.08
793.879	19301.57
794.211	19130.05
794.543	19230.84
794.875	19059.09
795.207	19249.59
795.539	19074.23
795.871	19055.47
796.203	18815.93
796.535	18782.26
796.867	18763.96
797.198	18753.11
797.53	18620.68
797.862	18582.49
798.193	18548.59
798.525	18438.31
798.856	18370.75
799.188	18354.48
799.519	18279.22
799.85	18045.33
800.182	18128.27
800.513	18151.77
800.844	17966.46
801.175	18059.79
801.506	18043.3
801.837	17902.96
802.168	17872.91
802.499	17792.46
802.83	17698.45
803.161	17677.88
803.491	17612.12
803.822	17681.95
804.153	17528.28
804.483	17414.84
804.814	17372.13
805.145	17461.17
805.475	17392.92
805.805	17291.23
806.136	17223.43
806.466	17173.72
806.796	17119.71
807.126	17051.91
807.457	16943.66
807.787	16975.08
808.117	16884.91
808.447	16844.23
808.777	16821.86
809.107	16752.03
809.436	16675.65
809.766	16658.25
810.096	16716.78
810.426	16497.12
810.755	16591.36
811.085	16581.64
811.414	16491.02
811.744	16389.55
812.073	16327.64
812.403	16445.6
812.732	16218.26
813.061	16270.91
813.39	16210.35
813.719	16078.83
814.049	16213.74
814.378	16059.17
814.707	15993.86
815.036	16041.77
815.365	15934.43
815.693	15736.24
816.022	15858.27
816.351	15794.09
816.68	15660.31
817.008	15743.02
817.337	15567.2
817.665	15519.3
817.994	15598.84
818.322	15578.05
818.651	15489.69
818.979	15393.42
819.307	15503.02
819.636	15432.74
819.964	15346.64
820.292	15419.64
820.62	15378.96
820.948	15294.44
821.276	15298.06
821.604	15261.45
821.932	15293.76
822.259	15308
822.587	15285.18
822.915	15195.69
823.243	15310.04
823.57	15240.66
823.898	15205.18
824.225	15149.59
824.553	15163.6
824.88	15151.4
825.207	15239.98
825.535	15194.33
825.862	15233.88
826.189	15181
826.516	15211.96
826.843	15177.16
827.17	15176.48
827.497	15232.52
827.824	15229.13
828.151	15277.72
828.478	15182.58
828.805	15304.61
829.131	15240.21
829.458	15234.11
829.785	15191.85
830.111	15122.92
830.438	15251.51
830.764	15121.34
831.09	15179.42
831.417	15028.91
831.743	15089.25
832.069	15152.75
832.395	15044.28
832.722	15167.21
833.048	15068.46
833.374	15123.6
833.7	14983.72
834.026	15003.83
834.351	15061
834.677	14962.7
835.003	15043.83
835.329	15066.43
835.654	15009.7
835.98	14930.38
836.306	14901.91
836.631	14867.11
836.956	14945.98
837.282	14925.64
837.607	14805.42
837.932	14801.57
838.258	14800.22
838.583	14715.02
838.908	14595.03
839.233	14771.29
839.558	14605.42
839.883	14572.2
840.208	14573.11
840.533	14510.73
840.858	14542.6
841.182	14568.81
841.507	14597.51
841.832	14433
842.156	14432.09
842.481	14415.14
842.805	14359.55
843.13	14411.53
843.454	14350.51
843.778	14300.57
844.103	14220.12
844.427	14187.13
844.751	14214.7
845.075	14200.69
845.399	14127.92
845.723	13989.84
846.047	14035.94
846.371	13931.54
846.695	13952.1
847.019	13859.45
847.343	13798.89
847.666	13670.53
847.99	13596.86
848.313	13676.41
848.637	13546.92
848.96	13562.06
849.284	13494.26
849.607	13366.36
849.931	13346.02
850.254	13259.69
850.577	13285.23
850.9	13127.27
851.223	13088.4
851.546	13018.8
851.869	12971.11
852.192	13021.28
852.515	12950.32
852.838	12878.23
853.161	12859.25
853.483	12810.44
853.806	12724.57
854.129	12788.75
854.451	12611.12
854.774	12633.95
855.096	12580.62
855.419	12550.79
855.741	12553.72
856.063	12395.76
856.385	12407.51
856.708	12400.96
857.03	12376.33
857.352	12316.67
857.674	12328.64
857.996	12295.88
858.318	12108.31
858.64	12175.43
858.961	12217.91
859.283	12007.3
859.605	12003.68
859.926	12021.31
860.248	12019.95
860.57	11916
860.891	11957.81
861.212	11828.09
861.534	11881.42
861.855	11834.19
862.176	11750.58
862.498	11803.91
862.819	11745.16
863.14	11741.77
863.461	11744.93
863.782	11625.61
864.103	11664.93
864.424	11681.66
864.745	11738.6
865.065	11592.17
865.386	11569.57
865.707	11584.94
866.027	11635.78
866.348	11523.69
866.668	11517.59
866.989	11454.77
867.309	11337.26
867.63	11476.92
867.95	11435.56
868.27	11311.27
868.59	11380.42
868.91	11319.41
869.23	11310.82
869.55	11270.59
869.87	11290.71
870.19	11361.89
870.51	11298.62
870.83	11231.27
871.15	11245.51
871.469	11242.8
871.789	11186.75
872.109	11218.39
872.428	11119.86
872.748	11151.5
873.067	11130.94
873.386	11152.18
873.706	11066.53
874.025	10959.64
874.344	11077.6
874.663	11082.8
874.982	10956.48
875.301	11002.58
875.62	10938.85
875.939	10960.32
876.258	10917.83
876.577	10894.33
876.896	10964.16
877.214	10886.2
877.533	10851.4
877.852	10830.83
878.17	10870.15
878.489	10833.54
878.807	10824.96
879.125	10778.18
879.444	10796.26
879.762	10733.43
880.08	10702.92
880.398	10624.28
880.716	10695.92
881.034	10622.7
881.352	10650.72
881.67	10596.94
881.988	10677.39
882.306	10470.39
882.624	10469.71
882.941	10429.49
883.259	10387.45
883.577	10467
883.894	10463.84
884.212	10408.47
884.529	10414.8
884.846	10308.58
885.164	10338.64
885.481	10275.82
885.798	10278.76
886.115	10260.45
886.432	10203.5
886.75	10188.59
887.067	10165.09
887.383	10163.28
887.7	10168.48
888.017	10088.7
888.334	10177.29
888.651	10125.99
888.967	10150.85
889.284	10015.26
889.6	9983.4
889.917	9943.62
890.233	10017.29
890.55	9919.44
890.866	9926.67
891.182	9887.58
891.498	9864.08
891.815	9776.85
892.131	9822.95
892.447	9702.73
892.763	9736.4
893.079	9739.56
893.395	9569.17
893.71	9651.65
894.026	9681.26
894.342	9613.46
894.657	9523.75
894.973	9507.25
895.289	9494.14
895.604	9490.98
895.92	9468.61
896.235	9387.25
896.55	9420.7
896.865	9344.77
897.181	9300.93
897.496	9302.74
897.811	9254.38
898.126	9223.42
898.441	9201.95
898.756	9133.25
899.071	9099.13
899.386	9073.82
899.7	8999.92
900.015	9013.93
900.33	8928.51
900.644	8933.93
900.959	8927.83
901.273	8894.84
901.588	8845.57
901.902	8781.39
902.216	8718.12
902.531	8746.82
902.845	8728.29
903.159	8685.35
903.473	8632.02
903.787	8574.85
904.101	8573.94
904.415	8527.39
904.729	8550.44
905.042	8454.4
905.356	8443.78
905.67	8426.6
905.984	8437.45
906.297	8344.57
906.611	8367.84
906.924	8303.89
907.237	8254.63
907.551	8199.71
907.864	8221.18
908.177	8224.8
908.491	8197.23
908.804	8112.94
909.117	8084.91
909.43	8080.62
909.743	8006.95
910.056	7997.01
910.368	7968.31
910.681	7941.87
910.994	7888.08
911.307	7835.66
911.619	7837.24
911.932	7856.9
912.244	7764.47
912.557	7732.38
912.869	7725.38
913.181	7715.88
913.494	7648.32
913.806	7613.29
914.118	7554.76
914.43	7541.2
914.742	7502.78
915.054	7476.12
915.366	7458.26
915.678	7356.57
915.99	7385.05
916.302	7334.2
916.613	7321.77
916.925	7356.57
917.236	7275.22
917.548	7209.01
917.859	7260.98
918.171	7205.62
918.482	7098.05
918.794	7133.98
919.105	7035.22
919.416	7020.99
919.727	7044.04
920.038	6938.5
920.349	6924.72
920.66	6921.1
920.971	6933.98
921.282	6908.9
921.593	6814.21
921.903	6773.31
922.214	6760.43
922.525	6769.47
922.835	6736.93
923.146	6726.08
923.456	6708.23
923.767	6658.06
924.077	6642.47
924.387	6585.52
924.697	6546.2
925.008	6572.64
925.318	6475.24
925.628	6482.24
925.938	6411.29
926.248	6416.03
926.558	6380.1
926.867	6346.2
927.177	6343.94
927.487	6284.28
927.796	6290.61
928.106	6234.12
928.416	6241.57
928.725	6210.84
929.034	6141.69
929.344	6197.05
929.653	6138.98
929.962	6063.72
930.271	6101.46
930.581	6019.21
930.89	6036.61
931.199	5951.86
931.508	6001.58
931.817	5958.19
932.125	5887.46
932.434	5879.1
932.743	5826.44
933.051	5774.47
933.36	5825.99
933.669	5779.89
933.977	5771.98
934.286	5750.96
934.594	5726.11
934.902	5706.67
935.21	5678.88
935.519	5659.89
935.827	5662.15
936.135	5635.04
936.443	5606.79
936.751	5566.34
937.059	5512.1
937.367	5478.88
937.674	5493.8
937.982	5475.72
938.29	5409.28
938.597	5438.43
938.905	5377.42
939.213	5344.2
939.52	5323.63
939.827	5326.57
940.135	5273.46
940.442	5179.68
940.749	5238.66
941.056	5267.36
941.363	5220.36
941.67	5166.8
941.977	5135.16
942.284	5141.04
942.591	5134.26
942.898	5073.92
943.205	5090.87
943.511	5040.02
943.818	5040.93
944.125	4990.31
944.431	4956.18
944.738	5014.03
945.044	4925.22
945.35	4912.34
945.657	4882.06
945.963	4855.62
946.269	4853.81
946.575	4832.8
946.881	4811.55
947.187	4794.83
947.493	4715.74
947.799	4747.38
948.105	4736.75
948.41	4738.11
948.716	4699.92
949.022	4674.61
949.327	4661.73
949.633	4640.26
949.938	4616.98
950.244	4602.29
950.549	4560.49
950.854	4584.22
951.16	4558.45
951.465	4525.01
951.77	4492.24
952.075	4416.31
952.38	4474.61
952.685	4452.02
952.99	4396.65
953.294	4398.68
953.599	4387.16
953.904	4304.9
954.209	4321.4
954.513	4264.45
954.818	4285.47
955.122	4269.65
955.426	4261.74
955.731	4245.24
956.035	4233.26
956.339	4208.86
956.643	4166.6
956.948	4157.56
957.252	4136.77
957.556	4145.36
957.86	4160.05
958.163	4117.79
958.467	4084.34
958.771	4052.7
959.075	4080.27
959.378	4052.48
959.682	3984.91
959.985	3963.89
960.289	3976.77
960.592	3961.63
960.896	3939.49
961.199	3950.11
961.502	3976.1
961.805	3913.5
962.108	3860.84
962.411	3843.67
962.714	3805.48
963.017	3861.75
963.32	3855.87
963.623	3792.82
963.926	3783.33
964.228	3750.11
964.531	3710.57
964.833	3713.96
965.136	3732.49
965.438	3674.86
965.741	3677.8
966.043	3693.84
966.345	3624.47
966.648	3604.35
966.95	3589.44
967.252	3623.34
967.554	3566.16
967.856	3573.85
968.158	3504.7
968.46	3511.7
968.761	3531.59
969.063	3501.98
969.365	3518.71
969.666	3482.1
969.968	3436
970.269	3431.03
970.571	3400.97
970.872	3402.1
971.174	3383.12
971.475	3348.54
971.776	3357.81
972.077	3365.49
972.378	3343.34
972.679	3347.64
972.98	3295.66
973.281	3307.41
973.582	3281.43
973.883	3249.56
974.183	3288.88
974.484	3240.97
974.785	3219.73
975.085	3212.5
975.386	3221.54
975.686	3207.75
975.986	3109
976.287	3193.97
976.587	3155.78
976.887	3134.99
977.187	3135.21
977.487	3075.78
977.787	3078.49
978.087	3093.86
978.387	3078.49
978.687	3030.58
978.987	2969.79
979.286	3024.48
979.586	2991.49
979.885	2967.08
980.185	2960.76
980.484	2959.63
980.784	2970.02
981.083	2914.2
981.382	2937.93
981.682	2934.77
981.981	2917.14
982.28	2869.46
982.579	2851.15
982.878	2869.68
983.177	2850.7
983.475	2874.88
983.774	2830.82
984.073	2763.02
984.372	2770.25
984.67	2785.39
984.969	2806.41
985.267	2756.24
985.566	2726.64
985.864	2736.13
986.162	2720.31
986.461	2700.65
986.759	2687.99
987.057	2666.98
987.355	2677.37
987.653	2657.71
987.951	2645.51
988.249	2626.53
988.547	2669.69
988.844	2629.01
989.142	2607.09
989.44	2598.05
989.737	2572.97
990.035	2563.93
990.332	2560.09
990.63	2516.7
990.927	2525.96
991.224	2520.99
991.521	2532.97
991.819	2523.03
992.116	2490.94
992.413	2464.05
992.71	2471.73
993.006	2467.66
993.303	2422.01
993.6	2417.27
993.897	2431.05
994.193	2432.63
994.49	2386.76
994.787	2361
995.083	2367.32
995.379	2368.23
995.676	2355.8
995.972	2325.29
996.268	2353.54
996.565	2322.58
996.861	2259.08
997.157	2263.37
997.453	2294.78
997.749	2257.95
998.044	2250.94
998.34	2252.53
998.636	2190.15
998.932	2215.01
999.227	2190.61
999.523	2215.01
999.818	2189.48
1000.114	2207.78
1000.409	2136.14
1000.704	2142.25
1001	2138.63
1001.295	2143.83
1001.59	2139.53
1001.885	2057.95
1002.18	2103.38
1002.475	2108.12
1002.77	2072.19
1003.065	2074.45
1003.359	2041.01
1003.654	2042.36
1003.949	2035.13
1004.243	2023.83
1004.538	1985.41
1004.832	2014.34
1005.127	1962.59
1005.421	1974.11
1005.715	1954.45
1006.009	1970.27
1006.304	1914.91
1006.598	1908.81
1006.892	1937.51
1007.186	1913.55
1007.48	1890.28
1007.773	1919.65
1008.067	1885.3
1008.361	1876.04
1008.655	1855.25
1008.948	1848.92
1009.242	1826.32
1009.535	1844.17
1009.829	1838.98
1010.122	1812.99
1010.415	1743.84
1010.708	1814.34
1011.001	1778.64
1011.295	1780.9
1011.588	1746.32
1011.881	1736.15
1012.173	1733.67
1012.466	1718.98
1012.759	1722.14
1013.052	1693.67
1013.344	1707.46
1013.637	1685.08
1013.93	1666.1
1014.222	1682.6
1014.514	1675.82
1014.807	1663.16
1015.099	1631.98
1015.391	1622.03
1015.683	1620.45
1015.976	1621.58
1016.268	1582.03
1016.56	1589.94
1016.851	1610.96
1017.143	1582.71
1017.435	1540
1017.727	1545.43
1018.018	1550.17
1018.31	1523.73
1018.602	1513.56
1018.893	1503.62
1019.185	1518.31
1019.476	1474.69
1019.767	1458.87
1020.058	1463.62
1020.35	1458.65
1020.641	1468.14
1020.932	1434.02
1021.223	1410.06
1021.514	1422.49
1021.804	1409.84
1022.095	1405.54
1022.386	1413.9
1022.677	1405.54
1022.967	1403.28
1023.258	1368.03
1023.548	1363.51
1023.839	1347.69
1024.129	1336.62
1024.419	1332.1
1024.709	1328.93
1025	1317.41
1025.29	1319.89
1025.58	1295.49
1025.87	1271.99
1026.16	1299.1
1026.449	1281.48
1026.739	1262.27
1027.029	1254.59
1027.319	1263.17
1027.608	1231.99
1027.898	1239.44
1028.187	1236.51
1028.477	1200.12
1028.766	1209.62
1029.055	1231.54
1029.344	1178.43
1029.634	1180.46
1029.923	1188.37
1030.212	1194.25
1030.501	1184.98
1030.79	1161.03
1031.078	1167.36
1031.367	1166.9
1031.656	1123.74
1031.945	1115.61
1032.233	1128.04
1032.522	1104.76
1032.81	1118.77
1033.099	1100.47
1033.387	1071.99
1033.675	1097.75
1033.963	1086.68
1034.251	1073.35
1034.54	1054.14
1034.828	1110.41
1035.116	1065.44
1035.403	1053.24
1035.691	1006.68
1035.979	1028.6
1036.267	1039.45
1036.554	1008.49
1036.842	990.86
1037.129	997.87
1037.417	998.32
1037.704	985.44
1037.992	968.94
1038.279	982.5
1038.566	965.1
1038.853	965.1
1039.14	965.1
