Data from hue_36_FLMS001491_00005.txt Node
Date: Tue Feb 07 17:29:19 GMT 2017
User: dcchb
Spectrometer: FLMS00149
Trigger mode: 0
Integration Time (sec): 2.000000E-2
Scans to average: 10
Electric dark correction enabled: true
Nonlinearity correction enabled: false
Boxcar width: 0
XAxis mode: Wavelengths
Number of Pixels in Spectrum: 2048
>>>>>Begin Spectral Data<<<<<
341.393	-22.08
341.776	-22.08
342.16	-22.08
342.543	-51.45
342.927	-73.15
343.31	-77.89
343.693	-82.64
344.077	-62.75
344.46	-65.46
344.843	-43.77
345.226	-41.06
345.61	-29.76
345.993	-16.65
346.376	-18.46
346.759	4.36
347.142	27.87
347.525	40.75
347.908	67.19
348.291	66.96
348.674	93.18
349.057	138.15
349.44	122.1
349.823	160.29
350.206	147.64
350.588	198.03
350.971	200.74
351.354	252.49
351.737	234.87
352.119	266.28
352.502	261.76
352.884	279.16
353.267	283.45
353.65	283.45
354.032	306.05
354.414	315.09
354.797	319.61
355.179	344.69
355.562	319.84
355.944	336.33
356.326	345.37
356.709	334.3
357.091	338.59
357.473	355.77
357.855	337.69
358.238	332.49
358.62	338.59
359.002	347.18
359.384	353.28
359.766	351.25
360.148	349.21
360.53	357.12
360.912	324.81
361.294	343.11
361.676	357.12
362.057	345.37
362.439	342.43
362.821	312.83
363.203	331.81
363.584	314.86
363.966	352.38
364.348	343.56
364.729	318.03
365.111	341.3
365.493	332.72
365.874	346.73
366.256	334.75
366.637	317.12
367.019	326.84
367.4	325.49
367.781	318.25
368.163	333.62
368.544	319.38
368.925	321.19
369.306	326.16
369.688	330.23
370.069	318.71
370.45	324.81
370.831	297.24
371.212	317.8
371.593	319.61
371.974	301.98
372.355	314.86
372.736	313.28
373.117	331.36
373.498	337.91
373.879	317.35
374.26	324.36
374.641	312.6
375.021	316.67
375.402	322.77
375.783	316.22
376.163	325.26
376.544	330.46
376.925	331.59
377.305	331.59
377.686	329.33
378.066	333.17
378.447	347.41
378.827	346.73
379.208	335.43
379.588	347.18
379.968	355.99
380.349	337.91
380.729	328.42
381.109	324.58
381.489	340.85
381.87	333.62
382.25	330.01
382.63	331.59
383.01	350.34
383.39	362.32
383.77	362.77
384.15	362.09
384.53	328.2
384.91	356.67
385.29	338.59
385.67	345.37
386.049	338.37
386.429	358.71
386.809	345.37
387.189	367.29
387.568	374.75
387.948	360.06
388.328	353.73
388.707	367.29
389.087	370.91
389.466	371.81
389.846	356.45
390.225	356.45
390.605	369.33
390.984	375.88
391.363	364.35
391.743	374.98
392.122	372.04
392.501	366.16
392.881	386.73
393.26	370.91
393.639	356.67
394.018	370.23
394.397	374.07
394.776	387.18
395.155	393.28
395.534	384.24
395.913	373.17
396.292	395.31
396.671	400.06
397.05	378.59
397.429	397.8
397.808	402.77
398.186	382.43
398.565	364.81
398.944	376.78
399.323	385.6
399.701	387.63
400.08	388.53
400.458	395.31
400.837	394.18
401.215	394.64
401.594	392.6
401.972	404.13
402.351	412.49
402.729	421.75
403.107	417.91
403.486	418.14
403.864	403
404.242	432.6
404.62	445.93
404.999	418.14
405.377	414.52
405.755	403.45
406.133	412.26
406.511	408.87
406.889	414.97
407.267	425.6
407.645	437.57
408.023	425.6
408.401	430.79
408.779	451.36
409.156	427.86
409.534	445.93
409.912	439.38
410.29	447.97
410.667	460.85
411.045	448.65
411.422	462.66
411.8	468.08
412.178	465.82
412.555	462.21
412.933	455.43
413.31	487.06
413.687	485.03
414.065	481.87
414.442	464.24
414.819	467.18
415.197	483.45
415.574	468.53
415.951	474.86
416.328	478.48
416.705	487.52
417.082	486.61
417.46	501.3
417.837	511.47
418.214	494.75
418.591	517.8
418.967	522.09
419.344	506.5
419.721	487.52
420.098	520.28
420.475	507.18
420.852	530.23
421.228	539.27
421.605	543.79
421.982	499.72
422.358	539.49
422.735	547.63
423.111	551.24
423.488	533.62
423.864	523.67
424.241	560.51
424.617	550.11
424.994	555.99
425.37	554.63
425.746	537.23
426.123	581.3
426.499	566.38
426.875	563.45
427.251	581.98
427.627	595.76
428.003	611.58
428.379	574.07
428.756	587.85
429.132	593.28
429.507	599.83
429.883	608.87
430.259	611.35
430.635	597.8
431.011	607.29
431.387	628.75
431.763	613.39
432.138	628.75
432.514	621.75
432.89	648.42
433.265	640.28
433.641	666.72
434.016	667.4
434.392	667.62
434.767	660.84
435.143	672.14
435.518	657.91
435.894	686.15
436.269	693.61
436.644	685.02
437.02	702.65
437.395	701.3
437.77	712.82
438.145	711.69
438.52	730.9
438.895	702.2
439.271	728.87
439.646	737.9
440.021	736.55
440.395	741.97
440.77	737.45
441.145	755.08
441.52	751.46
441.895	755.08
442.27	762.99
442.645	754.18
443.019	792.37
443.394	759.15
443.769	767.73
444.143	765.7
444.518	793.95
444.892	769.32
445.267	784.46
445.641	786.04
446.016	796.66
446.39	807.73
446.764	789.88
447.139	810.22
447.513	844.79
447.887	797.56
448.262	823.1
448.636	842.53
449.01	826.26
449.384	851.57
449.758	836.21
450.132	828.98
450.506	822.87
450.88	839.37
451.254	857.22
451.628	858.58
452.002	879.6
452.376	885.92
452.75	878.69
453.123	917.33
453.497	907.84
453.871	927.73
454.244	910.1
454.618	912.81
454.992	920.5
455.365	927.96
455.739	964.11
456.112	969.99
456.486	976.54
456.859	976.77
457.232	967.5
457.606	1024.22
457.979	1020.16
458.352	1013.83
458.725	1039.37
459.099	1035.52
459.472	1053.83
459.845	1083.88
460.218	1065.35
460.591	1069.65
460.964	1082.75
461.337	1094.96
461.71	1126.14
462.083	1151
462.456	1121.85
462.829	1132.7
463.201	1194.62
463.574	1164.56
463.947	1144.22
464.32	1202.52
464.692	1211.56
465.065	1240.72
465.438	1216.99
465.81	1242.3
466.183	1270.55
466.555	1286.14
466.928	1310.09
467.3	1311.67
467.672	1327.27
468.045	1370.66
468.417	1382.63
468.789	1396.19
469.161	1394.16
469.534	1435.29
469.906	1462.18
470.278	1453.14
470.65	1505.34
471.022	1522.97
471.394	1542.4
471.766	1568.62
472.138	1609.29
472.51	1630.08
472.882	1637.54
473.253	1710.53
473.625	1704.43
473.997	1740.59
474.369	1778.55
474.74	1803.41
475.112	1874.82
475.484	1878.89
475.855	1918.66
476.227	1953.01
476.598	2008.61
476.97	2044.54
477.341	2096.29
477.713	2114.14
478.084	2181.71
478.455	2220.35
478.827	2291.08
479.198	2319.33
479.569	2380.8
479.94	2465.54
480.311	2472.77
480.682	2549.61
481.053	2651.07
481.424	2720.45
481.795	2760.45
482.166	2794.12
482.537	2862.14
482.908	2964.06
483.279	3018.3
483.65	3124.06
484.021	3221.23
484.391	3270.95
484.762	3315.24
485.133	3385.97
485.503	3465.74
485.874	3551.84
486.244	3619.18
486.615	3743.93
486.985	3804.94
487.356	3903.47
487.726	3974.66
488.097	4066.4
488.467	4141.2
488.837	4266.85
489.207	4353.63
489.578	4440.63
489.948	4507.3
490.318	4633.4
490.688	4674.98
491.058	4803.79
491.428	4925.14
491.798	4964.69
492.168	5117.22
492.538	5226.6
492.908	5264.11
493.278	5435.18
493.648	5468.4
494.017	5523.77
494.387	5653.26
494.757	5716.3
495.126	5868.84
495.496	5891.44
495.866	5973.92
496.235	6161.94
496.605	6171.66
496.974	6292.56
497.344	6377.08
497.713	6439.9
498.082	6525.55
498.452	6629.05
498.821	6669.05
499.19	6737.97
499.559	6848.48
499.928	6966.67
500.298	7007.57
500.667	7123.95
501.036	7106.55
501.405	7240.33
501.774	7271.74
502.143	7367.33
502.512	7440.1
502.88	7579.31
503.249	7605.97
503.618	7640.1
503.987	7753.54
504.356	7869.92
504.724	7913.08
505.093	7993.08
505.462	8040.09
505.83	8057.03
506.199	8237.37
506.567	8239.18
506.936	8279.63
507.304	8421.09
507.672	8468.77
508.041	8482.33
508.409	8610.69
508.777	8753.51
509.145	8772.5
509.514	8785.83
509.882	8855.88
510.25	8889.33
510.618	8942.66
510.986	9030.12
511.354	9148.3
511.722	9133.62
512.09	9214.07
512.458	9293.84
512.826	9351.24
513.193	9449.77
513.561	9527.28
513.929	9563.43
514.297	9590.55
514.664	9650.21
515.032	9746.93
515.4	9761.85
515.767	9828.51
516.135	9893.82
516.502	9923.65
516.869	10145.34
517.237	10153.93
517.604	10104.89
517.972	10237.77
518.339	10316.86
518.706	10301.72
519.073	10353.02
519.44	10425.56
519.808	10553.24
520.175	10500.13
520.542	10683.63
520.909	10699.22
521.276	10719.11
521.643	10809.96
522.009	10847.47
522.376	10913.46
522.743	11004.08
523.11	11092.21
523.477	11188.03
523.843	11213.56
524.21	11300.11
524.577	11459.2
524.943	11452.42
525.31	11553.44
525.676	11640.44
526.043	11664.62
526.409	11790.27
526.776	11942.58
527.142	11859.65
527.508	11982.81
527.874	12086.31
528.241	12125.18
528.607	12178.73
528.973	12353.64
529.339	12330.37
529.705	12432.51
530.071	12590.02
530.437	12609
530.803	12633.64
531.169	12663.01
531.535	12705.5
531.901	12732.62
532.267	12851.26
532.632	12927.19
532.998	12955.44
533.364	13040.86
533.73	13042.89
534.095	13186.39
534.461	13307.29
534.826	13325.14
535.192	13333.28
535.557	13388.19
535.923	13404.46
536.288	13504.57
536.653	13637.45
537.019	13534.86
537.384	13725.81
537.749	13701.18
538.114	13694.63
538.479	13749.09
538.845	13839.25
539.21	13844
539.575	13984.11
539.94	13972.13
540.305	14100.72
540.67	14085.8
541.034	14082.41
541.399	14182.97
541.764	14232.92
542.129	14350.88
542.494	14421.61
542.858	14385.91
543.223	14462.06
543.587	14580.03
543.952	14590.2
544.316	14625.22
544.681	14677.42
545.045	14783.18
545.41	14811.66
545.774	14806.91
546.138	14796.74
546.503	14882.62
546.867	14932.33
547.231	15094.14
547.595	15046.45
547.959	15164.87
548.324	15087.13
548.688	15212.78
549.052	15292.32
549.416	15289.61
549.779	15364.86
550.143	15427.01
550.507	15495.26
550.871	15575.48
551.235	15573.9
551.599	15681.24
551.962	15654.8
552.326	15738.87
552.689	15800.56
553.053	15761.92
553.417	15843.5
553.78	16136.37
554.143	15937.28
554.507	16103.15
554.87	16139.99
555.234	16263.15
555.597	16108.8
555.96	16365.97
556.323	16335.69
556.686	16363.93
557.05	16495.91
557.413	16545.62
557.776	16539.97
558.139	16644.6
558.502	16731.83
558.865	16683.47
559.228	16864.71
559.59	16927.31
559.953	16916.46
560.316	17087.98
560.679	17093.41
561.041	17158.49
561.404	17278.49
561.767	17336.56
562.129	17250.24
562.492	17427.63
562.854	17418.37
563.217	17431.02
563.579	17601.64
563.941	17666.5
564.304	17715.99
564.666	17830.34
565.028	17824.91
565.39	17811.81
565.753	17993.5
566.115	18072.82
566.477	18133.38
566.839	18136.32
567.201	18272.13
567.563	18317.1
567.925	18457.66
568.287	18435.29
568.648	18523.2
569.01	18639.35
569.372	18779.92
569.734	18742.18
570.095	18891.33
570.457	18913.47
570.819	18979.01
571.18	19035.05
571.542	19136.29
571.903	19231.66
572.265	19226.46
572.626	19364.08
572.987	19356.17
573.349	19495.15
573.71	19645.2
574.071	19608.82
574.432	19732.21
574.794	19948.02
575.155	19994.12
575.516	20078.86
575.877	20092.65
576.238	20324.96
576.599	20411.29
576.96	20495.8
577.32	20610.83
577.681	20651.51
578.042	20802.91
578.403	21075.45
578.763	21044.94
579.124	21197.71
579.485	21348.66
579.845	21551.59
580.206	21665.72
580.566	21679.95
580.927	21873.62
581.287	22038.59
581.648	22085.82
582.008	22392.7
582.368	22415.53
582.728	22770.09
583.089	22803.76
583.449	22926.47
583.809	23242.4
584.169	23278.55
584.529	23431.54
584.889	23791.08
585.249	23835.6
585.609	24059.78
585.969	24263.61
586.329	24449.15
586.688	24806.88
587.048	24900.88
587.408	25090.26
587.768	25294.77
588.127	25483.02
588.487	25640.98
588.846	26088.65
589.206	26109.21
589.565	26184.24
589.925	26668.07
590.284	26727.05
590.643	26989.19
591.003	27324.78
591.362	27524.54
591.721	27713.24
592.08	27962.95
592.44	28296.5
592.799	28619.88
593.158	28551.86
593.517	28852.19
593.876	29127.67
594.235	29201.34
594.593	29638.16
594.952	29798.61
595.311	29985.04
595.67	30327.18
596.029	30587.74
596.387	30759.71
596.746	31176.88
597.104	31057.56
597.463	31299.13
597.822	31687.37
598.18	31721.27
598.538	31786.81
598.897	32261.37
599.255	32123.29
599.613	32908.58
599.972	32859.77
600.33	32978.19
600.688	33131.85
601.046	33357.84
601.404	33696.59
601.762	33700.65
602.12	34092.73
602.478	34254.54
602.836	34397.13
603.194	34510.8
603.552	34686.39
603.91	34721.87
604.268	35091.58
604.625	35136.77
604.983	35386.03
605.341	35371.12
605.698	35787.38
606.056	35731.79
606.413	35982.4
606.771	36247.71
607.128	36393.01
607.485	36280.25
607.843	36707.35
608.2	36898.31
608.557	37116.83
608.914	37082.03
609.272	37291.52
609.629	37494.9
609.986	37762.24
610.343	37565.41
610.7	38124.72
611.057	38133.76
611.414	38023.25
611.771	38321.1
612.127	38521.09
612.484	38474.77
612.841	38736.45
613.198	38725.61
613.554	38881.99
613.911	39279.49
614.267	39179.83
614.624	39255.31
614.98	39327.4
615.337	39714.28
615.693	39681.29
616.05	39668.63
616.406	40118.34
616.762	39945.69
617.118	39895.97
617.475	40125.34
617.831	40370.08
618.187	40347.03
618.543	40442.62
618.899	40682.84
619.255	40799.9
619.611	40768.49
619.967	40873.12
620.323	41116.73
620.678	41006.45
621.034	40953.8
621.39	41044.42
621.746	40997.64
622.101	41504.52
622.457	41310.17
622.812	41454.35
623.168	41356.95
623.523	41560.33
623.879	41735.47
624.234	41330.06
624.589	41685.3
624.945	41760.78
625.3	41821.57
625.655	41824.51
626.01	41945.18
626.365	42072.18
626.72	41826.32
627.075	42083.48
627.43	42119.19
627.785	42074.9
628.14	42142.69
628.495	42232.86
628.85	42263.14
629.205	42015.24
629.559	42289.35
629.914	42129.81
630.269	42221.33
630.623	42169.13
630.978	42125.29
631.332	42279.41
631.687	42386.75
632.041	42213.88
632.396	42358.5
632.75	42221.33
633.104	42367.54
633.459	42182.46
633.813	42138.62
634.167	42208
634.521	42185.18
634.875	42364.15
635.229	42272.86
635.583	42137.72
635.937	42207.77
636.291	42036.71
636.645	42165.97
636.999	42087.55
637.352	42298.17
637.706	41953.32
638.06	42121.9
638.413	42010.72
638.767	41902.25
639.121	42058.4
639.474	41821.12
639.828	41877.39
640.181	41999.87
640.534	42067.21
640.888	41843.94
641.241	41723.95
641.594	41713.78
641.947	41948.35
642.301	41735.92
642.654	41918.52
643.007	41901.57
643.36	41900.89
643.713	41747.22
644.066	41861.79
644.419	41650.27
644.771	41358.08
645.124	41029.27
645.477	40942.95
645.83	40831.09
646.182	40761.48
646.535	40599.23
646.888	40549.29
647.24	40425.9
647.593	40731.2
647.945	40438.56
648.298	40395.17
648.65	40412.12
649.002	40296.64
649.355	40522.85
649.707	40453.24
650.059	40662.73
650.411	41045.77
650.763	41006.22
651.115	41501.35
651.467	41163.73
651.819	41382.94
652.171	41271.98
652.523	41120.8
652.875	41128.48
653.227	41036.28
653.578	41234.69
653.93	41177.52
654.282	41041.03
654.633	40930.75
654.985	41084.41
655.337	40976.62
655.688	41113.57
656.039	41186.33
656.391	40829.73
656.742	40999.22
657.094	41006.22
657.445	41182.72
657.796	40963.97
658.147	40988.82
658.498	40952.44
658.849	40894.59
659.2	40840.13
659.551	40881.48
659.902	40988.15
660.253	40864.53
660.604	40943.17
660.955	40676.29
661.306	40976.17
661.656	40804.2
662.007	40944.76
662.358	40866.11
662.708	40857.75
663.059	40736.85
663.409	40504.99
663.76	40880.58
664.11	40795.83
664.461	40759.68
664.811	40849.84
665.161	40815.72
665.511	40696.85
665.862	40747.7
666.212	40884.65
666.562	40735.5
666.912	40702.28
667.262	40696.4
667.612	40722.16
667.962	40823.86
668.312	40705.22
668.662	40987.47
669.011	40757.42
669.361	40660.92
669.711	40793.57
670.06	40683.07
670.41	40572.79
670.76	40528.27
671.109	40648.04
671.459	40479.23
671.808	40385.68
672.157	40690.3
672.507	40417.99
672.856	40440.59
673.205	40424.77
673.554	40507.48
673.904	40327.37
674.253	40557.42
674.602	40435.39
674.951	39989.75
675.3	39716.31
675.649	40496.18
675.998	40515.39
676.346	40432
676.695	40620.92
677.044	40136.87
677.393	40269.29
677.741	40415.96
678.09	40274.72
678.438	40089.86
678.787	40223.42
679.135	40267.49
679.484	39978.45
679.832	40241.5
680.181	39951.79
680.529	40117.21
680.877	39950.88
681.225	39770.78
681.573	40024.1
681.922	39884.9
682.27	39600.61
682.618	39762.64
682.966	39617.56
683.314	39552.25
683.661	39545.25
684.009	39289.66
684.357	39306.16
684.705	39304.12
685.053	39277.68
685.4	39206.05
685.748	38993.4
686.095	38910.69
686.443	38985.26
686.79	38756.57
687.138	38780.75
687.485	39033.17
687.832	38831.37
688.18	38776.9
688.527	38669.79
688.874	38653.29
689.221	38645.83
689.568	38492.17
689.915	38464.37
690.262	38504.14
690.609	38237.03
690.956	38168.56
691.303	38101.22
691.65	37992.52
691.997	37961.33
692.344	37920.66
692.69	37861.45
693.037	37860.09
693.383	37484.51
693.73	37576.94
694.077	37378.3
694.423	37392.99
694.769	37235.48
695.116	37171.52
695.462	37238.19
695.808	37003.17
696.155	37105.99
696.501	36713.68
696.847	36719.56
697.193	36691.08
697.539	36714.13
697.885	36506
698.231	36419.68
698.577	36308.95
698.923	36192.79
699.269	36206.58
699.614	35935.62
699.96	35957.77
700.306	35906.92
700.651	35701.28
700.997	35598.68
701.342	35604.78
701.688	35482.53
702.033	35341.29
702.379	35353.04
702.724	35376.54
703.069	35427.16
703.415	34965.03
703.76	34983.11
704.105	34980.62
704.45	34934.97
704.795	34563.23
705.14	34574.98
705.485	34705.37
705.83	34568.88
706.175	34403.01
706.52	34466.51
706.865	34339.28
707.209	34208.89
707.554	34094.54
707.899	34258.15
708.243	33866.98
708.588	33896.35
708.932	33732.74
709.277	33631.73
709.621	33750.37
709.966	33473.99
710.31	33533.43
710.654	33299.99
710.998	33343.15
711.342	33362.58
711.687	33303.6
712.031	33138.41
712.375	33035.59
712.719	33086.88
713.063	33069.03
713.407	33121.23
713.75	32976.6
714.094	32962.14
714.438	32729.15
714.782	32817.96
715.125	32665.43
715.469	32806.67
715.812	32580.68
716.156	32390.86
716.499	32464.08
716.843	32456.39
717.186	32260.01
717.53	32457.75
717.873	32361.48
718.216	32191.09
718.559	32126.46
718.902	31883.98
719.246	31926.46
719.589	31788.16
719.932	31765.79
720.275	31834.94
720.617	31756.75
720.96	31697.99
721.303	31640.37
721.646	31705.68
721.989	31513.59
722.331	31568.51
722.674	31331
723.016	31310.21
723.359	31434.27
723.701	31334.16
724.044	31034.28
724.386	31019.82
724.729	31247.84
725.071	31101.17
725.413	31028.86
725.755	30974.4
726.097	30898.69
726.439	30873.16
726.782	30790
727.124	30939.6
727.465	30777.79
727.807	30686.5
728.149	30690.11
728.491	30544.35
728.833	30694.18
729.175	30568.31
729.516	30498.7
729.858	30391.59
730.199	30391.14
730.541	30321.99
730.882	30287.18
731.224	30406.5
731.565	30166.28
731.906	30100.07
732.248	30150.24
732.589	30024.14
732.93	29955.89
733.271	29915.67
733.612	29992.95
733.953	29922.22
734.294	29809.91
734.635	29763.58
734.976	29892.62
735.317	29604.26
735.658	29677.48
735.999	29674.54
736.339	29550.48
736.68	29712.51
737.021	29536.02
737.361	29429.13
737.702	29655.34
738.042	29344.38
738.383	29363.37
738.723	29496.24
739.063	29345.97
739.404	29467.77
739.744	29219.64
740.084	29053.54
740.424	29155.01
740.764	29151.85
741.104	29175.8
741.444	28903.49
741.784	28895.13
742.124	28991.62
742.464	28868.69
742.804	28844.96
743.143	28830.72
743.483	28878.18
743.823	28674.12
744.162	28732.2
744.502	28670.28
744.841	28564.07
745.181	28680.67
745.52	28535.37
745.86	28472.32
746.199	28483.84
746.538	28422.6
746.877	28573.78
747.216	28432.77
747.556	28369.95
747.895	28364.97
748.234	28289.5
748.573	28237.29
748.911	28156.84
749.25	28106
749.589	27973.8
749.928	28069.39
750.267	28091.08
750.605	28015.61
750.944	27890.41
751.283	27758.89
751.621	27851.54
751.96	27683.41
752.298	27684.99
752.636	27693.35
752.975	27559.35
753.313	27472.79
753.651	27520.93
753.989	27424.21
754.327	27295.4
754.666	27203.42
755.004	27301.73
755.342	27278.45
755.679	27241.84
756.017	27023.77
756.355	27027.38
756.693	27073.26
757.031	27033.03
757.368	26795.52
757.706	26838.23
758.044	26762.08
758.381	26817.9
758.719	26706.26
759.056	26724.79
759.394	26561.63
759.731	26442.99
760.068	26396.21
760.405	26219.72
760.743	26232.83
761.08	26320.06
761.417	26127.75
761.754	26078.25
762.091	25953.51
762.428	25932.04
762.765	25751.48
763.102	25906.28
763.438	25687.53
763.775	25672.39
764.112	25555.1
764.449	25588.78
764.785	25457.93
765.122	25245.51
765.458	25191.95
765.795	25135.45
766.131	25165.96
766.467	24920.77
766.804	24801.23
767.14	24879.64
767.476	24877.16
767.812	24768.91
768.148	24705.86
768.485	24532.98
768.821	24395.14
769.157	24314.01
769.492	24393.55
769.828	24379.09
770.164	24086.22
770.5	24083.28
770.836	24061.36
771.171	23802.38
771.507	23987.69
771.842	23655.27
772.178	23706.79
772.513	23569.17
772.849	23545.21
773.184	23483.07
773.519	23477.42
773.855	23244.21
774.19	23310.42
774.525	23055.51
774.86	23125.56
775.195	23079.46
775.53	22966.02
775.865	22828.62
776.2	22586.14
776.535	22526.03
776.87	22508.18
777.205	22495.07
777.539	22255.3
777.874	22350.44
778.209	22180.28
778.543	22114.74
778.878	21986.16
779.212	21982.54
779.547	21895.77
779.881	21870.23
780.215	21685.6
780.55	21809.67
780.884	21576.9
781.218	21560.18
781.552	21588.66
781.886	21332.17
782.22	21350.7
782.554	21317.02
782.888	21082.45
783.222	21039.52
783.556	20880.2
783.889	20915.45
784.223	20679.3
784.557	20745.06
784.89	20689.24
785.224	20503.49
785.557	20461.68
785.891	20371.06
786.224	20357.95
786.558	20316.15
786.891	20207.22
787.224	20068.47
787.557	19987.79
787.891	20051.75
788.224	20061.92
788.557	19978.53
788.89	19911.41
789.223	19779.21
789.556	19694.69
789.888	19613.57
790.221	19610.18
790.554	19564.98
790.887	19502.61
791.219	19407.24
791.552	19256.97
791.884	19207.25
792.217	19123.41
792.549	19042.28
792.882	18924.77
793.214	18938.78
793.546	18972.68
793.879	18804.1
794.211	18698.11
794.543	18684.55
794.875	18670.09
795.207	18722.29
795.539	18554.84
795.871	18596.42
796.203	18348.29
796.535	18270.1
796.867	18289.31
797.198	18235.07
797.53	18129.76
797.862	18083.66
798.193	18157.56
798.525	17888.87
798.856	18004.79
799.188	17762.99
799.519	17770
799.85	17651.13
800.182	17644.35
800.513	17621.08
800.844	17458.14
801.175	17586.95
801.506	17496.79
801.837	17443.91
802.168	17445.26
802.499	17310.58
802.83	17243.46
803.161	17234.42
803.491	17204.82
803.822	17141.77
804.153	17052.96
804.483	16939.96
804.814	16869.46
805.145	16898.16
805.475	16795.34
805.805	16748.56
806.136	16783.58
806.466	16812.74
806.796	16838.05
807.126	16551.27
807.457	16542.69
807.787	16550.37
808.117	16459.3
808.447	16351.28
808.777	16439.86
809.107	16344.73
809.436	16335.23
809.766	16279.87
810.096	16220.44
810.426	16124.17
810.755	16203.94
811.085	16098.18
811.414	16109.7
811.744	15862.7
812.073	15917.62
812.403	15927.56
812.732	15822.48
813.061	15810.5
813.39	15743.16
813.719	15740.9
814.049	15800.33
814.378	15694.12
814.707	15567.8
815.036	15539.32
815.365	15387.91
815.693	15419.55
816.022	15424.52
816.351	15415.03
816.68	15213.91
817.008	15320.8
817.337	15130.52
817.665	15118.77
817.994	15180.69
818.322	15290.29
818.651	15029.28
818.979	14987.7
819.307	15037.19
819.636	14973.69
819.964	14952.9
820.292	14955.16
820.62	15021.14
820.948	14962.16
821.276	15065.66
821.604	14918.77
821.932	14953.35
822.259	14871.77
822.587	14895.72
822.915	14930.3
823.243	14895.05
823.57	14814.6
823.898	14896.85
824.225	14816.63
824.553	14810.3
824.88	14870.87
825.207	14872.45
825.535	14774.15
825.862	14932.56
826.189	14784.77
826.516	14918.55
826.843	14884.65
827.17	14891.88
827.497	14856.4
827.824	14886.46
828.151	14883.52
828.478	14865.89
828.805	14905.22
829.131	14817.53
829.458	14746.35
829.785	14798.33
830.111	14784.77
830.438	14839.23
830.764	14807.59
831.09	14845.33
831.417	14716.75
831.743	14785.44
832.069	14769.17
832.395	14668.39
832.722	14755.39
833.048	14681.49
833.374	14709.29
833.7	14601.49
834.026	14624.77
834.351	14698.89
834.677	14571.66
835.003	14651.44
835.329	14678.78
835.654	14523.53
835.98	14500.25
836.306	14610.31
836.631	14508.39
836.956	14528.73
837.282	14505.23
837.607	14495.73
837.932	14314.95
838.258	14473.81
838.583	14363.53
838.908	14312.01
839.233	14349.3
839.558	14288.06
839.883	14239.02
840.208	14256.87
840.533	14168.96
840.858	14195.18
841.182	14256.19
841.507	14157.89
841.832	14116.76
842.156	14110.89
842.481	14107.04
842.805	14075.86
843.13	14024.79
843.454	13994.05
843.778	13851.68
844.103	13871.34
844.427	13855.75
844.751	13861.85
845.075	13817.11
845.399	13747.28
845.723	13649.2
846.047	13722.42
846.371	13558.36
846.695	13614.18
847.019	13432.26
847.343	13454.41
847.666	13378.48
847.99	13296.44
848.313	13345.48
848.637	13227.07
848.96	13240.63
849.284	13208.99
849.607	13105.94
849.931	13071.14
850.254	12946.85
850.577	12894.65
850.9	12769.45
851.223	12775.55
851.546	12730.13
851.869	12590.25
852.192	12646.97
852.515	12513.64
852.838	12419.86
853.161	12523.36
853.483	12456.69
853.806	12490.36
854.129	12429.57
854.451	12314.32
854.774	12317.26
855.096	12279.3
855.419	12195.46
855.741	12240.65
856.063	12060.54
856.385	12108.68
856.708	12081.11
857.03	12064.39
857.352	11973.99
857.674	11929.02
857.996	11889.25
858.318	11876.37
858.64	11887.22
858.961	11773.09
859.283	11734.23
859.605	11734.9
859.926	11754.79
860.248	11671.4
860.57	11672.08
860.891	11641.35
861.212	11576.04
861.534	11569.03
861.855	11565.42
862.176	11578.75
862.498	11516.15
862.819	11510.05
863.14	11402.71
863.461	11423.95
863.782	11381.01
864.103	11392.09
864.424	11287.01
864.745	11286.78
865.065	11289.04
865.386	11241.81
865.707	11293.11
866.027	11235.03
866.348	11199.1
866.668	11214.69
866.989	11119.1
867.309	11168.59
867.63	11102.15
867.95	11162.71
868.27	10996.39
868.59	11094.02
868.91	11067.8
869.23	11096.73
869.55	11024.87
869.87	11045.43
870.19	10975.83
870.51	10999.56
870.83	11004.3
871.15	10900.35
871.469	10929.95
871.789	10922.5
872.109	10943.51
872.428	10901.03
872.748	10915.04
873.067	10771.99
873.386	10861.48
873.706	10864.64
874.025	10753.91
874.344	10726.34
874.663	10768.15
874.982	10685.21
875.301	10735.61
875.62	10686.34
875.939	10685.44
876.258	10675.04
876.577	10644.31
876.896	10615.61
877.214	10589.85
877.533	10582.84
877.852	10604.99
878.17	10567.48
878.489	10572
878.807	10548.95
879.125	10569.06
879.444	10511.88
879.762	10435.73
880.08	10441.15
880.398	10436.18
880.716	10425.33
881.034	10387.59
881.352	10405.67
881.67	10301.04
881.988	10362.28
882.306	10293.81
882.624	10292.68
882.941	10252.68
883.259	10206.81
883.577	10196.41
883.894	10191.67
884.212	10169.07
884.529	10114.61
884.846	10102.63
885.164	10125.23
885.481	10091.1
885.798	10104.66
886.115	9950.32
886.432	10016.53
886.75	9959.36
887.067	9961.39
887.383	9902.86
887.7	9909.41
888.017	9906.02
888.334	9875.74
888.651	9809.53
888.967	9833.03
889.284	9787.61
889.6	9721.17
889.917	9638.91
890.233	9686.82
890.55	9705.58
890.866	9643.21
891.182	9568.86
891.498	9544.23
891.815	9568.63
892.131	9523.44
892.447	9532.48
892.763	9528.18
893.079	9445.25
893.395	9352.59
893.71	9313.5
894.026	9369.54
894.342	9367.73
894.657	9291.8
894.973	9261.52
895.289	9235.53
895.604	9264.01
895.92	9184.24
896.235	9135.2
896.55	9130.45
896.865	9060.4
897.181	9034.86
897.496	9078.48
897.811	8916.67
898.126	8997.8
898.441	8910.57
898.756	8902.89
899.071	8799.16
899.386	8861.76
899.7	8726.85
900.015	8723.46
900.33	8663.8
900.644	8655.21
900.959	8777.92
901.273	8628.32
901.588	8597.81
901.902	8500.19
902.216	8577.25
902.531	8511.71
902.845	8560.75
903.159	8427.87
903.473	8401.43
903.787	8359.17
904.101	8348.33
904.415	8380.87
904.729	8326.63
905.042	8285.5
905.356	8269.01
905.67	8179.97
905.984	8245.05
906.297	8212.28
906.611	8138.39
906.924	8127.09
907.237	8104.72
907.551	8121.66
907.864	8008.67
908.177	7995.57
908.491	7941.1
908.804	7933.2
909.117	7876.93
909.43	7883.48
909.743	7807.32
910.056	7822.01
910.368	7790.6
910.681	7695.24
910.994	7645.07
911.307	7667.89
911.619	7574.56
911.932	7676.25
912.244	7533.66
912.557	7575.24
912.869	7504.28
913.181	7415.24
913.494	7458.86
913.806	7415.47
914.118	7401.01
914.43	7363.04
914.742	7333.21
915.054	7292.76
915.366	7276.94
915.678	7253.67
915.99	7212.76
916.302	7147.68
916.613	7131.41
916.925	7086.21
917.236	7071.3
917.548	7095.48
917.859	7101.58
918.171	6994.46
918.482	6953.11
918.794	6958.98
919.105	6933.22
919.416	6875.14
919.727	6875.14
920.038	6836.95
920.349	6791.08
920.66	6802.38
920.971	6777.52
921.282	6770.06
921.593	6690.06
921.903	6620.69
922.214	6595.38
922.525	6582.95
922.835	6570.29
923.146	6535.49
923.456	6556.06
923.767	6485.32
924.077	6470.41
924.387	6401.03
924.697	6368.26
925.008	6369.17
925.318	6386.34
925.628	6301.6
925.938	6272.67
926.248	6310.19
926.558	6241.94
926.867	6224.09
927.177	6171.66
927.487	6124.66
927.796	6129.4
928.106	6114.49
928.416	6072.45
928.725	6091.21
929.034	6020.03
929.344	6073.13
929.653	5990.65
929.962	5900.25
930.271	5896.64
930.581	5888.28
930.89	5831.78
931.199	5850.76
931.508	5817.32
931.817	5807.83
932.125	5798.56
932.434	5751.11
932.743	5709.53
933.051	5657.55
933.36	5642.86
933.669	5594.27
933.977	5651.22
934.286	5665.23
934.594	5533.71
934.902	5578
935.21	5532.35
935.519	5496.2
935.827	5440.38
936.135	5475.86
936.443	5493.49
936.751	5414.62
937.059	5412.13
937.367	5378.69
937.674	5363.77
937.982	5301.85
938.29	5331
938.597	5330.1
938.905	5241.29
939.213	5223.21
939.52	5185.7
939.827	5250.55
940.135	5161.74
940.442	5169.2
940.749	5124
941.056	5151.8
941.363	5050.33
941.67	5050.33
941.977	5053.5
942.284	5005.59
942.591	5052.37
942.898	4942.31
943.205	5006.94
943.511	4915.2
943.818	4951.8
944.125	4872.26
944.431	4871.13
944.738	4846.5
945.044	4888.76
945.35	4808.76
945.657	4771.02
945.963	4754.97
946.269	4732.83
946.575	4708.87
946.881	4700.51
947.187	4667.29
947.493	4653.51
947.799	4626.39
948.105	4639.04
948.41	4610.12
948.716	4618.03
949.022	4514.75
949.327	4559.72
949.633	4472.27
949.938	4504.36
950.244	4505.04
950.549	4488.09
950.854	4426.17
951.16	4453.96
951.465	4412.61
951.77	4394.31
952.075	4343.01
952.38	4369.22
952.685	4355.21
952.99	4284.7
953.294	4302.1
953.599	4272.27
953.904	4223.69
954.209	4178.27
954.513	4240.41
954.818	4182.33
955.122	4184.82
955.426	4177.81
955.731	4116.57
956.035	4119.96
956.339	4094.65
956.643	4075.9
956.948	4009
957.252	4085.84
957.556	4022.56
957.86	4024.82
958.163	4025.73
958.467	3973.53
958.771	3957.25
959.075	3928.55
959.378	3917.03
959.682	3915
959.985	3911.61
960.289	3871.83
960.592	3839.52
960.896	3868.9
961.199	3843.81
961.502	3819.41
961.805	3807.2
962.108	3784.15
962.411	3768.33
962.714	3723.14
963.017	3740.99
963.32	3732.85
963.623	3719.07
963.926	3728.56
964.228	3706.19
964.531	3639.3
964.833	3670.48
965.136	3637.72
965.438	3617.38
965.741	3603.14
966.043	3598.17
966.345	3584.38
966.648	3523.82
966.95	3526.31
967.252	3525.85
967.554	3519.3
967.856	3513.65
968.158	3461.9
968.46	3460.54
968.761	3461.67
969.063	3475.23
969.365	3411.96
969.666	3410.83
969.968	3362.47
970.269	3370.38
970.571	3344.39
970.872	3353.65
971.174	3285.63
971.475	3297.84
971.776	3306.88
972.077	3254.45
972.378	3257.39
972.679	3246.31
972.98	3271.85
973.281	3243.15
973.582	3209.93
973.883	3185.3
974.183	3190.95
974.484	3201.34
974.785	3142.81
975.085	3155.69
975.386	3123.15
975.686	3079.54
975.986	3092.19
976.287	3075.92
976.587	3068.24
976.887	3024.17
977.187	3051.74
977.487	3065.98
977.787	3048.35
978.087	3018.75
978.387	2967
978.687	2972.65
978.987	2951.63
979.286	2908.47
979.586	2956.6
979.885	2896.49
980.185	2887.45
980.484	2915.47
980.784	2903.72
981.083	2875.02
981.382	2840.22
981.682	2858.3
981.981	2853.33
982.28	2824.86
982.579	2763.16
982.878	2797.06
983.177	2785.08
983.475	2757.74
983.774	2764.07
984.073	2762.03
984.372	2709.38
984.67	2733.56
984.969	2705.99
985.267	2682.71
985.566	2694.92
985.864	2644.29
986.162	2637.52
986.461	2617.85
986.759	2619.44
987.057	2620.57
987.355	2612.88
987.653	2644.29
987.951	2606.78
988.249	2587.8
988.547	2560.46
988.844	2555.94
989.142	2568.36
989.44	2537.63
989.737	2546.9
990.035	2503.96
990.332	2499.44
990.63	2486.33
990.927	2469.61
991.224	2482.94
991.521	2442.49
991.819	2426.22
992.116	2416.5
992.413	2400.69
992.71	2399.1
993.006	2409.72
993.303	2417.18
993.6	2374.02
993.897	2351.2
994.193	2365.21
994.49	2357.3
994.787	2321.14
995.083	2321.59
995.379	2308.48
995.676	2291.08
995.972	2281.37
996.268	2278.43
996.565	2249.73
996.861	2264.19
997.157	2235.94
997.453	2237.75
997.749	2209.5
998.044	2178.54
998.34	2222.39
998.636	2175.83
998.932	2161.6
999.227	2190.75
999.523	2168.15
999.818	2132.22
1000.114	2142.16
1000.409	2144.87
1000.704	2109.85
1001	2094.03
1001.295	2086.12
1001.59	2076.63
1001.885	2094.48
1002.18	2049.06
1002.475	2007.7
1002.77	2039.57
1003.065	2029.62
1003.359	2015.38
1003.654	2005.89
1003.949	1965.44
1004.243	1996.85
1004.538	1963.41
1004.832	1950.3
1005.127	1988.49
1005.421	1936.52
1005.715	1949.4
1006.009	1941.71
1006.304	1919.57
1006.598	1907.14
1006.892	1911.21
1007.186	1864.2
1007.48	1862.39
1007.773	1849.06
1008.067	1853.36
1008.361	1840.02
1008.655	1789.85
1008.948	1790.98
1009.242	1787.82
1009.535	1809.74
1009.829	1783.07
1010.122	1766.58
1010.415	1770.87
1010.708	1756.41
1011.001	1755.5
1011.295	1752.11
1011.588	1726.8
1011.881	1703.3
1012.173	1719.35
1012.466	1732.23
1012.759	1705.11
1013.052	1696.52
1013.344	1694.72
1013.637	1655.85
1013.93	1643.87
1014.222	1638.67
1014.514	1638.9
1014.807	1621.95
1015.099	1637.54
1015.391	1605.45
1015.683	1570.88
1015.976	1582.85
1016.268	1583.98
1016.56	1555.74
1016.851	1545.34
1017.143	1554.83
1017.435	1537.43
1017.727	1519.8
1018.018	1522.06
1018.31	1522.97
1018.602	1503.53
1018.893	1476.64
1019.185	1478.9
1019.476	1479.58
1019.767	1463.08
1020.058	1457.21
1020.35	1449.3
1020.641	1412.91
1020.932	1424.44
1021.223	1417.21
1021.514	1417.21
1021.804	1387.15
1022.095	1372.69
1022.386	1388.96
1022.677	1376.08
1022.967	1363.42
1023.258	1330.21
1023.548	1333.59
1023.839	1329.08
1024.129	1301.51
1024.419	1314.61
1024.709	1303.99
1025	1288.62
1025.29	1293.37
1025.58	1286.59
1025.87	1261.05
1026.16	1281.84
1026.449	1236.2
1026.739	1248.85
1027.029	1239.36
1027.319	1221.96
1027.608	1249.3
1027.898	1228.29
1028.187	1210.66
1028.477	1182.64
1028.766	1163.2
1029.055	1198.46
1029.344	1180.38
1029.634	1171.11
1029.923	1172.92
1030.212	1147.61
1030.501	1130.21
1030.79	1161.17
1031.078	1118.46
1031.367	1151
1031.656	1115.97
1031.945	1111.68
1032.233	1114.62
1032.522	1114.39
1032.81	1086.82
1033.099	1086.6
1033.387	1076.65
1033.675	1061.06
1033.963	1072.13
1034.251	1080.04
1034.54	1073.04
1034.828	1038.91
1035.116	1031
1035.403	1031.91
1035.691	1043.66
1035.979	1014.06
1036.267	1000.04
1036.554	1002.76
1036.842	985.13
1037.129	1005.24
1037.417	990.55
1037.704	998.01
1037.992	1002.53
1038.279	963.21
1038.566	940.38
1038.853	940.38
1039.14	940.38
