Data from hue_220_FLMS001491_00085.txt Node
Date: Tue Feb 07 16:40:03 GMT 2017
User: dcchb
Spectrometer: FLMS00149
Trigger mode: 0
Integration Time (sec): 2.000000E-2
Scans to average: 10
Electric dark correction enabled: true
Nonlinearity correction enabled: false
Boxcar width: 0
XAxis mode: Wavelengths
Number of Pixels in Spectrum: 2048
>>>>>Begin Spectral Data<<<<<
341.393	-18.29
341.776	-18.29
342.16	-18.29
342.543	-57.61
342.927	-56.26
343.31	-48.12
343.693	-74.56
344.077	-72.3
344.46	-56.48
344.843	-48.12
345.226	-62.13
345.61	-25.52
345.993	-33.21
346.376	-5.18
346.759	4.31
347.142	25.1
347.525	48.15
347.908	56.51
348.291	63.97
348.674	96.51
349.057	131.08
349.44	114.36
349.823	143.06
350.206	174.25
350.588	206.11
350.971	214.92
351.354	221.7
351.737	228.93
352.119	241.36
352.502	260.8
352.884	282.49
353.267	276.17
353.65	296.5
354.032	292.44
354.414	293.11
354.797	316.62
355.179	332.43
355.562	319.33
355.944	300.8
356.326	324.07
356.709	329.72
357.091	319.33
357.473	333.79
357.855	335.82
358.238	349.16
358.62	325.43
359.002	335.6
359.384	346.9
359.766	331.53
360.148	327.24
360.53	332.66
360.912	312.32
361.294	330.85
361.676	335.6
362.057	330.63
362.439	336.05
362.821	320.46
363.203	319.55
363.584	334.47
363.966	312.1
364.348	319.33
364.729	327.69
365.111	339.67
365.493	313
365.874	320.46
366.256	319.55
366.637	304.86
367.019	300.12
367.4	302.38
367.781	307.12
368.163	325.43
368.544	315.94
368.925	299.67
369.306	326.33
369.688	312.55
370.069	313.68
370.45	330.4
370.831	309.61
371.212	321.81
371.593	315.49
371.974	304.64
372.355	339.44
372.736	318.65
373.117	297.18
373.498	307.58
373.879	305.77
374.26	325.66
374.641	320.01
375.021	327.46
375.402	323.85
375.783	298.99
376.163	329.27
376.544	336.95
376.925	308.93
377.305	312.77
377.686	338.76
378.066	321.81
378.447	318.42
378.827	323.4
379.208	323.62
379.588	354.58
379.968	332.89
380.349	326.56
380.729	338.76
381.109	334.69
381.489	345.32
381.87	322.72
382.25	327.24
382.63	324.3
383.01	352.55
383.39	359.55
383.77	349.16
384.15	347.58
384.53	337.86
384.91	337.86
385.29	323.85
385.67	334.47
386.049	342.38
386.429	331.3
386.809	362.04
387.189	350.06
387.568	364.98
387.948	346.45
388.328	344.19
388.707	357.07
389.087	346.45
389.466	369.95
389.846	353.9
390.225	374.69
390.605	351.19
390.984	367.91
391.363	353.68
391.743	347.58
392.122	394.35
392.501	378.08
392.881	371.3
393.26	357.74
393.639	399.1
394.018	384.18
394.397	369.04
394.776	381.92
395.155	385.77
395.534	381.25
395.913	374.24
396.292	365.65
396.671	371.76
397.05	384.64
397.429	405.65
397.808	393.45
398.186	396.61
398.565	395.03
398.944	392.32
399.323	399.33
399.701	396.39
400.08	409.27
400.458	404.98
400.837	402.49
401.215	428.48
401.594	409.27
401.972	417.18
402.351	434.35
402.729	402.04
403.107	424.64
403.486	425.31
403.864	435.93
404.242	443.62
404.62	447.91
404.999	464.41
405.377	449.95
405.755	444.75
406.133	454.01
406.511	460.12
406.889	443.84
407.267	469.61
407.645	467.57
408.023	468.02
408.401	489.04
408.779	482.26
409.156	489.49
409.534	499.44
409.912	493.11
410.29	518.87
410.667	514.12
411.045	551.19
411.422	533.33
411.8	522.26
412.178	542.6
412.555	552.09
412.933	556.61
413.31	549.38
413.687	583.73
414.065	581.92
414.442	566.1
414.819	588.93
415.197	615.82
415.574	607.91
415.951	619.21
416.328	627.79
416.705	647.45
417.082	669.38
417.46	653.1
417.837	670.96
418.214	673.67
418.591	684.06
418.967	685.19
419.344	706.89
419.721	720.22
420.098	714.8
420.475	727
420.852	720
421.228	745.98
421.605	778.52
421.982	736.49
422.358	779.88
422.735	773.1
423.111	804.96
423.488	815.13
423.864	837.05
424.241	834.12
424.617	845.64
424.994	864.17
425.37	862.14
425.746	882.48
426.123	885.19
426.499	899.88
426.875	901.69
427.251	935.13
427.627	935.58
428.003	948.92
428.379	953.21
428.756	981.68
429.132	983.94
429.507	1000.89
429.883	1005.86
430.259	1043.6
430.635	1040.21
431.011	1038.86
431.387	1059.42
431.763	1098.06
432.138	1100.1
432.514	1135.8
432.89	1127.22
433.265	1158.63
433.641	1169.93
434.016	1175.12
434.392	1202.69
434.767	1224.84
435.143	1234.78
435.518	1262.81
435.894	1266.2
436.269	1320.66
436.644	1362.46
437.02	1361.56
437.395	1394.78
437.77	1397.49
438.145	1397.49
438.52	1412.63
438.895	1457.83
439.271	1471.39
439.646	1496.7
440.021	1549.13
440.395	1531.73
440.77	1526.98
441.145	1564.27
441.52	1597.71
441.895	1609.01
442.27	1642.68
442.645	1636.58
443.019	1627.09
443.394	1655.34
443.769	1674.32
444.143	1680.87
444.518	1709.12
444.892	1699.86
445.267	1734.43
445.641	1741.21
446.016	1753.64
446.39	1769.01
446.764	1755
447.139	1794.77
447.513	1803.36
447.887	1820.76
448.262	1823.92
448.636	1826.41
449.01	1874.54
449.384	1875.22
449.758	1899.4
450.132	1908.21
450.506	1962.9
450.88	1918.38
451.254	1926.07
451.628	1961.77
452.002	2013.52
452.376	2019.62
452.75	1989.79
453.123	2042.45
453.497	2051.94
453.871	2100.98
454.244	2127.64
454.618	2135.55
454.992	2169.9
455.365	2133.52
455.739	2208.54
456.112	2244.02
456.486	2235.44
456.859	2218.49
457.232	2321.99
457.606	2291.93
457.979	2328.54
458.352	2397.69
458.725	2388.43
459.099	2385.71
459.472	2445.15
459.845	2460.06
460.218	2483.11
460.591	2507.74
460.964	2501.87
461.337	2557.46
461.71	2609.66
462.083	2654.18
462.456	2616.44
462.829	2674.97
463.201	2699.15
463.574	2726.5
463.947	2705.93
464.32	2768.98
464.692	2814.86
465.065	2853.05
465.438	2830.67
465.81	2873.38
466.183	2898.47
466.555	3007.84
466.928	2962.65
467.3	2978.92
467.672	3069.54
468.045	3105.47
468.417	3070.67
468.789	3130.33
469.161	3183.21
469.534	3207.61
469.906	3258.69
470.278	3314.05
470.65	3328.74
471.022	3344.11
471.394	3438.12
471.766	3462.07
472.138	3500.04
472.51	3575.06
472.882	3600.82
473.253	3665.91
473.625	3668.62
473.997	3719.24
474.369	3747.26
474.74	3795.39
475.112	3868.39
475.484	3917.88
475.855	3943.41
476.227	3946.8
476.598	4127.59
476.97	4125.1
477.341	4150.64
477.713	4200.81
478.084	4272.67
478.455	4350.63
478.827	4396.96
479.198	4500.91
479.569	4493.91
479.94	4590.4
480.311	4642.38
480.682	4714.24
481.053	4826.33
481.424	4903.16
481.795	4906.33
482.166	4942.48
482.537	5045.98
482.908	5131.18
483.279	5154
483.65	5225.19
484.021	5350.83
484.391	5301.12
484.762	5436.93
485.133	5444.62
485.503	5478.51
485.874	5618.62
486.244	5613.43
486.615	5760.77
486.985	5790.37
487.356	5852.29
487.726	5900.65
488.097	5998.73
488.467	6031.72
488.837	6171.6
489.207	6226.52
489.578	6291.6
489.948	6355.33
490.318	6431.26
490.688	6386.51
491.058	6501.09
491.428	6543.34
491.798	6599.61
492.168	6753.51
492.538	6694.53
492.908	6770.46
493.278	6830.57
493.648	6881.19
494.017	6941.98
494.387	6986.5
494.757	7005.93
495.126	7077.57
495.496	7105.36
495.866	7140.62
496.235	7186.04
496.605	7247.51
496.974	7229.65
497.344	7255.19
497.713	7315.3
498.082	7353.49
498.452	7424.68
498.821	7474.85
499.19	7412.25
499.559	7475.75
499.928	7567.72
500.298	7572.24
500.667	7630.55
501.036	7598.23
501.405	7646.82
501.774	7707.61
502.143	7687.95
502.512	7722.52
502.88	7749.64
503.249	7755.97
503.618	7745.57
503.987	7824.67
504.356	7845.91
504.724	7913.48
505.093	7930.43
505.462	7906.47
505.83	7939.01
506.199	7958.9
506.567	8103.53
506.936	8031.22
507.304	8083.19
507.672	8056.98
508.041	8088.84
508.409	8188.95
508.777	8204.09
509.145	8185.56
509.514	8223.3
509.882	8183.75
510.25	8226.24
510.618	8302.62
510.986	8292.9
511.354	8284.99
511.722	8280.7
512.09	8374.26
512.458	8354.37
512.826	8399.34
513.193	8394.6
513.561	8390.53
513.929	8394.82
514.297	8468.72
514.664	8510.75
515.032	8450.64
515.4	8465.55
515.767	8568.15
516.135	8501.94
516.502	8485.44
516.869	8591.43
517.237	8558.66
517.604	8480.02
517.972	8560.92
518.339	8554.59
518.706	8500.13
519.073	8506.91
519.44	8581.71
519.808	8678.2
520.175	8567.25
520.542	8635.27
520.909	8638.43
521.276	8634.14
521.643	8723.17
522.009	8658.09
522.376	8685.66
522.743	8678.43
523.11	8728.82
523.477	8723.17
523.843	8832.1
524.21	8816.05
524.577	8843.4
524.943	8799.33
525.31	8855.83
525.676	8931.53
526.043	8897.86
526.409	8874.58
526.776	8871.19
527.142	8823.28
527.508	8836.62
527.874	8933.79
528.241	8878.42
528.607	8848.14
528.973	8880.91
529.339	8845.66
529.705	8940.8
530.071	8955.26
530.437	8894.92
530.803	8885.43
531.169	8887.46
531.535	8912.55
531.901	8815.38
532.267	8898.54
532.632	8935.6
532.998	8889.27
533.364	8927.46
533.73	8863.28
534.095	8887.24
534.461	8872.55
534.826	8862.15
535.192	8871.42
535.557	8861.48
535.923	8784.87
536.288	8822.16
536.653	8816.51
537.019	8732.67
537.384	8749.61
537.749	8778.77
538.114	8725.66
538.479	8725.43
538.845	8717.53
539.21	8677.98
539.575	8666.68
539.94	8677.98
540.305	8716.62
540.67	8600.69
541.034	8645.21
541.399	8591.2
541.764	8593.91
542.129	8527.7
542.494	8532.67
542.858	8534.48
543.223	8485.89
543.587	8524.54
543.952	8498.1
544.316	8408.15
544.681	8421.94
545.045	8388.95
545.41	8412.9
545.774	8366.35
546.138	8268.72
546.503	8282.73
546.867	8234.37
547.231	8294.94
547.595	8268.5
547.959	8294.94
548.324	8252.45
548.688	8223.75
549.052	8200.02
549.416	8211.78
549.779	8148.27
550.143	8108.05
550.507	8102.85
550.871	8110.54
551.235	8122.29
551.599	8152.79
551.962	8064.89
552.326	8071.89
552.689	8058.33
553.053	7965.91
553.417	8004.78
553.78	8009.07
554.143	7956.64
554.507	7986.47
554.87	7937.21
555.234	7998.22
555.597	7938.34
555.96	7905.12
556.323	7954.38
556.686	7929.07
557.05	7930.88
557.413	7882.52
557.776	7880.26
558.139	7880.48
558.502	7852.69
558.865	7832.58
559.228	7892.24
559.59	7885.91
559.953	7865.8
560.316	7893.14
560.679	7895.17
561.041	7901.95
561.404	7897.21
561.767	7886.13
562.129	7826.25
562.492	7862.41
562.854	7924.1
563.217	7871.22
563.579	7925.23
563.941	7923.2
564.304	7861.73
564.666	7938.34
565.028	7914.16
565.39	7896.08
565.753	7983.76
566.115	7869.64
566.477	7972.46
566.839	7934.27
567.201	8015.85
567.563	8003.87
567.925	7994.38
568.287	8045.23
568.648	7997.09
569.01	8069.63
569.372	8045.68
569.734	8026.7
570.095	8105.56
570.457	8035.28
570.819	8104.43
571.18	8121.38
571.542	8057.43
571.903	8077.32
572.265	8113.93
572.626	8181.72
572.987	8145.11
573.349	8172.68
573.71	8190.53
574.071	8202.28
574.432	8165.45
574.794	8240.25
575.155	8300.81
575.516	8212.68
575.877	8315.95
576.238	8241.83
576.599	8340.36
576.96	8318.44
577.32	8311.89
577.681	8345.11
578.042	8407.48
578.403	8335.84
578.763	8367.48
579.124	8397.31
579.485	8418.55
579.845	8466.91
580.206	8428.72
580.566	8479.11
580.927	8461.94
581.287	8436.63
581.648	8477.98
582.008	8521.82
582.368	8554.59
582.728	8483.18
583.089	8536.96
583.449	8557.98
583.809	8574.7
584.169	8586
584.529	8575.61
584.889	8664.19
585.249	8608.83
585.609	8623.06
585.969	8651.76
586.329	8632.78
586.688	8656.51
587.048	8677.3
587.408	8678.88
587.768	8705.1
588.127	8637.53
588.487	8698.32
588.846	8795.04
589.206	8724.76
589.565	8840.01
589.925	8838.2
590.284	8786.9
590.643	8821.48
591.003	8789.39
591.362	8876.16
591.721	8833.23
592.08	8858.09
592.44	8860.12
592.799	8903.51
593.158	8863.06
593.517	8941.02
593.876	8968.37
594.235	8940.57
594.593	8864.64
594.952	8984.64
595.311	8836.62
595.67	8969.72
596.029	8973.11
596.387	9003.39
596.746	8951.42
597.104	8974.92
597.463	8962.04
597.822	8969.72
598.18	8938.54
598.538	8955.94
598.897	9069.83
599.255	9020.79
599.613	9058.53
599.972	9011.53
600.33	9082.26
600.688	9007.23
601.046	9049.49
601.404	9109.61
601.762	8993.22
602.12	9097.18
602.478	9130.85
602.836	9101.92
603.194	9037.74
603.552	9074.58
603.91	9057.86
604.268	9094.24
604.625	9011.75
604.983	9148.47
605.341	9083.17
605.698	9141.02
606.056	9076.39
606.413	9119.32
606.771	9094.92
607.128	9114.58
607.485	9112.77
607.843	9152.54
608.2	9204.07
608.557	9203.39
608.914	9170.62
609.272	9195.25
609.629	9202.26
609.986	9271.18
610.343	9113.67
610.7	9233.22
611.057	9227.79
611.414	9217.4
611.771	9228.25
612.127	9292.2
612.484	9211.3
612.841	9335.81
613.198	9241.35
613.554	9293.56
613.911	9324.51
614.267	9325.19
614.624	9225.76
614.98	9341.69
615.337	9358.86
615.693	9371.07
616.05	9355.02
616.406	9397.73
616.762	9359.99
617.118	9392.76
617.475	9353.89
617.831	9404.06
618.187	9417.17
618.543	9404.96
618.899	9406.55
619.255	9401.8
619.611	9428.24
619.967	9416.72
620.323	9442.48
620.678	9505.53
621.034	9424.4
621.39	9409.71
621.746	9375.36
622.101	9491.29
622.457	9439.09
622.812	9450.84
623.168	9442.48
623.523	9430.73
623.879	9440.67
624.234	9406.55
624.589	9415.36
624.945	9451.07
625.3	9468.92
625.655	9469.14
626.01	9487.9
626.365	9454
626.72	9427.11
627.075	9458.52
627.43	9417.62
627.785	9415.36
628.14	9438.18
628.495	9449.03
628.85	9392.99
629.205	9388.69
629.559	9471.63
629.914	9375.81
630.269	9404.74
630.623	9369.03
630.978	9381.69
631.332	9371.07
631.687	9346.66
632.041	9268.47
632.396	9327
632.75	9265.08
633.104	9301.24
633.459	9236.61
633.813	9221.92
634.167	9260.56
634.521	9289.49
634.875	9332.88
635.229	9290.62
635.583	9226.21
635.937	9166.55
636.291	9172.2
636.645	9195.7
636.999	9106.22
637.352	9131.75
637.706	9155.71
638.06	9181.24
638.413	9108.25
638.767	9212.65
639.121	9168.59
639.474	9154.12
639.828	9148.25
640.181	9109.83
640.534	9098.53
640.888	9064.63
641.241	9049.95
641.594	9039.78
641.947	9111.41
642.301	9038.65
642.654	8975.6
643.007	9038.87
643.36	9017.4
643.713	9002.94
644.066	9072.54
644.419	9028.03
644.771	8939.89
645.124	8875.26
645.477	8841.36
645.83	8829.39
646.182	8757.52
646.535	8779.22
646.888	8753.91
647.24	8688.6
647.593	8719.33
647.945	8686.57
648.298	8710.52
648.65	8682.95
649.002	8668.26
649.355	8740.35
649.707	8726.56
650.059	8763.4
650.411	8891.76
650.763	8826.45
651.115	8931.08
651.467	8904.64
651.819	8928.59
652.171	8877.07
652.523	8856.73
652.875	8918.2
653.227	8900.35
653.578	8852.66
653.93	8905.54
654.282	8841.82
654.633	8866.45
654.985	8832.32
655.337	8894.7
655.688	8895.37
656.039	8942.15
656.391	8854.92
656.742	8887.01
657.094	8862.38
657.445	8880.68
657.796	8888.82
658.147	8810.4
658.498	8911.64
658.849	8922.04
659.2	8925.43
659.551	8948.25
659.902	8992.77
660.253	8965.88
660.604	8931.08
660.955	8847.24
661.306	8958.65
661.656	8905.32
662.007	8978.76
662.358	8953.9
662.708	8913
663.059	8998.87
663.409	8908.48
663.76	8920.68
664.11	8950.06
664.461	8988.7
664.811	8991.87
665.161	8983.96
665.511	8910.29
665.862	8931.53
666.212	9017.63
666.562	8917.75
666.912	8956.61
667.262	8976.73
667.612	8973.79
667.962	9023.51
668.312	8949.61
668.662	8956.84
669.011	8958.65
669.361	8914.36
669.711	8944.64
670.06	8949.38
670.41	8946.9
670.76	8936.73
671.109	8953
671.459	8931.08
671.808	8862.38
672.157	8983.73
672.507	8900.57
672.856	8843.85
673.205	8890.18
673.554	8964.3
673.904	8834.13
674.253	8925.88
674.602	8959.78
674.951	8718.88
675.3	8767.02
675.649	8850.63
675.998	8809.5
676.346	8854.92
676.695	8878.42
677.044	8792.78
677.393	8786.9
677.741	8827.35
678.09	8763.4
678.438	8749.16
678.787	8792.33
679.135	8762.5
679.484	8740.12
679.832	8735.38
680.181	8668.26
680.529	8668.94
680.877	8677.07
681.225	8698.77
681.573	8771.31
681.922	8684.76
682.27	8624.19
682.618	8585.33
682.966	8600.92
683.314	8649.73
683.661	8544.42
684.009	8528.15
684.357	8518.66
684.705	8432.56
685.053	8461.26
685.4	8481.83
685.748	8447.93
686.095	8420.13
686.443	8409.74
686.79	8365.67
687.138	8478.21
687.485	8401.38
687.832	8382.17
688.18	8331.09
688.527	8310.98
688.874	8315.73
689.221	8228.5
689.568	8197.99
689.915	8268.05
690.262	8229.85
690.609	8157.99
690.956	8110.99
691.303	8131.78
691.65	8096.75
691.997	8147.37
692.344	8038.22
692.69	7993.7
693.037	8000.26
693.383	7901.05
693.73	7922.29
694.077	7895.4
694.423	7876.64
694.769	7860.15
695.116	7838.45
695.462	7820.83
695.808	7772.92
696.155	7780.37
696.501	7728.85
696.847	7766.82
697.193	7609.53
697.539	7672.13
697.885	7637.1
698.231	7641.4
698.577	7556.88
698.923	7532.25
699.269	7535.64
699.614	7481.85
699.96	7441.4
700.306	7423.32
700.651	7407.73
700.997	7359.82
701.342	7406.15
701.688	7322.08
702.033	7331.57
702.379	7283.89
702.724	7297.22
703.069	7320.5
703.415	7143.56
703.76	7180.84
704.105	7134.29
704.45	7143.33
704.795	7096.1
705.14	7101.3
705.485	7008.42
705.83	7049.77
706.175	7039.6
706.52	7033.28
706.865	7025.14
707.209	7010.68
707.554	6908.08
707.899	6916.89
708.243	6862.88
708.588	6886.16
708.932	6806.84
709.277	6829.21
709.621	6879.38
709.966	6757.8
710.31	6852.04
710.654	6727.07
710.998	6780.85
711.342	6745.15
711.687	6675.77
712.031	6642.1
712.375	6640.29
712.719	6611.14
713.063	6667.41
713.407	6698.14
713.75	6609.56
714.094	6613.85
714.438	6583.34
714.782	6642.78
715.125	6589.45
715.469	6573.85
715.812	6550.58
716.156	6540.41
716.499	6490.24
716.843	6502.89
717.186	6512.16
717.53	6529.11
717.873	6483.91
718.216	6522.55
718.559	6442.56
718.902	6389
719.246	6469.9
719.589	6421.31
719.932	6440.75
720.275	6410.47
720.617	6390.58
720.96	6375.21
721.303	6376.8
721.646	6405.27
721.989	6321.43
722.331	6327.98
722.674	6365.27
723.016	6386.06
723.359	6339.51
723.701	6333.41
724.044	6319.62
724.386	6295.44
724.729	6359.17
725.071	6228.32
725.413	6319.17
725.755	6266.29
726.097	6266.06
726.439	6265.84
726.782	6261.54
727.124	6249.12
727.465	6279.62
727.807	6261.09
728.149	6293.86
728.491	6247.31
728.833	6260.64
729.175	6227.65
729.516	6247.76
729.858	6210.25
730.199	6232.62
730.541	6208.44
730.882	6251.15
731.224	6207.76
731.565	6222.45
731.906	6232.17
732.248	6222.45
732.589	6218.38
732.93	6229
733.271	6186.52
733.612	6215.9
733.953	6231.04
734.294	6209.57
734.635	6220.42
734.976	6204.14
735.317	6244.14
735.658	6236.01
735.999	6298.15
736.339	6245.95
736.68	6271.04
737.021	6217.93
737.361	6212.73
737.702	6272.62
738.042	6264.48
738.383	6271.49
738.723	6288.44
739.063	6257.7
739.404	6283.46
739.744	6296.8
740.084	6333.63
740.424	6372.95
740.764	6375.44
741.104	6361.43
741.444	6295.44
741.784	6321.88
742.124	6377.47
742.464	6439.17
742.804	6423.35
743.143	6401.65
743.483	6426.74
743.823	6415.89
744.162	6497.02
744.502	6551.71
744.841	6530.92
745.181	6602.78
745.52	6600.29
745.86	6645.94
746.199	6688.88
746.538	6641.87
746.877	6773.17
747.216	6830.12
747.556	6794.64
747.895	6879.61
748.234	6833.05
748.573	6930.45
748.911	7011.81
749.25	6990.11
749.589	7094.06
749.928	7172.93
750.267	7164.57
750.605	7305.58
750.944	7324.57
751.283	7334.96
751.621	7482.53
751.96	7566.82
752.298	7627.38
752.636	7739.7
752.975	7839.36
753.313	7879.13
753.651	8007.94
753.989	8056.98
754.327	8164.77
754.666	8275.05
755.004	8406.8
755.342	8587.36
755.679	8636.62
756.017	8736.51
756.355	8896.5
756.693	9075.93
757.031	9177.85
757.368	9278.87
757.706	9390.73
758.044	9515.92
758.381	9760.21
758.719	9913.2
759.056	10010.15
759.394	10211.5
759.731	10261.67
760.068	10444.71
760.405	10542.34
760.743	10752.05
761.08	10931.7
761.417	11078.59
761.754	11236.1
762.091	11405.14
762.428	11596.77
762.765	11728.29
763.102	11953.82
763.438	12076.53
763.775	12262.97
764.112	12386.36
764.449	12645.11
764.785	12709.06
765.122	12819.56
765.458	13090.97
765.795	13147.01
766.131	13388.36
766.467	13513.33
766.804	13644.85
767.14	13805.07
767.476	13918.74
767.812	14031.51
768.148	14215.91
768.485	14254.55
768.821	14401.9
769.157	14571.61
769.492	14694.77
769.828	14850.25
770.164	14922.33
770.5	14996.46
770.836	15150.35
771.171	15306.05
771.507	15304.24
771.842	15400.06
772.178	15498.14
772.513	15686.83
772.849	15741.52
773.184	15807.73
773.519	15993.72
773.855	15970.67
774.19	16141.96
774.525	16241.17
774.86	16249.76
775.195	16296.08
775.53	16383.54
775.865	16467.6
776.2	16422.18
776.535	16396.65
776.87	16578.79
777.205	16592.8
777.539	16668.73
777.874	16752.12
778.209	16715.73
778.543	16689.07
778.878	16739.24
779.212	16817.2
779.547	16822.85
779.881	16920.7
780.215	16876.41
780.55	16953.92
780.884	16887.93
781.218	16960.25
781.552	16964.54
781.886	17007.02
782.22	17029.62
782.554	16972.9
782.888	16920.47
783.222	16909.63
783.556	16988.72
783.889	16925.9
784.223	16934.03
784.557	16970.42
784.89	16977.42
785.224	16898.55
785.557	16854.94
785.891	16842.28
786.224	16915.73
786.558	16928.83
786.891	16816.52
787.224	16768.84
787.557	16839.12
787.891	16839.57
788.224	16840.7
788.557	16956.4
788.89	16831.66
789.223	16849.74
789.556	16792.34
789.888	16725
790.221	16776.97
790.554	16621.95
790.887	16619.92
791.219	16656.07
791.552	16603.19
791.884	16610.65
792.217	16609.97
792.549	16535.17
792.882	16490.88
793.214	16415.18
793.546	16552.12
793.879	16354.84
794.211	16381.73
794.543	16445.91
794.875	16297.44
795.207	16435.06
795.539	16282.3
795.871	16339.02
796.203	16206.59
796.535	16165.24
796.867	16200.49
797.198	16180.15
797.53	16165.24
797.862	16055.86
798.193	16150.55
798.525	16066.48
798.856	16022.19
799.188	15864.46
799.519	15851.12
799.85	15809.77
800.182	15906.26
800.513	15882.76
800.844	15817.45
801.175	15838.92
801.506	15725.93
801.837	15685.25
802.168	15609.32
802.499	15609.77
802.83	15650.45
803.161	15541.98
803.491	15531.81
803.822	15559.15
804.153	15468.08
804.483	15318.03
804.814	15290.23
805.145	15256.79
805.475	15300.85
805.805	15305.37
806.136	15187.86
806.466	15169.56
806.796	15170.24
807.126	15094.08
807.457	15048.66
807.787	15173.17
808.117	15061.09
808.447	14975.21
808.777	14997.81
809.107	14927.08
809.436	14959.39
809.766	14889.79
810.096	14792.17
810.426	14797.14
810.755	14839.4
811.085	14794.88
811.414	14736.8
811.744	14666.97
812.073	14641.66
812.403	14658.61
812.732	14594.66
813.061	14666.75
813.39	14498.62
813.719	14446.19
814.049	14626.3
814.378	14489.58
814.707	14398.28
815.036	14451.16
815.365	14350.15
815.693	14279.41
816.022	14320.32
816.351	14271.73
816.68	14254.78
817.008	14216.82
817.337	14149.7
817.665	14172.07
817.994	14099.08
818.322	14118.29
818.651	14082.81
818.979	14018.63
819.307	14057.72
819.636	14046.88
819.964	13979.08
820.292	14008.23
820.62	14010.72
820.948	13936.82
821.276	14007.33
821.604	13922.13
821.932	14024.73
822.259	13901.12
822.587	13978.4
822.915	13955.13
823.243	14105.41
823.57	13997.39
823.898	13944.96
824.225	13945.18
824.553	13922.13
824.88	13917.61
825.207	14001.45
825.535	14001
825.862	14024.5
826.189	13906.32
826.516	14041
826.843	14012.3
827.17	13996.48
827.497	14090.49
827.824	14108.8
828.151	14095.91
828.478	14040.55
828.805	14058.63
829.131	13995.58
829.458	13963.26
829.785	13960.33
830.111	14031.06
830.438	14073.99
830.764	13974.56
831.09	14071.06
831.417	13939.08
831.743	13988.8
832.069	14013.2
832.395	13851.4
832.722	13980.21
833.048	13922.36
833.374	13931.85
833.7	13942.7
834.026	13911.29
834.351	13836.94
834.677	13915.58
835.003	13869.48
835.329	13930.72
835.654	13895.69
835.98	13732.31
836.306	13808.24
836.631	13763.49
836.956	13727.11
837.282	13829.26
837.607	13733.21
837.932	13719.88
838.258	13702.25
838.583	13662.48
838.908	13634.01
839.233	13581.8
839.558	13624.29
839.883	13551.97
840.208	13563.73
840.533	13595.36
840.858	13510.85
841.182	13546.32
841.507	13507.23
841.832	13488.25
842.156	13380.91
842.481	13469.04
842.805	13385.2
843.13	13356.05
843.454	13319.21
843.778	13284.18
844.103	13277.86
844.427	13229.5
844.751	13241.02
845.075	13224.3
845.399	13204.86
845.723	13067.24
846.047	13035.83
846.371	12959.67
846.695	13107.47
847.019	12848.04
847.343	12803.07
847.666	12822.05
847.99	12692.79
848.313	12739.11
848.637	12650.3
848.96	12702.73
849.284	12564.88
849.607	12496.86
849.931	12497.09
850.254	12317.66
850.577	12359.46
850.9	12290.31
851.223	12248.05
851.546	12195.85
851.869	12111.79
852.192	12114.5
852.515	12036.76
852.838	11996.99
853.161	12032.92
853.483	11902.07
853.806	11847.16
854.129	11842.41
854.451	11808.07
854.774	11714.51
855.096	11711.8
855.419	11628.18
855.741	11665.47
856.063	11589.54
856.385	11572.59
856.708	11574.4
857.03	11523.55
857.352	11508.19
857.674	11476.55
857.996	11377.34
858.318	11308.87
858.64	11378.92
858.961	11338.7
859.283	11290.11
859.605	11191.36
859.926	11174.18
860.248	11234.97
860.57	11210.79
860.891	11177.57
861.212	11135.99
861.534	11064.36
861.855	10990.01
862.176	11063
862.498	10980.29
862.819	11018.93
863.14	10980.06
863.461	10985.71
863.782	10903.23
864.103	10975.77
864.424	10897.35
864.745	10964.7
865.065	10805.15
865.386	10802.22
865.707	10845.15
866.027	10828.2
866.348	10774.87
866.668	10759.28
866.989	10761.99
867.309	10644.03
867.63	10727.64
867.95	10732.39
868.27	10600.19
868.59	10686.06
868.91	10633.63
869.23	10609
869.55	10449.23
869.87	10636.34
870.19	10596.8
870.51	10615.55
870.83	10544.14
871.15	10516.8
871.469	10528.55
871.789	10504.82
872.109	10507.31
872.428	10440.87
872.748	10419.63
873.067	10421.66
873.386	10425.05
873.706	10396.35
874.025	10369.46
874.344	10386.18
874.663	10359.74
874.982	10289.01
875.301	10352.06
875.62	10227.77
875.939	10250.14
876.258	10272.74
876.577	10165.85
876.896	10198.84
877.214	10227.32
877.533	10204.72
877.852	10140.54
878.17	10126.08
878.489	10180.09
878.807	10136.92
879.125	10163.14
879.444	10154.1
879.762	10073.42
880.08	10078.85
880.398	10065.06
880.716	10052.18
881.034	10021.9
881.352	9973.31
881.67	9996.81
881.988	9904.16
882.306	9940.09
882.624	9894.67
882.941	9836.37
883.259	9806.31
883.577	9811.06
883.894	9736.71
884.212	9776.93
884.529	9821
884.846	9736.03
885.164	9714.33
885.481	9620.55
885.798	9704.39
886.115	9630.27
886.432	9643.15
886.75	9606.54
887.067	9590.27
887.383	9592.76
887.7	9642.02
888.017	9472.08
888.334	9519.54
888.651	9498.52
888.967	9458.75
889.284	9457.84
889.6	9402.93
889.917	9357.28
890.233	9366.32
890.55	9320.22
890.866	9291.52
891.182	9276.83
891.498	9193.22
891.815	9177.17
892.131	9137.4
892.447	9124.29
892.763	9121.36
893.079	9121.81
893.395	9027.35
893.71	9112.99
894.026	8987.8
894.342	8951.64
894.657	8953
894.973	8889.72
895.289	8924.75
895.604	8849.5
895.92	8805.21
896.235	8817.86
896.55	8748.26
896.865	8713.46
897.181	8720.24
897.496	8695.6
897.811	8649.73
898.126	8564.99
898.441	8575.38
898.756	8554.59
899.071	8549.39
899.386	8512.78
899.7	8428.72
900.015	8375.84
900.33	8375.39
900.644	8386.23
900.959	8353.69
901.273	8336.07
901.588	8224.66
901.902	8203.41
902.216	8254.26
902.531	8198.44
902.845	8178.56
903.159	8058.56
903.473	8102.17
903.787	8047.94
904.101	8003.19
904.415	8029.18
904.729	8000.48
905.042	7913.03
905.356	7888.39
905.67	7875.97
905.984	7951.9
906.297	7895.85
906.611	7757.1
906.924	7760.49
907.237	7744.67
907.551	7706.25
907.864	7718
908.177	7666.48
908.491	7631
908.804	7562.75
909.117	7514.17
909.43	7527.27
909.743	7392.14
910.056	7452.25
910.368	7413.83
910.681	7389.88
910.994	7352.59
911.307	7295.19
911.619	7227.62
911.932	7281.18
912.244	7200.28
912.557	7215.64
912.869	7172.48
913.181	7113.5
913.494	7125.93
913.806	7040.28
914.118	7080.51
914.43	7035.31
914.742	6970
915.054	6975.88
915.366	7008.64
915.678	6901.53
915.99	6892.71
916.302	6831.47
916.613	6804.81
916.925	6804.13
917.236	6791.02
917.548	6757.58
917.859	6752.83
918.171	6729.78
918.482	6713.28
918.794	6653.62
919.105	6649.1
919.416	6574.3
919.727	6576.56
920.038	6544.25
920.349	6496.57
920.66	6420.18
920.971	6479.62
921.282	6447.3
921.593	6438.71
921.903	6376.8
922.214	6347.64
922.525	6309
922.835	6326.85
923.146	6235.56
923.456	6279.85
923.767	6217.48
924.077	6179.74
924.387	6166.18
924.697	6158.04
925.008	6101.1
925.318	6136.58
925.628	6105.16
925.938	6059.06
926.248	5996.24
926.558	5998.95
926.867	5967.54
927.177	5930.03
927.487	5924.6
927.796	5845.06
928.106	5908.33
928.416	5864.04
928.725	5830.37
929.034	5821.78
929.344	5823.82
929.653	5763.48
929.962	5746.98
930.271	5755.34
930.581	5650.71
930.89	5677.15
931.199	5642.35
931.508	5630.15
931.817	5673.31
932.125	5588.12
932.434	5583.37
932.743	5525.52
933.051	5518.06
933.36	5499.76
933.669	5453.43
933.977	5426.76
934.286	5438.52
934.594	5434.22
934.902	5378.63
935.21	5314
935.519	5356.26
935.827	5344.96
936.135	5290.95
936.443	5260.21
936.751	5257.28
937.059	5230.61
937.367	5203.04
937.674	5219.76
937.982	5209.59
938.29	5151.52
938.597	5177.73
938.905	5099.77
939.213	5060.67
939.52	5025.19
939.827	5050.05
940.135	5003.05
940.442	4973.89
940.749	5028.81
941.056	4994.69
941.363	4894.35
941.67	4955.36
941.977	4888.02
942.284	4855.03
942.591	4867.68
942.898	4801.02
943.205	4861.81
943.511	4760.79
943.818	4764.63
944.125	4751.98
944.431	4688.93
944.738	4710.4
945.044	4676.28
945.35	4637.41
945.657	4648.71
945.963	4624.75
946.269	4568.48
946.575	4587.24
946.881	4586.11
947.187	4586.11
947.493	4518.99
947.799	4507.92
948.105	4520.8
948.41	4431.99
948.716	4429.95
949.022	4485.09
949.327	4415.04
949.633	4386.79
949.938	4390.63
950.244	4380.46
950.549	4326.68
950.854	4311.54
951.16	4271.77
951.465	4282.16
951.77	4279.68
952.075	4244.65
952.38	4233.12
952.685	4237.87
952.99	4182.95
953.294	4144.31
953.599	4112.9
953.904	4122.62
954.209	4069.74
954.513	4101.83
954.818	4045.56
955.122	4045.56
955.426	4014.82
955.731	3997.88
956.035	3993.58
956.339	3976.86
956.643	3995.62
956.948	3981.83
957.252	3898.44
957.556	3940.93
957.86	3905.9
958.163	3878.33
958.467	3880.14
958.771	3841.5
959.075	3871.1
959.378	3834.04
959.682	3850.31
959.985	3801.04
960.289	3793.36
960.592	3784.77
960.896	3782.74
961.199	3724.66
961.502	3736.41
961.805	3721.05
962.108	3702.06
962.411	3664.1
962.714	3631.33
963.017	3670.65
963.32	3618.68
963.623	3587.04
963.926	3650.99
964.228	3599.24
964.531	3578.45
964.833	3557.89
965.136	3553.37
965.438	3544.78
965.741	3557.21
966.043	3479.47
966.345	3475.18
966.648	3487.61
966.95	3456.42
967.252	3417.55
967.554	3401.05
967.856	3388.63
968.158	3392.24
968.46	3365.8
968.761	3351.11
969.063	3356.99
969.365	3341.4
969.666	3300.27
969.968	3313.83
970.269	3306.82
970.571	3204.9
970.872	3247.16
971.174	3242.64
971.475	3222.3
971.776	3187.73
972.077	3181.85
972.378	3187.27
972.679	3160.16
972.98	3164.9
973.281	3167.16
973.582	3135.07
973.883	3109.08
974.183	3109.54
974.484	3077.22
974.785	3098.01
975.085	3072.7
975.386	3088.07
975.686	3057.79
975.986	3037
976.287	2968.52
976.587	2966.26
976.887	2972.14
977.187	2953.38
977.487	2939.15
977.787	2945.25
978.087	2905.7
978.387	2912.93
978.687	2890.79
978.987	2908.86
979.286	2874.74
979.586	2850.11
979.885	2846.49
980.185	2837
980.484	2815.76
980.784	2839.71
981.083	2763.11
981.382	2802.65
981.682	2798.13
981.981	2759.94
982.28	2791.13
982.579	2760.85
982.878	2742.54
983.177	2693.73
983.475	2707.74
983.774	2697.34
984.073	2706.61
984.372	2681.98
984.67	2663.45
984.969	2658.25
985.267	2631.36
985.566	2641.98
985.864	2627.29
986.162	2598.14
986.461	2572.83
986.759	2563.56
987.057	2535.31
987.355	2545.26
987.653	2550.91
987.951	2527.18
988.249	2479.72
988.547	2472.94
988.844	2480.85
989.142	2481.76
989.44	2470.91
989.737	2458.25
990.035	2463.68
990.332	2409.22
990.63	2427.07
990.927	2398.37
991.224	2420.06
991.521	2376.67
991.819	2377.13
992.116	2393.62
992.413	2354.3
992.71	2362.44
993.006	2345.49
993.303	2300.74
993.6	2323.79
993.897	2345.94
994.193	2286.73
994.49	2302.1
994.787	2275.89
995.083	2242.22
995.379	2268.43
995.676	2252.61
995.972	2220.52
996.268	2199.05
996.565	2189.56
996.861	2183.01
997.157	2207.19
997.453	2172.16
997.749	2162.44
998.044	2139.17
998.34	2124.93
998.636	2115.66
998.932	2096.68
999.227	2116.12
999.523	2078.6
999.818	2087.19
1000.114	2065.5
1000.409	2072.5
1000.704	2049.45
1001	2036.34
1001.295	2044.03
1001.59	2021.66
1001.885	1983.69
1002.18	1982.33
1002.475	1995.22
1002.77	1963.35
1003.065	1959.74
1003.359	1957.25
1003.654	1965.39
1003.949	1957.93
1004.243	1940.75
1004.538	1927.65
1004.832	1900.08
1005.127	1900.08
1005.421	1892.62
1005.715	1899.63
1006.009	1880.42
1006.304	1858.27
1006.598	1816.69
1006.892	1855.78
1007.186	1824.6
1007.48	1830.47
1007.773	1811.27
1008.067	1803.81
1008.361	1749.57
1008.655	1736.47
1008.948	1751.38
1009.242	1736.24
1009.535	1769.69
1009.829	1737.14
1010.122	1716.13
1010.415	1715.9
1010.708	1702.12
1011.001	1680.87
1011.295	1677.94
1011.588	1667.09
1011.881	1667.31
1012.173	1658.5
1012.466	1634.32
1012.759	1658.05
1013.052	1663.7
1013.344	1626.64
1013.637	1609.46
1013.93	1587.32
1014.222	1576.92
1014.514	1572.63
1014.807	1614.21
1015.099	1568.33
1015.391	1575.34
1015.683	1533.53
1015.976	1529.01
1016.268	1513.65
1016.56	1526.75
1016.851	1498.96
1017.143	1501.44
1017.435	1506.64
1017.727	1505.29
1018.018	1455.34
1018.31	1466.87
1018.602	1437.04
1018.893	1468
1019.185	1415.12
1019.476	1426.42
1019.767	1414.89
1020.058	1418.28
1020.35	1413.54
1020.641	1376.93
1020.932	1382.58
1021.223	1369.92
1021.514	1336.7
1021.804	1390.94
1022.095	1328.34
1022.386	1333.99
1022.677	1307.1
1022.967	1318.62
1023.258	1316.14
1023.548	1277.49
1023.839	1307.1
1024.129	1286.99
1024.419	1290.15
1024.709	1251.28
1025	1268.46
1025.29	1258.51
1025.58	1262.35
1025.87	1252.86
1026.16	1247.89
1026.449	1221
1026.739	1218.97
1027.029	1214.22
1027.319	1198.85
1027.608	1190.94
1027.898	1197.95
1028.187	1181
1028.477	1173.09
1028.766	1167.67
1029.055	1170.15
1029.344	1176.03
1029.634	1169.25
1029.923	1143.49
1030.212	1129.48
1030.501	1129.02
1030.79	1120.66
1031.078	1073.88
1031.367	1099.87
1031.656	1076.82
1031.945	1085.18
1032.233	1075.69
1032.522	1040.44
1032.81	1067.56
1033.099	1067.33
1033.387	1042.7
1033.675	1047.9
1033.963	1029.82
1034.251	1048.35
1034.54	1021.46
1034.828	1025.07
1035.116	1006.77
1035.403	1002.25
1035.691	994.34
1035.979	991.17
1036.267	956.15
1036.554	982.81
1036.842	954.79
1037.129	991.17
1037.417	957.96
1037.704	959.99
1037.992	938.52
1038.279	935.81
1038.566	904.85
1038.853	904.85
1039.14	904.85
