Data from hue_170_FLMS001491_00028.txt Node
Date: Tue Feb 07 16:48:28 GMT 2017
User: dcchb
Spectrometer: FLMS00149
Trigger mode: 0
Integration Time (sec): 2.000000E-2
Scans to average: 10
Electric dark correction enabled: true
Nonlinearity correction enabled: false
Boxcar width: 0
XAxis mode: Wavelengths
Number of Pixels in Spectrum: 2048
>>>>>Begin Spectral Data<<<<<
341.393	-15.85
341.776	-15.85
342.16	-15.85
342.543	-66.47
342.927	-64.43
343.31	-85
343.693	-63.76
344.077	-74.15
344.46	-66.92
344.843	-53.81
345.226	-53.59
345.61	-36.64
345.993	-17.88
346.376	-1.38
346.759	12.63
347.142	32.06
347.525	44.49
347.908	54.43
348.291	83.81
348.674	99.63
349.057	126.07
349.44	129.91
349.823	126.97
350.206	147.54
350.588	186.41
350.971	206.07
351.354	207.2
351.737	234.54
352.119	240.87
352.502	252.85
352.884	292.85
353.267	252.62
353.65	276.8
354.032	277.93
354.414	284.48
354.797	288.1
355.179	310.02
355.562	314.31
355.944	314.31
356.326	319.74
356.709	332.39
357.091	336.69
357.473	358.15
357.855	310.47
358.238	319.74
358.62	336.46
359.002	323.58
359.384	314.09
359.766	318.61
360.148	349.57
360.53	332.62
360.912	329.45
361.294	333.97
361.676	319.96
362.057	320.42
362.439	303.69
362.821	323.81
363.203	319.51
363.584	322.22
363.966	313.18
364.348	284.71
364.729	326.97
365.111	310.02
365.493	306.63
365.874	300.53
366.256	291.26
366.637	320.64
367.019	305.95
367.4	314.09
367.781	310.25
368.163	291.26
368.544	320.64
368.925	307.76
369.306	296.01
369.688	325.16
370.069	310.02
370.45	308.21
370.831	316.8
371.212	299.85
371.593	306.86
371.974	308.66
372.355	285.84
372.736	297.37
373.117	296.69
373.498	306.86
373.879	330.13
374.26	312.96
374.641	323.35
375.021	303.24
375.402	310.02
375.783	323.35
376.163	335.78
376.544	316.57
376.925	310.25
377.305	321.55
377.686	341.43
378.066	310.47
378.447	304.6
378.827	319.96
379.208	317.03
379.588	331.49
379.968	310.92
380.349	320.42
380.729	312.73
381.109	310.92
381.489	326.97
381.87	325.16
382.25	342.34
382.63	330.81
383.01	333.75
383.39	350.92
383.77	337.82
384.15	348.89
384.53	335.78
384.91	330.13
385.29	331.26
385.67	357.7
386.049	332.17
386.429	351.83
386.809	354.09
387.189	341.88
387.568	333.75
387.948	348.66
388.328	336.69
388.707	342.79
389.087	340.53
389.466	377.81
389.846	361.77
390.225	362.22
390.605	355.44
390.984	357.7
391.363	365.61
391.743	366.06
392.122	361.32
392.501	345.95
392.881	370.36
393.26	371.94
393.639	379.62
394.018	383.46
394.397	360.41
394.776	378.49
395.155	374.2
395.534	361.77
395.913	371.49
396.292	396.35
396.671	417.36
397.05	385.5
397.429	382.33
397.808	359.28
398.186	385.95
398.565	390.47
398.944	377.59
399.323	391.37
399.701	379.4
400.08	385.72
400.458	390.47
400.837	381.66
401.215	399.28
401.594	402
401.972	396.12
402.351	400.41
402.729	410.13
403.107	426.4
403.486	405.16
403.864	420.75
404.242	421.88
404.62	433.41
404.999	423.46
405.377	431.15
405.755	429.79
406.133	440.86
406.511	443.8
406.889	428.89
407.267	427.76
407.645	437.93
408.023	443.58
408.401	461.43
408.779	466.85
409.156	441.99
409.534	433.41
409.912	476.12
410.29	475.44
410.667	474.31
411.045	468.66
411.422	462.78
411.8	481.09
412.178	490.13
412.555	503.01
412.933	503.69
413.31	509.34
413.687	525.38
414.065	526.51
414.442	521.31
414.819	518.83
415.197	532.84
415.574	529.22
415.951	549.11
416.328	545.72
416.705	562.44
417.082	543.69
417.46	555.21
417.837	561.76
418.214	544.82
418.591	567.64
418.967	575.1
419.344	583.23
419.721	590.24
420.098	576.23
420.475	610.8
420.852	611.93
421.228	602.44
421.605	605.38
421.982	593.63
422.358	632.5
422.735	644.25
423.111	634.76
423.488	651.71
423.864	656.9
424.241	654.87
424.617	672.72
424.994	667.3
425.37	691.48
425.746	685.15
426.123	698.03
426.499	706.62
426.875	698.03
427.251	716.56
427.627	714.98
428.003	722.66
428.379	731.93
428.756	739.39
429.132	738.94
429.507	766.96
429.883	749.33
430.259	777.13
430.635	771.25
431.011	773.74
431.387	802.21
431.763	803.34
432.138	832.94
432.514	819.61
432.89	838.14
433.265	828.88
433.641	832.94
434.016	885.15
434.392	873.17
434.767	887.41
435.143	858.93
435.518	880.85
435.894	914.98
436.269	898.25
436.644	945.48
437.02	958.14
437.395	947.74
437.77	971.92
438.145	980.74
438.52	992.26
438.895	987.29
439.271	1018.7
439.646	1019.38
440.021	1036.78
440.395	1046.72
440.77	1053.73
441.145	1066.16
441.52	1059.83
441.895	1055.54
442.27	1078.81
442.645	1099.6
443.019	1108.87
443.394	1124.01
443.769	1120.39
444.143	1127.63
444.518	1142.99
444.892	1138.92
445.267	1163.11
445.641	1164.91
446.016	1167.62
446.39	1179.6
446.764	1172.14
447.139	1196.78
447.513	1217.57
447.887	1219.83
448.262	1213.27
448.636	1226.15
449.01	1265.93
449.384	1273.61
449.758	1251.01
450.132	1275.42
450.506	1290.79
450.88	1272.71
451.254	1295.3
451.628	1290.33
452.002	1324.23
452.376	1357
452.75	1358.58
453.123	1382.53
453.497	1389.09
453.871	1428.86
454.244	1446.94
454.618	1448.75
454.992	1432.7
455.365	1460.05
455.739	1485.58
456.112	1501.18
456.486	1536.43
456.859	1528.97
457.232	1545.69
457.606	1570.78
457.979	1566.94
458.352	1598.12
458.725	1641.96
459.099	1637.89
459.472	1677.67
459.845	1705.69
460.218	1721.06
460.591	1730.77
460.964	1749.98
461.337	1768.06
461.71	1821.84
462.083	1849.64
462.456	1837.89
462.829	1853.93
463.201	1893.48
463.574	1921.73
463.947	1933.71
464.32	1964.44
464.692	1971.45
465.065	2027.49
465.438	2046.25
465.81	2067.71
466.183	2121.05
466.555	2137.32
466.928	2170.08
467.3	2204.21
467.672	2225.45
468.045	2276.07
468.417	2324.43
468.789	2326.46
469.161	2352.9
469.534	2394.03
469.906	2461.6
470.278	2510.87
470.65	2482.84
471.022	2597.87
471.394	2652.11
471.766	2680.81
472.138	2721.93
472.51	2800.8
472.882	2847.35
473.253	2886.9
473.625	2902.49
473.997	3013.68
474.369	2963.51
474.74	3123.73
475.112	3180.23
475.484	3233.33
475.855	3283.95
476.227	3377.28
476.598	3492.76
476.97	3542.7
477.341	3593.55
477.713	3689.37
478.084	3773.88
478.455	3839.64
478.827	3919.64
479.198	4012.3
479.569	4060.2
479.94	4222.23
480.311	4226.08
480.682	4371.83
481.053	4488.22
481.424	4625.84
481.795	4647.08
482.166	4812.5
482.537	4842.56
482.908	4989.45
483.279	5062.21
483.65	5213.39
484.021	5321.64
484.391	5425.82
484.762	5508.53
485.133	5583.33
485.503	5746.94
485.874	5857.9
486.244	5929.08
486.615	6098.12
486.985	6261.28
487.356	6361.16
487.726	6453.59
488.097	6665.79
488.467	6663.75
488.837	6880.92
489.207	6937.87
489.578	7071.2
489.948	7188.03
490.318	7398.42
490.688	7317.07
491.058	7541.24
491.428	7712.99
491.798	7873.44
492.168	8048.57
492.538	8140.55
492.908	8268.68
493.278	8421.9
493.648	8400.88
494.017	8552.06
494.387	8595.9
494.757	8786.63
495.126	8875.9
495.496	8939.85
495.866	9075.67
496.235	9075.89
496.605	9240.18
496.974	9345.49
497.344	9416.67
497.713	9505.48
498.082	9608.98
498.452	9764.69
498.821	9731.24
499.19	9896.89
499.559	9913.84
499.928	10015.08
500.298	10120.61
500.667	10194.05
501.036	10267.05
501.405	10343.65
501.774	10268.18
502.143	10456.65
502.512	10457.1
502.88	10538.23
503.249	10629.52
503.618	10742.74
503.987	10729.41
504.356	10763.3
504.724	10886.24
505.093	10962.85
505.462	10988.16
505.83	10988.61
506.199	11105.67
506.567	11261.14
506.936	11214.37
507.304	11361.93
507.672	11307.25
508.041	11417.07
508.409	11440.57
508.777	11533.68
509.145	11617.52
509.514	11565.09
509.882	11696.39
510.25	11696.61
510.618	11716.27
510.986	11808.25
511.354	11894.57
511.722	11946.32
512.09	12059.32
512.458	11911.07
512.826	12016.15
513.193	12089.37
513.561	12105.64
513.929	12117.39
514.297	12186.77
514.664	12338.63
515.032	12364.62
515.4	12334.56
515.767	12349.93
516.135	12422.02
516.502	12317.84
516.869	12523.94
517.237	12466.76
517.604	12357.84
517.972	12529.81
518.339	12556.03
518.706	12558.96
519.073	12557.61
519.44	12698.85
519.808	12650.94
520.175	12673.31
520.542	12769.58
520.909	12781.33
521.276	12767.32
521.643	12877.15
522.009	12850.71
522.376	12901.55
522.743	12932.74
523.11	13075.33
523.477	13077.59
523.843	13031.95
524.21	13174.31
524.577	13167.99
524.943	13138.16
525.31	13220.42
525.676	13215.22
526.043	13285.5
526.409	13367.98
526.776	13337.47
527.142	13315.1
527.508	13299.06
527.874	13397.81
528.241	13369.56
528.607	13372.95
528.973	13397.81
529.339	13336.12
529.705	13450.47
530.071	13480.52
530.437	13428.77
530.803	13409.79
531.169	13450.47
531.535	13400.07
531.901	13378.38
532.267	13487.07
532.632	13402.56
532.998	13395.33
533.364	13392.16
533.73	13423.12
534.095	13410.69
534.461	13419.05
534.826	13374.76
535.192	13437.58
535.557	13366.63
535.923	13402.78
536.288	13324.14
536.653	13207.99
537.019	13224.03
537.384	13219.51
537.749	13197.59
538.114	13165.73
538.479	13189.68
538.845	13186.97
539.21	13048.44
539.575	13071.94
539.94	13028.56
540.305	13061.32
540.67	12927.32
541.034	12898.39
541.399	12985.84
541.764	12908.78
542.129	12903.14
542.494	12850.03
542.858	12867.88
543.223	12742.91
543.587	12779.75
543.952	12677.6
544.316	12671.73
544.681	12641.9
545.045	12623.59
545.41	12680.99
545.774	12568.23
546.138	12586.31
546.503	12504.05
546.867	12556.25
547.231	12465.41
547.595	12484.39
547.959	12458.63
548.324	12368.69
548.688	12337.73
549.052	12363.49
549.416	12283.94
549.779	12278.52
550.143	12156.71
550.507	12162.59
550.871	12183.83
551.235	12078.07
551.599	12175.7
551.962	12086.89
552.326	12032.42
552.689	12052.54
553.053	12000.79
553.417	11942.48
553.78	12024.06
554.143	11939.32
554.507	11950.62
554.87	11867.91
555.234	11931.18
555.597	11831.75
555.96	11878.53
556.323	11898.87
556.686	11814.12
557.05	11817.74
557.413	11863.84
557.776	11742.94
558.139	11792.88
558.502	11813.67
558.865	11768.02
559.228	11779.55
559.59	11767.8
559.953	11791.07
560.316	11814.35
560.679	11812.32
561.041	11817.29
561.404	11815.25
561.767	11842.37
562.129	11676.05
562.492	11845.99
562.854	11727.8
563.217	11786.78
563.579	11731.64
563.941	11790.17
564.304	11764.86
564.666	11823.84
565.028	11840.34
565.39	11823.62
565.753	11826.78
566.115	11878.53
566.477	11881.69
566.839	11820.9
567.201	11889.6
567.563	11846.67
567.925	11896.16
568.287	11924.18
568.648	11860.68
569.01	11913.33
569.372	11981.58
569.734	11976.38
570.095	11982.71
570.457	11910.62
570.819	11985.87
571.18	11988.36
571.542	12011.41
571.903	12038.53
572.265	11991.29
572.626	12041.24
572.987	12123.49
573.349	12015.93
573.71	12050.5
574.071	12055.02
574.432	11978.19
574.794	12038.07
575.155	12100.67
575.516	12069.94
575.877	12081.69
576.238	12099.77
576.599	12177.73
576.96	12030.84
577.32	12107.68
577.681	12098.18
578.042	12177.5
578.403	12129.82
578.763	12075.59
579.124	12111.07
579.485	12210.72
579.845	12185.64
580.206	12184.74
580.566	12108.13
580.927	12105.87
581.287	12189.26
581.648	12141.8
582.008	12213.21
582.368	12108.81
582.728	12144.06
583.089	12123.95
583.449	12121.69
583.809	12084.4
584.169	12121.69
584.529	12030.62
584.889	12121.46
585.249	12048.69
585.609	12026.77
585.969	12069.94
586.329	12011.41
586.688	11992.42
587.048	12054.34
587.408	11998.3
587.768	11963.27
588.127	11929.15
588.487	11896.16
588.846	12031.52
589.206	11990.16
589.565	11890.96
589.925	11932.09
590.284	11988.81
590.643	11887.12
591.003	11921.24
591.362	11949.71
591.721	11961.24
592.08	11883.95
592.44	11941.13
592.799	11917.4
593.158	11881.02
593.517	11909.94
593.876	11888.92
594.235	11864.29
594.593	11879.89
594.952	11879.21
595.311	11799.44
595.67	11872.43
596.029	11879.89
596.387	11904.29
596.746	11922.82
597.104	11825.65
597.463	11806.44
597.822	11854.58
598.18	11775.03
598.538	11845.76
598.897	11792.2
599.255	11770.74
599.613	11836.5
599.972	11793.79
600.33	11863.16
600.688	11720.79
601.046	11796.95
601.404	11837.85
601.762	11839.66
602.12	11858.64
602.478	11794.24
602.836	11901.81
603.194	11801.92
603.552	11766.67
603.91	11742.71
604.268	11765.09
604.625	11800.57
604.983	11783.16
605.341	11748.14
605.698	11770.06
606.056	11808.02
606.413	11788.59
606.771	11874.46
607.128	11794.24
607.485	11765.76
607.843	11832.2
608.2	11904.07
608.557	11912.88
608.914	11837.85
609.272	11803.05
609.629	11865.42
609.986	11892.77
610.343	11898.64
610.7	11935.7
611.057	11877.4
611.414	11853.22
611.771	11922.37
612.127	11952.88
612.484	11986.1
612.841	11963.27
613.198	11946.1
613.554	11919.88
613.911	11991.07
614.267	11993.55
614.624	11944.97
614.98	11952.43
615.337	12064.06
615.693	12007.11
616.05	11986.1
616.406	12105.19
616.762	12084.85
617.118	12074
617.475	12047.11
617.831	12035.14
618.187	12126.88
618.543	12096.6
618.899	12145.64
619.255	12133.21
619.611	12116.49
619.967	12150.16
620.323	12148.8
620.678	12079.43
621.034	12113.1
621.39	12092.99
621.746	12013.44
622.101	12247.33
622.457	12212.76
622.812	12059.09
623.168	12104.51
623.523	12142.25
623.879	12179.76
624.234	12160.1
624.589	12123.95
624.945	12102.48
625.3	12133.21
625.655	12104.96
626.01	12114
626.365	12125.53
626.72	12115.13
627.075	12098.64
627.43	12063.38
627.785	12085.08
628.14	12023.84
628.495	12114
628.85	12095.47
629.205	12050.95
629.559	12085.98
629.914	12100.9
630.269	12128.47
630.623	12013.22
630.978	11969.37
631.332	12011.86
631.687	12052.54
632.041	11916.49
632.396	11967.34
632.75	11956.72
633.104	11916.72
633.459	11854.12
633.813	11863.84
634.167	11885.31
634.521	11861.13
634.875	11897.51
635.229	11861.58
635.583	11795.14
635.937	11872.43
636.291	11791.3
636.645	11834.69
636.999	11745.2
637.352	11726.67
637.706	11681.02
638.06	11831.75
638.413	11726.22
638.767	11709.95
639.121	11628.59
639.474	11597.41
639.828	11605.54
640.181	11705.65
640.534	11656.61
640.888	11614.36
641.241	11547.01
641.594	11615.71
641.947	11707.91
642.301	11625.65
642.654	11553.79
643.007	11541.14
643.36	11610.97
643.713	11498.65
644.066	11566.9
644.419	11525.32
644.771	11436.73
645.124	11412.1
645.477	11365.55
645.83	11274.03
646.182	11275.61
646.535	11190.64
646.888	11229.28
647.24	11183.86
647.593	11240.81
647.945	11212.11
648.298	11155.84
648.65	11133.46
649.002	11155.38
649.355	11182.28
649.707	11148.15
650.059	11151.32
650.411	11342.95
650.763	11320.35
651.115	11432.21
651.467	11397.64
651.819	11424.3
652.171	11343.63
652.523	11329.84
652.875	11346.79
653.227	11295.72
653.578	11443.74
653.93	11431.99
654.282	11334.81
654.633	11333.91
654.985	11404.42
655.337	11398.09
655.688	11326.23
656.039	11453.68
656.391	11321.48
656.742	11309.28
657.094	11430.86
657.445	11430.86
657.796	11433.8
658.147	11397.86
658.498	11432.44
658.849	11473.79
659.2	11462.27
659.551	11373.68
659.902	11475.38
660.253	11399.45
660.604	11517.64
660.955	11307.25
661.306	11493
661.656	11475.6
662.007	11494.58
662.358	11437.86
662.708	11422.5
663.059	11473.57
663.409	11441.48
663.76	11422.5
664.11	11429.95
664.461	11453.46
664.811	11482.38
665.161	11458.2
665.511	11473.79
665.862	11488.03
666.212	11522.15
666.562	11524.87
666.912	11486.45
667.262	11457.3
667.612	11446.68
667.962	11510.63
668.312	11454.36
668.662	11502.95
669.011	11502.95
669.361	11417.07
669.711	11452.55
670.06	11496.62
670.41	11412.78
670.76	11373.91
671.109	11455.49
671.459	11343.85
671.808	11414.59
672.157	11388.82
672.507	11374.36
672.856	11374.36
673.205	11324.87
673.554	11390.63
673.904	11380.69
674.253	11391.31
674.602	11432.67
674.951	11212.11
675.3	11190.64
675.649	11314.7
675.998	11303.4
676.346	11294.36
676.695	11396.28
677.044	11266.79
677.393	11257.75
677.741	11350.63
678.09	11259.11
678.438	11209.17
678.787	11214.14
679.135	11192.22
679.484	11115.16
679.832	11164.65
680.181	11080.13
680.529	11218.21
680.877	11133.46
681.225	11020.7
681.573	11182.95
681.922	11109.28
682.27	11008.04
682.618	11051.43
682.966	11028.83
683.314	11113.8
683.661	10956.97
684.009	10905.67
684.357	10885.79
684.705	10909.52
685.053	10885.11
685.4	10828.61
685.748	10763.08
686.095	10814.83
686.443	10777.99
686.79	10817.77
687.138	10819.12
687.485	10739.8
687.832	10708.39
688.18	10690.76
688.527	10641.05
688.874	10626.36
689.221	10650.54
689.568	10531.45
689.915	10500.94
690.262	10504.55
690.609	10472.01
690.956	10477.89
691.303	10275.86
691.65	10397.21
691.997	10341.17
692.344	10368.06
692.69	10186.6
693.037	10220.95
693.383	10133.94
693.73	10204.22
694.077	10061.63
694.423	10124
694.769	10088.07
695.116	10090.78
695.462	10030.89
695.808	9996.55
696.155	9984.57
696.501	9852.59
696.847	9913.84
697.193	9840.84
697.539	9754.97
697.885	9783.67
698.231	9706.16
698.577	9735.31
698.923	9680.17
699.269	9628.42
699.614	9626.61
699.96	9621.41
700.306	9577.12
700.651	9505.71
700.997	9440.18
701.342	9449.21
701.688	9434.98
702.033	9399.5
702.379	9369.22
702.724	9321.99
703.069	9294.64
703.415	9204.93
703.76	9160.86
704.105	9217.58
704.45	9246.28
704.795	9120.18
705.14	9073.63
705.485	9070.02
705.83	9037.47
706.175	9084.7
706.52	9055.1
706.865	8919.96
707.209	8988.89
707.554	8926.74
707.899	8931.49
708.243	8887.2
708.588	8749.57
708.932	8764.94
709.277	8714.09
709.621	8781.21
709.966	8732.4
710.31	8660.08
710.654	8615.34
710.998	8691.49
711.342	8600.2
711.687	8650.82
712.031	8579.41
712.375	8576.92
712.719	8570.82
713.063	8525.85
713.407	8511.39
713.75	8522.46
714.094	8547.54
714.438	8424.61
714.782	8445.4
715.125	8461.67
715.469	8395.46
715.812	8382.58
716.156	8348.23
716.499	8363.37
716.843	8321.11
717.186	8297.61
717.53	8327.44
717.873	8413.08
718.216	8313.43
718.559	8324.05
718.902	8215.57
719.246	8329.92
719.589	8177.38
719.932	8216.93
720.275	8222.58
720.617	8170.83
720.96	8199.53
721.303	8204.95
721.646	8234.78
721.989	8158.4
722.331	8149.59
722.674	8153.88
723.016	8227.33
723.359	8172.86
723.701	8190.94
724.044	8097.84
724.386	8110.04
724.729	8101.91
725.071	8106.65
725.413	8117.95
725.755	8113.2
726.097	8058.29
726.439	8016.03
726.782	8080.89
727.124	8091.28
727.465	8002.02
727.807	8090.38
728.149	7933.55
728.491	7979.65
728.833	8050.83
729.175	8013.55
729.516	8026.88
729.858	7962.47
730.199	7992.53
730.541	7977.84
730.882	8005.86
731.224	8003.38
731.565	8023.49
731.906	7955.02
732.248	8011.51
732.589	7966.54
732.93	7946.2
733.271	7939.65
733.612	7938.29
733.953	7923.61
734.294	7957.5
734.635	7978.07
734.976	7905.75
735.317	7923.83
735.658	7937.39
735.999	7980.55
736.339	7959.31
736.68	7985.75
737.021	7945.75
737.361	8014.45
737.702	8071.4
738.042	7971.97
738.383	8054.9
738.723	8035.01
739.063	7997.5
739.404	8041.12
739.744	8034.56
740.084	7997.5
740.424	8014.9
740.764	8027.33
741.104	8091.74
741.444	8047.67
741.784	8036.14
742.124	8143.49
742.464	8102.13
742.804	8098.06
743.143	8173.32
743.483	8149.14
743.823	8146.88
744.162	8196.82
744.502	8322.46
744.841	8214.9
745.181	8290.6
745.52	8341.45
745.86	8424.38
746.199	8384.61
746.538	8433.87
746.877	8505.74
747.216	8564.72
747.556	8522.69
747.895	8614.89
748.234	8650.14
748.573	8672.06
748.911	8783.7
749.25	8818.95
749.589	8847.87
749.928	8943.24
750.267	9028.43
750.605	9073.18
750.944	9062.33
751.283	9203.35
751.621	9313.17
751.96	9326.05
752.298	9422.77
752.636	9495.09
752.975	9577.57
753.313	9691.69
753.651	9859.15
753.989	9883.33
754.327	10041.29
754.666	10023.44
755.004	10201.51
755.342	10336.2
755.679	10392.47
756.017	10518.79
756.355	10721.72
756.693	10809.86
757.031	10951.55
757.368	11063.18
757.706	11222.5
758.044	11254.14
758.381	11467.01
758.719	11656.16
759.056	11783.16
759.394	11936.16
759.731	12055.47
760.068	12183.38
760.405	12295.47
760.743	12490.04
761.08	12634.44
761.417	12846.41
761.754	12965.28
762.091	13142.45
762.428	13279.62
762.765	13316.91
763.102	13587.19
763.438	13659.27
763.775	13811.13
764.112	14040.96
764.449	14322.53
764.785	14385.36
765.122	14425.81
765.458	14544.45
765.795	14779.02
766.131	14893.37
766.467	15009.52
766.804	15164.77
767.14	15333.13
767.476	15471.43
767.812	15573.35
768.148	15701.03
768.485	15739.22
768.821	15898.76
769.157	15991.64
769.492	16123.84
769.828	16237.06
770.164	16283.39
770.5	16393.66
770.836	16505.75
771.171	16621.23
771.507	16757.05
771.842	16656.48
772.178	16760.89
772.513	16912.3
772.849	17034.1
773.184	17077.49
773.519	17140.09
773.855	17171.05
774.19	17288.78
774.525	17322
774.86	17340.08
775.195	17485.61
775.53	17511.83
775.865	17344.83
776.2	17514.09
776.535	17428.21
776.87	17599.51
777.205	17568.55
777.539	17637.7
777.874	17771.26
778.209	17709.56
778.543	17752.95
778.878	17731.03
779.212	17731.26
779.547	17783.46
779.881	17861.42
780.215	17868.2
780.55	17880.86
780.884	17834.53
781.218	17976
781.552	17978.03
781.886	17884.93
782.22	17970.12
782.554	17865.94
782.888	17732.84
783.222	17844.25
783.556	17763.57
783.889	17792.5
784.223	17734.87
784.557	17723.57
784.89	17809
785.224	17681.31
785.557	17596.35
785.891	17637.47
786.224	17590.92
786.558	17728.77
786.891	17640.41
787.224	17580.75
787.557	17557.48
787.891	17644.93
788.224	17547.31
788.557	17667.53
788.89	17589.11
789.223	17629.56
789.556	17429.57
789.888	17439.06
790.221	17474.54
790.554	17412.17
790.887	17329.91
791.219	17307.54
791.552	17302.57
791.884	17272.96
792.217	17223.25
792.549	17193.42
792.882	17063.7
793.214	17013.54
793.546	17179.63
793.879	16963.14
794.211	16865.29
794.543	17004.95
794.875	16994.78
795.207	17031.39
795.539	16922.01
795.871	16883.82
796.203	16763.15
796.535	16711.4
796.867	16724.28
797.198	16710.04
797.53	16669.82
797.862	16635.69
798.193	16613.55
798.525	16505.53
798.856	16543.04
799.188	16420.33
799.519	16319.77
799.85	16247
800.182	16355.25
800.513	16320.45
800.844	16159.32
801.175	16324.74
801.506	16274.8
801.837	16130.85
802.168	16114.8
802.499	16134.01
802.83	15974.47
803.161	16045.43
803.491	16042.26
803.822	15961.13
804.153	15859.89
804.483	15837.07
804.814	15803.85
805.145	15750.07
805.475	15791.42
805.805	15715.04
806.136	15710.29
806.466	15735.83
806.796	15683.63
807.126	15491.54
807.457	15557.08
807.787	15544.65
808.117	15433.69
808.447	15413.13
808.777	15445.89
809.107	15363.64
809.436	15348.95
809.766	15338.55
810.096	15309.85
810.426	15221.94
810.755	15225.79
811.085	15169.97
811.414	15126.13
811.744	15045
812.073	15059.01
812.403	15062.63
812.732	15011.1
813.061	15040.71
813.39	15001.61
813.719	14913.48
814.049	14912.8
814.378	14965.45
814.707	14803.88
815.036	14850.88
815.365	14909.41
815.693	14686.82
816.022	14621.28
816.351	14638.23
816.68	14656.76
817.008	14582.87
817.337	14454.73
817.665	14497.22
817.994	14517.33
818.322	14498.35
818.651	14462.42
818.979	14381.97
819.307	14491.57
819.636	14458.57
819.964	14367.05
820.292	14351.91
820.62	14367.5
820.948	14311.91
821.276	14417.67
821.604	14313.72
821.932	14275.53
822.259	14322.76
822.587	14280.73
822.915	14309.65
823.243	14285.25
823.57	14347.62
823.898	14253.38
824.225	14257.22
824.553	14306.94
824.88	14286.15
825.207	14354.85
825.535	14267.39
825.862	14273.04
826.189	14270.11
826.516	14323.21
826.843	14289.09
827.17	14329.99
827.497	14305.58
827.824	14372.25
828.151	14401.85
828.478	14336.54
828.805	14352.14
829.131	14333.38
829.458	14296.09
829.785	14260.84
830.111	14370.89
830.438	14369.76
830.764	14264.91
831.09	14315.3
831.417	14351.23
831.743	14421.29
832.069	14287.28
832.395	14319.14
832.722	14373.61
833.048	14207.51
833.374	14378.12
833.7	14252.93
834.026	14249.77
834.351	14230.33
834.677	14202.54
835.003	14210.22
835.329	14158.7
835.654	14137.23
835.98	14101.07
836.306	14121.86
836.631	14026.04
836.956	14201.18
837.282	14136.1
837.607	14122.99
837.932	14034.4
838.258	14001.86
838.583	14049.32
838.908	13971.58
839.233	13982.88
839.558	13930.9
839.883	13842.09
840.208	13831.7
840.533	13812.72
840.858	13727.97
841.182	13864.69
841.507	13828.76
841.832	13697.92
842.156	13706.96
842.481	13749.44
842.805	13712.38
843.13	13649.1
843.454	13619.27
843.778	13603.23
844.103	13515.32
844.427	13568.65
844.751	13513.06
845.075	13431.93
845.399	13401.65
845.723	13354.2
846.047	13384.93
846.371	13228.1
846.695	13257.02
847.019	13102.68
847.343	13105.84
847.666	12967.54
847.99	12941.78
848.313	13010.25
848.637	12875.34
848.96	12812.97
849.284	12827.66
849.607	12714.44
849.931	12758.51
850.254	12674.89
850.577	12632.86
850.9	12530.94
851.223	12497.72
851.546	12383.83
851.869	12283.72
852.192	12391.28
852.515	12249.37
852.838	12309.93
853.161	12285.3
853.483	12209.37
853.806	12109.94
854.129	12138.18
854.451	12092.08
854.774	11998.98
855.096	11981.58
855.419	11973.67
855.741	11946.78
856.063	11900.22
856.385	11795.82
856.708	11837.4
857.03	11702.49
857.352	11731.19
857.674	11656.39
857.996	11683.51
858.318	11589.72
858.64	11645.32
858.961	11583.4
859.283	11445.32
859.605	11418.2
859.926	11481.25
860.248	11429.95
860.57	11386.11
860.891	11323.74
861.212	11383.85
861.534	11269.51
861.855	11249.17
862.176	11268.15
862.498	11298.21
862.819	11282.16
863.14	11226.34
863.461	11222.5
863.782	11203.29
864.103	11120.36
864.424	11112.45
864.745	11111.32
865.065	11032
865.386	11042.39
865.707	11027.25
866.027	11000.13
866.348	11029.51
866.668	10897.54
866.989	10988.61
867.309	10846.24
867.63	10969.17
867.95	10880.82
868.27	10839.91
868.59	10909.06
868.91	10831.78
869.23	10845.79
869.55	10740.25
869.87	10866.58
870.19	10780.48
870.51	10820.25
870.83	10772.34
871.15	10678.79
871.469	10700.93
871.789	10733.02
872.109	10690.99
872.428	10665.45
872.748	10675.4
873.067	10623.2
873.386	10569.41
873.706	10591.78
874.025	10575.29
874.344	10552.69
874.663	10584.33
874.982	10490.32
875.301	10503.2
875.62	10464.33
875.939	10459.58
876.258	10478.79
876.577	10457.78
876.896	10441.73
877.214	10432.01
877.533	10439.02
877.852	10374.61
878.17	10334.62
878.489	10365.35
878.807	10386.14
879.125	10351.79
879.444	10306.37
879.762	10251.68
880.08	10213.04
880.398	10171.23
880.716	10216.65
881.034	10167.84
881.352	10133.94
881.67	10159.03
881.988	10095.98
882.306	10058.24
882.624	10077.67
882.941	10007.39
883.259	9965.81
883.577	10035.19
883.894	9977.79
884.212	9988.18
884.529	9952.93
884.846	9940.73
885.164	9903.21
885.481	9859.15
885.798	9856.66
886.115	9804.91
886.432	9815.98
886.75	9781.18
887.067	9850.11
887.383	9737.12
887.7	9766.72
888.017	9710.9
888.334	9648.76
888.651	9636.55
888.967	9666.61
889.284	9587.74
889.6	9624.58
889.917	9528.76
890.233	9568.76
890.55	9468.65
890.866	9499.61
891.182	9482.43
891.498	9418.48
891.815	9368.76
892.131	9362.44
892.447	9296.22
892.763	9335.32
893.079	9270.91
893.395	9320.18
893.71	9222.78
894.026	9244.47
894.342	9109.11
894.657	9071.37
894.973	9136
895.289	9102.33
895.604	9039.73
895.92	8936.69
896.235	8927.65
896.55	8874.54
896.865	8950.7
897.181	8934.43
897.496	8890.59
897.811	8870.02
898.126	8763.13
898.441	8784.83
898.756	8793.64
899.071	8699.63
899.386	8640.87
899.7	8613.98
900.015	8573.53
900.33	8487.43
900.644	8510.03
900.959	8511.61
901.273	8449.47
901.588	8423.71
901.902	8406.53
902.216	8356.36
902.531	8362.24
902.845	8327.44
903.159	8269.36
903.473	8271.17
903.787	8154.33
904.101	8195.01
904.415	8209.25
904.729	8050.61
905.042	8082.02
905.356	8067.56
905.67	8055.81
905.984	8072.75
906.297	8016.26
906.611	7905.07
906.924	7925.64
907.237	7958.86
907.551	7884.96
907.864	7859.65
908.177	7857.39
908.491	7784.63
908.804	7694.91
909.117	7651.3
909.43	7618.75
909.743	7595.25
910.056	7573.33
910.368	7574.69
910.681	7551.41
910.994	7491.98
911.307	7493.11
911.619	7402.94
911.932	7414.92
912.244	7331.08
912.557	7385.77
912.869	7274.58
913.181	7254.7
913.494	7290.4
913.806	7218.09
914.118	7245.43
914.43	7142.16
914.742	7134.7
915.054	7067.58
915.366	7053.35
915.678	7101.03
915.99	7008.6
916.302	6935.83
916.613	6941.94
916.925	6934.7
917.236	6897.64
917.548	6873.46
917.859	6838.66
918.171	6842.05
918.482	6807.25
918.794	6813.58
919.105	6756.63
919.416	6676.41
919.727	6762.51
920.038	6683.64
920.349	6619.91
920.66	6607.26
920.971	6597.54
921.282	6581.49
921.593	6534.72
921.903	6476.86
922.214	6515.28
922.525	6426.7
922.835	6447.03
923.146	6399.8
923.456	6427.83
923.767	6336.75
924.077	6315.96
924.387	6281.16
924.697	6222.41
925.008	6282.29
925.318	6163.65
925.628	6204.78
925.938	6175.63
926.248	6086.82
926.558	6128.17
926.867	6107.61
927.177	6014.73
927.487	6042.98
927.796	5996.88
928.106	5932.47
928.416	5946.26
928.725	5913.04
929.034	5883.43
929.344	5913.04
929.653	5925.24
929.962	5841.85
930.271	5809.31
930.581	5823.55
930.89	5736.54
931.199	5755.53
931.508	5684.79
931.817	5697.22
932.125	5638.24
932.434	5659.03
932.743	5610.22
933.051	5596.21
933.36	5564.35
933.669	5540.84
933.977	5538.58
934.286	5466.27
934.594	5495.87
934.902	5446.16
935.21	5433.5
935.519	5443.22
935.827	5375.88
936.135	5409.32
936.443	5341.3
936.751	5325.48
937.059	5317.12
937.367	5264.92
937.674	5273.96
937.982	5238.25
938.29	5200.74
938.597	5224.69
938.905	5170.23
939.213	5185.82
939.52	5099.72
939.827	5137.01
940.135	5048.2
940.442	5056.34
940.749	5030.57
941.056	5096.33
941.363	5002.1
941.67	5016.56
941.977	4925.72
942.284	4908.54
942.591	4925.72
942.898	4911.71
943.205	4873.29
943.511	4889.11
943.818	4826.06
944.125	4824.7
944.431	4771.82
944.738	4790.13
945.044	4778.6
945.35	4741.99
945.657	4699.74
945.963	4708.55
946.269	4678.94
946.575	4642.34
946.881	4584.94
947.187	4628.1
947.493	4572.28
947.799	4569.12
948.105	4564.82
948.41	4537.71
948.716	4513.07
949.022	4454.54
949.327	4464.04
949.633	4422.91
949.938	4489.35
950.244	4419.29
950.549	4381.1
950.854	4376.13
951.16	4395.56
951.465	4351.72
951.77	4332.51
952.075	4317.6
952.38	4318.5
952.685	4246.19
952.99	4247.77
953.294	4213.19
953.599	4209.35
953.904	4199.86
954.209	4198.73
954.513	4183.36
954.818	4113.76
955.122	4142.46
955.426	4090.26
955.731	4134.55
956.035	4085.29
956.339	4065.18
956.643	4045.52
956.948	4041.45
957.252	4013.65
957.556	3991.51
957.86	3963.03
958.163	3963.26
958.467	3935.91
958.771	3927.78
959.075	3903.37
959.378	3862.02
959.682	3886.2
959.985	3862.92
960.289	3841
960.592	3795.58
960.896	3803.26
961.199	3757.84
961.502	3807.1
961.805	3735.69
962.108	3733.66
962.411	3688.91
962.714	3686.43
963.017	3714.9
963.32	3687.56
963.623	3665.86
963.926	3598.97
964.228	3615.47
964.531	3646.2
964.833	3574.79
965.136	3561.91
965.438	3602.59
965.741	3506.09
966.043	3500.22
966.345	3448.02
966.648	3498.41
966.95	3478.07
967.252	3444.17
967.554	3440.33
967.856	3448.47
968.158	3432.42
968.46	3432.42
968.761	3396.27
969.063	3377.74
969.365	3348.58
969.666	3340.22
969.968	3347.23
970.269	3341.58
970.571	3310.39
970.872	3334.35
971.174	3281.92
971.475	3262.48
971.776	3268.36
972.077	3238.53
972.378	3181.81
972.679	3239.43
972.98	3213.45
973.281	3189.94
973.582	3190.85
973.883	3166.67
974.183	3130.06
974.484	3168.93
974.785	3125.31
975.085	3123.73
975.386	3096.61
975.686	3129.38
975.986	3069.95
976.287	3041.7
976.587	3022.04
976.887	3059.55
977.187	3036.28
977.487	2999.44
977.787	2968.93
978.087	3003.73
978.387	2950.85
978.687	2943.62
978.987	2933.45
979.286	2945.88
979.586	2911.76
979.885	2906.11
980.185	2877.41
980.484	2854.36
980.784	2851.65
981.083	2830.41
981.382	2810.52
981.682	2824.3
981.981	2789.95
982.28	2756.06
982.579	2770.52
982.878	2807.36
983.177	2754.93
983.475	2742.5
983.774	2716.28
984.073	2710.41
984.372	2682.16
984.67	2692.33
984.969	2702.05
985.267	2693.23
985.566	2680.81
985.864	2640.35
986.162	2631.99
986.461	2600.36
986.759	2590.86
987.057	2562.62
987.355	2583.18
987.653	2573.46
987.951	2551.32
988.249	2550.64
988.547	2518.1
988.844	2525.33
989.142	2492.56
989.44	2475.16
989.737	2474.26
990.035	2486.23
990.332	2476.06
990.63	2455.27
990.927	2426.8
991.224	2419.34
991.521	2423.18
991.819	2421.38
992.116	2448.95
992.413	2378.89
992.71	2377.08
993.006	2375.05
993.303	2372.56
993.6	2382.51
993.897	2344.32
994.193	2319.23
994.49	2326.24
994.787	2297.31
995.083	2303.87
995.379	2294.83
995.676	2227.03
995.972	2264.32
996.268	2259.8
996.565	2227.71
996.861	2231.78
997.157	2205.56
997.453	2211.21
997.749	2185
998.044	2186.13
998.34	2176.64
998.636	2156.53
998.932	2121.5
999.227	2121.05
999.523	2132.12
999.818	2096.19
1000.114	2131.44
1000.409	2067.26
1000.704	2065.91
1001	2045.79
1001.295	2030.65
1001.59	2046.92
1001.885	2054.83
1002.18	1995.17
1002.475	2013.25
1002.77	1955.4
1003.065	1951.78
1003.359	1975.96
1003.654	1978.22
1003.949	1959.92
1004.243	1971.67
1004.538	1947.04
1004.832	1931.45
1005.127	1906.36
1005.421	1923.99
1005.715	1902.75
1006.009	1860.71
1006.304	1842.18
1006.598	1875.63
1006.892	1834.73
1007.186	1863.88
1007.48	1846.48
1007.773	1817.78
1008.067	1800.6
1008.361	1801.51
1008.655	1810.32
1008.948	1784.11
1009.242	1759.02
1009.535	1757.21
1009.829	1744.33
1010.122	1750.21
1010.415	1729.64
1010.708	1731.23
1011.001	1682.19
1011.295	1698.46
1011.588	1703.2
1011.881	1679.48
1012.173	1664.79
1012.466	1662.75
1012.759	1673.6
1013.052	1666.37
1013.344	1655.75
1013.637	1624.34
1013.93	1615.97
1014.222	1638.57
1014.514	1597.67
1014.807	1579.82
1015.099	1556.77
1015.391	1554.51
1015.683	1554.28
1015.976	1559.03
1016.268	1530.78
1016.56	1539.59
1016.851	1518.58
1017.143	1502.76
1017.435	1476.77
1017.727	1507.73
1018.018	1496.88
1018.31	1464.34
1018.602	1472.7
1018.893	1467.28
1019.185	1442.19
1019.476	1419.37
1019.767	1414.85
1020.058	1398.81
1020.35	1415.75
1020.641	1373.04
1020.932	1413.27
1021.223	1382.08
1021.514	1376.21
1021.804	1361.07
1022.095	1389.99
1022.386	1334.63
1022.677	1336.21
1022.967	1341.63
1023.258	1318.13
1023.548	1315.19
1023.839	1305.25
1024.129	1290.33
1024.419	1295.3
1024.709	1282.88
1025	1286.94
1025.29	1255.76
1025.58	1252.37
1025.87	1254.63
1026.16	1245.59
1026.449	1210.34
1026.739	1228.87
1027.029	1215.53
1027.319	1190
1027.608	1201.52
1027.898	1197.68
1028.187	1200.17
1028.477	1164.46
1028.766	1179.15
1029.055	1178.25
1029.344	1189.54
1029.634	1154.97
1029.923	1137.79
1030.212	1140.51
1030.501	1136.44
1030.79	1116.78
1031.078	1120.62
1031.367	1074.07
1031.656	1076.78
1031.945	1115.2
1032.233	1066.84
1032.522	1067.74
1032.81	1114.07
1033.099	1055.31
1033.387	1079.49
1033.675	1054.86
1033.963	1040.62
1034.251	1014.86
1034.54	1034.29
1034.828	992.04
1035.116	994.3
1035.403	1000.4
1035.691	1003.56
1035.979	1022.09
1036.267	989.55
1036.554	982.32
1036.842	975.31
1037.129	977.35
1037.417	958.14
1037.704	964.01
1037.992	947.07
1038.279	943.68
1038.566	945.03
1038.853	945.03
1039.14	945.03
