Data from hue_280_FLMS001491_00041.txt Node
Date: Tue Feb 07 15:55:19 GMT 2017
User: dcchb
Spectrometer: FLMS00149
Trigger mode: 0
Integration Time (sec): 2.000000E-2
Scans to average: 10
Electric dark correction enabled: true
Nonlinearity correction enabled: false
Boxcar width: 0
XAxis mode: Wavelengths
Number of Pixels in Spectrum: 2048
>>>>>Begin Spectral Data<<<<<
341.393	6.05
341.776	6.05
342.16	6.05
342.543	-67.85
342.927	-78.02
343.31	-64.69
343.693	-61.75
344.077	-57.91
344.46	-64.91
344.843	-28.53
345.226	-45.48
345.61	-23.56
345.993	-2.99
346.376	-8.19
346.759	-10.68
347.142	31.58
347.525	39.26
347.908	46.04
348.291	68.87
348.674	88.08
349.057	94.86
349.44	111.13
349.823	128.08
350.206	164.68
350.588	196.32
350.971	186.83
351.354	191.35
351.737	225.25
352.119	249.2
352.502	247.85
352.884	249.2
353.267	274.06
353.65	274.96
354.032	301.63
354.414	292.59
354.797	301.63
355.179	298.92
355.562	309.77
355.944	296.43
356.326	319.71
356.709	335.53
357.091	328.52
357.473	330.78
357.855	328.75
358.238	347.73
358.62	321.52
359.002	315.64
359.384	326.26
359.766	335.3
360.148	320.84
360.53	328.52
360.912	321.74
361.294	320.39
361.676	323.1
362.057	328.07
362.439	303.66
362.821	302.76
363.203	327.62
363.584	304.57
363.966	320.39
364.348	292.14
364.729	314.51
365.111	302.76
365.493	314.06
365.874	312.48
366.256	314.06
366.637	315.19
367.019	295.75
367.4	300.95
367.781	298.01
368.163	312.48
368.544	315.64
368.925	304.12
369.306	313.61
369.688	291.91
370.069	300.05
370.45	300.5
370.831	310.44
371.212	307.73
371.593	315.87
371.974	316.32
372.355	300.05
372.736	302.99
373.117	308.18
373.498	304.57
373.879	292.59
374.26	311.57
374.641	295.53
375.021	307.96
375.402	315.87
375.783	311.8
376.163	314.96
376.544	322.19
376.925	319.26
377.305	302.08
377.686	326.04
378.066	321.07
378.447	330.78
378.827	342.08
379.208	326.26
379.588	314.51
379.968	302.31
380.349	324
380.729	336.21
381.109	312.93
381.489	314.51
381.87	347.96
382.25	345.25
382.63	347.73
383.01	344.34
383.39	324.91
383.77	334.62
384.15	337.11
384.53	336.88
384.91	357
385.29	341.4
385.67	336.43
386.049	349.99
386.429	345.7
386.809	355.87
387.189	349.99
387.568	342.76
387.948	337.56
388.328	343.44
388.707	352.93
389.087	341.63
389.466	354.96
389.846	331.69
390.225	369.2
390.605	358.58
390.984	337.79
391.363	373.27
391.743	351.12
392.122	374.62
392.501	360.16
392.881	359.48
393.26	361.74
393.639	374.4
394.018	368.3
394.397	380.72
394.776	372.59
395.155	371.01
395.534	378.69
395.913	386.6
396.292	378.01
396.671	382.08
397.05	372.59
397.429	367.39
397.808	367.17
398.186	371.01
398.565	389.54
398.944	400.84
399.323	404.23
399.701	371.46
400.08	414.62
400.458	387.5
400.837	401.74
401.215	406.94
401.594	404.23
401.972	399.26
402.351	401.51
402.729	403.1
403.107	401.74
403.486	414.4
403.864	397.45
404.242	420.72
404.62	419.14
404.999	444
405.377	417.56
405.755	439.03
406.133	413.04
406.511	440.84
406.889	431.57
407.267	455.3
407.645	456.65
408.023	446.49
408.401	463.89
408.779	455.52
409.156	483.09
409.534	489.87
409.912	465.47
410.29	491
410.667	502.98
411.045	505.01
411.422	503.21
411.8	509.99
412.178	531.23
412.555	543.66
412.933	526.71
413.31	532.36
413.687	546.82
414.065	536.43
414.442	547.95
414.819	548.4
415.197	579.14
415.574	573.26
415.951	575.3
416.328	575.75
416.705	582.98
417.082	603.09
417.46	581.17
417.837	622.07
418.214	624.56
418.591	613.94
418.967	625.92
419.344	632.47
419.721	629.98
420.098	672.69
420.475	652.13
420.852	684.9
421.228	656.65
421.605	687.61
421.982	708.63
422.358	716.08
422.735	703.43
423.111	698.46
423.488	729.64
423.864	734.84
424.241	732.81
424.617	739.13
424.994	757.66
425.37	765.35
425.746	773.26
426.123	791.56
426.499	786.14
426.875	795.18
427.251	811.45
427.627	848.96
428.003	795.18
428.379	825.46
428.756	853.48
429.132	885.57
429.507	872.01
429.883	869.75
430.259	890.09
430.635	896.42
431.011	902.97
431.387	917.21
431.763	937.77
432.138	961.5
432.514	945
432.89	970.31
433.265	969.64
433.641	1011.44
434.016	1003.53
434.392	1013.25
434.767	1041.72
435.143	1025.23
435.518	1052.12
435.894	1061.16
436.269	1076.98
436.644	1101.84
437.02	1107.26
437.395	1103.19
437.77	1142.96
438.145	1160.59
438.52	1161.49
438.895	1146.58
439.271	1173.02
439.646	1226.13
440.021	1229.52
440.395	1223.64
440.77	1227.26
441.145	1259.12
441.52	1252.34
441.895	1264.99
442.27	1256.18
442.645	1230.87
443.019	1297.08
443.394	1314.26
443.769	1314.71
444.143	1280.81
444.518	1337.99
444.892	1320.13
445.267	1352.68
445.641	1337.76
446.016	1350.42
446.39	1366.24
446.764	1373.01
447.139	1344.54
447.513	1366.46
447.887	1354.94
448.262	1357.42
448.636	1393.35
449.01	1416.18
449.384	1440.58
449.758	1394.03
450.132	1424.31
450.506	1406.23
450.88	1448.27
451.254	1431.77
451.628	1424.31
452.002	1464.54
452.376	1483.75
452.75	1513.35
453.123	1484.65
453.497	1521.71
453.871	1534.59
454.244	1577.76
454.618	1560.13
454.992	1568.72
455.365	1575.04
455.739	1605.55
456.112	1653.23
456.486	1587.92
456.859	1629.96
457.232	1648.04
457.606	1651.43
457.979	1682.39
458.352	1707.47
458.725	1710.63
459.099	1718.32
459.472	1716.73
459.845	1758.09
460.218	1758.54
460.591	1780.24
460.964	1764.42
461.337	1797.18
461.71	1837.18
462.083	1834.47
462.456	1814.59
462.829	1846.22
463.201	1861.36
463.574	1875.6
463.947	1921.93
464.32	1948.37
464.692	1955.37
465.065	1953.34
465.438	1979.78
465.81	1991.98
466.183	2025.2
466.555	2028.14
466.928	2056.84
467.3	2029.04
467.672	2081.02
468.045	2099.32
468.417	2085.76
468.789	2154.69
469.161	2157.17
469.534	2199.43
469.906	2198.76
470.278	2217.74
470.65	2221.58
471.022	2272.43
471.394	2315.59
471.766	2304.52
472.138	2349.49
472.51	2367.11
472.882	2412.31
473.253	2434.46
473.625	2445.3
473.997	2472.65
474.369	2500.22
474.74	2539.99
475.112	2561.01
475.484	2536.6
475.855	2615.02
476.227	2648.46
476.598	2668.57
476.97	2677.39
477.341	2728.46
477.713	2766.65
478.084	2788.34
478.455	2811.17
478.827	2829.25
479.198	2912.41
479.569	2937.95
479.94	2992.18
480.311	3025.63
480.682	3029.02
481.053	3116.47
481.424	3151.05
481.795	3129.8
482.166	3200.09
482.537	3209.58
482.908	3259.29
483.279	3262.46
483.65	3340.65
484.021	3386.97
484.391	3421.1
484.762	3413.64
485.133	3445.73
485.503	3448.89
485.874	3542
486.244	3549.45
486.615	3607.53
486.985	3647.53
487.356	3673.29
487.726	3726.17
488.097	3766.85
488.467	3750.13
488.837	3848.66
489.207	3856.57
489.578	3895.21
489.948	3924.36
490.318	3971.82
490.688	4000.52
491.058	3990.12
491.428	4062.21
491.798	4090.23
492.168	4180.85
492.538	4156.67
492.908	4199.38
493.278	4229.89
493.648	4241.87
494.017	4304.46
494.387	4338.13
494.757	4333.84
495.126	4341.75
495.496	4375.42
495.866	4411.35
496.235	4446.83
496.605	4467.17
496.974	4474.85
497.344	4503.55
497.713	4541.29
498.082	4541.97
498.452	4593.72
498.821	4596.88
499.19	4593.04
499.559	4647.05
499.928	4687.5
500.298	4644.79
500.667	4685.02
501.036	4710.55
501.405	4745.36
501.774	4748.07
502.143	4749.88
502.512	4748.52
502.88	4785.58
503.249	4800.5
503.618	4842.53
503.987	4842.53
504.356	4833.04
504.724	4845.47
505.093	4892.7
505.462	4911.68
505.83	4915.52
506.199	4967.27
506.567	4982.19
506.936	4989.19
507.304	5036.2
507.672	5018.57
508.041	5073.03
508.409	5015.18
508.777	5085.46
509.145	5157.32
509.514	5084.78
509.882	5148.51
510.25	5101.73
510.618	5190.32
510.986	5160.49
511.354	5238.22
511.722	5213.37
512.09	5298.34
512.458	5203.87
512.826	5272.8
513.193	5277.54
513.561	5272.12
513.929	5334.04
514.297	5329.07
514.664	5390.99
515.032	5346.7
515.4	5387.15
515.767	5395.28
516.135	5430.08
516.502	5391.21
516.869	5445.22
517.237	5448.61
517.604	5447.48
517.972	5434.15
518.339	5485.9
518.706	5486.58
519.073	5490.65
519.44	5566.8
519.808	5562.74
520.175	5575.39
520.542	5601.6
520.909	5587.37
521.276	5589.4
521.643	5603.41
522.009	5647.03
522.376	5644.09
522.743	5708.72
523.11	5698.78
523.477	5772.67
523.843	5758.66
524.21	5769.06
524.577	5836.17
524.943	5804.31
525.31	5833.91
525.676	5870.75
526.043	5877.98
526.409	5879.79
526.776	5956.62
527.142	5916.62
527.508	5987.58
527.874	6011.31
528.241	6018.54
528.607	6044.98
528.973	6097.18
529.339	6082.04
529.705	6068.03
530.071	6168.37
530.437	6098.31
530.803	6208.14
531.169	6180.8
531.535	6174.47
531.901	6227.8
532.267	6282.94
532.632	6243.17
532.998	6279.55
533.364	6263.51
533.73	6297.41
534.095	6371.3
534.461	6354.8
534.826	6337.4
535.192	6390.51
535.557	6425.31
535.923	6368.14
536.288	6432.99
536.653	6469.83
537.019	6325.2
537.384	6424.86
537.749	6448.14
538.114	6508.47
538.479	6474.8
538.845	6521.81
539.21	6454.69
539.575	6504.41
539.94	6535.14
540.305	6614.46
540.67	6523.16
541.034	6557.29
541.399	6574.23
541.764	6665.98
542.129	6622.14
542.494	6569.71
542.858	6621.92
543.223	6625.53
543.587	6653.78
543.952	6634.35
544.316	6682.71
544.681	6696.49
545.045	6713.89
545.41	6752.76
545.774	6759.54
546.138	6742.59
546.503	6752.53
546.867	6717.96
547.231	6815.58
547.595	6781.01
547.959	6827.11
548.324	6820.33
548.688	6811.29
549.052	6823.27
549.416	6838.63
549.779	6851.29
550.143	6869.14
550.507	6887.45
550.871	6924.73
551.235	6903.94
551.599	6970.61
551.962	6973.55
552.326	6963.6
552.689	6999.76
553.053	6987.33
553.417	6976.48
553.78	7060.77
554.143	7025.97
554.507	6984.84
554.87	7051.06
555.234	7114.56
555.597	7055.58
555.96	7086.54
556.323	7104.16
556.686	7090.83
557.05	7152.98
557.413	7147.55
557.776	7140.77
558.139	7175.12
558.502	7179.42
558.865	7191.84
559.228	7224.16
559.59	7218.74
559.953	7284.27
560.316	7359.3
560.679	7315.23
561.041	7373.08
561.404	7329.24
561.767	7404.49
562.129	7427.77
562.492	7475.23
562.854	7395.23
563.217	7429.35
563.579	7467.09
563.941	7543.02
564.304	7514.32
564.666	7556.81
565.028	7518.84
565.39	7619.18
565.753	7667.31
566.115	7649.91
566.477	7643.36
566.839	7715.9
567.201	7729.23
567.563	7704.6
567.925	7779.85
568.287	7786.41
568.648	7834.99
569.01	7839.51
569.372	7905.95
569.734	7911.83
570.095	7885.84
570.457	7994.76
570.819	7918.15
571.18	8046.06
571.542	8031.37
571.903	8072.05
572.265	8099.17
572.626	8089
572.987	8158.15
573.349	8162.89
573.71	8183.91
574.071	8219.39
574.432	8271.59
574.794	8288.77
575.155	8324.47
575.516	8314.08
575.877	8413.96
576.238	8423
576.599	8411.7
576.96	8506.39
577.32	8468.65
577.681	8523.11
578.042	8583.9
578.403	8587.51
578.763	8660.05
579.124	8631.35
579.485	8739.6
579.845	8720.84
580.206	8838.36
580.566	8832.03
580.927	8846.49
581.287	8886.49
581.648	8970.1
582.008	8976.2
582.368	9072.93
582.728	9104.79
583.089	9135.3
583.449	9157.67
583.809	9264.33
584.169	9302.75
584.529	9306.82
584.889	9418.68
585.249	9412.13
585.609	9423.2
585.969	9506.81
586.329	9585.68
586.688	9607.37
587.048	9597.88
587.408	9712.91
587.768	9723.3
588.127	9838.78
588.487	9837.65
588.846	9993.35
589.206	10041.49
589.565	10052.33
589.925	10115.38
590.284	10193.35
590.643	10246.91
591.003	10330.07
591.362	10398.54
591.721	10417.75
592.08	10541.81
592.44	10529.38
592.799	10607.8
593.158	10627.01
593.517	10691.87
593.876	10785.65
594.235	10832.65
594.593	10930.05
594.952	10948.13
595.311	11014.57
595.67	11076.49
596.029	11215.92
596.387	11242.59
596.746	11315.58
597.104	11320.55
597.463	11333.43
597.822	11405.75
598.18	11429.25
598.538	11459.76
598.897	11541.79
599.255	11507.44
599.613	11788.11
599.972	11681.22
600.33	11739.07
600.688	11753.53
601.046	11827.2
601.404	11987.2
601.762	11924.83
602.12	11969.35
602.478	12038.95
602.836	12043.69
603.194	12052.73
603.552	12110.36
603.91	12112.85
604.268	12161.66
604.625	12180.41
604.983	12333.86
605.341	12247.31
605.698	12311.71
606.056	12356.45
606.413	12386.74
606.771	12503.12
607.128	12518.03
607.485	12487.07
607.843	12493.4
608.2	12532.27
608.557	12631.25
608.914	12711.02
609.272	12736.33
609.629	12745.82
609.986	12854.52
610.343	12750.57
610.7	12752.15
611.057	12883.9
611.414	12871.47
611.771	12926.61
612.127	12983.56
612.484	12978.59
612.841	13031.47
613.198	13066.04
613.554	12957.57
613.911	13146.72
614.267	13104.46
614.624	13050.22
614.98	13160.5
615.337	13187.85
615.693	13218.35
616.05	13202.53
616.406	13346.03
616.762	13241.86
617.118	13258.58
617.475	13291.12
617.831	13313.27
618.187	13419.03
618.543	13388.52
618.899	13431
619.255	13413.15
619.611	13392.13
619.967	13494.96
620.323	13554.84
620.678	13552.13
621.034	13571.79
621.39	13465.58
621.746	13463.09
622.101	13567.04
622.457	13502.87
622.812	13551.45
623.168	13560.49
623.523	13553.03
623.879	13661.51
624.234	13525.46
624.589	13702.63
624.945	13571.11
625.3	13581.28
625.655	13585.57
626.01	13686.36
626.365	13640.49
626.72	13615.18
627.075	13665.12
627.43	13630.32
627.785	13631.45
628.14	13635.52
628.495	13686.82
628.85	13700.37
629.205	13556.42
629.559	13670.09
629.914	13540.6
630.269	13681.17
630.623	13486.82
630.978	13527.95
631.332	13617.21
631.687	13583.99
632.041	13566.37
632.396	13534.5
632.75	13593.26
633.104	13601.62
633.459	13493.83
633.813	13539.47
634.167	13613.6
634.521	13460.61
634.875	13550.77
635.229	13512.58
635.583	13432.36
635.937	13483.66
636.291	13426.48
636.645	13430.78
636.999	13471.68
637.352	13470.32
637.706	13295.19
638.06	13405.24
638.413	13393.72
638.767	13323.89
639.121	13404.11
639.474	13365.02
639.828	13343.77
640.181	13373.6
640.534	13369.76
640.888	13270.56
641.241	13252.93
641.594	13273.27
641.947	13331.34
642.301	13273.94
642.654	13305.36
643.007	13339.93
643.36	13177.22
643.713	13319.59
644.066	13298.35
644.419	13182.2
644.771	13145.13
645.124	13024.23
645.477	13073.5
645.83	12868.31
646.182	12872.6
646.535	12860.4
646.888	12936.78
647.24	12853.16
647.593	12912.15
647.945	12817.91
648.298	12837.35
648.65	12788.31
649.002	12764.81
649.355	12866.27
649.707	12866.72
650.059	12887.97
650.411	13078.02
650.763	13101.52
651.115	13237.56
651.467	13145.59
651.819	13207.73
652.171	13134.51
652.523	13067.62
652.875	13147.39
653.227	13127.06
653.578	13203.89
653.93	13155.98
654.282	13077.34
654.633	13092.71
654.985	13120.95
655.337	13093.16
655.688	13092.93
656.039	13218.13
656.391	13127.28
656.742	13189.43
657.094	13141.74
657.445	13159.6
657.796	13140.61
658.147	13201.63
658.498	13135.64
658.849	13250.44
659.2	13093.16
659.551	13129.99
659.902	13200.5
660.253	13165.93
660.604	13189.43
660.955	13108.07
661.306	13230.1
661.656	13198.69
662.007	13318.92
662.358	13148.07
662.708	13213.83
663.059	13181.52
663.409	13100.84
663.76	13330.21
664.11	13291.57
664.461	13197.56
664.811	13320.72
665.161	13231.46
665.511	13216.77
665.862	13223.78
666.212	13325.69
666.562	13314.85
666.912	13267.39
667.262	13180.84
667.612	13157.34
667.962	13258.8
668.312	13254.51
668.662	13309.2
669.011	13229.88
669.361	13287.05
669.711	13232.82
670.06	13225.58
670.41	13242.76
670.76	13176.55
671.109	13224.23
671.459	13245.02
671.808	13201.18
672.157	13144
672.507	13111.46
672.856	13093.38
673.205	13175.87
673.554	13144.68
673.904	13165.93
674.253	13237.11
674.602	13102.2
674.951	12986.49
675.3	12939.04
675.649	13135.87
675.998	13133.16
676.346	13088.41
676.695	13097
677.044	13002.99
677.393	13022.43
677.741	13047.51
678.09	12967.74
678.438	12951.69
678.787	12931.13
679.135	12943.78
679.484	12839.61
679.832	12886.61
680.181	12843.22
680.529	12875.31
680.877	12814.75
681.225	12782.66
681.573	12930.9
681.922	12814.75
682.27	12796.44
682.618	12809.55
682.966	12747.4
683.314	12708.99
683.661	12698.14
684.009	12621.76
684.357	12661.31
684.705	12587.18
685.053	12616.11
685.4	12605.94
685.748	12595.77
686.095	12557.58
686.443	12492.95
686.79	12467.41
687.138	12527.07
687.485	12444.14
687.832	12337.02
688.18	12396.91
688.527	12254.08
688.874	12256.34
689.221	12258.6
689.568	12217.02
689.915	12199.62
690.262	12152.17
690.609	12168.66
690.956	12106.97
691.303	12104.71
691.65	11991.49
691.997	11983.58
692.344	11981.78
692.69	11904.49
693.037	11910.82
693.383	11799.41
693.73	11833.53
694.077	11737.04
694.423	11709.92
694.769	11674.89
695.116	11611.39
695.462	11611.62
695.808	11517.83
696.155	11616.14
696.501	11518.96
696.847	11458.17
697.193	11362.36
697.539	11421.79
697.885	11341.79
698.231	11284.17
698.577	11255.24
698.923	11233.09
699.269	11191.97
699.614	11030.61
699.96	11097.5
700.306	10966.21
700.651	11028.35
700.997	10967.11
701.342	10881.92
701.688	10929.6
702.033	10877.4
702.379	10844.86
702.724	10791.98
703.069	10850.51
703.415	10661.58
703.76	10634.92
704.105	10733.22
704.45	10617.52
704.795	10591.98
705.14	10562.38
705.485	10524.19
705.83	10490.52
706.175	10467.24
706.52	10466.79
706.865	10409.16
707.209	10331.42
707.554	10336.85
707.899	10338.88
708.243	10329.16
708.588	10263.4
708.932	10193.35
709.277	10192.44
709.621	10188.38
709.966	10075.61
710.31	10110.64
710.654	10004.88
710.998	10033.35
711.342	10060.92
711.687	10050.53
712.031	10033.8
712.375	9974.82
712.719	9998.32
713.063	9944.31
713.407	9944.31
713.75	9951.55
714.094	9908.84
714.438	9832.45
714.782	9810.53
715.125	9787.03
715.469	9839.91
715.812	9724.43
716.156	9678.56
716.499	9717.2
716.843	9693.02
717.186	9630.42
717.53	9671.33
717.873	9706.35
718.216	9668.39
718.559	9628.39
718.902	9576.64
719.246	9551.78
719.589	9513.37
719.932	9566.92
720.275	9532.12
720.617	9544.55
720.96	9472.46
721.303	9409.64
721.646	9478.79
721.989	9443.09
722.331	9485.34
722.674	9509.52
723.016	9450.32
723.359	9532.12
723.701	9441.5
724.044	9354.95
724.386	9348.62
724.729	9439.92
725.071	9366.25
725.413	9398.79
725.755	9389.98
726.097	9359.7
726.439	9316.31
726.782	9318.57
727.124	9435.85
727.465	9298.46
727.807	9319.25
728.149	9303.2
728.491	9249.42
728.833	9342.07
729.175	9293.03
729.516	9347.04
729.858	9227.95
730.199	9265.24
730.541	9250.32
730.882	9220.27
731.224	9306.14
731.565	9202.41
731.906	9232.7
732.248	9271.79
732.589	9173.04
732.93	9187.5
733.271	9298.91
733.612	9321.96
733.953	9326.48
734.294	9264.78
734.635	9248.29
734.976	9323.77
735.317	9317.44
735.658	9238.8
735.999	9255.97
736.339	9279.93
736.68	9345.91
737.021	9263.88
737.361	9260.04
737.702	9301.62
738.042	9222.75
738.383	9284.67
738.723	9296.65
739.063	9327.16
739.404	9324.67
739.744	9273.37
740.084	9340.71
740.424	9367.38
740.764	9328.96
741.104	9433.14
741.444	9332.81
741.784	9345.46
742.124	9460.49
742.464	9388.17
742.804	9533.03
743.143	9483.08
743.483	9498
743.823	9471.33
744.162	9501.61
744.502	9554.72
744.841	9536.87
745.181	9640.82
745.52	9694.6
745.86	9644.21
746.199	9733.47
746.538	9747.48
746.877	9857.99
747.216	9786.58
747.556	9875.39
747.895	9900.93
748.234	9993.81
748.573	9987.25
748.911	10088.04
749.25	10155.38
749.589	10150.41
749.928	10258.43
750.267	10297.53
750.605	10445.77
750.944	10405.55
751.283	10501.59
751.621	10607.12
751.96	10691.41
752.298	10859.32
752.636	10865.19
752.975	10924.18
753.313	11047.56
753.651	11128.24
753.989	11259.31
754.327	11256.6
754.666	11349.02
755.004	11521
755.342	11710.37
755.679	11733.65
756.017	11928.9
756.355	12067.87
756.693	12180.19
757.031	12277.13
757.368	12405.04
757.706	12494.76
758.044	12616.79
758.381	12800.74
758.719	12917.8
759.056	13066.72
759.394	13221.97
759.731	13295.64
760.068	13431.45
760.405	13580.6
760.743	13699.7
761.08	13951.67
761.417	13955.06
761.754	14157.09
762.091	14301.26
762.428	14423.07
762.765	14536.96
763.102	14726.34
763.438	14801.59
763.775	14914.35
764.112	15124.97
764.449	15346.66
764.785	15334.68
765.122	15397.96
765.458	15526.99
765.795	15671.17
766.131	15858.51
766.467	15884.5
766.804	15955.68
767.14	16010.82
767.476	16248.56
767.812	16266.41
768.148	16421.66
768.485	16419.85
768.821	16503.69
769.157	16630.47
769.492	16701.2
769.828	16819.16
770.164	16760.86
770.5	16963.34
770.836	17010.34
771.171	17073.39
771.507	17142.54
771.842	17067.07
772.178	17263.67
772.513	17281.3
772.849	17335.08
773.184	17385.02
773.519	17454.4
773.855	17485.13
774.19	17384.57
774.525	17504.57
774.86	17521.06
775.195	17659.37
775.53	17665.02
775.865	17567.84
776.2	17586.37
776.535	17557
776.87	17605.13
777.205	17681.74
777.539	17711.79
777.874	17720.61
778.209	17635.19
778.543	17754.73
778.878	17644.45
779.212	17763.77
779.547	17578.24
779.881	17865.69
780.215	17804.22
780.55	17749.76
780.884	17702.53
781.218	17711.57
781.552	17674.96
781.886	17655.07
782.22	17629.08
782.554	17574.17
782.888	17514.06
783.222	17405.81
783.556	17549.54
783.889	17491.46
784.223	17466.38
784.557	17506.38
784.89	17450.11
785.224	17424.34
785.557	17424.12
785.891	17270
786.224	17279.72
786.558	17313.61
786.891	17243.56
787.224	17245.37
787.557	17164.92
787.891	17166.72
788.224	17189.55
788.557	17167.4
788.89	17094.41
789.223	17093.73
789.556	17049.21
789.888	17019.61
790.221	16976.67
790.554	16871.82
790.887	16832.72
791.219	16761.54
791.552	16766.06
791.884	16766.73
792.217	16689
792.549	16646.74
792.882	16519.74
793.214	16517.7
793.546	16576.23
793.879	16494.2
794.211	16373.07
794.543	16582.11
794.875	16427.99
795.207	16502.56
795.539	16377.59
795.871	16319.74
796.203	16284.26
796.535	16251.27
796.867	16091.05
797.198	16077.03
797.53	16169.46
797.862	15982.57
798.193	16078.84
798.525	15932.63
798.856	16048.79
799.188	15901.9
799.519	15856.02
799.85	15715.69
800.182	15738.96
800.513	15739.64
800.844	15651.96
801.175	15672.07
801.506	15712.98
801.837	15591.4
802.168	15564.96
802.499	15472.31
802.83	15446.54
803.161	15448.35
803.491	15391.63
803.822	15360.22
804.153	15265.53
804.483	15308.69
804.814	15178.75
805.145	15194.12
805.475	15126.78
805.805	15075.25
806.136	15148.25
806.466	15098.98
806.796	15041.58
807.126	14939.66
807.457	14917.74
807.787	14863.51
808.117	14926.56
808.447	14791.42
808.777	14905.77
809.107	14865.99
809.436	14751.65
809.766	14710.74
810.096	14666.45
810.426	14619.67
810.755	14623.97
811.085	14611.08
811.414	14536.74
811.744	14444.99
812.073	14456.74
812.403	14440.24
812.732	14387.14
813.061	14377.87
813.39	14336.52
813.719	14370.87
814.049	14297.65
814.378	14296.74
814.707	14224.65
815.036	14184.43
815.365	14167.25
815.693	13947.83
816.022	14091.55
816.351	14001.38
816.68	13952.57
817.008	13939.24
817.337	13873.7
817.665	13927.71
817.994	13890.65
818.322	13885.91
818.651	13809.98
818.979	13781.73
819.307	13715.52
819.636	13806.36
819.964	13735.18
820.292	13758.45
820.62	13762.52
820.948	13645.23
821.276	13756.19
821.604	13669.19
821.932	13692.01
822.259	13787.83
822.587	13669.41
822.915	13684.78
823.243	13644.1
823.57	13678.23
823.898	13621.51
824.225	13617.66
824.553	13552.36
824.88	13693.14
825.207	13607.95
825.535	13658.79
825.862	13669.87
826.189	13583.32
826.516	13699.47
826.843	13653.82
827.17	13675.06
827.497	13655.63
827.824	13724.33
828.151	13655.63
828.478	13658.34
828.805	13697.89
829.131	13613.82
829.458	13577.89
829.785	13516.65
830.111	13691.33
830.438	13757.32
830.764	13637.78
831.09	13642.97
831.417	13656.76
831.743	13635.97
832.069	13645.91
832.395	13579.47
832.722	13569.98
833.048	13592.58
833.374	13557.33
833.7	13518.68
834.026	13542.41
834.351	13642.07
834.677	13460.83
835.003	13591
835.329	13602.3
835.654	13485.69
835.98	13415.41
836.306	13484.11
836.631	13434.62
836.956	13440.95
837.282	13393.26
837.607	13435.97
837.932	13418.8
838.258	13388.07
838.583	13342.64
838.908	13262.87
839.233	13207.96
839.558	13189.2
839.883	13266.04
840.208	13240.73
840.533	13137.23
840.858	13152.37
841.182	13197.79
841.507	13171.35
841.832	13054.06
842.156	13069.2
842.481	13030.11
842.805	13065.36
843.13	13056.55
843.454	13020.84
843.778	12909.43
844.103	12964.35
844.427	12911.69
844.751	12881.41
845.075	12810.91
845.399	12800.74
845.723	12766.84
846.047	12750.79
846.371	12615.88
846.695	12688.2
847.019	12589.89
847.343	12464.02
847.666	12411.82
847.99	12366.85
848.313	12331.82
848.637	12307.19
848.96	12247.98
849.284	12231.26
849.607	12204.14
849.931	12071.49
850.254	11999.18
850.577	11968.67
850.9	11937.71
851.223	11828.79
851.546	11817.71
851.869	11712.63
852.192	11791.05
852.515	11676.25
852.838	11667.21
853.161	11679.18
853.483	11588.34
853.806	11539.08
854.129	11574.33
854.451	11471.28
854.774	11406.42
855.096	11393.32
855.419	11339.08
855.741	11396.03
856.063	11316.26
856.385	11214.79
856.708	11199.65
857.03	11236.48
857.352	11232.42
857.674	11099.76
857.996	11046.43
858.318	11049.14
858.64	11059.54
858.961	11037.39
859.283	10975.7
859.605	10915.36
859.926	10975.25
860.248	10912.88
860.57	10755.14
860.891	10936.38
861.212	10781.13
861.534	10780.23
861.855	10650.74
862.176	10746.55
862.498	10741.58
862.819	10748.59
863.14	10666.56
863.461	10625.65
863.782	10574.81
864.103	10597.4
864.424	10575.03
864.745	10562.38
865.065	10544.07
865.386	10456.84
865.707	10544.75
866.027	10495.49
866.348	10451.42
866.668	10459.78
866.989	10502.04
867.309	10401.03
867.63	10423.4
867.95	10444.87
868.27	10300.01
868.59	10320.35
868.91	10330.97
869.23	10300.01
869.55	10280.13
869.87	10315.83
870.19	10256.85
870.51	10238.54
870.83	10262.05
871.15	10270.86
871.469	10165.1
871.789	10137.76
872.109	10213.01
872.428	10102.05
872.748	10139.34
873.067	10095.72
873.386	10091.88
873.706	10158.32
874.025	9979.12
874.344	10028.83
874.663	10086.23
874.982	10027.93
875.301	10023.41
875.62	10005.56
875.939	9945.9
876.258	9997.87
876.577	9939.57
876.896	9937.54
877.214	9882.85
877.533	9885.79
877.852	9868.61
878.17	9834.71
878.489	9914.94
878.807	9909.29
879.125	9798.1
879.444	9909.51
879.762	9737.31
880.08	9782.51
880.398	9745
880.716	9703.64
881.034	9749.29
881.352	9697.09
881.67	9659.58
881.988	9665.23
882.306	9591.56
882.624	9541.61
882.941	9570.54
883.259	9486.93
883.577	9553.14
883.894	9475.63
884.212	9492.35
884.529	9463.65
884.846	9414.61
885.164	9433.14
885.481	9350.88
885.798	9395.85
886.115	9259.81
886.432	9337.1
886.75	9296.65
887.067	9342.75
887.383	9295.52
887.7	9273.6
888.017	9230.66
888.334	9192.02
888.651	9185.92
888.967	9198.35
889.284	9076.09
889.6	9083.09
889.917	9041.29
890.233	9018.24
890.55	9023.66
890.866	9009.88
891.182	8989.99
891.498	8932.59
891.815	8943.44
892.131	8898.24
892.447	8886.26
892.763	8808.98
893.079	8841.52
893.395	8777.79
893.71	8716.32
894.026	8782.31
894.342	8721.52
894.657	8637.46
894.973	8697.57
895.289	8655.99
895.604	8594.07
895.92	8584.8
896.235	8508.42
896.55	8511.58
896.865	8522.88
897.181	8425.03
897.496	8410.34
897.811	8325.37
898.126	8431.59
898.441	8320.85
898.756	8323.34
899.071	8307.07
899.386	8277.92
899.7	8201.08
900.015	8217.81
900.33	8105.49
900.644	8113.63
900.959	8095.1
901.273	8076.34
901.588	8027.98
901.902	7996.34
902.216	8009.68
902.531	7891.26
902.845	7906.85
903.159	7864.37
903.473	7847.65
903.787	7810.81
904.101	7769.91
904.415	7727.2
904.729	7690.14
905.042	7728.78
905.356	7645.84
905.67	7663.24
905.984	7684.49
906.297	7637.71
906.611	7531.27
906.924	7553.42
907.237	7537.15
907.551	7432.29
907.864	7392.07
908.177	7445.4
908.491	7375.79
908.804	7294.89
909.117	7306.19
909.43	7276.81
909.743	7260.32
910.056	7225.74
910.368	7215.8
910.681	7217.15
910.994	7128.34
911.307	7063.49
911.619	7067.78
911.932	7048.8
912.244	7003.15
912.557	7026.43
912.869	6938.97
913.181	6952.08
913.494	6961.57
913.806	6849.03
914.118	6845.64
914.43	6824.17
914.742	6808.8
915.054	6731.07
915.366	6761.8
915.678	6733.33
915.99	6688.13
916.302	6647
916.613	6611.07
916.925	6607.68
917.236	6591.41
917.548	6541.92
917.859	6528.36
918.171	6486.55
918.482	6504.41
918.794	6421.92
919.105	6450.17
919.416	6383.73
919.727	6375.82
920.038	6376.72
920.349	6334.01
920.66	6267.8
920.971	6239.1
921.282	6244.3
921.593	6170.18
921.903	6186.67
922.214	6153.45
922.525	6129.05
922.835	6100.12
923.146	6035.49
923.456	6020.35
923.767	6047.69
924.077	6049.95
924.387	6020.58
924.697	5955.72
925.008	5946.45
925.318	5937.41
925.628	5939
925.938	5897.42
926.248	5800.02
926.558	5786.91
926.867	5804.31
927.177	5808.6
927.487	5777.87
927.796	5699.45
928.106	5681.38
928.416	5663.98
928.725	5677.08
929.034	5699.23
929.344	5651.32
929.653	5556.63
929.962	5528.39
930.271	5592.79
930.581	5521.15
930.89	5485.45
931.199	5470.76
931.508	5453.13
931.817	5445.22
932.125	5427.6
932.434	5413.59
932.743	5314.38
933.051	5323.19
933.36	5309.41
933.669	5305.11
933.977	5241.84
934.286	5206.13
934.594	5244.1
934.902	5190.09
935.21	5167.72
935.519	5172.46
935.827	5146.7
936.135	5070.09
936.443	5127.72
936.751	5082.75
937.059	5109.64
937.367	5034.61
937.674	5029.42
937.982	5016.31
938.29	4946.93
938.597	4959.81
938.905	4880.04
939.213	4940.15
939.52	4889.08
939.827	4861.28
940.135	4794.62
940.442	4832.58
940.749	4831.45
941.056	4804.11
941.363	4739.71
941.67	4757.11
941.977	4748.29
942.284	4692.02
942.591	4699.03
942.898	4639.37
943.205	4644.79
943.511	4658.13
943.818	4568.18
944.125	4575.64
944.431	4573.38
944.738	4546.94
945.044	4511.46
945.35	4487.96
945.657	4499.49
945.963	4440.5
946.269	4418.58
946.575	4396.44
946.881	4371.81
947.187	4386.27
947.493	4363.67
947.799	4384.46
948.105	4297.46
948.41	4276.67
948.716	4271.24
949.022	4254.52
949.327	4254.97
949.633	4225.37
949.938	4207.06
950.244	4195.77
950.549	4174.97
950.854	4138.59
951.16	4103.11
951.465	4103.79
951.77	4133.17
952.075	4076.67
952.38	4072.6
952.685	4078.48
952.99	4013.17
953.294	3975.43
953.599	4021.53
953.904	3967.97
954.209	3948.99
954.513	3972.27
954.818	3973.4
955.122	3895.21
955.426	3897.92
955.731	3852.05
956.035	3920.29
956.339	3853.18
956.643	3871.93
956.948	3840.75
957.252	3806.17
957.556	3803.91
957.86	3784.25
958.163	3769.56
958.467	3732.73
958.771	3759.62
959.075	3666.74
959.378	3706.51
959.682	3675.1
959.985	3676.23
960.289	3611.15
960.592	3637.81
960.896	3613.63
961.199	3605.72
961.502	3609.34
961.805	3591.26
962.108	3538.61
962.411	3551.71
962.714	3523.24
963.017	3523.92
963.32	3529.34
963.623	3485.5
963.926	3468.33
964.228	3470.36
964.531	3431.72
964.833	3400.08
965.136	3395.79
965.438	3393.98
965.741	3401.21
966.043	3370.7
966.345	3320.99
966.648	3341.78
966.95	3315.11
967.252	3306.3
967.554	3278.73
967.856	3267.2
968.158	3216.58
968.46	3253.87
968.761	3223.59
969.063	3207.32
969.365	3201.89
969.666	3188.79
969.968	3179.75
970.269	3165.74
970.571	3124.83
970.872	3173.42
971.174	3108.56
971.475	3175.91
971.776	3106.75
972.077	3078.51
972.378	3045.97
972.679	3027.43
972.98	3035.12
973.281	3036.47
973.582	2990.15
973.883	2989.47
974.183	3013.88
974.484	2970.71
974.785	2965.97
975.085	2960.32
975.386	2982.24
975.686	2947.44
975.986	2916.93
976.287	2911.51
976.587	2857.27
976.887	2883.03
977.187	2870.6
977.487	2845.52
977.787	2829.47
978.087	2817.04
978.387	2807.78
978.687	2806.42
978.987	2775.24
979.286	2750.38
979.586	2761.9
979.885	2725.75
980.185	2724.17
980.484	2719.42
980.784	2700.44
981.083	2687.33
981.382	2667.44
981.682	2668.57
981.981	2640.55
982.28	2670.16
982.579	2619.08
982.878	2636.03
983.177	2606.2
983.475	2583.83
983.774	2583.15
984.073	2575.24
984.372	2557.84
984.67	2563.27
984.969	2537.05
985.267	2517.84
985.566	2532.98
985.864	2506.54
986.162	2484.62
986.461	2479.65
986.759	2457.28
987.057	2479.88
987.355	2472.19
987.653	2451.18
987.951	2426.09
988.249	2398.75
988.547	2402.37
988.844	2427.9
989.142	2372.99
989.44	2400.33
989.737	2349.94
990.035	2366.43
990.332	2348.36
990.63	2329.6
990.927	2334.57
991.224	2310.84
991.521	2289.83
991.819	2305.19
992.116	2271.97
992.413	2291.18
992.71	2235.14
993.006	2241.69
993.303	2269.26
993.6	2244.18
993.897	2238.75
994.193	2195.82
994.49	2181.13
994.787	2193.11
995.083	2152.2
995.379	2175.25
995.676	2144.52
995.972	2155.14
996.268	2136.61
996.565	2121.24
996.861	2122.37
997.157	2092.09
997.453	2102.26
997.749	2113.79
998.044	2063.17
998.34	2066.78
998.636	2050.96
998.932	2030.17
999.227	2039.21
999.523	2001.7
999.818	1985.2
1000.114	1997.63
1000.409	2006.44
1000.704	1961.7
1001	1987.01
1001.295	1968.71
1001.59	1933.68
1001.885	1923.96
1002.18	1915.15
1002.475	1919.22
1002.77	1893.91
1003.065	1894.36
1003.359	1899.78
1003.654	1864.08
1003.949	1863.4
1004.243	1832.66
1004.538	1839.9
1004.832	1818.88
1005.127	1816.84
1005.421	1829.95
1005.715	1801.03
1006.009	1798.77
1006.304	1783.17
1006.598	1772.1
1006.892	1760.58
1007.186	1766.22
1007.48	1706.34
1007.773	1716.28
1008.067	1737.3
1008.361	1697.75
1008.655	1704.08
1008.948	1686.68
1009.242	1657.08
1009.535	1688.03
1009.829	1679.45
1010.122	1643.29
1010.415	1645.78
1010.708	1649.39
1011.001	1620.47
1011.295	1621.37
1011.588	1591.77
1011.881	1598.55
1012.173	1634.93
1012.466	1604.87
1012.759	1562.61
1013.052	1560.58
1013.344	1551.32
1013.637	1531.88
1013.93	1504.76
1014.222	1535.27
1014.514	1496.85
1014.807	1512.22
1015.099	1489.17
1015.391	1486.91
1015.683	1494.59
1015.976	1478.1
1016.268	1424.09
1016.56	1455.5
1016.851	1443.75
1017.143	1465.89
1017.435	1419.34
1017.727	1400.13
1018.018	1396.29
1018.31	1391.32
1018.602	1391.55
1018.893	1416.4
1019.185	1399.91
1019.476	1350.19
1019.767	1380.47
1020.058	1337.31
1020.35	1360.13
1020.641	1339.34
1020.932	1354.26
1021.223	1324.43
1021.514	1313.81
1021.804	1299.34
1022.095	1277.65
1022.386	1271.55
1022.677	1288.05
1022.967	1243.07
1023.258	1264.99
1023.548	1251.21
1023.839	1246.46
1024.129	1231.32
1024.419	1243.75
1024.709	1223.41
1025	1214.83
1025.29	1213.7
1025.58	1196.75
1025.87	1177.54
1026.16	1206.47
1026.449	1158.56
1026.739	1156.52
1027.029	1176.86
1027.319	1154.04
1027.608	1186.8
1027.898	1123.3
1028.187	1113.81
1028.477	1106.13
1028.766	1095.28
1029.055	1090.54
1029.344	1138.67
1029.634	1082.63
1029.923	1096.64
1030.212	1079.92
1030.501	1087.15
1030.79	1074.94
1031.078	1083.3
1031.367	1056.86
1031.656	1053.25
1031.945	1034.94
1032.233	1034.27
1032.522	1011.89
1032.81	1030.2
1033.099	1003.53
1033.387	998.11
1033.675	985.23
1033.963	991.56
1034.251	1006.7
1034.54	994.27
1034.828	976.42
1035.116	944.55
1035.403	952.46
1035.691	958.56
1035.979	945.91
1036.267	938.9
1036.554	946.36
1036.842	950.88
1037.129	916.98
1037.417	916.3
1037.704	908.39
1037.992	908.39
1038.279	885.34
1038.566	887.15
1038.853	887.15
1039.14	887.15
