Data from hue_240_FLMS001491_00047.txt Node
Date: Tue Feb 07 16:35:32 GMT 2017
User: dcchb
Spectrometer: FLMS00149
Trigger mode: 0
Integration Time (sec): 2.000000E-2
Scans to average: 10
Electric dark correction enabled: true
Nonlinearity correction enabled: false
Boxcar width: 0
XAxis mode: Wavelengths
Number of Pixels in Spectrum: 2048
>>>>>Begin Spectral Data<<<<<
341.393	-4.04
341.776	-4.04
342.16	-4.04
342.543	-49.24
342.927	-83.59
343.31	-62.57
343.693	-84.94
344.077	-56.69
344.46	-53.08
344.843	-56.24
345.226	-37.94
345.61	-19.18
345.993	-24.83
346.376	-10.82
346.759	5.23
347.142	28.28
347.525	46.81
347.908	53.36
348.291	81.83
348.674	80.93
349.057	109.86
349.44	122.51
349.823	146.92
350.206	175.39
350.588	185.33
350.971	198.67
351.354	203.86
351.737	253.13
352.119	250.64
352.502	251.32
352.884	257.87
353.267	262.17
353.65	284.31
354.032	295.84
354.414	284.31
354.797	314.37
355.179	315.73
355.562	310.08
355.944	322.73
356.326	308.72
356.709	350.3
357.091	318.66
357.473	308.49
357.855	338.32
358.238	315.27
358.62	324.77
359.002	304.43
359.384	330.42
359.766	316.63
360.148	321.6
360.53	331.09
360.912	335.61
361.294	326.35
361.676	312.79
362.057	299
362.439	335.61
362.821	303.98
363.203	300.59
363.584	313.47
363.966	304.88
364.348	307.36
364.729	302.39
365.111	319.34
365.493	309.85
365.874	308.72
366.256	296.97
366.637	333.13
367.019	289.06
367.4	299
367.781	317.76
368.163	327.93
368.544	317.53
368.925	303.75
369.306	299
369.688	288.83
370.069	302.39
370.45	309.85
370.831	293.35
371.212	317.76
371.593	297.42
371.974	326.12
372.355	293.58
372.736	310.3
373.117	316.4
373.498	318.44
373.879	302.85
374.26	327.93
374.641	305.56
375.021	315.05
375.402	300.59
375.783	316.4
376.163	299.91
376.544	319.34
376.925	310.3
377.305	326.57
377.686	320.7
378.066	322.28
378.447	319.34
378.827	314.37
379.208	334.71
379.588	317.53
379.968	324.99
380.349	320.92
380.729	314.6
381.109	292.45
381.489	338.1
381.87	318.44
382.25	326.8
382.63	327.7
383.01	346.69
383.39	341.94
383.77	329.06
384.15	330.64
384.53	333.13
384.91	339.91
385.29	339.45
385.67	342.39
386.049	338.78
386.429	336.29
386.809	341.94
387.189	339.23
387.568	349.4
387.948	336.97
388.328	346.69
388.707	364.76
389.087	355.73
389.466	337.42
389.846	338.32
390.225	345.33
390.605	361.83
390.984	366.8
391.363	345.78
391.743	351.21
392.122	364.09
392.501	337.65
392.881	354.82
393.26	387.59
393.639	385.55
394.018	361.15
394.397	377.87
394.776	367.7
395.155	350.98
395.534	388.49
395.913	373.58
396.292	383.07
396.671	369.74
397.05	380.36
397.429	395.5
397.808	388.72
398.186	372.45
398.565	393.01
398.944	391.66
399.323	379
399.701	406.12
400.08	379.68
400.458	393.92
400.837	387.14
401.215	397.53
401.594	401.6
401.972	405.22
402.351	412.9
402.729	399.11
403.107	399.57
403.486	421.71
403.864	406.8
404.242	416.06
404.62	424.2
404.999	436.63
405.377	439.11
405.755	425.78
406.133	436.85
406.511	436.63
406.889	441.15
407.267	451.09
407.645	448.38
408.023	454.93
408.401	480.47
408.779	475.27
409.156	467.59
409.534	483.63
409.912	478.43
410.29	500.58
410.667	513.24
411.045	478.66
411.422	488.15
411.8	510.75
412.178	512.78
412.555	517.98
412.933	513.91
413.31	529.05
413.687	564.76
414.065	532.44
414.442	537.87
414.819	545.55
415.197	559.34
415.574	579.9
415.951	554.36
416.328	579
416.705	575.15
417.082	598.88
417.46	592.33
417.837	583.29
418.214	597.3
418.591	628.03
418.967	579.9
419.344	626.9
419.721	629.62
420.098	627.36
420.475	626
420.852	633.46
421.228	668.26
421.605	662.84
421.982	651.76
422.358	675.49
422.735	700.57
423.111	675.26
423.488	716.39
423.864	697.19
424.241	722.72
424.617	747.58
424.994	738.09
425.37	772.89
425.746	766.56
426.123	764.53
426.499	766.11
426.875	783.51
427.251	784.64
427.627	813.11
428.003	820.8
428.379	809.72
428.756	852.66
429.132	821.7
429.507	849.27
429.883	835.26
430.259	860.57
430.635	877.97
431.011	888.14
431.387	893.79
431.763	902.6
432.138	919.33
432.514	920.46
432.89	960.23
433.265	948.25
433.641	976.05
434.016	979.66
434.392	991.19
434.767	1009.95
435.143	1023.28
435.518	1042.71
435.894	1051.53
436.269	1043.62
436.644	1076.16
437.02	1087.91
437.395	1116.16
437.77	1124.52
438.145	1131.75
438.52	1135.14
438.895	1174.69
439.271	1150.96
439.646	1188.7
440.021	1209.04
440.395	1209.71
440.77	1205.19
441.145	1207.68
441.52	1233.22
441.895	1269.83
442.27	1265.31
442.645	1276.6
443.019	1281.12
443.394	1289.94
443.769	1305.08
444.143	1300.56
444.518	1352.54
444.892	1329.48
445.267	1353.66
445.641	1367.22
446.016	1372.87
446.39	1376.49
446.764	1378.75
447.139	1432.98
447.513	1414.23
447.887	1416.04
448.262	1446.09
448.636	1418.97
449.01	1443.61
449.384	1480.89
449.758	1464.17
450.132	1484.96
450.506	1476.15
450.88	1486.32
451.254	1482.25
451.628	1551.17
452.002	1550.5
452.376	1559.08
452.75	1552.98
453.123	1554.11
453.497	1573.77
453.871	1598.18
454.244	1631.4
454.618	1644.28
454.992	1661.91
455.365	1666.2
455.739	1668.68
456.112	1705.75
456.486	1746.2
456.859	1739.19
457.232	1781.45
457.606	1740.77
457.979	1781
458.352	1803.37
458.725	1842.69
459.099	1832.97
459.472	1840.21
459.845	1893.09
460.218	1889.02
460.591	1910.26
460.964	1912.97
461.337	1982.57
461.71	2004.95
462.083	2019.18
462.456	2021.9
462.829	2062.57
463.201	2085.17
463.574	2069.35
463.947	2099.63
464.32	2158.39
464.692	2144.38
465.065	2164.27
465.438	2169.01
465.81	2222.12
466.183	2247.2
466.555	2303.7
466.928	2319.52
467.3	2276.8
467.672	2339.4
468.045	2381.43
468.417	2378.95
468.789	2381.21
469.161	2407.87
469.534	2470.25
469.906	2494.43
470.278	2520.41
470.65	2596.8
471.022	2577.14
471.394	2648.77
471.766	2620.75
472.138	2694.87
472.51	2727.87
472.882	2761.31
473.253	2790.24
473.625	2817.58
473.997	2859.84
474.369	2883.12
474.74	2912.72
475.112	2974.87
475.484	3002.89
475.855	3021.19
476.227	3018.03
476.598	3099.38
476.97	3174.18
477.341	3218.47
477.713	3249.43
478.084	3300.28
478.455	3348.41
478.827	3381.41
479.198	3465.02
479.569	3484.91
479.94	3526.94
480.311	3579.14
480.682	3634.96
481.053	3726.26
481.424	3765.13
481.795	3771.68
482.166	3848.74
482.537	3932.58
482.908	3938.46
483.279	3976.42
483.65	4033.14
484.021	4142.97
484.391	4159.01
484.762	4164.89
485.133	4202.86
485.503	4250.31
485.874	4303.87
486.244	4355.85
486.615	4483.07
486.985	4472
487.356	4576.63
487.726	4564.65
488.097	4656.85
488.467	4648.49
488.837	4757.64
489.207	4777.98
489.578	4855.95
489.948	4889.39
490.318	4949.28
490.688	4967.13
491.058	5008.48
491.428	5095.94
491.798	5166.9
492.168	5245.99
492.538	5238.08
492.908	5283.05
493.278	5319.21
493.648	5333
494.017	5455.25
494.387	5419.09
494.757	5492.09
495.126	5496.15
495.496	5482.37
495.866	5549.26
496.235	5633.1
496.605	5637.62
496.974	5693.21
497.344	5728.01
497.713	5773.21
498.082	5789.25
498.452	5829.71
498.821	5835.58
499.19	5884.62
499.559	5859.76
499.928	5943.15
500.298	6011.62
500.667	5984.05
501.036	5976.59
501.405	6042.58
501.774	6044.84
502.143	6080.09
502.512	6103.14
502.88	6134.78
503.249	6142.69
503.618	6179.98
503.987	6213.2
504.356	6239.19
504.724	6266.08
505.093	6311.27
505.462	6285.74
505.83	6300.2
506.199	6329.35
506.567	6443.93
506.936	6361.22
507.304	6432.18
507.672	6451.38
508.041	6492.74
508.409	6530.7
508.777	6531.61
509.145	6556.47
509.514	6553.98
509.882	6605.05
510.25	6655.9
510.618	6632.85
510.986	6658.16
511.354	6723.02
511.722	6723.69
512.09	6769.57
512.458	6720.76
512.826	6763.69
513.193	6791.49
513.561	6794.65
513.929	6846.4
514.297	6816.35
514.664	6864.71
515.032	6874.2
515.4	6904.25
515.767	6943.12
516.135	6969.11
516.502	6920.3
516.869	7014.53
517.237	7000.75
517.604	6947.19
517.972	7025.83
518.339	7093.85
518.706	7080.52
519.073	7055.66
519.44	7103.57
519.808	7126.85
520.175	7132.95
520.542	7138.15
520.909	7171.82
521.276	7210.69
521.643	7246.84
522.009	7253.4
522.376	7272.83
522.743	7258.37
523.11	7342.66
523.477	7332.26
523.843	7388.31
524.21	7437.35
524.577	7393.28
524.943	7448.65
525.31	7487.51
525.676	7508.53
526.043	7552.6
526.409	7549.89
526.776	7514.63
527.142	7562.09
527.508	7574.97
527.874	7554.18
528.241	7591.02
528.607	7564.58
528.973	7624.69
529.339	7675.08
529.705	7636.89
530.071	7689.77
530.437	7673.95
530.803	7689.77
531.169	7734.51
531.535	7682.99
531.901	7631.92
532.267	7743.55
532.632	7726.15
532.998	7730.45
533.364	7765.47
533.73	7723.44
534.095	7772.71
534.461	7781.29
534.826	7761.18
535.192	7729.32
535.557	7781.97
535.923	7697
536.288	7754.63
536.653	7762.31
537.019	7740.16
537.384	7750.11
537.749	7814.74
538.114	7746.04
538.479	7680.73
538.845	7785.36
539.21	7649.32
539.575	7694.52
539.94	7744.68
540.305	7773.16
540.67	7724.57
541.034	7737.9
541.399	7730.45
541.764	7710.79
542.129	7728.19
542.494	7704.46
542.858	7731.8
543.223	7670.56
543.587	7694.29
543.952	7661.07
544.316	7738.36
544.681	7641.41
545.045	7701.52
545.41	7661.52
545.774	7633.05
546.138	7657
546.503	7656.32
546.867	7625.36
547.231	7675.98
547.595	7682.99
547.959	7717.57
548.324	7625.82
548.688	7646.83
549.052	7681.41
549.416	7642.31
549.779	7640.51
550.143	7611.58
550.507	7712.82
550.871	7654.97
551.235	7551.02
551.599	7591.24
551.962	7623.33
552.326	7572.48
552.689	7588.3
553.053	7597.12
553.417	7613.61
553.78	7615.2
554.143	7583.11
554.507	7558.25
554.87	7590.56
555.234	7628.98
555.597	7605.93
555.96	7605.48
556.323	7647.06
556.686	7641.64
557.05	7599.6
557.413	7638.7
557.776	7654.74
558.139	7634.18
558.502	7645.7
558.865	7660.17
559.228	7671.46
559.59	7685.93
559.953	7657
560.316	7641.86
560.679	7684.35
561.041	7715.76
561.404	7716.21
561.767	7748.53
562.129	7712.59
562.492	7825.36
562.854	7793.27
563.217	7762.08
563.579	7793.72
563.941	7812.48
564.304	7826.94
564.666	7853.16
565.028	7872.14
565.39	7884.57
565.753	7899.26
566.115	7923.89
566.477	7984.45
566.839	7958.46
567.201	8036.88
567.563	7973.83
567.925	8074.62
568.287	8068.06
568.648	8033.72
569.01	8034.85
569.372	8131.34
569.734	8059.25
570.095	8136.54
570.457	8179.25
570.819	8183.99
571.18	8166.59
571.542	8202.07
571.903	8198.68
572.265	8174.73
572.626	8226.7
572.987	8202.98
573.349	8305.35
573.71	8266.25
574.071	8299.92
574.432	8354.38
574.794	8344.44
575.155	8348.06
575.516	8293.14
575.877	8339.47
576.238	8388.73
576.599	8407.94
576.96	8409.98
577.32	8438.45
577.681	8463.99
578.042	8484.1
578.403	8521.16
578.763	8528.39
579.124	8485.23
579.485	8497.43
579.845	8545.34
580.206	8529.3
580.566	8559.35
580.927	8617.2
581.287	8605.68
581.648	8609.07
582.008	8694.49
582.368	8667.37
582.728	8682.06
583.089	8652.91
583.449	8669.63
583.809	8654.04
584.169	8716.41
584.529	8673.47
584.889	8749.85
585.249	8694.26
585.609	8699.69
585.969	8780.59
586.329	8728.16
586.688	8784.88
587.048	8739.23
587.408	8722.06
587.768	8809.74
588.127	8795.28
588.487	8820.36
588.846	8868.27
589.206	8791.89
589.565	8798.21
589.925	8937.42
590.284	8790.31
590.643	8775.84
591.003	8882.73
591.362	8944.65
591.721	8873.24
592.08	8929.06
592.44	8897.42
592.799	8932
593.158	8914.82
593.517	8911.21
593.876	8869.17
594.235	8917.99
594.593	8896.97
594.952	8984.2
595.311	8973.8
595.67	8991.2
596.029	8992.56
596.387	8957.08
596.746	9043.41
597.104	9001.83
597.463	8961.37
597.822	9054.93
598.18	8999.57
598.538	8988.72
598.897	9060.35
599.255	8987.81
599.613	9149.17
599.972	9028.04
600.33	9081.37
600.688	9004.31
601.046	8982.39
601.404	9133.35
601.762	9074.37
602.12	9121.37
602.478	9124.31
602.836	9102.16
603.194	9001.37
603.552	9086.34
603.91	9103.07
604.268	9090.64
604.625	9075.5
604.983	9084.08
605.341	9066
605.698	9163.63
606.056	9153.91
606.413	9147.81
606.771	9121.82
607.128	9222.16
607.485	9125.89
607.843	9090.86
608.2	9186.45
608.557	9143.29
608.914	9159.34
609.272	9187.81
609.629	9231.2
609.986	9211.09
610.343	9209.96
610.7	9200.69
611.057	9235.49
611.414	9236.17
611.771	9265.1
612.127	9324.98
612.484	9244.76
612.841	9346.9
613.198	9263.06
613.554	9253.8
613.911	9296.51
614.267	9368.14
614.624	9332.21
614.98	9295.83
615.337	9378.31
615.693	9337.64
616.05	9355.94
616.406	9391.87
616.762	9371.53
617.118	9364.53
617.475	9329.05
617.831	9364.3
618.187	9380.8
618.543	9365.66
618.899	9432.32
619.255	9482.94
619.611	9407.24
619.967	9468.93
620.323	9452.21
620.678	9479.33
621.034	9402.94
621.39	9420.12
621.746	9461.93
622.101	9526.56
622.457	9473.23
622.812	9482.26
623.168	9453.79
623.523	9533.56
623.879	9510.51
624.234	9403.85
624.589	9474.81
624.945	9494.69
625.3	9460.34
625.655	9510.06
626.01	9477.07
626.365	9469.38
626.72	9445.2
627.075	9454.02
627.43	9428.25
627.785	9413.79
628.14	9433.23
628.495	9537.4
628.85	9422.83
629.205	9340.12
629.559	9426.22
629.914	9412.21
630.269	9429.38
630.623	9438.2
630.978	9392.1
631.332	9388.71
631.687	9360.23
632.041	9381.02
632.396	9334.25
632.75	9304.42
633.104	9371.76
633.459	9284.53
633.813	9294.02
634.167	9327.92
634.521	9306.9
634.875	9285.89
635.229	9263.74
635.583	9154.59
635.937	9261.48
636.291	9216.96
636.645	9128.6
636.999	9190.52
637.352	9235.27
637.706	9134.7
638.06	9183.52
638.413	9193.91
638.767	9131.54
639.121	9173.35
639.474	9095.38
639.828	9136.06
640.181	9099.45
640.534	9102.16
640.888	9110.75
641.241	9066.68
641.594	9098.32
641.947	9113.69
642.301	9089.96
642.654	9098.77
643.007	9016.06
643.36	9056.29
643.713	8987.59
644.066	9073.69
644.419	9039.34
644.771	8925.22
645.124	8888.83
645.477	8826.91
645.83	8826.46
646.182	8777.65
646.535	8831.21
646.888	8741.04
647.24	8689.29
647.593	8754.83
647.945	8636.19
648.298	8684.32
648.65	8656.75
649.002	8645.68
649.355	8697.65
649.707	8660.59
650.059	8708.05
650.411	8815.84
650.763	8837.99
651.115	8957.53
651.467	8934.26
651.819	8926.35
652.171	8879.34
652.523	8904.88
652.875	8877.76
653.227	8794.6
653.578	8915.95
653.93	8836.63
654.282	8871.21
654.633	8819.91
654.985	8825.56
655.337	8841.15
655.688	8866.91
656.039	8861.04
656.391	8828.95
656.742	8833.02
657.094	8854.48
657.445	8848.61
657.796	8802.73
658.147	8808.84
658.498	8768.16
658.849	8928.83
659.2	8794.15
659.551	8836.41
659.902	8796.41
660.253	8861.04
660.604	8853.13
660.955	8823.75
661.306	8844.99
661.656	8860.59
662.007	8816.97
662.358	8876.63
662.708	8859.91
663.059	8849.97
663.409	8794.6
663.76	8797.99
664.11	8847.48
664.461	8843.41
664.811	8858.55
665.161	8865.33
665.511	8806.35
665.862	8842.06
666.212	8870.98
666.562	8865.56
666.912	8892.45
667.262	8803.64
667.612	8829.4
667.962	8879.12
668.312	8777.88
668.662	8820.59
669.011	8848.61
669.361	8809.74
669.711	8787.82
670.06	8837.54
670.41	8768.61
670.76	8757.99
671.109	8806.58
671.459	8858.33
671.808	8845.9
672.157	8788.27
672.507	8728.16
672.856	8763.19
673.205	8749.4
673.554	8757.31
673.904	8741.49
674.253	8813.58
674.602	8769.06
674.951	8629.18
675.3	8593.93
675.649	8750.53
675.998	8704.66
676.346	8713.92
676.695	8723.41
677.044	8709.4
677.393	8680.03
677.741	8668.73
678.09	8682.96
678.438	8653.13
678.787	8659.69
679.135	8623.08
679.484	8615.39
679.832	8578.33
680.181	8569.52
680.529	8574.94
680.877	8623.76
681.225	8577.88
681.573	8580.37
681.922	8539.69
682.27	8520.26
682.618	8554.38
682.966	8458.34
683.314	8526.58
683.661	8489.97
684.009	8412.46
684.357	8411.33
684.705	8350.09
685.053	8384.67
685.4	8347.15
685.748	8341.5
686.095	8341.05
686.443	8289.3
686.79	8237.1
687.138	8287.27
687.485	8257.21
687.832	8274.16
688.18	8258.79
688.527	8269.19
688.874	8190.1
689.221	8229.64
689.568	8160.04
689.915	8204.11
690.262	8144.9
690.609	8145.12
690.956	8011.79
691.303	8081.17
691.65	8057.67
691.997	8069.65
692.344	8031
692.69	7976.32
693.037	7954.4
693.383	7863.55
693.73	7949.2
694.077	7817
694.423	7835.98
694.769	7790.78
695.116	7713.5
695.462	7719.37
695.808	7738.81
696.155	7723.22
696.501	7675.98
696.847	7657.23
697.193	7559.15
697.539	7647.06
697.885	7577.68
698.231	7541.3
698.577	7504.01
698.923	7533.16
699.269	7454.3
699.614	7493.84
699.96	7393.05
700.306	7459.95
700.651	7413.84
700.997	7392.83
701.342	7375.88
701.688	7289.1
702.033	7284.13
702.379	7266.73
702.724	7318.03
703.069	7243.45
703.415	7217.24
703.76	7184.92
704.105	7197.35
704.45	7129.33
704.795	7099.28
705.14	7073.06
705.485	7050.92
705.83	7040.75
706.175	7033.52
706.52	7057.47
706.865	7018.6
707.209	6971.6
707.554	7017.02
707.899	6974.76
708.243	6911.26
708.588	6876.23
708.932	6837.59
709.277	6810.02
709.621	6864.48
709.966	6808.89
710.31	6818.61
710.654	6734.54
710.998	6749.68
711.342	6728.89
711.687	6753.97
712.031	6689.12
712.375	6702.68
712.719	6668.1
713.063	6660.19
713.407	6710.36
713.75	6685.5
714.094	6684.6
714.438	6623.81
714.782	6616.13
715.125	6583.81
715.469	6612.96
715.812	6537.71
716.156	6585.17
716.499	6576.13
716.843	6609.35
717.186	6516.24
717.53	6517.82
717.873	6515.79
718.216	6506.07
718.559	6528.9
718.902	6435.11
719.246	6533.42
719.589	6484.15
719.932	6518.95
720.275	6382.46
720.617	6478.73
720.96	6438.95
721.303	6454.1
721.646	6363.93
721.989	6384.49
722.331	6394.89
722.674	6435.34
723.016	6396.92
723.359	6386.75
723.701	6429.46
724.044	6280.54
724.386	6340.65
724.729	6389.92
725.071	6351.27
725.413	6356.7
725.755	6317.15
726.097	6317.6
726.439	6241.67
726.782	6315.79
727.124	6308.79
727.465	6267.43
727.807	6316.02
728.149	6289.81
728.491	6282.57
728.833	6273.76
729.175	6262.69
729.516	6314.89
729.858	6243.71
730.199	6250.03
730.541	6278.28
730.882	6247.32
731.224	6281.67
731.565	6232.63
731.906	6228.79
732.248	6280.99
732.589	6245.74
732.93	6199.19
733.271	6256.36
733.612	6233.54
733.953	6218.17
734.294	6220.2
734.635	6278.28
734.976	6226.53
735.317	6209.58
735.658	6203.48
735.999	6190.15
736.339	6191.5
736.68	6276.25
737.021	6168.45
737.361	6177.94
737.702	6198.96
738.042	6250.94
738.383	6198.06
738.723	6254.55
739.063	6143.37
739.404	6215.68
739.744	6225.85
740.084	6270.82
740.424	6252.52
740.764	6264.72
741.104	6249.13
741.444	6254.1
741.784	6210.71
742.124	6320.09
742.464	6307.66
742.804	6305.85
743.143	6343.82
743.483	6329.35
743.823	6330.48
744.162	6346.3
744.502	6406.41
744.841	6361.22
745.181	6447.54
745.52	6396.7
745.86	6473.98
746.199	6402.35
746.538	6449.35
746.877	6551.49
747.216	6561.21
747.556	6551.95
747.895	6534.09
748.234	6572.74
748.573	6614.77
748.911	6638.05
749.25	6683.24
749.589	6719.63
749.928	6790.36
750.267	6786.29
750.605	6854.99
750.944	6912.61
751.283	6882.56
751.621	7014.08
751.96	7044.81
752.298	7029.67
752.636	7150.8
752.975	7137.92
753.313	7199.39
753.651	7348.76
753.989	7363.45
754.327	7389.66
754.666	7438.02
755.004	7524.12
755.342	7610.22
755.679	7686.61
756.017	7752.82
756.355	7835.98
756.693	7904
757.031	8033.94
757.368	8092.7
757.706	8168.18
758.044	8227.16
758.381	8365.91
758.719	8473.7
759.056	8522.06
759.394	8606.36
759.731	8655.62
760.068	8765.9
760.405	8772.9
760.743	8926.8
761.08	9013.35
761.417	9116.85
761.754	9237.98
762.091	9320.46
762.428	9370.18
762.765	9456.73
763.102	9600
763.438	9643.84
763.775	9661.7
764.112	9796.15
764.449	9920.45
764.785	9969.26
765.122	10023.27
765.458	10068.01
765.795	10180.1
766.131	10292.41
766.467	10378.06
766.804	10368.8
767.14	10430.04
767.476	10607.21
767.812	10583.7
768.148	10749.35
768.485	10690.82
768.821	10807.65
769.157	10819.18
769.492	10945.73
769.828	10980.53
770.164	10987.99
770.5	10991.83
770.836	11076.35
771.171	11164.03
771.507	11089.23
771.842	11190.02
772.178	11231.37
772.513	11284.7
772.849	11338.49
773.184	11292.84
773.519	11422.55
773.855	11346.85
774.19	11411.71
774.525	11413.97
774.86	11435.89
775.195	11564.02
775.53	11470.46
775.865	11445.83
776.2	11497.58
776.535	11523.34
776.87	11530.8
777.205	11545.49
777.539	11481.31
777.874	11605.37
778.209	11560.18
778.543	11573.51
778.878	11530.57
779.212	11603.34
779.547	11556.56
779.881	11672.49
780.215	11608.31
780.55	11605.82
780.884	11599.95
781.218	11593.4
781.552	11612.15
781.886	11544.81
782.22	11502.32
782.554	11499.16
782.888	11486.96
783.222	11477.47
783.556	11448.54
783.889	11421.87
784.223	11363.12
784.557	11392.05
784.89	11435.89
785.224	11419.61
785.557	11320.41
785.891	11409.22
786.224	11307.3
786.558	11369.22
786.891	11306.4
787.224	11258.72
787.557	11269.11
787.891	11265.49
788.224	11218.72
788.557	11298.49
788.89	11240.64
789.223	11309.34
789.556	11168.1
789.888	11207.19
790.221	11130.81
790.554	11065.27
790.887	11054.43
791.219	11054.43
791.552	11095.1
791.884	10976.24
792.217	10973.98
792.549	10948.67
792.882	10897.37
793.214	10834.77
793.546	10941.66
793.879	10817.14
794.211	10861.21
794.543	10805.17
794.875	10797.03
795.207	10796.58
795.539	10735.11
795.871	10740.31
796.203	10680.2
796.535	10624.38
796.867	10643.36
797.198	10570.37
797.53	10599.75
797.862	10615.79
798.193	10585.74
798.525	10446.99
798.856	10496.7
799.188	10406.76
799.519	10447.44
799.85	10328.57
800.182	10400.21
800.513	10371.51
800.844	10270.94
801.175	10346.42
801.506	10295.35
801.837	10261.68
802.168	10266.42
802.499	10197.5
802.83	10187.11
803.161	10151.63
803.491	10191.85
803.822	10143.26
804.153	10152.08
804.483	10068.24
804.814	9996.15
805.145	10032.53
805.475	9986.88
805.805	9964.29
806.136	9992.08
806.466	9984.62
806.796	9915.93
807.126	9854.91
807.457	9870.5
807.787	9821.46
808.117	9843.84
808.447	9798.87
808.777	9831.18
809.107	9766.1
809.436	9665.08
809.766	9749.83
810.096	9722.03
810.426	9660.57
810.755	9688.81
811.085	9622.6
811.414	9672.77
811.744	9547.8
812.073	9476.84
812.403	9526.56
812.732	9522.72
813.061	9528.37
813.39	9550.06
813.719	9484.3
814.049	9505.99
814.378	9445.66
814.707	9429.84
815.036	9385.77
815.365	9340.35
815.693	9331.76
816.022	9324.08
816.351	9256.06
816.68	9249.28
817.008	9292.21
817.337	9146.45
817.665	9197.75
817.994	9213.12
818.322	9124.53
818.651	9186.45
818.979	9096.96
819.307	9133.35
819.636	9106.23
819.964	9101.26
820.292	9119.56
820.62	9163.86
820.948	9084.31
821.276	9110.3
821.604	9012.9
821.932	9117.98
822.259	9039.56
822.587	9052.67
822.915	9041.82
823.243	9124.76
823.57	8962.96
823.898	9027.14
824.225	9085.89
824.553	9021.26
824.88	8983.52
825.207	9094.7
825.535	9031.2
825.862	9086.12
826.189	9077.08
826.516	9071.88
826.843	9058.77
827.17	9048.83
827.497	9115.72
827.824	9097.19
828.151	9036.63
828.478	9085.89
828.805	9041.37
829.131	9090.86
829.458	9031.66
829.785	9001.15
830.111	9070.52
830.438	9073.24
830.764	9084.08
831.09	9104.87
831.417	9033.69
831.743	9040.02
832.069	9094.03
832.395	9052.45
832.722	9009.73
833.048	8991.66
833.374	8986.23
833.7	8962.28
834.026	9007.7
834.351	9047.47
834.677	8991.2
835.003	9045.44
835.329	8971.32
835.654	8979
835.98	8921.83
836.306	8982.62
836.631	8936.52
836.956	8935.16
837.282	8870.53
837.607	8911.66
837.932	8928.61
838.258	8899.91
838.583	8859.46
838.908	8841.38
839.233	8813.13
839.558	8771.32
839.883	8779.23
840.208	8755.5
840.533	8776.29
840.858	8765.67
841.182	8799.8
841.507	8708.95
841.832	8753.92
842.156	8679.57
842.481	8710.76
842.805	8613.81
843.13	8651.1
843.454	8633.7
843.778	8659.46
844.103	8606.36
844.427	8539.69
844.751	8570.42
845.075	8525.45
845.399	8527.49
845.723	8472.57
846.047	8460.6
846.371	8418.11
846.695	8382.86
847.019	8378.57
847.343	8349.64
847.666	8281.17
847.99	8258.12
848.313	8251.34
848.637	8259.47
848.96	8196.2
849.284	8158.68
849.607	8026.71
849.931	8099.02
850.254	7966.6
850.577	8020.16
850.9	7955.3
851.223	7960.72
851.546	7872.59
851.869	7864.45
852.192	7872.14
852.515	7834.17
852.838	7779.26
853.161	7767.96
853.483	7763.21
853.806	7778.81
854.129	7683.89
854.451	7652.71
854.774	7663.33
855.096	7624.23
855.419	7555.08
855.741	7586.04
856.063	7477.57
856.385	7524.12
856.708	7492.49
857.03	7494.75
857.352	7435.54
857.674	7409.55
857.996	7418.36
858.318	7331.13
858.64	7436.67
858.961	7355.99
859.283	7354.64
859.605	7257.01
859.926	7309.67
860.248	7270.8
860.57	7279.16
860.891	7257.46
861.212	7252.94
861.534	7179.05
861.855	7215.21
862.176	7207.75
862.498	7186.05
862.819	7181.99
863.14	7135.66
863.461	7146.51
863.782	7104.25
864.103	7147.64
864.424	7075.77
864.745	7107.64
865.065	7036.45
865.386	7050.01
865.707	7020.63
866.027	7043.23
866.348	7054.53
866.668	7057.92
866.989	7030.8
867.309	6966.62
867.63	6958.26
867.95	6975.66
868.27	6932.28
868.59	6940.41
868.91	6909.23
869.23	6913.97
869.55	6862.22
869.87	6918.72
870.19	6936.34
870.51	6888.43
870.83	6887.3
871.15	6838.72
871.469	6878.49
871.789	6811.15
872.109	6799.62
872.428	6762.11
872.748	6805.27
873.067	6792.39
873.386	6808.66
873.706	6773.18
874.025	6729.34
874.344	6649.8
874.663	6724.82
874.982	6640.98
875.301	6710.13
875.62	6707.65
875.939	6691.15
876.258	6710.36
876.577	6697.93
876.896	6635.56
877.214	6665.16
877.533	6640.08
877.852	6593.3
878.17	6688.44
878.489	6563.7
878.807	6573.41
879.125	6569.35
879.444	6605.05
879.762	6568.67
880.08	6581.78
880.398	6519.4
880.716	6588.56
881.034	6523.7
881.352	6492.51
881.67	6498.61
881.988	6532.29
882.306	6494.32
882.624	6414.55
882.941	6481.44
883.259	6420.2
883.577	6388.56
883.894	6414.55
884.212	6422.68
884.529	6367.09
884.846	6368.67
885.164	6401.22
885.481	6325.51
885.798	6281.22
886.115	6298.17
886.432	6260.65
886.75	6326.64
887.067	6240.77
887.383	6238.06
887.7	6317.38
888.017	6209.13
888.334	6261.11
888.651	6184.05
888.967	6221.11
889.284	6147.89
889.6	6140.21
889.917	6113.77
890.233	6070.15
890.55	6082.13
890.866	6100.88
891.182	6040.55
891.498	6049.59
891.815	6003.94
892.131	5945.63
892.447	6016.82
892.763	5962.36
893.079	5949.93
893.395	5953.77
893.71	5908.57
894.026	5864.96
894.342	5885.75
894.657	5907.67
894.973	5834.68
895.289	5801.68
895.604	5840.1
895.92	5783.83
896.235	5790.16
896.55	5770.5
896.865	5782.48
897.181	5698.18
897.496	5720.1
897.811	5665.87
898.126	5602.14
898.441	5647.56
898.756	5639.65
899.071	5596.04
899.386	5582.71
899.7	5549.03
900.015	5565.53
900.33	5480.56
900.644	5495.25
900.959	5530.05
901.273	5501.35
901.588	5455.93
901.902	5441.92
902.216	5440.11
902.531	5397.4
902.845	5386.55
903.159	5350.85
903.473	5302.71
903.787	5312.66
904.101	5243.73
904.415	5326.44
904.729	5252.55
905.042	5201.7
905.356	5222.04
905.67	5181.13
905.984	5170.06
906.297	5218.87
906.611	5161.47
906.924	5156.5
907.237	5114.24
907.551	5110.63
907.864	5079.22
908.177	5044.64
908.491	5058.2
908.804	4993.57
909.117	5017.3
909.43	4954.47
909.743	4954.93
910.056	4958.09
910.368	4942.27
910.681	4922.84
910.994	4887.36
911.307	4849.62
911.619	4853.01
911.932	4847.58
912.244	4820.01
912.557	4795.61
912.869	4759
913.181	4736.4
913.494	4735.72
913.806	4744.99
914.118	4669.28
914.43	4676.97
914.742	4688.49
915.054	4635.16
915.366	4679
915.678	4607.36
915.99	4566.24
916.302	4534.15
916.613	4589.29
916.925	4521.27
917.236	4524.88
917.548	4519.46
917.859	4529.63
918.171	4515.39
918.482	4460.02
918.794	4439.91
919.105	4442.4
919.416	4395.17
919.727	4382.51
920.038	4297.54
920.349	4316.75
920.66	4334.6
920.971	4347.03
921.282	4328.28
921.593	4300.71
921.903	4272.46
922.214	4229.07
922.525	4268.39
922.835	4219.13
923.146	4168.51
923.456	4211.22
923.767	4131.9
924.077	4199.24
924.387	4102.07
924.697	4129.19
925.008	4071.11
925.318	4124.67
925.628	4086.25
925.938	4041.96
926.248	4079.47
926.558	4007.83
926.867	4000.83
927.177	3997.66
927.487	3999.25
927.796	3944.78
928.106	3954.27
928.416	3950.43
928.725	3909.76
929.034	3876.08
929.344	3909.98
929.653	3869.08
929.962	3835.18
930.271	3827.72
930.581	3817.1
930.89	3793.6
931.199	3717.44
931.508	3752.92
931.817	3796.54
932.125	3738.46
932.434	3748.86
932.743	3713.38
933.051	3694.62
933.36	3674.96
933.669	3666.15
933.977	3651.23
934.286	3651.23
934.594	3652.59
934.902	3596.09
935.21	3581.63
935.519	3580.95
935.827	3585.24
936.135	3566.49
936.443	3559.93
936.751	3531.69
937.059	3518.81
937.367	3486.72
937.674	3521.52
937.982	3517.45
938.29	3450.11
938.597	3432.71
938.905	3418.7
939.213	3417.57
939.52	3417.11
939.827	3379.15
940.135	3335.53
940.442	3360.84
940.749	3358.81
941.056	3348.64
941.363	3270.68
941.67	3329.88
941.977	3315.87
942.284	3258.7
942.591	3294.18
942.898	3255.08
943.205	3247.85
943.511	3228.42
943.818	3232.03
944.125	3196.55
944.431	3181.41
944.738	3199.72
945.044	3152.26
945.35	3129.89
945.657	3116.78
945.963	3112.49
946.269	3127.18
946.575	3154.3
946.881	3070.68
947.187	3072.49
947.493	3059.61
947.799	3031.13
948.105	3054.86
948.41	3015.77
948.716	3020.51
949.022	2995.2
949.327	3004.92
949.633	2970.35
949.938	2974.64
950.244	2943.23
950.549	2934.41
950.854	2935.09
951.16	2914.53
951.465	2884.47
951.77	2897.81
952.075	2882.89
952.38	2872.27
952.685	2853.06
952.99	2846.73
953.294	2834.98
953.599	2827.98
953.904	2809.22
954.209	2806.73
954.513	2778.26
954.818	2774.87
955.122	2771.25
955.426	2775.55
955.731	2717.92
956.035	2724.25
956.339	2725.61
956.643	2721.31
956.948	2714.53
957.252	2687.42
957.556	2626.4
957.86	2646.74
958.163	2635.89
958.467	2639.05
958.771	2641.09
959.075	2628.89
959.378	2589.11
959.682	2600.86
959.985	2600.64
960.289	2585.27
960.592	2553.86
960.896	2564.48
961.199	2585.95
961.502	2547.53
961.805	2528.78
962.108	2526.74
962.411	2535.33
962.714	2501.43
963.017	2515.22
963.32	2466.86
963.623	2456.01
963.926	2456.46
964.228	2482.45
964.531	2418.72
964.833	2437.7
965.136	2411.49
965.438	2397.71
965.741	2389.12
966.043	2382.79
966.345	2371.27
966.648	2327.2
966.95	2380.53
967.252	2353.19
967.554	2313.87
967.856	2324.94
968.158	2301.66
968.46	2311.15
968.761	2330.14
969.063	2279.06
969.365	2299.63
969.666	2282.45
969.968	2263.92
970.269	2272.51
970.571	2222.12
970.872	2244.94
971.174	2221.44
971.475	2193.87
971.776	2211.27
972.077	2191.16
972.378	2216.92
972.679	2197.03
972.98	2183.47
973.281	2170.59
973.582	2191.38
973.883	2180.54
974.183	2144.15
974.484	2140.76
974.785	2132.63
975.085	2126.3
975.386	2104.83
975.686	2095.57
975.986	2080.88
976.287	2092.18
976.587	2076.36
976.887	2058.96
977.187	2056.47
977.487	2047.66
977.787	2049.01
978.087	2011.27
978.387	2021.22
978.687	2023.25
978.987	2003.37
979.286	2002.24
979.586	1975.34
979.885	1980.99
980.185	1948.9
980.484	1944.38
980.784	1947.55
981.083	1923.82
981.382	1948.68
981.682	1939.86
981.981	1874.33
982.28	1906.64
982.579	1886.53
982.878	1889.02
983.177	1895.57
983.475	1896.48
983.774	1848.34
984.073	1867.1
984.372	1858.28
984.67	1855.12
984.969	1857.15
985.267	1835.23
985.566	1830.94
985.864	1816.7
986.162	1824.84
986.461	1788
986.759	1772.41
987.057	1789.36
987.355	1770.15
987.653	1772.19
987.951	1773.54
988.249	1784.61
988.547	1789.36
988.844	1755.69
989.142	1746.2
989.44	1729.25
989.737	1699.42
990.035	1723.6
990.332	1700.55
990.63	1711.85
990.927	1689.48
991.224	1703.26
991.521	1695.58
991.819	1706.42
992.116	1696.71
992.413	1661.91
992.71	1668.01
993.006	1652.19
993.303	1648.57
993.6	1632.08
993.897	1616.71
994.193	1596.37
994.49	1618.74
994.787	1626.43
995.083	1575.35
995.379	1585.52
995.676	1579.42
995.972	1583.49
996.268	1602.7
996.565	1569.93
996.861	1568.8
997.157	1569.7
997.453	1530.84
997.749	1543.26
998.044	1555.02
998.34	1535.36
998.636	1485.64
998.932	1513.66
999.227	1525.64
999.523	1504.17
999.818	1484.73
1000.114	1502.81
1000.409	1447.22
1000.704	1484.28
1001	1462.14
1001.295	1440.44
1001.59	1477.96
1001.885	1433.66
1002.18	1412.65
1002.475	1438.86
1002.77	1419.43
1003.065	1407.22
1003.359	1433.66
1003.654	1403.16
1003.949	1398.41
1004.243	1407.45
1004.538	1360.9
1004.832	1359.31
1005.127	1351.41
1005.421	1367.68
1005.715	1337.85
1006.009	1333.55
1006.304	1316.83
1006.598	1343.72
1006.892	1304.63
1007.186	1317.28
1007.48	1312.76
1007.773	1305.53
1008.067	1290.16
1008.361	1296.04
1008.655	1284.06
1008.948	1261.01
1009.242	1284.97
1009.535	1242.26
1009.829	1248.81
1010.122	1260.33
1010.415	1244.74
1010.708	1227.34
1011.001	1240.67
1011.295	1225.76
1011.588	1210.17
1011.881	1196.15
1012.173	1177.4
1012.466	1204.97
1012.759	1175.59
1013.052	1196.61
1013.344	1160
1013.637	1136.5
1013.93	1157.51
1014.222	1166.33
1014.514	1153.67
1014.807	1159.09
1015.099	1128.13
1015.391	1150.28
1015.683	1110.51
1015.976	1138.98
1016.268	1112.99
1016.56	1100.56
1016.851	1079.32
1017.143	1101.02
1017.435	1116.84
1017.727	1099.43
1018.018	1066.44
1018.31	1061.24
1018.602	1074.12
1018.893	1064.41
1019.185	1058.53
1019.476	1046.33
1019.767	1041.81
1020.058	1052.2
1020.35	1020.11
1020.641	1017.18
1020.932	1015.37
1021.223	1025.99
1021.514	995.71
1021.804	1002.04
1022.095	992.54
1022.386	995.03
1022.677	981.25
1022.967	978.76
1023.258	976.05
1023.548	974.01
1023.839	955.71
1024.129	973.11
1024.419	959.55
1024.709	950.29
1025	929.95
1025.29	939.21
1025.58	919.55
1025.87	949.16
1026.16	918.2
1026.449	930.85
1026.739	912.32
1027.029	909.83
1027.319	913.9
1027.608	881.14
1027.898	898.08
1028.187	880.91
1028.477	882.04
1028.766	882.26
1029.055	859.44
1029.344	866.9
1029.634	870.29
1029.923	885.65
1030.212	850.4
1030.501	861.93
1030.79	845.88
1031.078	832.77
1031.367	829.84
1031.656	831.87
1031.945	823.28
1032.233	814.92
1032.522	823.96
1032.81	811.53
1033.099	808.59
1033.387	802.72
1033.675	806.33
1033.963	799.33
1034.251	800.69
1034.54	764.53
1034.828	797.07
1035.116	780.8
1035.403	763.85
1035.691	760.23
1035.979	758.43
1036.267	739.67
1036.554	739.9
1036.842	759.78
1037.129	749.61
1037.417	716.62
1037.704	737.41
1037.992	716.62
1038.279	746.9
1038.566	728.82
1038.853	728.82
1039.14	728.82
