Data from hue_160_FLMS001491_00085.txt Node
Date: Tue Feb 07 16:51:49 GMT 2017
User: dcchb
Spectrometer: FLMS00149
Trigger mode: 0
Integration Time (sec): 2.000000E-2
Scans to average: 10
Electric dark correction enabled: true
Nonlinearity correction enabled: false
Boxcar width: 0
XAxis mode: Wavelengths
Number of Pixels in Spectrum: 2048
>>>>>Begin Spectral Data<<<<<
341.393	-4.51
341.776	-4.51
342.16	-4.51
342.543	-48.35
342.927	-77.72
343.31	-88.35
343.693	-61
344.077	-72.98
344.46	-54.45
344.843	-59.19
345.226	-27.1
345.61	-21.23
345.993	-18.97
346.376	-27.56
346.759	9.51
347.142	27.36
347.525	42.95
347.908	59.45
348.291	74.36
348.674	109.84
349.057	107.36
349.44	118.43
349.823	134.25
350.206	156.39
350.588	186.9
350.971	193
351.354	217.18
351.737	241.14
352.119	234.13
352.502	259.22
352.884	263.51
353.267	282.04
353.65	308.03
354.032	285.43
354.414	304.19
354.797	288.37
355.179	303.73
355.562	311.19
355.944	320.91
356.326	316.62
356.709	335.37
357.091	341.25
357.473	355.26
357.855	336.05
358.238	332.66
358.62	343.73
359.002	338.76
359.384	329.95
359.766	323.4
360.148	339.44
360.53	329.05
360.912	319.1
361.294	341.02
361.676	334.92
362.057	342.6
362.439	330.17
362.821	328.59
363.203	321.59
363.584	336.95
363.966	343.28
364.348	320.91
364.729	312.55
365.111	319.78
365.493	324.07
365.874	306.22
366.256	316.16
366.637	336.73
367.019	298.54
367.4	314.58
367.781	300.12
368.163	320.91
368.544	319.78
368.925	299.22
369.306	331.98
369.688	298.09
370.069	290.63
370.45	291.08
370.831	302.83
371.212	294.7
371.593	295.83
371.974	291.98
372.355	324.75
372.736	336.5
373.117	296.96
373.498	296.96
373.879	317.75
374.26	309.16
374.641	301.93
375.021	305.54
375.402	330.85
375.783	294.02
376.163	315.94
376.544	320.23
376.925	312.55
377.305	318.65
377.686	303.06
378.066	296.5
378.447	324.98
378.827	327.01
379.208	318.88
379.588	313.68
379.968	323.4
380.349	341.25
380.729	324.3
381.109	336.73
381.489	348.48
381.87	314.81
382.25	352.32
382.63	324.98
383.01	348.93
383.39	342.6
383.77	338.99
384.15	344.19
384.53	338.08
384.91	333.79
385.29	343.96
385.67	347.12
386.049	353.9
386.429	358.65
386.809	362.04
387.189	332.21
387.568	341.47
387.948	339.89
388.328	341.25
388.707	353.68
389.087	359.55
389.466	359.55
389.846	375.6
390.225	373.34
390.605	348.25
390.984	388.25
391.363	378.08
391.743	361.81
392.122	357.52
392.501	374.47
392.881	373.34
393.26	355.49
393.639	363.17
394.018	377.86
394.397	371.76
394.776	367.24
395.155	362.94
395.534	362.04
395.913	363.85
396.292	371.98
396.671	375.6
397.05	376.05
397.429	406.56
397.808	385.77
398.186	396.16
398.565	393
398.944	399.55
399.323	386.9
399.701	397.07
400.08	405.43
400.458	401.81
400.837	377.41
401.215	408.36
401.594	406.11
401.972	390.51
402.351	414.01
402.729	412.21
403.107	396.84
403.486	412.66
403.864	427.35
404.242	394.81
404.62	413.56
404.999	409.95
405.377	415.82
405.755	424.64
406.133	430.06
406.511	425.99
406.889	440.68
407.267	421.47
407.645	450.4
408.023	434.8
408.401	448.36
408.779	433
409.156	473
409.534	445.43
409.912	458.53
410.29	461.47
410.667	465.76
411.045	463.96
411.422	477.29
411.8	460.57
412.178	458.53
412.555	496.5
412.933	483.17
413.31	470.74
413.687	470.74
414.065	487.91
414.442	501.92
414.819	501.02
415.197	498.31
415.574	508.02
415.951	499.44
416.328	531.07
416.705	538.53
417.082	542.6
417.46	511.41
417.837	531.75
418.214	523.62
418.591	522.71
418.967	537.4
419.344	527.91
419.721	550.51
420.098	552.99
420.475	550.51
420.852	564.29
421.228	560.9
421.605	555.03
421.982	565.42
422.358	567.46
422.735	565.42
423.111	568.59
423.488	590.73
423.864	589.6
424.241	580.56
424.617	591.41
424.994	571.07
425.37	600.45
425.746	599.55
426.123	610.17
426.499	614.24
426.875	629.15
427.251	631.18
427.627	651.52
428.003	630.73
428.379	638.42
428.756	633.22
429.132	643.84
429.507	671.86
429.883	649.49
430.259	690.39
430.635	659.21
431.011	680.22
431.387	682.03
431.763	691.3
432.138	688.13
432.514	700.79
432.89	692.2
433.265	730.84
433.641	716.38
434.016	727.68
434.392	759.99
434.767	733.33
435.143	766.77
435.518	755.02
435.894	753.67
436.269	785.3
436.644	776.49
437.02	788.92
437.395	804.06
437.77	796.83
438.145	814.46
438.52	813.1
438.895	815.81
439.271	818.07
439.646	809.71
440.021	837.96
440.395	863.95
440.77	856.26
441.145	871.86
441.52	882.48
441.895	871.63
442.27	877.05
442.645	873.44
443.019	872.53
443.394	900.1
443.769	900.33
444.143	878.64
444.518	908.46
444.892	893.32
445.267	932.42
445.641	942.59
446.016	939.2
446.39	930.39
446.764	970.84
447.139	973.1
447.513	956.37
447.887	961.57
448.262	959.99
448.636	947.56
449.01	965.41
449.384	1012.42
449.758	988.91
450.132	1002.47
450.506	1035.24
450.88	1016.48
451.254	1034.11
451.628	1043.15
452.002	1043.83
452.376	1059.65
452.75	1112.98
453.123	1070.04
453.497	1101.45
453.871	1094
454.244	1115.24
454.618	1112.53
454.992	1105.3
455.365	1118.18
455.739	1152.3
456.112	1177.61
456.486	1194.11
456.859	1202.92
457.232	1236.82
457.606	1235.69
457.979	1251.28
458.352	1278.17
458.725	1289.25
459.099	1262.81
459.472	1312.52
459.845	1301.9
460.218	1346.19
460.591	1354.33
460.964	1340.32
461.337	1398.4
461.71	1388.23
462.083	1464.83
462.456	1455.8
462.829	1476.36
463.201	1458.51
463.574	1480.43
463.947	1476.59
464.32	1545.74
464.692	1552.52
465.065	1586.41
465.438	1584.61
465.81	1607.66
466.183	1611.72
466.555	1663.02
466.928	1716.35
467.3	1705.96
467.672	1712.06
468.045	1768.1
468.417	1761.55
468.789	1824.82
469.161	1840.42
469.534	1895.33
469.906	1922.22
470.278	1933.75
470.65	1968.78
471.022	2046.51
471.394	2062.33
471.766	2090.58
472.138	2104.14
472.51	2153.63
472.882	2224.81
473.253	2277.92
473.625	2298.26
473.997	2343.91
474.369	2383.23
474.74	2429.55
475.112	2509.55
475.484	2594.07
475.855	2601.3
476.227	2655.99
476.598	2745.25
476.97	2784.35
477.341	2852.82
477.713	2906.15
478.084	2961.97
478.455	3101.18
478.827	3159.03
479.198	3245.13
479.569	3284.22
479.94	3410.32
480.311	3480.37
480.682	3531.67
481.053	3679.01
481.424	3758.79
481.795	3820.93
482.166	3939.12
482.537	4022.06
482.908	4117.19
483.279	4235.16
483.65	4307.02
484.021	4446
484.391	4550.4
484.762	4604.41
485.133	4737.52
485.503	4827.23
485.874	4995.59
486.244	5066.55
486.615	5173.89
486.985	5345.18
487.356	5435.58
487.726	5568.23
488.097	5736.36
488.467	5790.37
488.837	5989.24
489.207	6068.78
489.578	6227.2
489.948	6348.77
490.318	6475.55
490.688	6539.28
491.058	6723.23
491.428	6828.31
491.798	6980.85
492.168	7110.11
492.538	7210.45
492.908	7372.93
493.278	7470.55
493.648	7644.78
494.017	7762.3
494.387	7866.93
494.757	7995.74
495.126	8140.59
495.496	8166.35
495.866	8331.32
496.235	8435.72
496.605	8539.9
496.974	8602.05
497.344	8719.56
497.713	8885.43
498.082	8967.69
498.452	9077.29
498.821	9228.47
499.19	9207.23
499.559	9370.39
499.928	9410.39
500.298	9512.53
500.667	9652.42
501.036	9681.79
501.405	9789.36
501.774	9836.14
502.143	9919.98
502.512	10031.39
502.88	10146.87
503.249	10118.17
503.618	10255.79
503.987	10300.99
504.356	10389.8
504.724	10421.66
505.093	10546.63
505.462	10591.37
505.83	10604.26
506.199	10727.42
506.567	10880.86
506.936	10941.2
507.304	10980.06
507.672	11063
508.041	11112.72
508.409	11240.17
508.777	11233.62
509.145	11310.23
509.514	11359.49
509.882	11482.42
510.25	11406.72
510.618	11437.23
510.986	11561.97
511.354	11580.05
511.722	11700.27
512.09	11780.5
512.458	11719.93
512.826	11773.72
513.193	11907.72
513.561	11893.94
513.929	12003.77
514.297	12058.45
514.664	12059.58
515.032	12102.52
515.4	12199.47
515.767	12174.61
516.135	12234.95
516.502	12167.6
516.869	12246.7
517.237	12278.11
517.604	12269.07
517.972	12437.43
518.339	12442.85
518.706	12381.61
519.073	12451.21
519.44	12486.69
519.808	12561.49
520.175	12538.22
520.542	12643.52
520.909	12686.91
521.276	12657.53
521.643	12712
522.009	12752.22
522.376	12755.61
522.743	12805.78
523.11	12807.59
523.477	12983.18
523.843	12957.19
524.21	13068.6
524.577	13055.26
524.943	13057.98
525.31	13095.04
525.676	13152.89
526.043	13094.81
526.409	13250.51
526.776	13340.68
527.142	13192.21
527.508	13392.66
527.874	13389.49
528.241	13320.57
528.607	13328.48
528.973	13368.93
529.339	13317.63
529.705	13380.68
530.071	13442.6
530.437	13380.45
530.803	13479.66
531.169	13439.43
531.535	13436.27
531.901	13415.25
532.267	13380.23
532.632	13354.01
532.998	13377.29
533.364	13412.32
533.73	13340.68
534.095	13436.27
534.461	13407.12
534.826	13362.6
535.192	13404.18
535.557	13406.44
535.923	13325.31
536.288	13356.95
536.653	13300.91
537.019	13161.02
537.384	13203.06
537.749	13249.16
538.114	13225.88
538.479	13154.47
538.845	13166.67
539.21	13042.84
539.575	13087.35
539.94	13014.59
540.305	13102.49
540.67	13013.91
541.034	13044.19
541.399	13020.24
541.764	12945.44
542.129	12937.3
542.494	12904.76
542.858	12919.67
543.223	12878.77
543.587	12864.53
543.952	12741.6
544.316	12761.94
544.681	12713.58
545.045	12667.48
545.41	12770.53
545.774	12749.28
546.138	12682.39
546.503	12614.6
546.867	12594.71
547.231	12599.91
547.595	12609.17
547.959	12483.53
548.324	12506.8
548.688	12503.41
549.052	12362.4
549.416	12376.19
549.779	12309.07
550.143	12333.93
550.507	12337.54
550.871	12354.04
551.235	12234.04
551.599	12294.83
551.962	12315.62
552.326	12267.94
552.689	12160.15
553.053	12142.07
553.417	12152.01
553.78	12251.9
554.143	12098.68
554.507	12078.79
554.87	12006.48
555.234	12164.89
555.597	12037.21
555.96	12067.04
556.323	12050.77
556.686	12043.09
557.05	12101.84
557.413	11954.5
557.776	11994.73
558.139	12046.7
558.502	11989.98
558.865	11965.58
559.228	12026.82
559.59	11942.98
559.953	11952.24
560.316	12110.88
560.679	11985.24
561.041	11983.88
561.404	11987.72
561.767	12059.81
562.129	11964.9
562.492	12088.74
562.854	11966.71
563.217	11997.66
563.579	12039.92
563.941	12002.86
564.304	12079.92
564.666	12103.2
565.028	12028.17
565.39	12033.6
565.753	12060.71
566.115	12114.05
566.477	12166.25
566.839	12190.2
567.201	12100.03
567.563	12169.19
567.925	12200.6
568.287	12171.9
568.648	12168.06
569.01	12221.61
569.372	12241.73
569.734	12232.01
570.095	12301.61
570.457	12289.18
570.819	12250.99
571.18	12267.49
571.542	12319.69
571.903	12298.45
572.265	12316.53
572.626	12290.76
572.987	12267.71
573.349	12413.47
573.71	12313.81
574.071	12403.3
574.432	12334.38
574.794	12380.03
575.155	12404.21
575.516	12398.56
575.877	12383.42
576.238	12366.69
576.599	12373.25
576.96	12426.58
577.32	12414.83
577.681	12476.75
578.042	12460.25
578.403	12533.02
578.763	12487.37
579.124	12405.79
579.485	12498.89
579.845	12532.57
580.206	12471.78
580.566	12502.28
580.927	12434.49
581.287	12383.19
581.648	12441.72
582.008	12442.17
582.368	12507.71
582.728	12525.11
583.089	12396.52
583.449	12391.55
583.809	12400.82
584.169	12484.66
584.529	12380.25
584.889	12516.52
585.249	12337.54
585.609	12336.41
585.969	12420.7
586.329	12278.34
586.688	12423.87
587.048	12315.4
587.408	12292.8
587.768	12314.27
588.127	12302.97
588.487	12237.66
588.846	12423.19
589.206	12227.04
589.565	12251.9
589.925	12361.72
590.284	12350.2
590.643	12276.98
591.003	12335.51
591.362	12270.88
591.721	12194.04
592.08	12220.71
592.44	12282.63
592.799	12291.22
593.158	12240.37
593.517	12299.8
593.876	12177.32
594.235	12225.68
594.593	12148.62
594.952	12206.7
595.311	12130.32
595.67	12225.91
596.029	12279.24
596.387	12223.42
596.746	12213.93
597.104	12212.57
597.463	12214.61
597.822	12183.65
598.18	12129.64
598.538	12169.86
598.897	12325.11
599.255	12073.14
599.613	12296.41
599.972	12245.57
600.33	12241.5
600.688	12226.13
601.046	12201.05
601.404	12239.69
601.762	12187.26
602.12	12254.83
602.478	12238.11
602.836	12215.29
603.194	12121.28
603.552	12200.37
603.91	12136.42
604.268	12208.51
604.625	12137.77
604.983	12261.16
605.341	12177.1
605.698	12138.9
606.056	12281.95
606.413	12172.35
606.771	12233.36
607.128	12186.81
607.485	12194.04
607.843	12243.76
608.2	12207.83
608.557	12228.17
608.914	12239.92
609.272	12330.09
609.629	12288.5
609.986	12308.84
610.343	12234.95
610.7	12335.06
611.057	12391.33
611.414	12309.52
611.771	12314.94
612.127	12283.53
612.484	12307.26
612.841	12392.91
613.198	12387.71
613.554	12281.95
613.911	12372.57
614.267	12407.6
614.624	12365.79
614.98	12333.93
615.337	12387.94
615.693	12411.89
616.05	12345.68
616.406	12432.91
616.762	12506.13
617.118	12470.87
617.475	12460.03
617.831	12546.8
618.187	12550.87
618.543	12578.67
618.899	12640.36
619.255	12513.13
619.611	12526.46
619.967	12517.43
620.323	12547.48
620.678	12497.09
621.034	12511.1
621.39	12503.19
621.746	12387.94
622.101	12609.4
622.457	12512
622.812	12534.6
623.168	12548.61
623.523	12496.41
623.879	12630.64
624.234	12478.1
624.589	12600.59
624.945	12534.37
625.3	12509.06
625.655	12506.8
626.01	12571.43
626.365	12518.33
626.72	12528.05
627.075	12522.85
627.43	12601.04
627.785	12445.79
628.14	12514.49
628.495	12545.67
628.85	12503.64
629.205	12361.72
629.559	12561.72
629.914	12459.12
630.269	12469.06
630.623	12469.52
630.978	12456.41
631.332	12416.64
631.687	12446.47
632.041	12454.83
632.396	12462.29
632.75	12391.1
633.104	12378.67
633.459	12334.38
633.813	12366.69
634.167	12373.25
634.521	12290.31
634.875	12344.77
635.229	12318.33
635.583	12290.31
635.937	12252.12
636.291	12266.58
636.645	12183.2
636.999	12166.02
637.352	12174.84
637.706	12134.61
638.06	12228.62
638.413	12107.72
638.767	12180.94
639.121	12181.84
639.474	12051.67
639.828	12065.46
640.181	12107.72
640.534	12178.45
640.888	12073.59
641.241	12049.41
641.594	12011.45
641.947	12083.31
642.301	11998.12
642.654	12031.11
643.007	11966.93
643.36	12068.4
643.713	11990.21
644.066	12051.9
644.419	11882.64
644.771	11926.25
645.124	11767.39
645.477	11669.09
645.83	11688.07
646.182	11681.29
646.535	11601.74
646.888	11620.73
647.24	11604.23
647.593	11655.98
647.945	11565.81
648.298	11536.21
648.65	11577.56
649.002	11474.06
649.355	11602.19
649.707	11515.87
650.059	11627.96
650.411	11709.31
650.763	11818.23
651.115	11853.49
651.467	11862.08
651.819	11795.86
652.171	11795.41
652.523	11795.64
652.875	11861.62
653.227	11730.1
653.578	11896.2
653.93	11796.99
654.282	11780.04
654.633	11854.17
654.985	11824.11
655.337	11752.02
655.688	11771.68
656.039	11829.53
656.391	11718.8
656.742	11705.92
657.094	11779.14
657.445	11787.05
657.796	11808.74
658.147	11780.5
658.498	11725.36
658.849	11746.6
659.2	11757.45
659.551	11772.13
659.902	11769.42
660.253	11771
660.604	11795.64
660.955	11764.45
661.306	11745.02
661.656	11784.56
662.007	11808.74
662.358	11808.52
662.708	11761.96
663.059	11842.87
663.409	11731.46
663.76	11836.09
664.11	11839.02
664.461	11905.92
664.811	11943.43
665.161	11835.18
665.511	11824.11
665.862	11803.09
666.212	11864.33
666.562	11807.39
666.912	11826.6
667.262	11772.59
667.612	11882.87
667.962	11930.1
668.312	11869.08
668.662	11850.1
669.011	11885.58
669.361	11787.5
669.711	11806.71
670.06	11841.74
670.41	11846.93
670.76	11795.64
671.109	11806.03
671.459	11824.79
671.808	11782.53
672.157	11759.25
672.507	11765.35
672.856	11695.3
673.205	11743.43
673.554	11778.46
673.904	11669.09
674.253	11798.57
674.602	11699.14
674.951	11534.17
675.3	11504.34
675.649	11690.55
675.998	11664.11
676.346	11722.87
676.695	11733.26
677.044	11637.45
677.393	11635.41
677.741	11668.86
678.09	11647.84
678.438	11541.18
678.787	11583.89
679.135	11523.33
679.484	11511.58
679.832	11541.63
680.181	11464.8
680.529	11489.43
680.877	11398.58
681.225	11425.7
681.573	11495.76
681.922	11447.4
682.27	11451.69
682.618	11398.36
682.966	11374.63
683.314	11380.96
683.661	11305.25
684.009	11306.16
684.357	11237.46
684.705	11240.4
685.053	11278.59
685.4	11234.3
685.748	11184.8
686.095	11163.34
686.443	11104.81
686.79	11122.66
687.138	11157.46
687.485	11091.02
687.832	11105.48
688.18	11086.28
688.527	11002.89
688.874	10973.51
689.221	10887.86
689.568	10938.48
689.915	10932.83
690.262	10905.26
690.609	10969.67
690.956	10799.5
691.303	10757.25
691.65	10696.91
691.997	10700.07
692.344	10614.65
692.69	10605.84
693.037	10535.78
693.383	10584.59
693.73	10542.56
694.077	10421.66
694.423	10465.95
694.769	10439.06
695.116	10428.89
695.462	10326.97
695.808	10375.56
696.155	10345.96
696.501	10225.73
696.847	10250.59
697.193	10183.48
697.539	10141.22
697.885	10064.16
698.231	10148.45
698.577	10096.47
698.923	10098.51
699.269	10047.89
699.614	9902.13
699.96	9891.96
700.306	9877.04
700.651	9846.76
700.997	9779.42
701.342	9788.68
701.688	9802.02
702.033	9643.38
702.379	9706.43
702.724	9571.29
703.069	9703.49
703.415	9585.52
703.76	9595.02
704.105	9492.65
704.45	9569.25
704.795	9497.39
705.14	9454.23
705.485	9448.58
705.83	9370.39
706.175	9357.51
706.52	9360.22
706.865	9303.95
707.209	9304.63
707.554	9269.83
707.899	9305.53
708.243	9233.44
708.588	9249.94
708.932	9151.19
709.277	9076.39
709.621	9141.92
709.966	9014.92
710.31	9090.62
710.654	8963.39
710.998	8950.51
711.342	8957.29
711.687	8896.73
712.031	8941.25
712.375	8938.99
712.719	8877.52
713.063	8905.99
713.407	8841.36
713.75	8844.53
714.094	8819.44
714.438	8808.37
714.782	8848.6
715.125	8697.64
715.469	8809.95
715.812	8702.84
716.156	8662.39
716.499	8676.62
716.843	8682.5
717.186	8692.67
717.53	8726.79
717.873	8615.61
718.216	8684.98
718.559	8581.26
718.902	8568.38
719.246	8583.97
719.589	8512.56
719.932	8515.27
720.275	8517.98
720.617	8459.45
720.96	8533.12
721.303	8516.85
721.646	8522.95
721.989	8473.46
722.331	8572.9
722.674	8534.25
723.016	8498.1
723.359	8443.86
723.701	8468.04
724.044	8469.4
724.386	8399.34
724.729	8440.47
725.071	8393.47
725.413	8421.94
725.755	8378.55
726.097	8348.72
726.439	8326.8
726.782	8343.07
727.124	8402.96
727.465	8252.68
727.807	8327.48
728.149	8327.7
728.491	8271.21
728.833	8381.94
729.175	8309.63
729.516	8387.14
729.858	8299
730.199	8305.78
730.541	8294.71
730.882	8359.79
731.224	8309.63
731.565	8282.06
731.906	8311.43
732.248	8288.16
732.589	8287.71
732.93	8274.6
733.271	8269.18
733.612	8303.98
733.953	8327.7
734.294	8267.59
734.635	8171.55
734.976	8228.5
735.317	8220.14
735.658	8240.48
735.999	8274.15
736.339	8265.33
736.68	8302.17
737.021	8306.01
737.361	8252.68
737.702	8271.66
738.042	8282.96
738.383	8305.56
738.723	8326.8
739.063	8332.9
739.404	8355.05
739.744	8346.69
740.084	8318.67
740.424	8361.15
740.764	8369.51
741.104	8348.27
741.444	8374.71
741.784	8396.86
742.124	8454.03
742.464	8454.26
742.804	8421.04
743.143	8482.28
743.483	8515.5
743.823	8432.33
744.162	8496.74
744.502	8521.15
744.841	8520.02
745.181	8580.35
745.52	8603.63
745.86	8646.57
746.199	8668.71
746.538	8708.26
746.877	8704.19
747.216	8771.76
747.556	8784.19
747.895	8823.51
748.234	8926.11
748.573	8948.71
748.911	8987.35
749.25	9073.45
749.589	9054.24
749.928	9107.57
750.267	9254.69
750.605	9264.18
750.944	9310.73
751.283	9402.25
751.621	9543.72
751.96	9549.82
752.298	9633.21
752.636	9750.27
752.975	9805.63
753.313	9906.65
753.651	10044.72
753.989	10065.06
754.327	10185.74
754.666	10191.84
755.004	10402.9
755.342	10515.44
755.679	10631.37
756.017	10703.46
756.355	10865.49
756.693	10967.86
757.031	11166.05
757.368	11178.93
757.706	11342.54
758.044	11455.76
758.381	11621.63
758.719	11788.86
759.056	11929.42
759.394	12035.86
759.731	12141.16
760.068	12323.31
760.405	12400.59
760.743	12528.95
761.08	12791.32
761.417	12845.78
761.754	12996.06
762.091	13126.67
762.428	13282.6
762.765	13498.19
763.102	13621.58
763.438	13826.54
763.775	13942.92
764.112	14189.25
764.449	14285.51
764.785	14348.79
765.122	14451.16
765.458	14620.65
765.795	14768.21
766.131	14864.93
766.467	15073.52
766.804	15262.21
767.14	15350.34
767.476	15411.81
767.812	15467.18
768.148	15696.78
768.485	15799.6
768.821	15852.25
769.157	15941.06
769.492	16139.25
769.828	16345.12
770.164	16331.79
770.5	16393.71
770.836	16506.02
771.171	16576.3
771.507	16652.23
771.842	16642.97
772.178	16850.19
772.513	16916.86
772.849	16978.78
773.184	17040.92
773.519	17177.64
773.855	17186.45
774.19	17289.95
774.525	17363.17
774.86	17433.91
775.195	17513
775.53	17414.02
775.865	17607.69
776.2	17402.04
776.535	17457.41
776.87	17604.75
777.205	17605.65
777.539	17681.13
777.874	17775.37
778.209	17627.57
778.543	17773.56
778.878	17732.88
779.212	17844.06
779.547	17776.27
779.881	17878.64
780.215	17770.85
780.55	18044.74
780.884	17803.84
781.218	17866.44
781.552	17958.86
781.886	17957.73
782.22	17953.67
782.554	17801.81
782.888	17781.02
783.222	17791.41
783.556	17831.18
783.889	17745.99
784.223	17646.33
784.557	17644.07
784.89	17816.95
785.224	17694.24
785.557	17772.43
785.891	17682.94
786.224	17673.67
786.558	17716.61
786.891	17555.71
787.224	17588.93
787.557	17633.45
787.891	17585.54
788.224	17625.54
788.557	17595.71
788.89	17589.61
789.223	17523.85
789.556	17521.81
789.888	17375.6
790.221	17403.85
790.554	17357.75
790.887	17376.28
791.219	17300.58
791.552	17300.8
791.884	17195.95
792.217	17237.98
792.549	17230.3
792.882	17090.64
793.214	17117.08
793.546	17081.37
793.879	17119.34
794.211	16916.86
794.543	17018.55
794.875	16942.39
795.207	17039.57
795.539	16899.91
795.871	16916.41
796.203	16783.75
796.535	16779.69
796.867	16746.01
797.198	16674.6
797.53	16696.3
797.862	16649.07
798.193	16708.05
798.525	16502.41
798.856	16579.01
799.188	16322.75
799.519	16344.22
799.85	16304.67
800.182	16346.25
800.513	16295.86
800.844	16161.62
801.175	16339.25
801.506	16343.99
801.837	16123.43
802.168	16143.54
802.499	16121.4
802.83	16059.48
803.161	16065.35
803.491	16037.56
803.822	15974.74
804.153	15904.68
804.483	15848.41
804.814	15837.11
805.145	15771.12
805.475	15784.91
805.805	15748.3
806.136	15663.33
806.466	15697.91
806.796	15618.59
807.126	15606.38
807.457	15549.89
807.787	15497.46
808.117	15554.63
808.447	15378.82
808.777	15458.36
809.107	15376.56
809.436	15305.83
809.766	15376.56
810.096	15308.76
810.426	15293.17
810.755	15309.67
811.085	15163.23
811.414	15165.49
811.744	15180.41
812.073	15112.61
812.403	15157.36
812.732	14982.9
813.061	15033.97
813.39	14912.84
813.719	14822.9
814.049	15003.01
814.378	14970.02
814.707	14803.92
815.036	14838.95
815.365	14763.69
815.693	14655.22
816.022	14706.75
816.351	14706.97
816.68	14579.29
817.008	14665.84
817.337	14480.54
817.665	14578.61
817.994	14589.46
818.322	14472.85
818.651	14330.26
818.979	14413.19
819.307	14443.48
819.636	14496.36
819.964	14291.62
820.292	14400.99
820.62	14344.95
820.948	14297.94
821.276	14347.43
821.604	14384.04
821.932	14386.08
822.259	14323.25
822.587	14372.29
822.915	14203.48
823.243	14356.47
823.57	14302.69
823.898	14317.38
824.225	14318.06
824.553	14285.29
824.88	14337.94
825.207	14376.59
825.535	14259.53
825.862	14320.77
826.189	14323.71
826.516	14365.29
826.843	14349.69
827.17	14390.14
827.497	14443.93
827.824	14319.19
828.151	14355.79
828.478	14249.81
828.805	14430.6
829.131	14281.67
829.458	14342.46
829.785	14285.29
830.111	14384.27
830.438	14347.43
830.764	14362.57
831.09	14352.18
831.417	14314.67
831.743	14279.64
832.069	14343.82
832.395	14268.34
832.722	14314.67
833.048	14266.31
833.374	14253.2
833.7	14209.36
834.026	14260.43
834.351	14243.26
834.677	14255.91
835.003	14291.39
835.329	14206.19
835.654	14235.8
835.98	14141.34
836.306	14218.4
836.631	14104.05
836.956	14203.71
837.282	14146.53
837.607	14076.48
837.932	13977.5
838.258	13965.75
838.583	13931.63
838.908	13950.16
839.233	13942.02
839.558	13919.87
839.883	13863.83
840.208	13832.64
840.533	13801.01
840.858	13857.73
841.182	13808.46
841.507	13775.92
841.832	13756.94
842.156	13724.63
842.481	13715.81
842.805	13742.25
843.13	13582.03
843.454	13694.12
843.778	13552.43
844.103	13593.78
844.427	13411.64
844.751	13512.88
845.075	13482.37
845.399	13407.57
845.723	13338.19
846.047	13387.01
846.371	13237.41
846.695	13273.34
847.019	13176.62
847.343	13170.74
847.666	13112.44
847.99	12988.83
848.313	12989.73
848.637	12923.29
848.96	12833.12
849.284	12881.26
849.607	12792.9
849.931	12697.76
850.254	12651.66
850.577	12536.63
850.9	12504.54
851.223	12533.02
851.546	12477.88
851.869	12372.34
852.192	12479.01
852.515	12315.62
852.838	12236.3
853.161	12270.88
853.483	12173.48
853.806	12161.73
854.129	12131.45
854.451	12042.86
854.774	12040.38
855.096	12009.42
855.419	11997.66
855.741	11978.68
856.063	11805.58
856.385	11845.58
856.708	11820.95
857.03	11737.33
857.352	11809.42
857.674	11756.09
857.996	11605.36
858.318	11593.61
858.64	11565.36
858.961	11597.22
859.283	11528.52
859.605	11438.36
859.926	11430.22
860.248	11442.2
860.57	11388.87
860.891	11420.73
861.212	11302.54
861.534	11298.7
861.855	11331.02
862.176	11268.87
862.498	11322.2
862.819	11302.54
863.14	11195.65
863.461	11243.33
863.782	11183.45
864.103	11177.57
864.424	11110.23
864.745	11134.86
865.065	11128.31
865.386	11090.57
865.707	11043.79
866.027	11075.43
866.348	11070.46
866.668	11007.18
866.989	10982.55
867.309	10914.08
867.63	10996.11
867.95	10947.52
868.27	10784.36
868.59	10914.76
868.91	10904.81
869.23	10821.65
869.55	10766.28
869.87	10830.92
870.19	10858.49
870.51	10836.57
870.83	10792.72
871.15	10737.81
871.469	10717.7
871.789	10727.64
872.109	10702.11
872.428	10622.79
872.748	10616.01
873.067	10623.46
873.386	10718.15
873.706	10617.14
874.025	10518.83
874.344	10585.05
874.663	10608.32
874.982	10479.96
875.301	10570.13
875.62	10412.4
875.939	10479.06
876.258	10474.54
876.577	10426.63
876.896	10391.83
877.214	10425.28
877.533	10433.41
877.852	10366.97
878.17	10366.75
878.489	10369.46
878.807	10354.54
879.125	10301.66
879.444	10296.24
879.762	10284.49
880.08	10256.02
880.398	10306.64
880.716	10222.34
881.034	10267.54
881.352	10197.49
881.67	10151.84
881.988	10162.91
882.306	10150.71
882.624	10075.91
882.941	10100.99
883.259	9968.34
883.577	9960.2
883.894	9974.44
884.212	10051.73
884.529	9954.1
884.846	9844.28
885.164	9938.96
885.481	9842.24
885.798	9822.35
886.115	9770.6
886.432	9818.06
886.75	9741.68
887.067	9798.63
887.383	9758.85
887.7	9754.56
888.017	9651.96
888.334	9770.83
888.651	9669.82
888.967	9685.86
889.284	9575.58
889.6	9606.54
889.917	9481.8
890.233	9456.71
890.55	9513.44
890.866	9471.86
891.182	9478.41
891.498	9406.09
891.815	9417.17
892.131	9329.26
892.447	9343.27
892.763	9311.63
893.079	9271.86
893.395	9302.59
893.71	9191.41
894.026	9206.55
894.342	9190.73
894.657	9134.46
894.973	9095.14
895.289	9095.59
895.604	9050.85
895.92	8999.1
896.235	9012.66
896.55	8982.38
896.865	8945.09
897.181	8888.37
897.496	8866.67
897.811	8835.49
898.126	8799.33
898.441	8726.34
898.756	8783.51
899.071	8711.2
899.386	8622.61
899.7	8646.34
900.015	8584.2
900.33	8524.54
900.644	8517.76
900.959	8574.03
901.273	8505.33
901.588	8459
901.902	8447.93
902.216	8326.35
902.531	8381.71
902.845	8330.42
903.159	8282.51
903.473	8253.13
903.787	8195.73
904.101	8184.21
904.415	8158.9
904.729	8117.09
905.042	8060.37
905.356	8135.17
905.67	8118.22
905.984	7989.86
906.297	8000.03
906.611	7956.64
906.924	7899.92
907.237	7850.2
907.551	7862.18
907.864	7885.23
908.177	7843.65
908.491	7818.57
908.804	7694.28
909.117	7638.68
909.43	7619.25
909.743	7627.38
910.056	7599.36
910.368	7529.53
910.681	7483.21
910.994	7570.66
911.307	7513.26
911.619	7417.22
911.932	7417.67
912.244	7389.42
912.557	7361.4
912.869	7362.53
913.181	7344.91
913.494	7277.79
913.806	7253.61
914.118	7167.51
914.43	7131.13
914.742	7130.9
915.054	7106.04
915.366	7110.56
915.678	7043.22
915.99	6997.12
916.302	7003.22
916.613	6960.28
916.925	6932.26
917.236	6970.45
917.548	6873.05
917.859	6889.1
918.171	6832.38
918.482	6788.08
918.794	6768.88
919.105	6778.14
919.416	6731.81
919.727	6719.84
920.038	6714.19
920.349	6635.77
920.66	6665.15
920.971	6579.05
921.282	6579.95
921.593	6537.47
921.903	6553.06
922.214	6526.17
922.525	6398.04
922.835	6407.08
923.146	6347.19
923.456	6404.14
923.767	6298.83
924.077	6316.46
924.387	6276.01
924.697	6237.36
925.008	6266.29
925.318	6238.04
925.628	6200.08
925.938	6139.06
926.248	6115.79
926.558	6090.02
926.867	6104.49
927.177	6124.82
927.487	6085.28
927.796	6006.64
928.106	5976.58
928.416	5975.22
928.725	5923.7
929.034	5913.53
929.344	5925.06
929.653	5927.54
929.962	5839.41
930.271	5818.39
930.581	5841.89
930.89	5802.8
931.199	5717.6
931.508	5720.99
931.817	5783.82
932.125	5697.49
932.434	5729.81
932.743	5637.15
933.051	5571.17
933.36	5609.13
933.669	5586.53
933.977	5541.11
934.286	5551.73
934.594	5535.01
934.902	5466.09
935.21	5469.93
935.519	5421.57
935.827	5420.66
936.135	5377.5
936.443	5346.09
936.751	5298.86
937.059	5285.3
937.367	5257.95
937.674	5282.14
937.982	5263.6
938.29	5239.88
938.597	5258.63
938.905	5159.43
939.213	5164.4
939.52	5157.62
939.827	5116.94
940.135	5147.9
940.442	5089.6
940.749	5061.35
941.056	5037.17
941.363	5014.12
941.67	5014.57
941.977	4958.08
942.284	4958.53
942.591	4924.86
942.898	4866.1
943.205	4924.18
943.511	4874.24
943.818	4874.01
944.125	4867.23
944.431	4837.4
944.738	4770.51
945.044	4780.45
945.35	4746.56
945.657	4723.73
945.963	4708.14
946.269	4634.69
946.575	4667.01
946.881	4666.33
947.187	4641.02
947.493	4615.94
947.799	4567.13
948.105	4577.07
948.41	4494.13
948.716	4542.72
949.022	4524.19
949.327	4517.18
949.633	4462.95
949.938	4463.63
950.244	4502.04
950.549	4373.91
950.854	4393.57
951.16	4361.26
951.465	4312.22
951.77	4373.68
952.075	4311.31
952.38	4294.82
952.685	4286
952.99	4253.69
953.294	4243.74
953.599	4219.34
953.904	4254.37
954.209	4148.61
954.513	4203.97
954.818	4173.24
955.122	4113.13
955.426	4099.79
955.731	4119.23
956.035	4091.66
956.339	4040.36
956.643	4044.65
956.948	4053.01
957.252	3987.71
957.556	3967.82
957.86	3987.03
958.163	3986.58
958.467	3939.8
958.771	3935.05
959.075	3921.04
959.378	3903.19
959.682	3882.62
959.985	3886.47
960.289	3864.09
960.592	3821.61
960.896	3841.95
961.199	3807.37
961.502	3807.6
961.805	3808.5
962.108	3722.18
962.411	3773.7
962.714	3673.82
963.017	3690.54
963.32	3736.87
963.623	3642.18
963.926	3625.91
964.228	3646.02
964.531	3690.31
964.833	3622.29
965.136	3582.29
965.438	3544.33
965.741	3566.02
966.043	3589.07
966.345	3511.33
966.648	3524.67
966.95	3503.88
967.252	3493.71
967.554	3436.08
967.856	3446.03
968.158	3392.47
968.46	3429.08
968.761	3423.43
969.063	3429.53
969.365	3362.64
969.666	3398.34
969.968	3352.02
970.269	3351.34
970.571	3349.08
970.872	3295.75
971.174	3312.24
971.475	3266.37
971.776	3243.32
972.077	3214.39
972.378	3209.65
972.679	3227.05
972.98	3240.61
973.281	3207.84
973.582	3199.25
973.883	3204.9
974.183	3169.2
974.484	3152.47
974.785	3146.6
975.085	3138.24
975.386	3116.77
975.686	3096.88
975.986	3083.32
976.287	3061.4
976.587	3037
976.887	3040.39
977.187	3012.82
977.487	3000.84
977.787	3007.62
978.087	2982.08
978.387	2986.15
978.687	2932.14
978.987	2925.81
979.286	2945.93
979.586	2944.57
979.885	2907.96
980.185	2918.13
980.484	2865.02
980.784	2886.94
981.083	2860.73
981.382	2837.91
981.682	2860.28
981.981	2813.95
982.28	2782.77
982.579	2814.18
982.878	2800.62
983.177	2762.2
983.475	2764.24
983.774	2716.1
984.073	2733.95
984.372	2699.38
984.67	2691.02
984.969	2717.91
985.267	2698.25
985.566	2629.78
985.864	2699.6
986.162	2643.79
986.461	2626.16
986.759	2573.28
987.057	2587.97
987.355	2604.01
987.653	2560.85
987.951	2540.51
988.249	2579.83
988.547	2550.23
988.844	2530.57
989.142	2546.39
989.44	2518.14
989.737	2493.28
990.035	2496.9
990.332	2466.84
990.63	2485.15
990.927	2442.66
991.224	2445.37
991.521	2421.87
991.819	2432.27
992.116	2443.57
992.413	2420.52
992.71	2385.26
993.006	2353.4
993.303	2381.65
993.6	2342.33
993.897	2337.13
994.193	2326.96
994.49	2306.85
994.787	2291.25
995.083	2301.2
995.379	2267.07
995.676	2246.73
995.972	2260.29
996.268	2265.04
996.565	2252.38
996.861	2231.59
997.157	2214.65
997.453	2224.14
997.749	2221.65
998.044	2185.27
998.34	2164.03
998.636	2187.53
998.932	2112.5
999.227	2149.11
999.523	2129.45
999.818	2109.34
1000.114	2084.03
1000.409	2136.46
1000.704	2060.98
1001	2074.31
1001.295	2064.82
1001.59	2055.1
1001.885	2044.71
1002.18	2022.79
1002.475	2003.35
1002.77	2022.79
1003.065	2006.97
1003.359	1975.33
1003.654	1982.11
1003.949	1945.5
1004.243	1975.56
1004.538	1945.27
1004.832	1954.31
1005.127	1954.54
1005.421	1943.47
1005.715	1926.74
1006.009	1891.72
1006.304	1879.74
1006.598	1882.9
1006.892	1838.84
1007.186	1865.28
1007.48	1858.27
1007.773	1828.44
1008.067	1837.25
1008.361	1806.29
1008.655	1798.38
1008.948	1800.42
1009.242	1750.25
1009.535	1772.17
1009.829	1764.49
1010.122	1750.93
1010.415	1733.3
1010.708	1739.4
1011.001	1698.27
1011.295	1703.25
1011.588	1683.81
1011.881	1679.97
1012.173	1667.31
1012.466	1663.25
1012.759	1656.47
1013.052	1681.33
1013.344	1632.51
1013.637	1604.94
1013.93	1621.44
1014.222	1594.1
1014.514	1616.24
1014.807	1607.66
1015.099	1561.33
1015.391	1574.44
1015.683	1547.54
1015.976	1566.53
1016.268	1508.45
1016.56	1536.02
1016.851	1516.36
1017.143	1525.17
1017.435	1481.78
1017.727	1502.12
1018.018	1482.46
1018.31	1465.96
1018.602	1473.2
1018.893	1465.06
1019.185	1449.92
1019.476	1465.29
1019.767	1467.09
1020.058	1426.42
1020.35	1418.06
1020.641	1407.89
1020.932	1383.48
1021.223	1420.32
1021.514	1396.36
1021.804	1376.02
1022.095	1350.04
1022.386	1357.49
1022.677	1331.5
1022.967	1321.79
1023.258	1341.45
1023.548	1326.08
1023.839	1312.52
1024.129	1319.98
1024.419	1287.44
1024.709	1300.77
1025	1264.61
1025.29	1264.39
1025.58	1245.41
1025.87	1254.44
1026.16	1240.43
1026.449	1223.94
1026.739	1208.8
1027.029	1216.25
1027.319	1233.43
1027.608	1195.91
1027.898	1216.03
1028.187	1209.25
1028.477	1183.49
1028.766	1162.92
1029.055	1176.25
1029.344	1176.25
1029.634	1153.2
1029.923	1139.42
1030.212	1120.66
1030.501	1117.95
1030.79	1099.42
1031.078	1105.52
1031.367	1111.62
1031.656	1096.03
1031.945	1118.85
1032.233	1087.22
1032.522	1089.7
1032.81	1076.82
1033.099	1077.95
1033.387	1082.25
1033.675	1054.9
1033.963	1059.65
1034.251	1041.57
1034.54	1032.53
1034.828	1041.12
1035.116	1016.26
1035.403	1006.99
1035.691	1025.07
1035.979	1015.35
1036.267	1018.97
1036.554	1006.99
1036.842	986.2
1037.129	970.61
1037.417	962.47
1037.704	964.96
1037.992	962.93
1038.279	963.83
1038.566	922.02
1038.853	922.02
1039.14	922.02
