Data from hue_22_FLMS001491_00094.txt Node
Date: Tue Feb 07 17:10:57 GMT 2017
User: dcchb
Spectrometer: FLMS00149
Trigger mode: 0
Integration Time (sec): 2.000000E-2
Scans to average: 10
Electric dark correction enabled: true
Nonlinearity correction enabled: false
Boxcar width: 0
XAxis mode: Wavelengths
Number of Pixels in Spectrum: 2048
>>>>>Begin Spectral Data<<<<<
341.393	-12.39
341.776	-12.39
342.16	-12.39
342.543	-63.23
342.927	-58.26
343.31	-71.14
343.693	-67.98
344.077	-63.46
344.46	-66.62
344.843	-58.94
345.226	-35.44
345.61	-32.05
345.993	-20.07
346.376	0.27
346.759	6.37
347.142	38.69
347.525	41.62
347.908	53.37
348.291	80.94
348.674	85.92
349.057	108.51
349.44	120.72
349.823	141.73
350.206	165.24
350.588	184.9
350.971	222.86
351.354	232.35
351.737	254.05
352.119	264.89
352.502	254.5
352.884	265.12
353.267	292.69
353.65	295.85
354.032	298.79
354.414	299.47
354.797	321.16
355.179	308.06
355.562	317.55
355.944	357.55
356.326	353.71
356.709	321.84
357.091	339.69
357.473	350.09
357.855	348.28
358.238	338.56
358.62	338.11
359.002	337.89
359.384	333.14
359.766	320.03
360.148	340.6
360.53	351.45
360.912	341.5
361.294	350.77
361.676	339.47
362.057	325.91
362.439	329.53
362.821	327.94
363.203	316.64
363.584	319.13
363.966	331.56
364.348	323.65
364.729	333.82
365.111	312.35
365.493	328.62
365.874	327.94
366.256	314.61
366.637	338.11
367.019	322.75
367.4	302.18
367.781	333.82
368.163	316.64
368.544	297.66
368.925	320.03
369.306	320.03
369.688	318.68
370.069	321.39
370.45	320.49
370.831	325.68
371.212	331.79
371.593	328.62
371.974	325.68
372.355	316.19
372.736	315.51
373.117	324.1
373.498	324.55
373.879	322.52
374.26	351.9
374.641	337.89
375.021	338.79
375.402	335.85
375.783	316.42
376.163	325.46
376.544	319.58
376.925	336.98
377.305	343.54
377.686	324.1
378.066	337.21
378.447	340.15
378.827	333.82
379.208	348.51
379.588	347.83
379.968	338.79
380.349	338.34
380.729	338.56
381.109	347.83
381.489	330.43
381.87	349.41
382.25	347.15
382.63	351.22
383.01	339.47
383.39	351.9
383.77	342.18
384.15	340.82
384.53	352.12
384.91	337.89
385.29	332.69
385.67	342.41
386.049	337.89
386.429	338.11
386.809	361.16
387.189	346.25
387.568	354.16
387.948	363.2
388.328	340.15
388.707	340.82
389.087	383.31
389.466	356.87
389.846	364.78
390.225	371.78
390.605	362.97
390.984	348.73
391.363	355.06
391.743	379.69
392.122	372.24
392.501	358.68
392.881	367.49
393.26	361.61
393.639	369.07
394.018	362.97
394.397	385.79
394.776	383.08
395.155	380.6
395.534	376.08
395.913	379.24
396.292	379.24
396.671	398.68
397.05	374.27
397.429	346.25
397.808	381.28
398.186	408.39
398.565	387.38
398.944	388.73
399.323	372.91
399.701	416.98
400.08	393.48
400.458	395.74
400.837	401.61
401.215	398
401.594	403.65
401.972	403.87
402.351	413.82
402.729	407.72
403.107	429.18
403.486	423.31
403.864	409.98
404.242	414.04
404.62	407.49
404.999	406.59
405.377	389.41
405.755	392.57
406.133	405.91
406.511	426.7
406.889	409.3
407.267	435.29
407.645	418.11
408.023	433.93
408.401	409.07
408.779	451.1
409.156	416.08
409.534	435.96
409.912	444.78
410.29	449.52
410.667	422.4
411.045	463.08
411.422	424.66
411.8	450.88
412.178	450.88
412.555	449.75
412.933	448.17
413.31	459.24
413.687	448.39
414.065	456.75
414.442	460.14
414.819	488.17
415.197	483.87
415.574	493.36
415.951	478
416.328	466.02
416.705	475.74
417.082	484.78
417.46	493.14
417.837	486.81
418.214	472.57
418.591	478.9
418.967	481.61
419.344	481.84
419.721	504.21
420.098	507.37
420.475	487.49
420.852	513.48
421.228	520.48
421.605	508.5
421.982	535.85
422.358	532.68
422.735	522.29
423.111	531.33
423.488	523.19
423.864	534.27
424.241	551.89
424.617	520.25
424.994	510.09
425.37	525
425.746	544.89
426.123	536.98
426.499	535.4
426.875	541.95
427.251	546.47
427.627	576.75
428.003	566.58
428.379	566.58
428.756	581.72
429.132	585.79
429.507	576.52
429.883	593.93
430.259	573.13
430.635	592.8
431.011	586.24
431.387	596.86
431.763	617.2
432.138	612
432.514	621.49
432.89	627.82
433.265	612.91
433.641	636.41
434.016	625.11
434.392	640.03
434.767	638.9
435.143	653.13
435.518	630.76
435.894	659.46
436.269	649.52
436.644	652.68
437.02	640.7
437.395	690.65
437.77	657.43
438.145	684.09
438.52	666.92
438.895	702.17
439.271	698.1
439.646	706.01
440.021	717.54
440.395	719.35
440.77	716.41
441.145	705.11
441.52	710.76
441.895	764.99
442.27	746.46
442.645	705.79
443.019	733.58
443.394	741.94
443.769	751.66
444.143	751.21
444.518	767.25
444.892	740.81
445.267	755.28
445.641	791.21
446.016	770.19
446.39	767.25
446.764	770.64
447.139	769.51
447.513	793.92
447.887	779.23
448.262	779
448.636	819.23
449.01	797.54
449.384	806.35
449.758	797.08
450.132	808.16
450.506	806.35
450.88	821.49
451.254	840.7
451.628	818.33
452.002	820.81
452.376	843.64
452.75	861.71
453.123	846.8
453.497	881.15
453.871	868.04
454.244	878.89
454.618	877.31
454.992	884.99
455.365	889.96
455.739	912.33
456.112	892
456.486	914.59
456.859	922.73
457.232	942.84
457.606	928.38
457.979	974.25
458.352	958.21
458.725	944.42
459.099	978.77
459.472	948.49
459.845	983.07
460.218	1008.38
460.591	1018.77
460.964	1010.86
461.337	1047.7
461.71	1018.09
462.083	1059.22
462.456	1055.16
462.829	1059.9
463.201	1089.73
463.574	1075.27
463.947	1079.79
464.32	1118.66
464.692	1140.8
465.065	1123.4
465.438	1156.17
465.81	1161.59
466.183	1178.54
466.555	1217.86
466.928	1224.87
467.3	1216.96
467.672	1214.02
468.045	1239.33
468.417	1259.22
468.789	1260.57
469.161	1280.01
469.534	1299.67
469.906	1334.7
470.278	1338.99
470.65	1360.01
471.022	1370.85
471.394	1395.71
471.766	1383.06
472.138	1420.34
472.51	1481.81
472.882	1498.53
473.253	1503.28
473.625	1532.88
473.997	1534.69
474.369	1541.92
474.74	1573.33
475.112	1601.58
475.484	1606.55
475.855	1650.62
476.227	1677.06
476.598	1721.13
476.97	1741.69
477.341	1763.39
477.713	1808.81
478.084	1828.92
478.455	1873.44
478.827	1901.01
479.198	1935.13
479.569	1940.78
479.94	1995.24
480.311	2057.39
480.682	2098.97
481.053	2153.66
481.424	2189.82
481.795	2232.07
482.166	2251.51
482.537	2285.63
482.908	2313.2
483.279	2349.59
483.65	2392.52
484.021	2437.72
484.391	2498.73
484.762	2515.68
485.133	2550.94
485.503	2588.67
485.874	2671.38
486.244	2689.92
486.615	2751.16
486.985	2779.4
487.356	2854.43
487.726	2874.32
488.097	2941.89
488.467	2962.22
488.837	3049.23
489.207	3063.92
489.578	3132.84
489.948	3129
490.318	3209.9
490.688	3230.47
491.058	3321.08
491.428	3362.44
491.798	3406.96
492.168	3479.27
492.538	3503
492.908	3592.26
493.278	3601.3
493.648	3635.88
494.017	3670
494.387	3660.96
494.757	3728.76
495.126	3788.64
495.496	3808.08
495.866	3853.95
496.235	3881.07
496.605	3898.7
496.974	3891.69
497.344	4008.75
497.713	4030.22
498.082	4055.53
498.452	4081.07
498.821	4125.36
499.19	4151.57
499.559	4152.25
499.928	4211.46
500.298	4233.38
500.667	4271.34
501.036	4322.41
501.405	4354.5
501.774	4360.83
502.143	4401.06
502.512	4381.62
502.88	4409.87
503.249	4396.31
503.618	4461.39
503.987	4458.91
504.356	4525.12
504.724	4598.79
505.093	4583.42
505.462	4580.26
505.83	4657.32
506.199	4652.58
506.567	4716.08
506.936	4711.78
507.304	4780.93
507.672	4795.4
508.041	4809.41
508.409	4806.47
508.777	4833.81
509.145	4880.82
509.514	4871.55
509.882	4924.88
510.25	4935.73
510.618	4970.99
510.986	4991.1
511.354	5054.37
511.722	5018.22
512.09	5070.19
512.458	5126.01
512.826	5129.63
513.193	5157.42
513.561	5169.4
513.929	5195.39
514.297	5204.65
514.664	5244.65
515.032	5238.32
515.4	5333.01
515.767	5289.39
516.135	5361.48
516.502	5270.41
516.869	5383.18
517.237	5361.48
517.604	5372.33
517.972	5410.52
518.339	5377.98
518.706	5457.3
519.073	5509.95
519.44	5504.08
519.808	5503.63
520.175	5535.04
520.542	5595.38
520.909	5599.9
521.276	5624.98
521.643	5648.93
522.009	5677.63
522.376	5737.74
522.743	5750.4
523.11	5742.94
523.477	5790.85
523.843	5842.37
524.21	5899.1
524.577	5852.09
524.943	5941.13
525.31	5959.89
525.676	5925.76
526.043	6012.54
526.409	6070.84
526.776	6071.97
527.142	6105.42
527.508	6110.84
527.874	6170.73
528.241	6244.4
528.607	6224.74
528.973	6260.89
529.339	6335.02
529.705	6312.64
530.071	6343.6
530.437	6380.89
530.803	6497.5
531.169	6450.04
531.535	6445.07
531.901	6498.4
532.267	6486.65
532.632	6513.77
532.998	6582.02
533.364	6611.85
533.73	6672.18
534.095	6733.2
534.461	6713.99
534.826	6751.5
535.192	6783.14
535.557	6822.01
535.923	6841.44
536.288	6867.66
536.653	6860.65
537.019	6835.57
537.384	6880.31
537.749	6916.47
538.114	6933.87
538.479	6958.05
538.845	6986.75
539.21	6963.93
539.575	7053.64
539.94	7030.14
540.305	7121.44
540.67	7108.33
541.034	7177.93
541.399	7160.31
541.764	7207.99
542.129	7236.46
542.494	7250.7
542.858	7280.3
543.223	7236.91
543.587	7294.54
543.952	7359.17
544.316	7363.69
544.681	7386.97
545.045	7432.84
545.41	7524.14
545.774	7468.77
546.138	7581.76
546.503	7542.67
546.867	7537.47
547.231	7709.67
547.595	7631.48
547.959	7658.37
548.324	7663.57
548.688	7673.74
549.052	7779.05
549.416	7779.95
549.779	7743.12
550.143	7889.55
550.507	7893.85
550.871	7882.1
551.235	7866.73
551.599	7924.13
551.962	7946.05
552.326	8031.47
552.689	8035.09
553.053	8000.96
553.417	8010.91
553.78	8154.18
554.143	8099.72
554.507	8156.89
554.87	8106.72
555.234	8278.02
555.597	8224.91
555.96	8252.03
556.323	8339.03
556.686	8317.56
557.05	8339.94
557.413	8407.96
557.776	8363.21
558.139	8393.95
558.502	8407.73
558.865	8466.26
559.228	8469.42
559.59	8495.41
559.953	8521.4
560.316	8621.74
560.679	8590.1
561.041	8648.4
561.404	8666.93
561.767	8676.88
562.129	8673.71
562.492	8791.9
562.854	8782.41
563.217	8830.54
563.579	8805.69
563.941	8888.4
564.304	8963.2
564.666	8955.06
565.028	8951.67
565.39	8992.8
565.753	9038.67
566.115	9048.39
566.477	9065.57
566.839	9121.38
567.201	9181.04
567.563	9200.48
567.925	9240.7
568.287	9282.74
568.648	9315.5
569.01	9365.45
569.372	9391.21
569.734	9389.4
570.095	9470.75
570.457	9501.26
570.819	9530.64
571.18	9550.75
571.542	9645.44
571.903	9628.26
572.265	9646.34
572.626	9760.69
572.987	9747.36
573.349	9837.52
573.71	9848.6
574.071	9894.7
574.432	10012.66
574.794	10114.35
575.155	10138.08
575.516	10149.83
575.877	10268.47
576.238	10282.94
576.599	10403.38
576.96	10443.84
577.32	10509.82
577.681	10577.84
578.042	10757.5
578.403	10806.54
578.763	10893.32
579.124	11006.53
579.485	11105.06
579.845	11287.66
580.206	11317.26
580.566	11484.71
580.927	11585.73
581.287	11728.32
581.648	11844.25
582.008	12086.73
582.368	12015.09
582.728	12253.05
583.089	12494.63
583.449	12695.3
583.809	12888.07
584.169	13040.15
584.529	13174.61
584.889	13365.34
585.249	13530.76
585.609	13791.09
585.969	14055.49
586.329	14203.06
586.688	14369.16
587.048	14650.28
587.408	14936.6
587.768	15209.13
588.127	15348.34
588.487	15681.66
588.846	16058.38
589.206	16148.77
589.565	16525.71
589.925	16796.89
590.284	17168.4
590.643	17425.12
591.003	17761.38
591.362	18073.47
591.721	18225.33
592.08	18698.99
592.44	19021.46
592.799	19389.59
593.158	19656.47
593.517	20007.88
593.876	20221.21
594.235	20607.86
594.593	20855.77
594.952	21253.95
595.311	21648.06
595.67	22032.91
596.029	22514.7
596.387	22737.98
596.746	23172.54
597.104	23410.27
597.463	23678.52
597.822	24130.26
598.18	24428.55
598.538	24720.07
598.897	25261.98
599.255	25428.07
599.613	25972.24
599.972	26247.04
600.33	26644.31
600.688	26916.62
601.046	27160.01
601.404	27729.48
601.762	27963.83
602.12	28443.36
602.478	28668.44
602.836	29037.7
603.194	29176.22
603.552	29446.05
603.91	29747.51
604.268	30346.36
604.625	30534.83
604.983	30855.73
605.341	30988.83
605.698	31533
606.056	31849.37
606.413	32112.19
606.771	32458.17
607.128	32823.13
607.485	32944.26
607.843	33043.24
608.2	33683
608.557	33987.4
608.914	34098.35
609.272	34433.26
609.629	34887.49
609.986	35203.64
610.343	35198.66
610.7	35570.41
611.057	35824.64
611.414	36064.18
611.771	36227.79
612.127	36645.18
612.484	36788.45
612.841	37031.16
613.198	37060.31
613.554	37312.96
613.911	37720.18
614.267	37830.01
614.624	38034.97
614.98	38202.43
615.337	38586.82
615.693	38682.42
616.05	38722.64
616.406	39077.66
616.762	39279.46
617.118	39301.83
617.475	39505.9
617.831	39834.02
618.187	40020.68
618.543	40307.91
618.899	40628.8
619.255	40592.65
619.611	40696.37
619.967	41001.45
620.323	41131.16
620.678	41093.65
621.034	41150.6
621.39	41196.7
621.746	41329.13
622.101	41919.62
622.457	41665.84
622.812	41988.77
623.168	42035.1
623.523	42130.46
623.879	42447.97
624.234	42229.67
624.589	42425.82
624.945	42577.91
625.3	42801.63
625.655	42657.23
626.01	42734.74
626.365	42944.45
626.72	43052.47
627.075	42887.5
627.43	43023.09
627.785	43019.93
628.14	43189.87
628.495	43293.14
628.85	43299.92
629.205	43228.06
629.559	43542.17
629.914	43402.29
630.269	43597.31
630.623	43503.08
630.978	43460.14
631.332	43671.89
631.687	43859.91
632.041	43700.14
632.396	43779.23
632.75	43835.73
633.104	43774.26
633.459	43750.53
633.813	43664.66
634.167	43744.65
634.521	43870.53
634.875	43930.41
635.229	43901.03
635.583	43768.61
635.937	43752.79
636.291	43748.95
636.645	43872.79
636.999	43778.33
637.352	43920.92
637.706	43610.65
638.06	43842.73
638.413	43845.22
638.767	43589.63
639.121	43812
639.474	43560.03
639.828	43640.7
640.181	43740.36
640.534	43790.98
640.888	43556.19
641.241	43532.01
641.594	43615.62
641.947	43695.62
642.301	43548.73
642.654	43723.41
643.007	43694.49
643.36	43757.54
643.713	43652
644.066	43799.57
644.419	43516.19
644.771	43267.15
645.124	42973.38
645.477	42837.56
645.83	42558.92
646.182	42507.85
646.535	42565.7
646.888	42467.85
647.24	42215.2
647.593	42606.61
647.945	42579.71
648.298	42292.94
648.65	42308.31
649.002	42025.38
649.355	42386.5
649.707	42321.64
650.059	42474.63
650.411	42909.2
650.763	42976.99
651.115	43294.5
651.467	43203.2
651.819	43239.13
652.171	43042.3
652.523	43085.01
652.875	43201.84
653.227	43118.91
653.578	43228.51
653.93	43105.58
654.282	42987.39
654.633	42906.94
654.985	42948.97
655.337	43178.57
655.688	43077.33
656.039	43097.89
656.391	42816.77
656.742	42807.96
657.094	42921.63
657.445	42927.73
657.796	42839.37
658.147	42855.86
658.498	42860.61
658.849	42924.34
659.2	42896.99
659.551	42783.78
659.902	42953.72
660.253	42949.42
660.604	42953.04
660.955	42737.9
661.306	42846.83
661.656	42764.79
662.007	42889.08
662.358	42879.82
662.708	42748.3
663.059	42765.7
663.409	42634.63
663.76	42837.79
664.11	42736.55
664.461	42774.74
664.811	42786.49
665.161	42713.04
665.511	42633.05
665.862	42615.42
666.212	42826.03
666.562	42810.44
666.912	42637.34
667.262	42659.03
667.612	42619.71
667.962	42849.31
668.312	42698.58
668.662	42957.1
669.011	42718.69
669.361	42536.33
669.711	42672.37
670.06	42627.4
670.41	42469.89
670.76	42496.33
671.109	42524.12
671.459	42503.56
671.808	42429.21
672.157	42583.1
672.507	42170.68
672.856	42333.62
673.205	42482.54
673.554	42428.31
673.904	42222.89
674.253	42634.85
674.602	42360.51
674.951	41886.85
675.3	41730.7
675.649	42335.43
675.998	42374.07
676.346	42295.43
676.695	42419.04
677.044	42061.99
677.393	42142.44
677.741	42308.76
678.09	42141.99
678.438	42050.01
678.787	42165.26
679.135	42180.18
679.484	41711.04
679.832	42062.67
680.181	41822.67
680.529	41874.2
680.877	41756.68
681.225	41647.08
681.573	41945.83
681.922	41626.29
682.27	41526.86
682.618	41512.62
682.966	41320.54
683.314	41509.46
683.661	41264.27
684.009	41085.06
684.357	41225.4
684.705	41153.76
685.053	41245.51
685.4	41122.8
685.748	40831.74
686.095	40964.39
686.443	40807.56
686.79	40741.12
687.138	40923.49
687.485	40814.56
687.832	40776.15
688.18	40838.06
688.527	40567.79
688.874	40403.05
689.221	40467.23
689.568	40310.85
689.915	40236.05
690.262	40233.11
690.609	40205.99
690.956	40033.34
691.303	40016.17
691.65	39907.02
691.997	39769.84
692.344	39562.39
692.69	39543.64
693.037	39539.57
693.383	39276.75
693.73	39347.48
694.077	39078.79
694.423	39079.69
694.769	38932.35
695.116	38889.87
695.462	38790.89
695.808	38661.85
696.155	38886.03
696.501	38498.01
696.847	38432.93
697.193	38307.28
697.539	38425.7
697.885	38230.22
698.231	38095.09
698.577	38127.85
698.923	38021.42
699.269	37865.71
699.614	37664.81
699.96	37682.89
700.306	37655.78
700.651	37421.88
700.997	37304.15
701.342	37248.1
701.688	37251.94
702.033	37132.4
702.379	37059.41
702.724	36886.98
703.069	37008.11
703.415	36578.97
703.76	36582.58
704.105	36744.16
704.45	36611.51
704.795	36408.12
705.14	36221.24
705.485	36321.8
705.83	36124.29
706.175	36069.83
706.52	35894.47
706.865	35906.89
707.209	35887.46
707.554	35812.66
707.899	35724.75
708.243	35659.67
708.588	35517.98
708.932	35278.44
709.277	35131.1
709.621	35354.37
709.966	35060.82
710.31	35223.97
710.654	35036.18
710.998	34996.41
711.342	34951.89
711.687	34914.6
712.031	34631.67
712.375	34645.69
712.719	34764.55
713.063	34585.12
713.407	34705.34
713.75	34509.19
714.094	34599.36
714.438	34284.56
714.782	34327.28
715.125	34176.54
715.469	34134.51
715.812	33960.96
716.156	33862.43
716.499	33880.28
716.843	33873.95
717.186	33697.91
717.53	33760.96
717.873	33786.72
718.216	33662.21
718.559	33503.79
718.902	33350.8
719.246	33354.87
719.589	33354.42
719.932	33125.95
720.275	33285.27
720.617	33118.49
720.96	33117.59
721.303	33109.91
721.646	33166.18
721.989	32855.9
722.331	32961.44
722.674	32974.09
723.016	32990.14
723.359	32834.43
723.701	32996.46
724.044	32621.11
724.386	32531.62
724.729	32754.21
725.071	32549.47
725.413	32521
725.755	32428.34
726.097	32349.25
726.439	32114.45
726.782	32191.96
727.124	32354.45
727.465	32191.29
727.807	32110.16
728.149	32002.14
728.491	31927.79
728.833	32044.62
729.175	31907.45
729.516	31880.56
729.858	31856.83
730.199	31907.23
730.541	31760.34
730.882	31785.65
731.224	31731.19
731.565	31523.28
731.906	31534.35
732.248	31528.93
732.589	31497.97
732.93	31297.75
733.271	31415.94
733.612	31459.78
733.953	31380.46
734.294	31307.92
734.635	31128.26
734.976	31291.2
735.317	31088.72
735.658	31045.1
735.999	31005.1
736.339	30940.92
736.68	31097.08
737.021	30844.43
737.361	30826.8
737.702	30897.76
738.042	30874.48
738.383	30679.01
738.723	30778.89
739.063	30632.46
739.404	30782.74
739.744	30592.23
740.084	30487.6
740.424	30592.23
740.764	30347.94
741.104	30473.37
741.444	30248.06
741.784	30174.84
742.124	30368.51
742.464	30368.96
742.804	30201.96
743.143	30284.67
743.483	30236.31
743.823	30025.69
744.162	29945.7
744.502	30056.2
744.841	29946.37
745.181	30037.44
745.52	29920.16
745.86	29974.17
746.199	29935.75
746.538	29868.64
746.877	29979.82
747.216	29926.26
747.556	29682.88
747.895	29726.72
748.234	29606.04
748.573	29537.34
748.911	29496.22
749.25	29356.78
749.589	29409.21
749.928	29386.84
750.267	29376.22
750.605	29263
750.944	29283.79
751.283	29132.16
751.621	29254.64
751.96	29073.63
752.298	29036.57
752.636	28992.95
752.975	28825.27
753.313	28754.99
753.651	28889.45
753.989	28557.26
754.327	28602.68
754.666	28454.66
755.004	28586.18
755.342	28605.62
755.679	28465.73
756.017	28406.3
756.355	28578.5
756.693	28356.81
757.031	28322.01
757.368	28070.04
757.706	28045.18
758.044	28052.19
758.381	28149.13
758.719	27935.81
759.056	27984.84
759.394	27794.34
759.731	27760.67
760.068	27614.91
760.405	27482.71
760.743	27406.1
761.08	27492.88
761.417	27276.84
761.754	27334.24
762.091	27195.49
762.428	27129.5
762.765	27045.66
763.102	27189.84
763.438	26931.54
763.775	26851.54
764.112	26895.83
764.449	26977.41
764.785	26686.12
765.122	26502.4
765.458	26308.28
765.795	26502.17
766.131	26310.54
766.467	26347.6
766.804	26216.08
767.14	26021.96
767.476	26030.09
767.812	25884.56
768.148	25866.03
768.485	25832.36
768.821	25574.51
769.157	25731.12
769.492	25537.68
769.828	25476.21
770.164	25216.55
770.5	25268.53
770.836	25130
771.171	24991.48
771.507	24935.43
771.842	24697.7
772.178	24822.67
772.513	24749.22
772.849	24761.43
773.184	24648.21
773.519	24595.55
773.855	24493.18
774.19	24356.69
774.525	24327.09
774.86	24172.06
775.195	24091.16
775.53	24045.74
775.865	23918.51
776.2	23768.68
776.535	23595.35
776.87	23626.31
777.205	23500.89
777.539	23486.88
777.874	23502.25
778.209	23214.57
778.543	23204.63
778.878	23120.56
779.212	23090.96
779.547	23020.45
779.881	22959.21
780.215	22836.73
780.55	22834.02
780.884	22682.61
781.218	22635.83
781.552	22632.44
781.886	22522.16
782.22	22361.49
782.554	22373.24
782.888	22126.92
783.222	22137.54
783.556	21989.97
783.889	21921.73
784.223	21703.88
784.557	21640.15
784.89	21779.58
785.224	21627.5
785.557	21509.08
785.891	21400.61
786.224	21392.93
786.558	21312.02
786.891	21100.05
787.224	21081.75
787.557	21116.32
787.891	21069.32
788.224	20980.96
788.557	20955.88
788.89	20931.24
789.223	20922.2
789.556	20704.36
789.888	20564.47
790.221	20559.95
790.554	20292.39
790.887	20351.82
791.219	20279.96
791.552	20221.88
791.884	20097.82
792.217	20081.77
792.549	20047.2
792.882	19925.62
793.214	19868.9
793.546	19818.5
793.879	19780.99
794.211	19544.61
794.543	19665.51
794.875	19613.31
795.207	19526.99
795.539	19476.82
795.871	19426.2
796.203	19337.84
796.535	19200.22
796.867	19205.87
797.198	19081.12
797.53	19104.17
797.862	19050.39
798.193	18936.04
798.525	18840.22
798.856	18916.38
799.188	18687.69
799.519	18636.84
799.85	18549.16
800.182	18563.4
800.513	18608.14
800.844	18314.36
801.175	18531.76
801.506	18484.53
801.837	18345.32
802.168	18308.94
802.499	18161.6
802.83	18124.31
803.161	18106.46
803.491	18030.3
803.822	17967.71
804.153	17948.05
804.483	17809.52
804.814	17728.84
805.145	17688.84
805.475	17714.6
805.805	17629.18
806.136	17698.11
806.466	17632.12
806.796	17572.24
807.126	17414.27
807.457	17381.96
807.787	17338.8
808.117	17222.19
808.447	17288.4
808.777	17273.71
809.107	17232.13
809.436	17057
809.766	17107.39
810.096	17012.25
810.426	16922.76
810.755	17059.93
811.085	16951.91
811.414	16912.14
811.744	16756.21
812.073	16693.39
812.403	16690.68
812.732	16617.23
813.061	16622.43
813.39	16446.16
813.719	16447.97
814.049	16581.08
814.378	16429.21
814.707	16427.18
815.036	16330.46
815.365	16342.44
815.693	16099.73
816.022	16171.14
816.351	16148.09
816.68	15942
817.008	16082.11
817.337	15923.69
817.665	15914.88
817.994	15985.38
818.322	15981.54
818.651	15843.69
818.979	15758.5
819.307	15836.24
819.636	15770.7
819.964	15644.83
820.292	15742.23
820.62	15697.48
820.948	15616.81
821.276	15758.72
821.604	15631.27
821.932	15625.17
822.259	15718.05
822.587	15631.95
822.915	15538.62
823.243	15588.33
823.57	15572.74
823.898	15502.69
824.225	15544.72
824.553	15545.85
824.88	15569.12
825.207	15634.66
825.535	15531.61
825.862	15557.15
826.189	15504.49
826.516	15624.49
826.843	15526.87
827.17	15584.72
827.497	15545.62
827.824	15558.28
828.151	15627.88
828.478	15638.5
828.805	15660.2
829.131	15519.63
829.458	15534.32
829.785	15500.65
830.111	15469.01
830.438	15509.92
830.764	15482.35
831.09	15590.14
831.417	15516.92
831.743	15512.85
832.069	15534.32
832.395	15480.54
832.722	15452.29
833.048	15479.41
833.374	15457.04
833.7	15368.68
834.026	15331.39
834.351	15399.86
834.677	15291.39
835.003	15421.56
835.329	15325.74
835.654	15316.25
835.98	15281.9
836.306	15249.36
836.631	15240.77
836.956	15289.81
837.282	15226.53
837.607	15153.77
837.932	15140.44
838.258	15183.6
838.583	15098.85
838.908	15156.71
839.233	15014.79
839.558	15003.49
839.883	14895.24
840.208	14904.06
840.533	14888.01
840.858	14948.12
841.182	14964.17
841.507	14865.64
841.832	14803.95
842.156	14872.87
842.481	14747.9
842.805	14666.1
843.13	14692.31
843.454	14699.54
843.778	14628.13
844.103	14580.9
844.427	14469.72
844.751	14506.33
845.075	14546.55
845.399	14455.93
845.723	14327.8
846.047	14411.19
846.371	14289.84
846.695	14280.57
847.019	14128.03
847.343	14074.93
847.666	14022.27
847.99	13958.32
848.313	13973.69
848.637	13955.83
848.96	13877.42
849.284	13770.3
849.607	13719.46
849.931	13677.65
850.254	13596.52
850.577	13535.28
850.9	13363.53
851.223	13422.06
851.546	13282.4
851.869	13269.75
852.192	13390.65
852.515	13194.72
852.838	13163.31
853.161	13130.09
853.483	13154.05
853.806	12927.61
854.129	12995.86
854.451	12962.41
854.774	12921.74
855.096	12776.66
855.419	12833.83
855.741	12758.8
856.063	12765.13
856.385	12672.03
856.708	12633.61
857.03	12574.4
857.352	12637.45
857.674	12595.87
857.996	12490.34
858.318	12446.49
858.64	12479.26
858.961	12429.55
859.283	12356.78
859.605	12272.04
859.926	12343.22
860.248	12302.09
860.57	12224.13
860.891	12255.09
861.212	12151.81
861.534	12159.5
861.855	12016.22
862.176	12061.42
862.498	12053.51
862.819	12171.93
863.14	11963.57
863.461	12012.16
863.782	11931.71
864.103	12004.47
864.424	11900.29
864.745	11925.6
865.065	11881.54
865.386	11796.34
865.707	11775.78
866.027	11816.68
866.348	11758.38
866.668	11776.46
866.989	11784.82
867.309	11587.31
867.63	11677.25
867.95	11707.08
868.27	11634.54
868.59	11632.5
868.91	11644.48
869.23	11598.61
869.55	11494.43
869.87	11558.61
870.19	11529.23
870.51	11531.04
870.83	11554.99
871.15	11403.58
871.469	11478.61
871.789	11448.78
872.109	11451.72
872.428	11368.56
872.748	11436.13
873.067	11314.55
873.386	11396.13
873.706	11393.19
874.025	11235.45
874.344	11256.24
874.663	11166.3
874.982	11228.9
875.301	11227.32
875.62	11219.41
875.939	11093.54
876.258	11215.57
876.577	11168.56
876.896	11163.82
877.214	11074.1
877.533	11140.31
877.852	11082.91
878.17	11056.7
878.489	11010.6
878.807	11013.31
879.125	11005.85
879.444	10978.74
879.762	11002.46
880.08	10958.85
880.398	10938.74
880.716	10967.21
881.034	10821.68
881.352	10940.32
881.67	10887.67
881.988	10802.02
882.306	10840.66
882.624	10827.33
882.941	10725.18
883.259	10717.73
883.577	10680.89
883.894	10692.19
884.212	10648.58
884.529	10670.04
884.846	10657.62
885.164	10599.09
885.481	10531.97
885.798	10548.69
886.115	10463.95
886.432	10490.61
886.75	10432.08
887.067	10472.31
887.383	10390.73
887.7	10447.9
888.017	10370.39
888.334	10333.33
888.651	10338.53
888.967	10270.51
889.284	10218.08
889.6	10240.23
889.917	10076.39
890.233	10197.97
890.55	10084.52
890.866	10129.72
891.182	10056.05
891.498	10114.8
891.815	10020.12
892.131	9894.92
892.447	9952.32
892.763	9923.17
893.079	9944.41
893.395	9848.37
893.71	9789.39
894.026	9747.13
894.342	9760.92
894.657	9768.6
894.973	9793.68
895.289	9664.65
895.604	9613.12
895.92	9536.29
896.235	9538.55
896.55	9600.24
896.865	9561.37
897.181	9478.21
897.496	9484.09
897.811	9383.52
898.126	9440.47
898.441	9376.29
898.756	9416.74
899.071	9360.25
899.386	9277.54
899.7	9225.11
900.015	9184.43
900.33	9138.56
900.644	9058.56
900.959	9173.59
901.273	9019.01
901.588	9065.34
901.902	8932.46
902.216	8993.93
902.531	8961.84
902.845	8969.3
903.159	8907.6
903.473	8905.57
903.787	8803.88
904.101	8741.96
904.415	8820.83
904.729	8687.72
905.042	8648.4
905.356	8605.01
905.67	8596.43
905.984	8657.44
906.297	8579.25
906.611	8542.87
906.924	8539.25
907.237	8454.06
907.551	8387.62
907.864	8460.61
908.177	8396.66
908.491	8383.78
908.804	8322.54
909.117	8297.23
909.43	8170.9
909.743	8128.19
910.056	8147.85
910.368	8154.86
910.681	8115.76
910.994	8140.39
911.307	8075.76
911.619	7994.18
911.932	8030.34
912.244	7911.7
912.557	7932.26
912.869	7844.13
913.181	7910.12
913.494	7816.79
913.806	7790.12
914.118	7734.75
914.43	7701.08
914.742	7746.05
915.054	7683.68
915.366	7582.67
915.678	7561.88
915.99	7515.55
916.302	7548.54
916.613	7464.93
916.925	7485.95
917.236	7438.04
917.548	7344.48
917.859	7429.9
918.171	7272.39
918.482	7293.64
918.794	7270.36
919.105	7260.19
919.416	7239.85
919.727	7195.11
920.038	7130.7
920.349	7079.18
920.66	7081.44
920.971	7050.93
921.282	7045.05
921.593	6991.04
921.903	6967.32
922.214	6922.57
922.525	6900.65
922.835	6947.88
923.146	6818.85
923.456	6861.33
923.767	6792.18
924.077	6779.07
924.387	6715.8
924.697	6683.03
925.008	6621.34
925.318	6679.64
925.628	6599.87
925.938	6592.64
926.248	6528.91
926.558	6514.67
926.867	6558.06
927.177	6543.6
927.487	6444.62
927.796	6412.53
928.106	6332.53
928.416	6335.02
928.725	6365.3
929.034	6295.24
929.344	6294.79
929.653	6304.28
929.962	6260.67
930.271	6223.83
930.581	6195.59
930.89	6129.37
931.199	6095.02
931.508	6116.49
931.817	6128.02
932.125	6108.58
932.434	6047.12
932.743	5972.31
933.051	5975.93
933.36	5906.78
933.669	5893.67
933.977	5938.87
934.286	5866.78
934.594	5844.18
934.902	5817.97
935.21	5782.94
935.519	5766.67
935.827	5759.89
936.135	5703.62
936.443	5685.54
936.751	5638.31
937.059	5704.07
937.367	5598.99
937.674	5613.45
937.982	5578.88
938.29	5557.64
938.597	5536.39
938.905	5474.93
939.213	5495.04
939.52	5478.77
939.827	5488.71
940.135	5376.62
940.442	5399.45
940.749	5346.12
941.056	5305.67
941.363	5288.04
941.67	5279
941.977	5275.84
942.284	5239.68
942.591	5252.79
942.898	5180.92
943.205	5224.76
943.511	5146.8
943.818	5124.65
944.125	5074.71
944.431	5087.14
944.738	5064.09
945.044	5058.89
945.35	5009.63
945.657	4967.37
945.963	4959.91
946.269	4912
946.575	4931.44
946.881	4857.54
947.187	4841.05
947.493	4876.75
947.799	4818.22
948.105	4808.05
948.41	4806.7
948.716	4816.41
949.022	4744.55
949.327	4812.8
949.633	4674.5
949.938	4680.82
950.244	4667.04
950.549	4658.9
950.854	4681.28
951.16	4632.46
951.465	4588.17
951.77	4543.43
952.075	4535.52
952.38	4520.83
952.685	4531.22
952.99	4487.83
953.294	4489.42
953.599	4400.83
953.904	4462.98
954.209	4415.52
954.513	4434.95
954.818	4328.29
955.122	4345.92
955.426	4371.68
955.731	4288.74
956.035	4310.89
956.339	4306.14
956.643	4268.18
956.948	4256.2
957.252	4244.45
957.556	4202.64
957.86	4188.86
958.163	4173.94
958.467	4153.83
958.771	4144.57
959.075	4081.97
959.378	4093.27
959.682	4104.79
959.985	4032.93
960.289	4069.54
960.592	4027.28
960.896	4011.69
961.199	4028.41
961.502	3971.69
961.805	3954.06
962.108	3961.29
962.411	3948.87
962.714	3883.78
963.017	3880.39
963.32	3900.5
963.623	3886.72
963.926	3836.33
964.228	3811.69
964.531	3781.41
964.833	3839.72
965.136	3738.02
965.438	3762.43
965.741	3743.22
966.043	3741.64
966.345	3722.66
966.648	3670.45
966.95	3717.01
967.252	3651.47
967.554	3663.9
967.856	3628.2
968.158	3598.82
968.46	3614.86
968.761	3591.81
969.063	3580.97
969.365	3515.43
969.666	3552.27
969.968	3506.62
970.269	3533.96
970.571	3518.59
970.872	3480.63
971.174	3462.32
971.475	3420.52
971.776	3399.95
972.077	3378.26
972.378	3401.08
972.679	3367.41
972.98	3376.45
973.281	3346.62
973.582	3392.5
973.883	3350.01
974.183	3330.58
974.484	3282.67
974.785	3290.8
975.085	3275.89
975.386	3250.58
975.686	3282.22
975.986	3207.42
976.287	3220.3
976.587	3176
976.887	3206.96
977.187	3185.95
977.487	3106.85
977.787	3160.19
978.087	3103.01
978.387	3138.49
978.687	3082.67
978.987	3098.49
979.286	3063.24
979.586	3073.18
979.885	3034.09
980.185	3058.49
980.484	2984.37
980.784	3018.72
981.083	2990.47
981.382	2996.35
981.682	2973.3
981.981	2939.85
982.28	2898.72
982.579	2904.82
982.878	2922.68
983.177	2905.05
983.475	2879.29
983.774	2863.02
984.073	2863.02
984.372	2829.35
984.67	2811.27
984.969	2821.89
985.267	2804.94
985.566	2758.16
985.864	2800.87
986.162	2777.6
986.461	2733.98
986.759	2749.8
987.057	2691.5
987.355	2675
987.653	2734.43
987.951	2686.98
988.249	2676.58
988.547	2688.11
988.844	2658.73
989.142	2669.8
989.44	2635.68
989.737	2618.5
990.035	2602.46
990.332	2584.16
990.63	2559.75
990.927	2550.48
991.224	2601.1
991.521	2567.88
991.819	2529.02
992.116	2521.11
992.413	2530.6
992.71	2484.95
993.006	2489.92
993.303	2489.24
993.6	2473.65
993.897	2475.91
994.193	2414.67
994.49	2459.86
994.787	2406.76
995.083	2404.95
995.379	2406.31
995.676	2410.6
995.972	2405.63
996.268	2391.62
996.565	2351.84
996.861	2312.52
997.157	2331.96
997.453	2331.51
997.749	2304.16
998.044	2312.52
998.34	2276.14
998.636	2265.07
998.932	2300.09
999.227	2281.56
999.523	2250.15
999.818	2222.36
1000.114	2214
1000.409	2218.06
1000.704	2180.1
1001	2155.47
1001.295	2173.77
1001.59	2181.23
1001.885	2141
1002.18	2133.32
1002.475	2127.44
1002.77	2129.7
1003.065	2099.65
1003.359	2104.62
1003.654	2079.31
1003.949	2089.7
1004.243	2052.42
1004.538	2031.85
1004.832	2033.44
1005.127	2018.07
1005.421	2047.45
1005.715	2001.12
1006.009	2013.77
1006.304	1968.58
1006.598	1977.84
1006.892	1964.06
1007.186	1948.47
1007.48	1910.05
1007.773	1914.34
1008.067	1904.17
1008.361	1879.54
1008.655	1885.64
1008.948	1883.61
1009.242	1861.91
1009.535	1895.13
1009.829	1852.2
1010.122	1818.75
1010.415	1827.11
1010.708	1804.29
1011.001	1789.15
1011.295	1780.33
1011.588	1801.8
1011.881	1780.33
1012.173	1769.94
1012.466	1764.52
1012.759	1727.45
1013.052	1750.5
1013.344	1716.38
1013.637	1736.49
1013.93	1714.12
1014.222	1692.43
1014.514	1680.68
1014.807	1695.82
1015.099	1673.22
1015.391	1666.89
1015.683	1623.28
1015.976	1646.33
1016.268	1607.68
1016.56	1618.98
1016.851	1608.14
1017.143	1595.25
1017.435	1579.21
1017.727	1561.13
1018.018	1576.5
1018.31	1538.98
1018.602	1539.21
1018.893	1544.86
1019.185	1521.58
1019.476	1502.15
1019.767	1482.94
1020.058	1501.25
1020.35	1468.03
1020.641	1468.7
1020.932	1489.72
1021.223	1435.94
1021.514	1462.6
1021.804	1404.75
1022.095	1413.79
1022.386	1417.86
1022.677	1405.88
1022.967	1414.24
1023.258	1369.95
1023.548	1362.27
1023.839	1356.62
1024.129	1360.23
1024.419	1330.18
1024.709	1308.71
1025	1338.76
1025.29	1339.44
1025.58	1338.76
1025.87	1312.32
1026.16	1303.74
1026.449	1310.06
1026.739	1297.64
1027.029	1277.75
1027.319	1292.21
1027.608	1266.22
1027.898	1262.38
1028.187	1250.4
1028.477	1240.01
1028.766	1228.26
1029.055	1228.94
1029.344	1220.58
1029.634	1201.59
1029.923	1207.24
1030.212	1209.5
1030.501	1180.12
1030.79	1174.93
1031.078	1173.57
1031.367	1154.81
1031.656	1117.3
1031.945	1139
1032.233	1151.2
1032.522	1146
1032.81	1116.4
1033.099	1120.46
1033.387	1109.62
1033.675	1085.21
1033.963	1115.49
1034.251	1103.97
1034.54	1092.44
1034.828	1062.84
1035.116	1067.58
1035.403	1077.53
1035.691	1056.96
1035.979	1044.31
1036.267	1062.39
1036.554	1073.01
1036.842	1035.5
1037.129	1040.02
1037.417	1035.5
1037.704	1014.48
1037.992	1022.84
1038.279	983.52
1038.566	991.88
1038.853	991.88
1039.14	991.88
