Data from hue_00_FLMS001491_77.txt Node
Date: Mon Feb 06 15:30:13 GMT 2017
User: dcchb
Spectrometer: FLMS00149
Trigger mode: 0
Integration Time (sec): 2.000000E-2
Scans to average: 10
Electric dark correction enabled: true
Nonlinearity correction enabled: false
Boxcar width: 0
XAxis mode: Wavelengths
Number of Pixels in Spectrum: 2048
>>>>>Begin Spectral Data<<<<<
341.393	11.77
341.776	11.77
342.16	11.77
342.543	-55.8
342.927	-57.84
343.31	-78.63
343.693	-82.02
344.077	-64.84
344.46	-68.01
344.843	-51.28
345.226	-37.95
345.61	-25.75
345.993	-15.8
346.376	5.66
346.759	-4.96
347.142	23.52
347.525	50.18
347.908	65.1
348.291	85.89
348.674	86.11
349.057	112.78
349.44	124.08
349.823	140.12
350.206	164.76
350.588	192.55
350.971	216.28
351.354	217.64
351.737	259.67
352.119	257.63
352.502	226.67
352.884	257.86
353.267	288.37
353.65	300.35
354.032	296.28
354.414	296.28
354.797	303.06
355.179	315.94
355.562	313.68
355.944	324.3
356.326	310.51
356.709	324.98
357.091	357.74
357.473	336.05
357.855	321.59
358.238	329.27
358.62	340.8
359.002	334.69
359.384	317.07
359.766	351.19
360.148	319.78
360.53	305.77
360.912	350.29
361.294	347.12
361.676	330.85
362.057	317.75
362.439	340.34
362.821	338.31
363.203	325.43
363.584	320.23
363.966	309.84
364.348	325.43
364.729	324.07
365.111	296.96
365.493	307.35
365.874	298.09
366.256	305.77
366.637	309.61
367.019	300.8
367.4	295.15
367.781	287.92
368.163	310.51
368.544	299.22
368.925	300.12
369.306	298.31
369.688	316.16
370.069	299.89
370.45	284.3
370.831	310.06
371.212	294.47
371.593	297.41
371.974	308.48
372.355	308.71
372.736	295.15
373.117	322.49
373.498	311.19
373.879	312.32
374.26	313.9
374.641	310.74
375.021	309.16
375.402	317.29
375.783	318.42
376.163	313.23
376.544	305.32
376.925	329.05
377.305	301.02
377.686	319.55
378.066	304.41
378.447	304.41
378.827	320.91
379.208	317.52
379.588	333.11
379.968	312.32
380.349	330.17
380.729	326.11
381.109	311.87
381.489	339.44
381.87	311.64
382.25	334.02
382.63	322.72
383.01	338.08
383.39	333.56
383.77	355.94
384.15	322.72
384.53	336.28
384.91	345.54
385.29	353.23
385.67	318.2
386.049	344.19
386.429	327.01
386.809	364.07
387.189	332.21
387.568	367.01
387.948	341.47
388.328	368.82
388.707	341.7
389.087	358.65
389.466	343.51
389.846	323.85
390.225	344.41
390.605	357.07
390.984	366.56
391.363	347.35
391.743	337.63
392.122	360.46
392.501	365.2
392.881	343.96
393.26	343.51
393.639	355.94
394.018	357.97
394.397	358.87
394.776	357.52
395.155	346.9
395.534	349.16
395.913	350.51
396.292	358.42
396.671	363.39
397.05	362.49
397.429	375.6
397.808	364.3
398.186	389.83
398.565	361.81
398.944	374.69
399.323	359.55
399.701	365.43
400.08	361.59
400.458	374.92
400.837	392.09
401.215	381.47
401.594	365.43
401.972	404.75
402.351	388.25
402.729	395.48
403.107	383.96
403.486	398.42
403.864	395.71
404.242	371.76
404.62	398.87
404.999	388.48
405.377	375.82
405.755	400.91
406.133	398.2
406.511	397.07
406.889	405.2
407.267	390.06
407.645	404.07
408.023	421.25
408.401	390.06
408.779	405.88
409.156	403.17
409.534	411.3
409.912	418.99
410.29	389.16
410.667	431.19
411.045	459.44
411.422	424.41
411.8	433.68
412.178	426.44
412.555	414.92
412.933	442.04
413.31	424.86
413.687	455.14
414.065	453.56
414.442	439.55
414.819	446.1
415.197	426.44
415.574	463.73
415.951	459.44
416.328	459.44
416.705	452.43
417.082	462.83
417.46	484.07
417.837	463.73
418.214	470.96
418.591	480
418.967	447.01
419.344	472.54
419.721	466.44
420.098	499.66
420.475	490.85
420.852	487.23
421.228	485.2
421.605	484.75
421.982	505.76
422.358	498.31
422.735	499.66
423.111	517.06
423.488	497.18
423.864	487.01
424.241	499.66
424.617	522.03
424.994	555.48
425.37	536.72
425.746	524.07
426.123	522.94
426.499	511.64
426.875	550.51
427.251	553.67
427.627	543.5
428.003	530.62
428.379	579.21
428.756	549.83
429.132	543.73
429.507	538.76
429.883	568.36
430.259	551.41
430.635	564.97
431.011	566.78
431.387	576.27
431.763	587.8
432.138	581.69
432.514	597.74
432.89	596.16
433.265	585.54
433.641	598.87
434.016	606.78
434.392	598.42
434.767	601.35
435.143	606.78
435.518	638.64
435.894	649.26
436.269	628.7
436.644	628.92
437.02	663.5
437.395	631.41
437.77	649.71
438.145	655.82
438.52	643.61
438.895	652.2
439.271	633.9
439.646	677.06
440.021	667.79
440.395	684.29
440.77	681.35
441.145	667.34
441.52	671.41
441.895	686.78
442.27	703.95
442.645	676.38
443.019	706.21
443.394	702.82
443.769	688.81
444.143	694.69
444.518	733.78
444.892	704.4
445.267	713.89
445.641	710.96
446.016	738.53
446.39	746.66
446.764	739.43
447.139	724.29
447.513	743.27
447.887	745.31
448.262	730.16
448.636	725.64
449.01	753.67
449.384	727.68
449.758	731.97
450.132	740.33
450.506	772.88
450.88	782.82
451.254	752.08
451.628	776.26
452.002	775.81
452.376	767.23
452.75	789.82
453.123	780.33
453.497	797.51
453.871	802.93
454.244	809.26
454.618	833.21
454.992	828.47
455.365	813.33
455.739	829.6
456.112	856.49
456.486	844.74
456.859	844.29
457.232	854
457.606	863.49
457.979	853.78
458.352	873.44
458.725	866.43
459.099	873.89
459.472	875.92
459.845	919.09
460.218	924.06
460.591	921.35
460.964	916.6
461.337	952.76
461.71	950.5
462.083	950.5
462.456	950.5
462.829	960.44
463.201	972.87
463.574	984.85
463.947	968.58
464.32	1016.94
464.692	1002.7
465.065	988.69
465.438	1020.78
465.81	1024.39
466.183	1057.16
466.555	1048.12
466.928	1072.75
467.3	1077.27
467.672	1077.73
468.045	1110.72
468.417	1108.23
468.789	1124.28
469.161	1121.11
469.534	1146.88
469.906	1198.85
470.278	1185.07
470.65	1163.83
471.022	1204.95
471.394	1223.71
471.766	1250.15
472.138	1246.08
472.51	1258.06
472.882	1290.15
473.253	1296.03
473.625	1330.83
473.997	1326.08
474.369	1354.78
474.74	1354.33
475.112	1399.3
475.484	1409.47
475.855	1433.42
476.227	1451.28
476.598	1503.03
476.97	1505.06
477.341	1521.33
477.713	1549.58
478.084	1561.55
478.455	1611.5
478.827	1633.64
479.198	1691.95
479.569	1660.76
479.94	1724.71
480.311	1745.5
480.682	1791.61
481.053	1821.21
481.424	1806.75
481.795	1865.73
482.166	1884.94
482.537	1916.8
482.908	1944.82
483.279	1990.02
483.65	2029.34
484.021	2064.59
484.391	2099.39
484.762	2105.27
485.133	2111.82
485.503	2176.68
485.874	2197.02
486.244	2247.19
486.615	2294.42
486.985	2297.35
487.356	2330.12
487.726	2362.89
488.097	2402.44
488.467	2445.83
488.837	2486.05
489.207	2522.66
489.578	2555.65
489.948	2590.68
490.318	2602.43
490.688	2621.19
491.058	2732.6
491.428	2730.56
491.798	2762.88
492.168	2806.72
492.538	2799.04
492.908	2824.35
493.278	2922.65
493.648	2898.92
494.017	2946.83
494.387	2973.72
494.757	2979.6
495.126	3046.26
495.496	3068.18
495.866	3069.54
496.235	3155.86
496.605	3129.42
496.974	3142.3
497.344	3201.29
497.713	3205.35
498.082	3249.87
498.452	3293.71
498.821	3295.29
499.19	3305.69
499.559	3370.1
499.928	3371
500.298	3382.98
500.667	3442.86
501.036	3395.18
501.405	3425.23
501.774	3441.73
502.143	3492.35
502.512	3529.41
502.88	3508.4
503.249	3533.03
503.618	3533.03
503.987	3577.77
504.356	3612.35
504.724	3597.43
505.093	3668.62
505.462	3635.4
505.83	3698.45
506.199	3712.01
506.567	3730.31
506.936	3723.76
507.304	3754.27
507.672	3760.37
508.041	3755.62
508.409	3802.4
508.777	3819.12
509.145	3886.24
509.514	3820.25
509.882	3856.86
510.25	3835.39
510.618	3910.19
510.986	3913.81
511.354	3937.09
511.722	3962.4
512.09	3972.11
512.458	3969.4
512.826	4009.63
513.193	3980.93
513.561	4010.3
513.929	4015.5
514.297	4075.84
514.664	4130.98
515.032	4086.69
515.4	4098.66
515.767	4092.34
516.135	4132.11
516.502	4122.17
516.869	4183.86
517.237	4184.31
517.604	4172.33
517.972	4164.2
518.339	4216.63
518.706	4197.87
519.073	4239.9
519.44	4247.59
519.808	4251.88
520.175	4261.6
520.542	4320.13
520.909	4319.67
521.276	4318.32
521.643	4340.01
522.009	4400.35
522.376	4408.03
522.743	4395.38
523.11	4448.94
523.477	4442.16
523.843	4477.86
524.21	4475.15
524.577	4537.3
524.943	4567.8
525.31	4549.27
525.676	4566.67
526.043	4608.93
526.409	4617.52
526.776	4652.77
527.142	4665.88
527.508	4687.12
527.874	4701.13
528.241	4733.9
528.607	4768.93
528.973	4767.8
529.339	4792.43
529.705	4795.37
530.071	4859.77
530.437	4910.39
530.803	4884.63
531.169	4872.43
531.535	4885.99
531.901	4919.43
532.267	4949.49
532.632	4946.1
532.998	5020.45
533.364	4963.5
533.73	5022.71
534.095	5048.92
534.461	5095.93
534.826	5088.02
535.192	5107.22
535.557	5124.4
535.923	5154.68
536.288	5191.52
536.653	5203.04
537.019	5232.64
537.384	5221.35
537.749	5236.26
538.114	5242.14
538.479	5298.41
538.845	5279.65
539.21	5308.35
539.575	5373.43
539.94	5380.66
540.305	5371.85
540.67	5413.66
541.034	5426.09
541.399	5417.72
541.764	5475.35
542.129	5482.36
542.494	5500.89
542.858	5539.08
543.223	5493.65
543.587	5589.47
543.952	5548.57
544.316	5628.57
544.681	5602.13
545.045	5676.02
545.41	5665.4
545.774	5721.67
546.138	5705.17
546.503	5715.34
546.867	5790.6
547.231	5782.23
547.595	5768.9
547.959	5859.07
548.324	5830.6
548.688	5873.76
549.052	5897.49
549.416	5883.02
549.779	5913.76
550.143	5928.67
550.507	6026.97
550.871	5981.33
551.235	5979.52
551.599	6024.71
551.962	6053.64
552.326	6065.17
552.689	6103.81
553.053	6094.32
553.417	6055.67
553.78	6189.91
554.143	6130.7
554.507	6167.76
554.87	6200.3
555.234	6195.33
555.597	6204.82
555.96	6242.79
556.323	6250.25
556.686	6264.71
557.05	6289.57
557.413	6319.4
557.776	6339.06
558.139	6390.35
558.502	6401.88
558.865	6366.17
559.228	6439.84
559.59	6464.93
559.953	6477.58
560.316	6551.03
560.679	6496.57
561.041	6504.25
561.404	6530.46
561.767	6597.58
562.129	6558.26
562.492	6663.34
562.854	6619.05
563.217	6582.44
563.579	6646.62
563.941	6676
564.304	6740.85
564.666	6748.54
565.028	6771.14
565.39	6825.6
565.753	6823.11
566.115	6853.62
566.477	6844.81
566.839	6845.94
567.201	6902.66
567.563	6860.17
567.925	7002.09
568.287	7003.67
568.648	7000.51
569.01	7067.85
569.372	7044.57
569.734	7069.88
570.095	7117.79
570.457	7135.65
570.819	7175.64
571.18	7209.99
571.542	7263.1
571.903	7227.85
572.265	7294.06
572.626	7298.13
572.987	7338.35
573.349	7382.64
573.71	7449.76
574.071	7512.36
574.432	7530.89
574.794	7613.15
575.155	7645.24
575.516	7691.56
575.877	7807.49
576.238	7859.92
576.599	7939.01
576.96	7984.66
577.32	8024.89
577.681	8094.49
578.042	8157.77
578.403	8239.57
578.763	8259.68
579.124	8341.94
579.485	8517.76
579.845	8554.59
580.206	8614.02
580.566	8795.49
580.927	8861.02
581.287	8992.32
581.648	9136.72
582.008	9263.5
582.368	9337.62
582.728	9546.66
583.089	9619.65
583.449	9795.24
583.809	9901.67
584.169	10043.14
584.529	10216.02
584.889	10488.33
585.249	10567.42
585.609	10741.43
585.969	10901.42
586.329	11087.63
586.688	11446.27
587.048	11585.47
587.408	11701.63
587.768	11915.86
588.127	12205.34
588.487	12363.3
588.846	12708.38
589.206	12877.87
589.565	13122.83
589.925	13355.37
590.284	13575.7
590.643	13753.78
591.003	14117.16
591.362	14416.58
591.721	14689.57
592.08	14848.44
592.44	15192.38
592.799	15490.23
593.158	15725.25
593.517	15901.74
593.876	16257.21
594.235	16531.1
594.593	16768.61
594.952	17138.77
595.311	17302.84
595.67	17672.32
596.029	17997.96
596.387	18294.67
596.746	18565.18
597.104	18830.25
597.463	19097.59
597.822	19545.04
598.18	19632.04
598.538	19887.4
598.897	20307.05
599.255	20406.94
599.613	20987.26
599.972	21089.18
600.33	21455.5
600.688	21581.14
601.046	22006.67
601.404	22375.25
601.762	22530.95
602.12	22876.25
602.478	23096.81
602.836	23358.27
603.194	23492.5
603.552	23831.48
603.91	24045.48
604.268	24453.83
604.625	24530.67
604.983	24926.59
605.341	25038.23
605.698	25451.1
606.056	25648.61
606.413	25812.44
606.771	26176.05
607.128	26396.83
607.485	26495.36
607.843	26692.87
608.2	27087.21
608.557	27407.66
608.914	27456.92
609.272	27885.38
609.629	27983.69
609.986	28265.49
610.343	28380.96
610.7	28709.09
611.057	28912.02
611.414	29040.38
611.771	29169.64
612.127	29463.19
612.484	29574.38
612.841	29872.9
613.198	29976.63
613.554	30092.56
613.911	30500.23
614.267	30570.96
614.624	30709.72
614.98	30913.78
615.337	31155.35
615.693	31091.85
616.05	31212.07
616.406	31547.89
616.762	31650.93
617.118	31790.36
617.475	31778.84
617.831	32080.53
618.187	32271.93
618.543	32331.37
618.899	32667.86
619.255	32623.79
619.611	32814.97
619.967	32849.09
620.323	33180.84
620.678	33022.87
621.034	33219.93
621.39	33266.71
621.746	33348.74
622.101	33743.31
622.457	33561.39
622.812	33762.74
623.168	33952.12
623.523	34050.42
623.879	34127.93
624.234	33997.09
624.589	34232.33
624.945	34301.26
625.3	34432.56
625.655	34413.35
626.01	34532.67
626.365	34652.44
626.72	34656.05
627.075	34538.09
627.43	34715.94
627.785	34749.83
628.14	34921.81
628.495	34931.07
628.85	34883.39
629.205	34971.75
629.559	35198.64
629.914	35052.65
630.269	35072.54
630.623	35072.54
630.978	35095.14
631.332	35305.3
631.687	35291.29
632.041	35202.93
632.396	35381
632.75	35288.8
633.104	35488.12
633.459	35162.25
633.813	35239.77
634.167	35261.23
634.521	35345.07
634.875	35426.88
635.229	35451.96
635.583	35307.79
635.937	35240.67
636.291	35225.3
636.645	35239.09
636.999	35235.47
637.352	35312.98
637.706	35151.41
638.06	35383.04
638.413	35266.43
638.767	35231.18
639.121	35405.64
639.474	35157.96
639.828	35227.79
640.181	35282.48
640.534	35325.86
640.888	35234.79
641.241	34951.41
641.594	35262.14
641.947	35345.07
642.301	35150.95
642.654	35232.08
643.007	35201.8
643.36	35149.6
643.713	35223.49
644.066	35238.64
644.419	35080.22
644.771	34818.76
645.124	34546.45
645.477	34460.12
645.83	34229.4
646.182	34115.73
646.535	34169.29
646.888	34078.67
647.24	33894.26
647.593	34280.02
647.945	34178.78
648.298	33964.09
648.65	33889.97
649.002	33920.7
649.355	34080.02
649.707	33925
650.059	34082.51
650.411	34398.88
650.763	34542.38
651.115	34870.96
651.467	34809.04
651.819	34863.05
652.171	34654.7
652.523	34571.53
652.875	34769.5
653.227	34571.76
653.578	34800.91
653.93	34626
654.282	34635.71
654.633	34403.4
654.985	34578.54
655.337	34591.65
655.688	34533.12
656.039	34615.83
656.391	34417.64
656.742	34468.71
657.094	34348.72
657.445	34471.65
657.796	34418.54
658.147	34424.19
658.498	34388.26
658.849	34469.39
659.2	34428.26
659.551	34430.97
659.902	34588.71
660.253	34513.68
660.604	34442.95
660.955	34384.42
661.306	34493.8
661.656	34443.63
662.007	34405.21
662.358	34410.63
662.708	34454.25
663.059	34338.77
663.409	34181.26
663.76	34454.93
664.11	34400.01
664.461	34475.27
664.811	34362.05
665.161	34325.21
665.511	34334.93
665.862	34245.89
666.212	34368.15
666.562	34378.09
666.912	34324.08
667.262	34415.15
667.612	34372.44
667.962	34463.74
668.312	34261.49
668.662	34466.45
669.011	34291.99
669.361	34129.51
669.711	34157.76
670.06	34224.65
670.41	34119.57
670.76	34148.27
671.109	34257.87
671.459	34087.93
671.808	34086.58
672.157	34220.81
672.507	33835.73
672.856	34082.06
673.205	34153.92
673.554	34072.79
673.904	33987.37
674.253	34210.41
674.602	34002.74
674.951	33697.21
675.3	33326.82
675.649	33933.13
675.998	33944.43
676.346	33854.04
676.695	34029.85
677.044	33716.64
677.393	33982.85
677.741	33929.97
678.09	33786.7
678.438	33747.83
678.787	33763.42
679.135	33749.64
679.484	33697.43
679.832	33768.17
680.181	33522.75
680.529	33607.72
680.877	33539.92
681.225	33448.85
681.573	33709.18
681.922	33397.55
682.27	33418.8
682.618	33368.63
682.966	33455.86
683.314	33341.96
683.661	33191.91
684.009	33112.14
684.357	33009.32
684.705	33093.83
685.053	32870.56
685.4	33045.02
685.748	32795.99
686.095	32932.48
686.443	32746.5
686.79	32673.51
687.138	32755.99
687.485	32724.8
687.832	32541.08
688.18	32570.23
688.527	32404.13
688.874	32441.42
689.221	32338.37
689.568	32319.62
689.915	32125.95
690.262	32187.42
690.609	32080.53
690.956	31920.98
691.303	32082.79
691.65	31879.18
691.997	31855.9
692.344	31596.02
692.69	31710.14
693.037	31627.21
693.383	31482.12
693.73	31549.92
694.077	31366.65
694.423	31243.49
694.769	31163.26
695.116	31098.41
695.462	30995.81
695.808	30987.22
696.155	31081.46
696.501	30848.24
696.847	30704.29
697.193	30561.02
697.539	30607.57
697.885	30467.46
698.231	30360.35
698.577	30398.99
698.923	30359.22
699.269	30135.94
699.614	29997.87
699.96	29973.92
700.306	29961.71
700.651	29895.73
700.997	29770.53
701.342	29829.06
701.688	29652.34
702.033	29660.25
702.379	29564.66
702.724	29575.96
703.069	29605.11
703.415	29293.48
703.76	29330.09
704.105	29288.06
704.45	29221.84
704.795	28939.59
705.14	28985.69
705.485	29028.4
705.83	28760.84
706.175	29008.29
706.52	28719.94
706.865	28699.15
707.209	28545.48
707.554	28492.6
707.899	28624.12
708.243	28442.66
708.588	28452.6
708.932	28239.95
709.277	28291.02
709.621	28218.03
709.966	27995.21
710.31	28071.14
710.654	28047.19
710.998	27860.52
711.342	27980.75
711.687	27830.47
712.031	27646.07
712.375	27496.69
712.719	27727.65
713.063	27586.63
713.407	27770.36
713.75	27548.22
714.094	27463.02
714.438	27441.78
714.782	27337.6
715.125	27300.54
715.469	27206.08
715.812	27141.67
716.156	26982.13
716.499	26988.68
716.843	26996.14
717.186	26875.69
717.53	26982.13
717.873	26868.23
718.216	26806.99
718.559	26684.06
718.902	26442.71
719.246	26676.15
719.589	26641.35
719.932	26430.05
720.275	26523.38
720.617	26456.49
720.96	26364.74
721.303	26321.58
721.646	26429.38
721.989	26304.86
722.331	26350.51
722.674	26161.81
723.016	26237.29
723.359	26219.21
723.701	26133.34
724.044	25949.61
724.386	25818.54
724.729	25921.37
725.071	26025.32
725.413	25883.63
725.755	26001.59
726.097	25813.35
726.439	25736.96
726.782	25740.58
727.124	25810.63
727.465	25718.66
727.807	25685.21
728.149	25550.08
728.491	25449.51
728.833	25588.27
729.175	25474.15
729.516	25359.57
729.858	25353.02
730.199	25266.24
730.541	25245.68
730.882	25174.72
731.224	25270.31
731.565	25156.19
731.906	25102.4
732.248	25083.2
732.589	25037.77
732.93	24957.55
733.271	24951
733.612	24985.57
733.953	24892.69
734.294	24792.36
734.635	24847.27
734.976	24903.54
735.317	24604.34
735.658	24767.05
735.999	24751.68
736.339	24644.11
736.68	24654.73
737.021	24740.61
737.361	24497.68
737.702	24597.79
738.042	24557.56
738.383	24417.23
738.723	24517.79
739.063	24411.12
739.404	24531.8
739.744	24419.71
740.084	24340.17
740.424	24308.75
740.764	24256.78
741.104	24292.93
741.444	24197.57
741.784	24103.34
742.124	24219.94
742.464	24154.86
742.804	24011.13
743.143	24012.26
743.483	23998.93
743.823	23901.31
744.162	23889.78
744.502	23806.17
744.841	23887.75
745.181	23994.41
745.52	23674.42
745.86	23788.77
746.199	23650.01
746.538	23687.07
746.877	23733.85
747.216	23677.13
747.556	23635.55
747.895	23578.83
748.234	23550.81
748.573	23459.06
748.911	23448.89
749.25	23428.78
749.589	23296.35
749.928	23292.28
750.267	23371.6
750.605	23314.43
750.944	23248.22
751.283	23174.55
751.621	23236.01
751.96	23050.93
752.298	23053.42
752.636	23106.98
752.975	22970.03
753.313	22893.42
753.651	23036.7
753.989	22914.67
754.327	22817.72
754.666	22802.13
755.004	22790.83
755.342	22699.08
755.679	22669.47
756.017	22627.89
756.355	22672.19
756.693	22518.29
757.031	22550.38
757.368	22400.56
757.706	22373.89
758.044	22289.15
758.381	22405.53
758.719	22297.73
759.056	22229.71
759.394	22144.74
759.731	21995.82
760.068	22033.56
760.405	21922.6
760.743	21829.5
761.08	21960.34
761.417	21805.32
761.754	21764.19
762.091	21848.93
762.428	21686.68
762.765	21466.79
763.102	21643.96
763.438	21482.16
763.775	21405.78
764.112	21417.98
764.449	21334.82
764.785	21318.78
765.122	21103.87
765.458	21061.16
765.795	21058.9
766.131	20932.57
766.467	20863.87
766.804	20872.23
767.14	20710.88
767.476	20749.75
767.812	20677.21
768.148	20704.55
768.485	20590.66
768.821	20400.61
769.157	20323.32
769.492	20301.18
769.828	20317.45
770.164	20184.79
770.5	20055.76
770.836	20067.06
771.171	19938.47
771.507	20007.17
771.842	19789.78
772.178	19786.39
772.513	19742.32
772.849	19583.45
773.184	19572.38
773.519	19681.76
773.855	19450.12
774.19	19387.98
774.525	19385.49
774.86	19295.1
775.195	19243.58
775.53	19161.09
775.865	18952.28
776.2	18982.11
776.535	18819.63
776.87	18914.09
777.205	18777.37
777.539	18655.12
777.874	18677.49
778.209	18541.9
778.543	18474.1
778.878	18489.25
779.212	18314.33
779.547	18298.06
779.881	18300.55
780.215	18099.65
780.55	18259.65
780.884	18123.38
781.218	18003.16
781.552	17989.15
781.886	17821.69
782.22	17850.39
782.554	17802.26
782.888	17597.52
783.222	17495.83
783.556	17352.55
783.889	17560.91
784.223	17295.6
784.557	17254.25
784.89	17334.7
785.224	17252.67
785.557	17213.12
785.891	17053.8
786.224	16966.12
786.558	16961.6
786.891	16827.82
787.224	16819.68
787.557	16740.36
787.891	16757.99
788.224	16619.24
788.557	16675.51
788.89	16576.98
789.223	16566.13
789.556	16479.58
789.888	16448.62
790.221	16362.52
790.554	16251.56
790.887	16245.46
791.219	16245.01
791.552	16083.66
791.884	15995.3
792.217	16070.33
792.549	15929.99
792.882	15816.1
793.214	15800.95
793.546	15801.18
793.879	15692.03
794.211	15651.58
794.543	15622.2
794.875	15607.97
795.207	15685.7
795.539	15546.5
795.871	15500.4
796.203	15335.43
796.535	15197.13
796.867	15240.97
797.198	15198.26
797.53	15202.1
797.862	15052.05
798.193	15041.2
798.525	14962.33
798.856	15026.74
799.188	14850.02
799.519	14854.99
799.85	14746.29
800.182	14786.29
800.513	14744.03
800.844	14640.99
801.175	14675.11
801.506	14553.08
801.837	14560.99
802.168	14527.54
802.499	14460.42
802.83	14415.23
803.161	14420.43
803.491	14415
803.822	14382.01
804.153	14338.17
804.483	14184.73
804.814	14144.27
805.145	14108.57
805.475	14081.68
805.805	14053.2
806.136	14038.52
806.466	14080.1
806.796	13976.37
807.126	13905.86
807.457	13816.15
807.787	13809.14
808.117	13736.15
808.447	13714.46
808.777	13797.84
809.107	13726.21
809.436	13621.58
809.766	13611.86
810.096	13618.87
810.426	13496.61
810.755	13539.77
811.085	13453.45
811.414	13518.3
811.744	13393.33
812.073	13334.35
812.403	13375.93
812.732	13189.72
813.061	13175.03
813.39	13189.27
813.719	13078.77
814.049	13181.14
814.378	13133
814.707	13099.33
815.036	13030.63
815.365	12984.76
815.693	12910.86
816.022	12890.07
816.351	12801.94
816.68	12801.26
817.008	12795.84
817.337	12625.44
817.665	12746.57
817.994	12727.14
818.322	12732.33
818.651	12604.43
818.979	12598.1
819.307	12697.31
819.636	12581.38
819.964	12456.41
820.292	12536.86
820.62	12524.43
820.948	12480.36
821.276	12484.43
821.604	12492.57
821.932	12456.41
822.259	12501.38
822.587	12357.2
822.915	12402.4
823.243	12556.52
823.57	12383.64
823.898	12455.96
824.225	12450.99
824.553	12435.17
824.88	12552
825.207	12437.65
825.535	12439.24
825.862	12453.25
826.189	12368.28
826.516	12454.6
826.843	12536.63
827.17	12434.72
827.497	12501.83
827.824	12425.45
828.151	12498.22
828.478	12475.62
828.805	12450.08
829.131	12401.5
829.458	12368.28
829.785	12329.86
830.111	12346.13
830.438	12441.27
830.764	12402.17
831.09	12348.84
831.417	12323.53
831.743	12345.45
832.069	12378.67
832.395	12323.98
832.722	12368.95
833.048	12333.02
833.374	12282.86
833.7	12335.96
834.026	12299.13
834.351	12286.24
834.677	12360.14
835.003	12293.02
835.329	12267.94
835.654	12230.2
835.98	12122.86
836.306	12227.04
836.631	12145.01
836.956	12136.19
837.282	12136.87
837.607	12011.22
837.932	12109.53
838.258	12114.05
838.583	12112.92
838.908	11902.75
839.233	11973.48
839.558	12027.27
839.883	11912.47
840.208	11902.98
840.533	11905.69
840.858	11906.59
841.182	11891.23
841.507	11828.63
841.832	11833.6
842.156	11779.82
842.481	11775.3
842.805	11737.78
843.13	11735.52
843.454	11720.16
843.778	11739.14
844.103	11587.28
844.427	11660.05
844.751	11644
845.075	11586.6
845.399	11467.96
845.723	11413.95
846.047	11430.45
846.371	11391.35
846.695	11347.74
847.019	11310.23
847.343	11186.16
847.666	11201.08
847.99	11183.9
848.313	11156.33
848.637	11095.09
848.96	11092.38
849.284	11058.93
849.607	10902.78
849.931	10921.76
850.254	10902.78
850.577	10789.33
850.9	10724.25
851.223	10715.66
851.546	10698.49
851.869	10600.64
852.192	10644.03
852.515	10494.65
852.838	10484.26
853.161	10442
853.483	10441.1
853.806	10453.3
854.129	10378.95
854.451	10330.14
854.774	10262.12
855.096	10290.14
855.419	10229.35
855.741	10232.74
856.063	10136.92
856.385	10178.05
856.708	10115.23
857.03	10114.32
857.352	10065.96
857.674	10021.9
857.996	9956.81
858.318	9922.47
858.64	9945.97
858.961	9925.4
859.283	9884.73
859.605	9821.68
859.926	9815.58
860.248	9768.34
860.57	9691.74
860.891	9785.29
861.212	9769.02
861.534	9724.73
861.855	9683.38
862.176	9738.29
862.498	9689.7
862.819	9727.67
863.14	9561.8
863.461	9568.35
863.782	9517.96
864.103	9569.93
864.424	9538.29
864.745	9557.05
865.065	9461.23
865.386	9422.82
865.707	9446.09
866.027	9488.8
866.348	9444.06
866.668	9440.22
866.989	9412.2
867.309	9309.37
867.63	9384.4
867.95	9349.82
868.27	9291.75
868.59	9299.66
868.91	9250.62
869.23	9309.6
869.55	9181.92
869.87	9284.74
870.19	9242.03
870.51	9258.75
870.83	9244.52
871.15	9149.15
871.469	9155.71
871.789	9147.57
872.109	9151.19
872.428	9101.47
872.748	9139.89
873.067	9143.73
873.386	9153.22
873.706	9089.04
874.025	9031.87
874.344	9062.37
874.663	9011.53
874.982	8996.39
875.301	8983.28
875.62	8931.53
875.939	8926.56
876.258	8876.39
876.577	8899.44
876.896	8909.38
877.214	8903.51
877.533	8868.03
877.852	8838.2
878.17	8900.8
878.489	8825.09
878.807	8804.98
879.125	8798.65
879.444	8780.35
879.762	8747.81
880.08	8748.03
880.398	8759.33
880.716	8746.22
881.034	8708.71
881.352	8720.24
881.67	8658.54
881.988	8680.69
882.306	8646.57
882.624	8564.31
882.941	8605.66
883.259	8531.99
883.577	8575.16
883.894	8482.05
884.212	8526.34
884.529	8538.32
884.846	8440.24
885.164	8389.4
885.481	8482.5
885.798	8437.08
886.115	8315.28
886.432	8389.4
886.75	8377.42
887.067	8338.78
887.383	8314.6
887.7	8338.1
888.017	8308.5
888.334	8297.88
888.651	8215.39
888.967	8250.19
889.284	8168.84
889.6	8239.57
889.917	8183.75
890.233	8155.96
890.55	8100.59
890.866	8077.32
891.182	8089.97
891.498	8052.01
891.815	8043.87
892.131	7966.81
892.447	7943.08
892.763	7956.87
893.079	7945.12
893.395	7878.68
893.71	7838
894.026	7827.6
894.342	7816.08
894.657	7737.66
894.973	7744.44
895.289	7732.24
895.604	7780.37
895.92	7619.7
896.235	7675.97
896.55	7665.58
896.865	7670.32
897.181	7576.54
897.496	7586.03
897.811	7514.17
898.126	7538.35
898.441	7510.55
898.756	7460.61
899.071	7433.27
899.386	7380.16
899.7	7393.94
900.015	7362.53
900.33	7358.69
900.644	7279.82
900.959	7291.12
901.273	7250.67
901.588	7254.51
901.902	7194.4
902.216	7172.03
902.531	7143.56
902.845	7209.77
903.159	7055.87
903.473	7094.06
903.787	7028.08
904.101	6984.24
904.415	6991.02
904.729	6970
905.042	6919.83
905.356	6878.93
905.67	6880.06
905.984	6890.91
906.297	6857.01
906.611	6814.52
906.924	6809.55
907.237	6784.69
907.551	6768.88
907.864	6730.68
908.177	6705.37
908.491	6666.05
908.804	6662.89
909.117	6609.56
909.43	6583.12
909.743	6553.51
910.056	6506.96
910.368	6475.55
910.681	6516.45
910.994	6480.52
911.307	6382.22
911.619	6411.37
911.932	6360.3
912.244	6301.77
912.557	6381.77
912.869	6273.3
913.181	6273.07
913.494	6257.93
913.806	6211.38
914.118	6162.11
914.43	6225.39
914.742	6137.93
915.054	6121.66
915.366	6079.63
915.678	6099.74
915.99	6066.3
916.302	5994.66
916.613	5988.56
916.925	5975.9
917.236	5998.5
917.548	5875.57
917.859	5873.53
918.171	5839.63
918.482	5784.04
918.794	5798.73
919.105	5834.44
919.416	5751.05
919.727	5777.72
920.038	5764.16
920.349	5732.29
920.66	5676.25
920.971	5680.99
921.282	5686.19
921.593	5582.47
921.903	5582.47
922.214	5625.4
922.525	5546.31
922.835	5521.9
923.146	5504.5
923.456	5499.08
923.767	5461.11
924.077	5424.28
924.387	5432.64
924.697	5395.8
925.008	5417.95
925.318	5368.23
925.628	5386.31
925.938	5292.76
926.248	5321.46
926.558	5259.76
926.867	5264.28
927.177	5247.11
927.487	5197.39
927.796	5148.81
928.106	5118.07
928.416	5135.47
928.725	5103.16
929.034	5075.81
929.344	5102.7
929.653	5070.62
929.962	4975.02
930.271	4964.18
930.581	5013.44
930.89	4989.94
931.199	4930.96
931.508	4891.86
931.817	4869.49
932.125	4902.26
932.434	4849.6
932.743	4808.93
933.051	4809.61
933.36	4792.66
933.669	4765.99
933.977	4719.21
934.286	4760.11
934.594	4715.6
934.902	4644.19
935.21	4679.21
935.519	4682.83
935.827	4645.99
936.135	4627.01
936.443	4580.23
936.751	4521.48
937.059	4535.26
937.367	4571.42
937.674	4504.3
937.982	4505.88
938.29	4479.9
938.597	4518.99
938.905	4445.77
939.213	4425.89
939.52	4383.18
939.827	4402.16
940.135	4390.86
940.442	4308.6
940.749	4346.57
941.056	4357.87
941.363	4309.28
941.67	4245.78
941.977	4264.31
942.284	4246.46
942.591	4248.04
942.898	4186.8
943.205	4204.65
943.511	4202.62
943.818	4149.96
944.125	4102.28
944.431	4041.49
944.738	4123.75
945.044	4073.81
945.35	4093.24
945.657	4017.08
945.963	4045.33
946.269	3975.73
946.575	3988.38
946.881	3947.71
947.187	3934.83
947.493	3913.13
947.799	3920.81
948.105	3895.28
948.41	3893.25
948.716	3916.3
949.022	3863.87
949.327	3874.71
949.633	3775.96
949.938	3861.83
950.244	3838.33
950.549	3779.58
950.854	3759.69
951.16	3786.81
951.465	3721.5
951.77	3755.4
952.075	3690.54
952.38	3672.69
952.685	3643.31
952.99	3663.19
953.294	3639.01
953.599	3603.54
953.904	3604.21
954.209	3573.48
954.513	3613.25
954.818	3556.76
955.122	3518.11
955.426	3569.19
955.731	3505.68
956.035	3505.01
956.339	3491.67
956.643	3502.07
956.948	3479.92
957.252	3430.88
957.556	3435.86
957.86	3414.16
958.163	3401.73
958.467	3391.34
958.771	3335.52
959.075	3375.74
959.378	3327.38
959.682	3327.16
959.985	3323.99
960.289	3301.17
960.592	3312.24
960.896	3292.13
961.199	3256.65
961.502	3230.66
961.805	3238.57
962.108	3206.94
962.411	3172.81
962.714	3170.55
963.017	3159.03
963.32	3189.99
963.623	3088.52
963.926	3140.04
964.228	3134.62
964.531	3099.37
964.833	3084
965.136	3044.68
965.438	3078.8
965.741	3044.68
966.043	3081.74
966.345	3013.49
966.648	2994.96
966.95	3024.12
967.252	2982.08
967.554	2939.37
967.856	2934.4
968.158	2893.72
968.46	2966.04
968.761	2943.21
969.063	2929.65
969.365	2862.09
969.666	2920.16
969.968	2870
970.269	2850.33
970.571	2859.15
970.872	2842.65
971.174	2834.29
971.475	2764.24
971.776	2771.01
972.077	2797.91
972.378	2802.2
972.679	2779.6
972.98	2741.41
973.281	2732.15
973.582	2729.66
973.883	2710.68
974.183	2704.58
974.484	2727.85
974.785	2688.08
975.085	2716.78
975.386	2664.58
975.686	2651.47
975.986	2652.15
976.287	2641.75
976.587	2598.82
976.887	2592.94
977.187	2600.17
977.487	2561.98
977.787	2554.75
978.087	2533.28
978.387	2529.44
978.687	2513.62
978.987	2526.95
979.286	2498.03
979.586	2520.17
979.885	2498.03
980.185	2459.38
980.484	2484.92
980.784	2451.02
981.083	2412.15
981.382	2462.77
981.682	2464.13
981.981	2425.71
982.28	2390.46
982.579	2391.36
982.878	2364.02
983.177	2358.14
983.475	2370.12
983.774	2361.99
984.073	2337.81
984.372	2306.62
984.67	2353.4
984.969	2317.24
985.267	2336.22
985.566	2343.46
985.864	2311.59
986.162	2261.88
986.461	2248.09
986.759	2240.18
987.057	2288.32
987.355	2222.33
987.653	2225.72
987.951	2223.23
988.249	2220.52
988.547	2194.31
988.844	2165.83
989.142	2194.31
989.44	2164.7
989.737	2141.65
990.035	2150.47
990.332	2128.55
990.63	2132.39
990.927	2128.55
991.224	2152.73
991.521	2122.67
991.819	2111.82
992.116	2106.17
992.413	2058.94
992.71	2045.38
993.006	2036.57
993.303	2059.62
993.6	2039.06
993.897	2036.57
994.193	2028.44
994.49	2023.46
994.787	1976.01
995.083	1981.2
995.379	1986.4
995.676	1980.53
995.972	1989.34
996.268	1914.31
996.565	1962.9
996.861	1955.67
997.157	1915.22
997.453	1907.08
997.749	1907.53
998.044	1892.62
998.34	1891.94
998.636	1874.77
998.932	1873.86
999.227	1881.55
999.523	1863.02
999.818	1860.08
1000.114	1801.1
1000.409	1802.45
1000.704	1822.79
1001	1816.24
1001.295	1772.17
1001.59	1785.96
1001.885	1789.35
1002.18	1763.58
1002.475	1740.53
1002.77	1753.41
1003.065	1718.84
1003.359	1723.13
1003.654	1709.8
1003.949	1696.47
1004.243	1705.51
1004.538	1694.43
1004.832	1666.64
1005.127	1665.73
1005.421	1658.95
1005.715	1643.36
1006.009	1622.57
1006.304	1666.19
1006.598	1629.8
1006.892	1634.32
1007.186	1608.33
1007.48	1623.25
1007.773	1578.28
1008.067	1599.75
1008.361	1581.67
1008.655	1568.79
1008.948	1550.03
1009.242	1546.41
1009.535	1548.9
1009.829	1549.58
1010.122	1516.58
1010.415	1507.55
1010.708	1511.84
1011.001	1506.42
1011.295	1529.01
1011.588	1486.98
1011.881	1474.55
1012.173	1463.7
1012.466	1446.53
1012.759	1466.19
1013.052	1425.06
1013.344	1442.24
1013.637	1439.07
1013.93	1407.21
1014.222	1411.95
1014.514	1444.5
1014.807	1388
1015.099	1415.57
1015.391	1404.27
1015.683	1377.15
1015.976	1363.59
1016.268	1370.37
1016.56	1350.49
1016.851	1354.33
1017.143	1311.84
1017.435	1361.11
1017.727	1312.3
1018.018	1306.65
1018.31	1305.06
1018.602	1288.34
1018.893	1268.91
1019.185	1322.24
1019.476	1296.48
1019.767	1298.74
1020.058	1252.41
1020.35	1249.92
1020.641	1251.05
1020.932	1219.87
1021.223	1238.63
1021.514	1234.33
1021.804	1235.69
1022.095	1212.19
1022.386	1190.49
1022.677	1176.48
1022.967	1181.45
1023.258	1146.88
1023.548	1168.57
1023.839	1166.31
1024.129	1167.89
1024.419	1133.77
1024.709	1148.91
1025	1140.32
1025.29	1142.36
1025.58	1119.08
1025.87	1114.56
1026.16	1102.36
1026.449	1108.91
1026.739	1096.93
1027.029	1082.25
1027.319	1102.36
1027.608	1086.09
1027.898	1058.07
1028.187	1063.04
1028.477	1042.02
1028.766	1041.79
1029.055	1024.17
1029.344	1017.39
1029.634	1023.94
1029.923	1023.49
1030.212	1036.15
1030.501	1014.45
1030.79	1009.71
1031.078	1026.65
1031.367	987.11
1031.656	1006.54
1031.945	967.67
1032.233	957.73
1032.522	980.1
1032.81	957.05
1033.099	953.66
1033.387	957.96
1033.675	928.13
1033.963	939.65
1034.251	937.16
1034.54	947.33
1034.828	917.28
1035.116	931.52
1035.403	917.5
1035.691	916.83
1035.979	889.26
1036.267	887.45
1036.554	875.7
1036.842	856.04
1037.129	870.73
1037.417	862.36
1037.704	880.67
1037.992	862.82
1038.279	876.15
1038.566	848.81
1038.853	848.81
1039.14	848.81
