Data from hue_110_FLMS001491_00012.txt Node
Date: Tue Feb 07 17:00:57 GMT 2017
User: dcchb
Spectrometer: FLMS00149
Trigger mode: 0
Integration Time (sec): 2.000000E-2
Scans to average: 10
Electric dark correction enabled: true
Nonlinearity correction enabled: false
Boxcar width: 0
XAxis mode: Wavelengths
Number of Pixels in Spectrum: 2048
>>>>>Begin Spectral Data<<<<<
341.393	-0.45
341.776	-0.45
342.16	-0.45
342.543	-56.95
342.927	-67.79
343.31	-92.88
343.693	-70.28
344.077	-57.4
344.46	-58.98
344.843	-44.97
345.226	-48.81
345.61	-44.74
345.993	-0.9
346.376	9.72
346.759	2.03
347.142	35.25
347.525	34.58
347.908	66.66
348.291	68.92
348.674	105.76
349.057	96.04
349.44	138.75
349.823	121.35
350.206	182.59
350.588	184.18
350.971	210.16
351.354	236.15
351.737	210.62
352.119	253.33
352.502	251.29
352.884	260.78
353.267	245.87
353.65	274.8
354.032	287.22
354.414	305.3
354.797	306.21
355.179	328.35
355.562	320.44
355.944	319.54
356.326	321.8
356.709	322.03
357.091	342.36
357.473	332.19
357.855	335.13
358.238	349.14
358.62	347.79
359.002	331.97
359.384	329.26
359.766	351.86
360.148	322.03
360.53	338.3
360.912	333.32
361.294	338.97
361.676	340.56
362.057	310.5
362.439	317.51
362.821	318.41
363.203	317.05
363.584	324.06
363.966	344.62
364.348	333.78
364.729	310.27
365.111	321.12
365.493	319.31
365.874	306.88
366.256	319.99
366.637	324.51
367.019	314.79
367.4	316.38
367.781	315.92
368.163	304.17
368.544	293.33
368.925	293.33
369.306	311.86
369.688	334.68
370.069	328.58
370.45	296.72
370.831	309.37
371.212	295.13
371.593	311.18
371.974	294.91
372.355	295.59
372.736	315.92
373.117	320.67
373.498	311.4
373.879	308.24
374.26	326.09
374.641	294
375.021	316.6
375.402	300.78
375.783	319.09
376.163	336.26
376.544	335.58
376.925	296.49
377.305	328.13
377.686	324.96
378.066	312.53
378.447	348.01
378.827	324.74
379.208	338.07
379.588	336.26
379.968	345.75
380.349	320.44
380.729	311.4
381.109	345.98
381.489	349.37
381.87	320.44
382.25	330.39
382.63	330.39
383.01	326.55
383.39	327.9
383.77	341.23
384.15	342.36
384.53	352.31
384.91	348.92
385.29	321.35
385.67	359.31
386.049	351.4
386.429	355.92
386.809	351.18
387.189	361.35
387.568	348.24
387.948	353.44
388.328	344.62
388.707	348.92
389.087	357.5
389.466	370.84
389.846	367
390.225	351.63
390.605	362.7
390.984	354.34
391.363	363.15
391.743	378.07
392.122	351.18
392.501	376.04
392.881	367
393.26	369.71
393.639	353.21
394.018	372.19
394.397	362.25
394.776	369.03
395.155	371.52
395.534	396.37
395.913	390.05
396.292	375.58
396.671	380.1
397.05	365.87
397.429	380.1
397.808	382.36
398.186	379.2
398.565	385.53
398.944	387.79
399.323	377.39
399.701	400.22
400.08	401.35
400.458	390.05
400.837	407.45
401.215	391.18
401.594	395.92
401.972	387.11
402.351	407.45
402.729	411.97
403.107	407.22
403.486	408.35
403.864	400.67
404.242	411.06
404.62	420.33
404.999	421.68
405.377	417.39
405.755	413.1
406.133	425.75
406.511	414.23
406.889	413.55
407.267	427.11
407.645	425.75
408.023	427.33
408.401	442.47
408.779	448.35
409.156	462.36
409.534	450.84
409.912	449.25
410.29	455.58
410.667	439.76
411.045	450.84
411.422	477.05
411.8	468.24
412.178	472.3
412.555	458.97
412.933	468.01
413.31	473.89
413.687	483.6
414.065	468.69
414.442	447.9
414.819	465.07
415.197	491.74
415.574	516.6
415.951	498.74
416.328	514.11
416.705	497.61
417.082	503.94
417.46	503.72
417.837	489.7
418.214	477.28
418.591	534.22
418.967	506.88
419.344	509.14
419.721	511.85
420.098	511.17
420.475	509.59
420.852	531.51
421.228	532.19
421.605	557.5
421.982	532.19
422.358	534.9
422.735	533.55
423.111	531.51
423.488	541
423.864	562.7
424.241	561.57
424.617	572.87
424.994	552.75
425.37	540.78
425.746	574.45
426.123	580.55
426.499	586.65
426.875	567.44
427.251	586.65
427.627	572.87
428.003	610.38
428.379	594.11
428.756	579.42
429.132	598.18
429.507	610.38
429.883	625.97
430.259	636.14
430.635	630.49
431.011	650.38
431.387	629.81
431.763	658.74
432.138	643.82
432.514	679.53
432.89	649.25
433.265	664.39
433.641	701.9
434.016	670.49
434.392	692.64
434.767	697.16
435.143	721.11
435.518	712.07
435.894	699.87
436.269	701
436.644	722.92
437.02	741.45
437.395	728.12
437.77	762.92
438.145	746.65
438.52	755.69
438.895	750.94
439.271	765.63
439.646	772.41
440.021	777.61
440.395	778.96
440.77	780.54
441.145	779.19
441.52	787.1
441.895	783.03
442.27	797.72
442.645	796.14
443.019	785.74
443.394	823.03
443.769	814.89
444.143	810.37
444.518	820.54
444.892	809.47
445.267	840.2
445.641	840.66
446.016	859.41
446.39	864.38
446.764	864.61
447.139	851.73
447.513	855.57
447.887	852.86
448.262	857.38
448.636	861.67
449.01	887.21
449.384	877.94
449.758	890.82
450.132	898.73
450.506	914.78
450.88	942.8
451.254	952.74
451.628	918.39
452.002	964.72
452.376	951.16
452.75	960.2
453.123	990.26
453.497	973.99
453.871	990.93
454.244	1024.38
454.618	998.17
454.992	1009.69
455.365	1017.37
455.739	1026.19
456.112	1055.34
456.486	1077.26
456.859	1075.9
457.232	1088.33
457.606	1075
457.979	1089.46
458.352	1125.62
458.725	1150.03
459.099	1119.97
459.472	1174.43
459.845	1175.56
460.218	1187.99
460.591	1205.17
460.964	1203.81
461.337	1227.31
461.71	1254.88
462.083	1251.04
462.456	1279.74
462.829	1260.31
463.201	1271.15
463.574	1316.35
463.947	1326.97
464.32	1337.82
464.692	1356.12
465.065	1348.67
465.438	1396.12
465.81	1386.63
466.183	1425.95
466.555	1456.01
466.928	1467.98
467.3	1442.45
467.672	1500.07
468.045	1561.77
468.417	1564.93
468.789	1563.35
469.161	1599.28
469.534	1641.99
469.906	1651.03
470.278	1669.79
470.65	1713.85
471.022	1742.78
471.394	1822.55
471.766	1799.27
472.138	1830.23
472.51	1906.16
472.882	1901.42
473.253	1951.59
473.625	1997.24
473.997	2057.57
474.369	2068.19
474.74	2113.16
475.112	2164.46
475.484	2234.29
475.855	2283.56
476.227	2340.96
476.598	2398.13
476.97	2447.85
477.341	2504.34
477.713	2542.08
478.084	2609.65
478.455	2697.33
478.827	2763.77
479.198	2860.04
479.569	2873.6
479.94	3009.64
480.311	3010.77
480.682	3115.85
481.053	3243.3
481.424	3337.09
481.795	3429.29
482.166	3526.01
482.537	3570.08
482.908	3657.53
483.279	3756.51
483.65	3897.98
484.021	4007.58
484.391	4123.06
484.762	4208.93
485.133	4259.55
485.503	4392.43
485.874	4556.49
486.244	4664.74
486.615	4760.55
486.985	4876.48
487.356	5006.87
487.726	5160.09
488.097	5311.5
488.467	5410.71
488.837	5546.97
489.207	5666.74
489.578	5760.75
489.948	5945.38
490.318	6047.07
490.688	6175.88
491.058	6271.02
491.428	6462.65
491.798	6605.7
492.168	6763.44
492.538	6787.62
492.908	6942.64
493.278	7092.02
493.648	7179.02
494.017	7419.47
494.387	7533.14
494.757	7726.12
495.126	7798.66
495.496	7894.03
495.866	8018.77
496.235	8085.89
496.605	8288.82
496.974	8468.03
497.344	8530.85
497.713	8653.56
498.082	8756.61
498.452	8867.34
498.821	9023.27
499.19	9098.74
499.559	9239.31
499.928	9334.44
500.298	9444.95
500.667	9520.2
501.036	9600.88
501.405	9744.83
501.774	9780.99
502.143	9968.55
502.512	9996.57
502.88	10088.1
503.249	10109.56
503.618	10276.57
503.987	10310.01
504.356	10427.52
504.724	10575.77
505.093	10514.07
505.462	10662.09
505.83	10779.83
506.199	10776.89
506.567	10998.81
506.936	10996.32
507.304	11116.09
507.672	11236.77
508.041	11259.14
508.409	11340.72
508.777	11440.83
509.145	11465.24
509.514	11518.12
509.882	11601.5
510.25	11646.93
510.618	11735.74
510.986	11735.96
511.354	11907.94
511.722	11973.24
512.09	12123.97
512.458	11948.84
512.826	12160.58
513.193	12263.86
513.561	12266.34
513.929	12297.3
514.297	12408.04
514.664	12440.35
515.032	12495.94
515.4	12542.72
515.767	12519.67
516.135	12602.83
516.502	12584.08
516.869	12783.17
517.237	12769.38
517.604	12690.97
517.972	12770.96
518.339	12820.91
518.706	12842.37
519.073	12855.48
519.44	12911.52
519.808	12950.85
520.175	12991.52
520.542	13158.75
520.909	13115.36
521.276	13074.68
521.643	13134.8
522.009	13250.5
522.376	13330.72
522.743	13321.23
523.11	13434.45
523.477	13567.55
523.843	13478.74
524.21	13566.87
524.577	13556.93
524.943	13629.02
525.31	13635.12
525.676	13758.51
526.043	13793.99
526.409	13740.66
526.776	13868.56
527.142	13773.2
527.508	13854.32
527.874	13916.47
528.241	13901.1
528.607	13817.49
528.973	14031.72
529.339	14019.07
529.705	13996.92
530.071	14075.56
530.437	14044.6
530.803	14081.21
531.169	14115.79
531.535	14099.52
531.901	14031.95
532.267	13995.56
532.632	14059.52
532.998	14055
533.364	14092.74
533.73	13971.16
534.095	14164.6
534.461	14125.96
534.826	14121.89
535.192	14101.32
535.557	14127.76
535.923	14052.96
536.288	14057.94
536.653	14053.64
537.019	13944.94
537.384	13968.45
537.749	13927.77
538.114	14010.03
538.479	13916.24
538.845	13916.24
539.21	13869.47
539.575	13848.9
539.94	13843.7
540.305	13876.25
540.67	13868.34
541.034	13732.07
541.399	13765.06
541.764	13776.13
542.129	13686.65
542.494	13721
542.858	13605.74
543.223	13601.45
543.587	13572.07
543.952	13561.45
544.316	13553.54
544.681	13457.73
545.045	13558.97
545.41	13521
545.774	13512.64
546.138	13454.56
546.503	13416.82
546.867	13275.81
547.231	13510.61
547.595	13299.09
547.959	13317.84
548.324	13264.28
548.688	13286.88
549.052	13280.55
549.416	13223.16
549.779	13168.92
550.143	13191.29
550.507	13181.35
550.871	13179.77
551.235	13081.46
551.599	13091.86
551.962	13090.28
552.326	13099.32
552.689	13117.4
553.053	12952.2
553.417	13015.7
553.78	13129.37
554.143	12978.19
554.507	12940
554.87	12947.91
555.234	13018.87
555.597	12915.14
555.96	12901.36
556.323	12908.14
556.686	12983.61
557.05	12982.03
557.413	12964.18
557.776	12926.67
558.139	12928.25
558.502	12902.03
558.865	12901.36
559.228	12953.78
559.59	12887.34
559.953	12945.65
560.316	12987
560.679	12972.99
561.041	13005.08
561.404	13033.78
561.767	12967.57
562.129	12917.4
562.492	13051.18
562.854	12894.8
563.217	12899.55
563.579	12975.93
563.941	13004.86
564.304	13041.46
564.666	13120.78
565.028	13070.62
565.39	13068.58
565.753	13104.74
566.115	13114.68
566.477	13063.39
566.839	13098.86
567.201	13129.82
567.563	13183.16
567.925	13207.79
568.287	13150.16
568.648	13195.81
569.01	13141.12
569.372	13272.65
569.734	13177.51
570.095	13272.42
570.457	13300.22
570.819	13334.34
571.18	13229.26
571.542	13323.72
571.903	13291.63
572.265	13273.32
572.626	13343.15
572.987	13297.96
573.349	13343.83
573.71	13432.64
574.071	13388.35
574.432	13443.04
574.794	13414.34
575.155	13423.15
575.516	13388.12
575.877	13500.21
576.238	13427.9
576.599	13489.81
576.96	13454.34
577.32	13482.13
577.681	13578.17
578.042	13530.72
578.403	13460.44
578.763	13508.35
579.124	13519.42
579.485	13560.32
579.845	13498.18
580.206	13435.8
580.566	13508.35
580.927	13492.53
581.287	13498.85
581.648	13464.05
582.008	13549.93
582.368	13439.87
582.728	13466.54
583.089	13465.86
583.449	13486.88
583.809	13459.53
584.169	13512.19
584.529	13542.24
584.889	13445.75
585.249	13486.65
585.609	13406.43
585.969	13426.09
586.329	13432.87
586.688	13471.06
587.048	13411.17
587.408	13332.53
587.768	13358.52
588.127	13439.65
588.487	13344.28
588.846	13442.13
589.206	13377.5
589.565	13405.3
589.925	13379.08
590.284	13316.94
590.643	13343.6
591.003	13375.92
591.362	13429.7
591.721	13312.42
592.08	13337.73
592.44	13331.4
592.799	13296.6
593.158	13308.8
593.517	13298.86
593.876	13331.85
594.235	13224.06
594.593	13322.59
594.952	13388.57
595.311	13276.49
595.67	13253.89
596.029	13265.19
596.387	13305.41
596.746	13390.83
597.104	13234.68
597.463	13172.08
597.822	13278.07
598.18	13219.54
598.538	13189.94
598.897	13326.66
599.255	13207.56
599.613	13291.85
599.972	13147.45
600.33	13284.85
600.688	13154
601.046	13295.47
601.404	13328.46
601.762	13231.74
602.12	13236.04
602.478	13325.98
602.836	13310.16
603.194	13201.46
603.552	13226.77
603.91	13264.74
604.268	13246.66
604.625	13161.69
604.983	13253.21
605.341	13205.08
605.698	13267.67
606.056	13281.23
606.413	13302.48
606.771	13267.22
607.128	13263.15
607.485	13207.56
607.843	13244.17
608.2	13361.91
608.557	13341.12
608.914	13328.24
609.272	13315.58
609.629	13364.17
609.986	13423.6
610.343	13349.93
610.7	13414.11
611.057	13371.63
611.414	13350.38
611.771	13437.16
612.127	13326.66
612.484	13446.43
612.841	13458.4
613.198	13449.14
613.554	13402.36
613.911	13451.4
614.267	13458.4
614.624	13483.94
614.98	13439.19
615.337	13538.18
615.693	13525.97
616.05	13502.24
616.406	13570.94
616.762	13495.24
617.118	13569.59
617.475	13558.97
617.831	13575.69
618.187	13710.83
618.543	13735.46
618.899	13733.42
619.255	13721.22
619.611	13627.66
619.967	13671.28
620.323	13706.98
620.678	13666.53
621.034	13622.24
621.39	13584.5
621.746	13635.57
622.101	13739.98
622.457	13654.56
622.812	13697.27
623.168	13618.85
623.523	13694.1
623.879	13720.09
624.234	13604.39
624.589	13574.78
624.945	13631.28
625.3	13601.22
625.655	13615.46
626.01	13640.55
626.365	13688
626.72	13632.64
627.075	13601.9
627.43	13630.15
627.785	13509.48
628.14	13640.09
628.495	13651.62
628.85	13611.62
629.205	13613.65
629.559	13603.48
629.914	13526.65
630.269	13590.15
630.623	13445.3
630.978	13553.99
631.332	13588.12
631.687	13560.1
632.041	13568.91
632.396	13509.7
632.75	13485.97
633.104	13485.75
633.459	13392.64
633.813	13505.41
634.167	13407.11
634.521	13426.09
634.875	13506.31
635.229	13379.54
635.583	13324.17
635.937	13363.04
636.291	13408.69
636.645	13377.28
636.999	13347.22
637.352	13395.13
637.706	13255.7
638.06	13327.11
638.413	13248.47
638.767	13252.76
639.121	13260.44
639.474	13203.72
639.828	13233.55
640.181	13268.13
640.534	13197.85
640.888	13087.57
641.241	13069.03
641.594	13104.74
641.947	13195.59
642.301	13140.9
642.654	13173.89
643.007	13119.66
643.36	13143.84
643.713	13113.78
644.066	13128.02
644.419	13046.66
644.771	13007.12
645.124	12782.04
645.477	12904.97
645.83	12807.12
646.182	12701.81
646.535	12698.65
646.888	12643.96
647.24	12590.4
647.593	12612.78
647.945	12691.19
648.298	12580.46
648.65	12567.81
649.002	12595.6
649.355	12662.72
649.707	12618.43
650.059	12668.14
650.411	12797.86
650.763	12866.1
651.115	13006.89
651.467	12923.05
651.819	12985.2
652.171	12967.34
652.523	12939.32
652.875	12911.07
653.227	12898.42
653.578	12989.26
653.93	12902.49
654.282	12845.54
654.633	12838.08
654.985	12934.12
655.337	12894.12
655.688	12947.23
656.039	12953.78
656.391	12796.73
656.742	12893.9
657.094	12963.27
657.445	12969.15
657.796	12848.7
658.147	12846.67
658.498	12951.98
658.849	12939.55
659.2	12901.36
659.551	12927.8
659.902	12861.81
660.253	12927.12
660.604	12990.39
660.955	12877.63
661.306	12933.22
661.656	12919.43
662.007	12962.37
662.358	12934.58
662.708	13028.81
663.059	12977.96
663.409	12875.37
663.76	12957.63
664.11	12932.77
664.461	12970.05
664.811	12918.98
665.161	12942.71
665.511	13009.38
665.862	12961.92
666.212	12994.91
666.562	12955.14
666.912	12936.16
667.262	12925.99
667.612	12892.32
667.962	12987.23
668.312	12943.16
668.662	12971.86
669.011	12982.48
669.361	12955.59
669.711	12898.42
670.06	12863.39
670.41	12858.87
670.76	12940
671.109	12931.19
671.459	13006.89
671.808	12927.57
672.157	12903.84
672.507	12821.58
672.856	12897.74
673.205	12857.06
673.554	12922.15
673.904	12817.52
674.253	12895.03
674.602	12787.46
674.951	12624.07
675.3	12652.32
675.649	12806.44
675.998	12743.17
676.346	12774.81
676.695	12842.83
677.044	12733.45
677.393	12715.37
677.741	12753.34
678.09	12731.42
678.438	12673.57
678.787	12722.83
679.135	12668.82
679.484	12565.77
679.832	12646.22
680.181	12552.44
680.529	12568.71
680.877	12558.54
681.225	12502.95
681.573	12612.32
681.922	12424.98
682.27	12418.66
682.618	12501.82
682.966	12455.72
683.314	12436.74
683.661	12413.91
684.009	12326.46
684.357	12302.28
684.705	12332.56
685.053	12311.77
685.4	12260.92
685.748	12134.6
686.095	12269.73
686.443	12197.42
686.79	12110.19
687.138	12141.38
687.485	12125.1
687.832	12126.01
688.18	12118.33
688.527	11958.56
688.874	12034.71
689.221	11938.44
689.568	11906.35
689.915	11864.32
690.262	11842.63
690.609	11854.6
690.956	11801.72
691.303	11828.16
691.65	11679.69
691.997	11763.53
692.344	11674.72
692.69	11641.05
693.037	11559.24
693.383	11531.9
693.73	11460.94
694.077	11448.06
694.423	11476.31
694.769	11466.37
695.116	11393.15
695.462	11333.94
695.808	11279.7
696.155	11262.3
696.501	11216.43
696.847	11238.57
697.193	11109.09
697.539	11126.04
697.885	11079.93
698.231	11070.67
698.577	10990.22
698.923	11010.33
699.269	10970.56
699.614	10888.98
699.96	10855.99
700.306	10824.35
700.651	10763.11
700.997	10750.45
701.342	10727.18
701.688	10671.81
702.033	10627.52
702.379	10623
702.724	10565.82
703.069	10556.11
703.415	10461.65
703.76	10512.94
704.105	10506.84
704.45	10442.66
704.795	10387.52
705.14	10391.14
705.485	10285.83
705.83	10271.82
706.175	10336.68
706.52	10191.82
706.865	10162.67
707.209	10080.64
707.554	10131.03
707.899	10043.8
708.243	10103.46
708.588	10012.62
708.932	9947.31
709.277	9959.06
709.621	9955.44
709.966	9825.96
710.31	9888.78
710.654	9821.66
710.998	9793.19
711.342	9816.24
711.687	9769.23
712.031	9761.55
712.375	9698.95
712.719	9719.97
713.063	9711.84
713.407	9760.65
713.75	9639.29
714.094	9687.88
714.438	9615.79
714.782	9622.12
715.125	9561.1
715.469	9630.93
715.812	9497.38
716.156	9496.25
716.499	9569.69
716.843	9473.42
717.186	9456.7
717.53	9552.07
717.873	9466.64
718.216	9479.98
718.559	9487.43
718.902	9313.43
719.246	9387.32
719.589	9352.07
719.932	9338.74
720.275	9380.54
720.617	9306.42
720.96	9295.8
721.303	9278.17
721.646	9260.77
721.989	9279.98
722.331	9302.81
722.674	9223.03
723.016	9313.88
723.359	9281.11
723.701	9193.2
724.044	9172.41
724.386	9164.05
724.729	9181
725.071	9197.5
725.413	9170.83
725.755	9151.62
726.097	9088.57
726.439	9125.64
726.782	9148.69
727.124	9183.26
727.465	9102.59
727.807	9115.24
728.149	9137.39
728.491	9055.58
728.833	9120.44
729.175	9093.09
729.516	9027.11
729.858	9072.53
730.199	9020.55
730.541	9039.31
730.882	9014.9
731.224	9122.47
731.565	9012.19
731.906	9050.61
732.248	9071.4
732.589	9053.55
732.93	8995.02
733.271	8974.68
733.612	9091.74
733.953	9057.84
734.294	9026.43
734.635	8964.06
734.976	9095.35
735.317	9069.14
735.658	9015.58
735.999	9095.81
736.339	9033.66
736.68	9139.65
737.021	9064.62
737.361	9008.12
737.702	9102.36
738.042	9042.02
738.383	9055.81
738.723	9169.25
739.063	9136.03
739.404	9144.17
739.744	9112.08
740.084	9158.86
740.424	9118.4
740.764	9132.42
741.104	9143.04
741.444	9159.53
741.784	9134.9
742.124	9182.36
742.464	9135.13
742.804	9223.49
743.143	9200.66
743.483	9229.14
743.823	9196.37
744.162	9259.19
744.502	9282.02
744.841	9326.53
745.181	9335.57
745.52	9315.01
745.86	9378.06
746.199	9445.63
746.538	9464.16
746.877	9543.48
747.216	9487.43
747.556	9534.89
747.895	9705.96
748.234	9643.59
748.573	9700.08
748.911	9740.31
749.25	9816.01
749.589	9870.02
749.928	9953.18
750.267	10055.78
750.605	10085.38
750.944	10180.07
751.283	10227.98
751.621	10347.07
751.96	10378.94
752.298	10517.69
752.636	10612.6
752.975	10629.78
753.313	10739.15
753.651	10811.69
753.989	10910.45
754.327	10978.24
754.666	11162.42
755.004	11219.82
755.342	11405.58
755.679	11459.81
756.017	11606.7
756.355	11698.68
756.693	11802.85
757.031	12104.09
757.368	12013.7
757.706	12258.89
758.044	12422.95
758.381	12592.66
758.719	12660.46
759.056	12865.65
759.394	13007.57
759.731	13041.92
760.068	13307.9
760.405	13301.8
760.743	13524.62
761.08	13643.71
761.417	13759.19
761.754	13938.16
762.091	14062.91
762.428	14198.27
762.765	14336.12
763.102	14518.04
763.438	14639.16
763.775	14808.42
764.112	15041.86
764.449	15176.78
764.785	15294.06
765.122	15374.06
765.458	15476.43
765.795	15620.38
766.131	15798.68
766.467	15852.46
766.804	15943.08
767.14	16091.33
767.476	16212.68
767.812	16432.11
768.148	16534.71
768.485	16479.57
768.821	16717.3
769.157	16719.56
769.492	16921.81
769.828	17119.32
770.164	16998.2
770.5	17121.36
770.836	17232.77
771.171	17258.76
771.507	17320.67
771.842	17375.59
772.178	17536.04
772.513	17545.75
772.849	17714.34
773.184	17670.95
773.519	17766.09
773.855	17742.81
774.19	17868
774.525	17950.94
774.86	18109.81
775.195	18050.6
775.53	18081.33
775.865	18161.1
776.2	18115.23
776.535	18009.47
776.87	18105.06
777.205	18178.28
777.539	18157.49
777.874	18272.29
778.209	18206.07
778.543	18199.07
778.878	18261.67
779.212	18266.64
779.547	18196.36
779.881	18409.46
780.215	18307.54
780.55	18377.6
780.884	18169.24
781.218	18369.69
781.552	18360.2
781.886	18267.54
782.22	18322.23
782.554	18239.52
782.888	18123.59
783.222	18118.17
783.556	18009.47
783.889	18158.17
784.223	17950.26
784.557	17987.55
784.89	18116.36
785.224	18020.32
785.557	18001.56
785.891	18004.05
786.224	17902.58
786.558	17953.88
786.891	17854.45
787.224	17820.1
787.557	17785.07
787.891	17822.36
788.224	17891.28
788.557	17908.91
788.89	17804.05
789.223	17840.21
789.556	17679.08
789.888	17643.38
790.221	17661.23
790.554	17521.12
790.887	17587.79
791.219	17587.56
791.552	17524.74
791.884	17515.7
792.217	17412.2
792.549	17428.24
792.882	17251.98
793.214	17213.78
793.546	17388.7
793.879	17192.99
794.211	17194.58
794.543	17224.63
794.875	17207.01
795.207	17141.24
795.539	17138.76
795.871	17068.48
796.203	17016.73
796.535	16955.03
796.867	17038.87
797.198	16841.82
797.53	16816.73
797.862	16737.41
798.193	16795.94
798.525	16677.53
798.856	16821.25
799.188	16586.46
799.519	16546.01
799.85	16504.65
800.182	16438.21
800.513	16479.57
800.844	16350.08
801.175	16418.33
801.506	16266.92
801.837	16302.4
802.168	16301.49
802.499	16305.56
802.83	16179.46
803.161	16131.78
803.491	16145.34
803.822	16182.4
804.153	16083.42
804.483	15916.87
804.814	15860.37
805.145	15829.19
805.475	15854.27
805.805	15804.78
806.136	15802.3
806.466	15806.36
806.796	15765.01
807.126	15676.2
807.457	15641.17
807.787	15636.65
808.117	15561.62
808.447	15483.89
808.777	15482.76
809.107	15452.02
809.436	15380.61
809.766	15427.62
810.096	15332.03
810.426	15322.76
810.755	15393.27
811.085	15320.05
811.414	15255.19
811.744	15135.65
812.073	15132.03
812.403	15085.93
812.732	15081.41
813.061	15033.73
813.39	15107.63
813.719	15000.28
814.049	15093.39
814.378	14985.37
814.707	14967.52
815.036	14850.23
815.365	14851.36
815.693	14786.96
816.022	14732.95
816.351	14727.07
816.68	14685.94
817.008	14685.72
817.337	14521.88
817.665	14581.31
817.994	14603.91
818.322	14566.17
818.651	14561.2
818.979	14415.89
819.307	14462.44
819.636	14497.47
819.964	14382.45
820.292	14469
820.62	14477.81
820.948	14347.87
821.276	14493.63
821.604	14365.05
821.932	14402.11
822.259	14425.84
822.587	14339.28
822.915	14321.21
823.243	14316.23
823.57	14375.22
823.898	14401.66
824.225	14259.74
824.553	14257.7
824.88	14312.62
825.207	14402.33
825.535	14285.73
825.862	14363.24
826.189	14278.95
826.516	14414.31
826.843	14455.21
827.17	14364.82
827.497	14371.83
827.824	14375.44
828.151	14412.95
828.478	14435.55
828.805	14428.77
829.131	14355.78
829.458	14354.88
829.785	14340.41
830.111	14315.56
830.438	14432.39
830.764	14372.28
831.09	14379.28
831.417	14284.37
831.743	14390.13
832.069	14354.42
832.395	14309.91
832.722	14389.23
833.048	14282.11
833.374	14387.87
833.7	14270.59
834.026	14257.48
834.351	14281.21
834.677	14236.46
835.003	14327.08
835.329	14257.93
835.654	14222
835.98	14126.18
836.306	14183.36
836.631	14236.24
836.956	14220.87
837.282	14192.17
837.607	14127.76
837.932	14070.36
838.258	14042.12
838.583	14068.1
838.908	13978.16
839.233	13980.65
839.558	13938.84
839.883	13921.89
840.208	13941.33
840.533	13907.2
840.858	13829.47
841.182	13877.38
841.507	13820.65
841.832	13817.26
842.156	13709.47
842.481	13780.2
842.805	13671.5
843.13	13628.34
843.454	13675.12
843.778	13561.45
844.103	13535.69
844.427	13532.98
844.751	13508.8
845.075	13540.43
845.399	13415.69
845.723	13355.58
846.047	13428.35
846.371	13243.49
846.695	13272.87
847.019	13115.81
847.343	13147.68
847.666	12995.82
847.99	13040.79
848.313	12982.94
848.637	12920.56
848.96	12929.83
849.284	12888.02
849.607	12721.7
849.931	12710.85
850.254	12665.66
850.577	12575.26
850.9	12576.17
851.223	12496.85
851.546	12488.49
851.869	12347.47
852.192	12397.19
852.515	12341.6
852.838	12197.65
853.161	12316.06
853.483	12198.55
853.806	12142.96
854.129	12104.31
854.451	12071.1
854.774	12074.26
855.096	11963.53
855.419	11984.54
855.741	11940.25
856.063	11817.77
856.385	11884.89
856.708	11812.12
857.03	11849.41
857.352	11779.58
857.674	11689.64
857.996	11667.94
858.318	11622.97
858.64	11621.84
858.961	11521.5
859.283	11503.65
859.605	11464.56
859.926	11480.15
860.248	11444.44
860.57	11457.1
860.891	11394.5
861.212	11311.12
861.534	11344.33
861.855	11226.37
862.176	11285.8
862.498	11327.39
862.819	11246.94
863.14	11215.3
863.461	11222.53
863.782	11194.96
864.103	11161.29
864.424	11150.44
864.745	11202.42
865.065	11041.29
865.386	11089.65
865.707	11022.99
866.027	11094.85
866.348	11093.04
866.668	10975.53
866.989	10958.58
867.309	10890.56
867.63	10932.37
867.95	10941.41
868.27	10874.29
868.59	10896.66
868.91	10881.52
869.23	10841.3
869.55	10824.35
869.87	10825.7
870.19	10785.71
870.51	10798.81
870.83	10789.77
871.15	10749.32
871.469	10775.54
871.789	10778.25
872.109	10681.53
872.428	10654.86
872.748	10646.95
873.067	10600.17
873.386	10623.68
873.706	10632.94
874.025	10549.55
874.344	10534.41
874.663	10562.21
874.982	10549.33
875.301	10552.04
875.62	10540.74
875.939	10442.44
876.258	10435.88
876.577	10431.82
876.896	10464.13
877.214	10398.37
877.533	10400.4
877.852	10372.83
878.17	10335.32
878.489	10306.85
878.807	10359.28
879.125	10351.82
879.444	10269.56
879.762	10291.48
880.08	10292.16
880.398	10251.93
880.716	10260.97
881.034	10244.7
881.352	10140.52
881.67	10134.2
881.988	10192.5
882.306	10105.05
882.624	10133.74
882.941	10113.86
883.259	10011.94
883.577	10052.62
883.894	9992.96
884.212	10027.31
884.529	9974.65
884.846	9924.26
885.164	9882.45
885.481	9862.79
885.798	9912.06
886.115	9769.91
886.432	9746.86
886.75	9712.74
887.067	9844.26
887.383	9805.39
887.7	9808.33
888.017	9713.19
888.334	9745.51
888.651	9708.9
888.967	9658.28
889.284	9616.7
889.6	9626.87
889.917	9493.99
890.233	9555
890.55	9487.43
890.866	9478.85
891.182	9466.42
891.498	9484.27
891.815	9371.5
892.131	9319.75
892.447	9321.56
892.763	9289.7
893.079	9335.35
893.395	9206.31
893.71	9178.52
894.026	9161.57
894.342	9186.43
894.657	9116.82
894.973	9092.19
895.289	9107.33
895.604	9098.52
895.92	8982.59
896.235	8926.77
896.55	8952.31
896.865	8946.88
897.181	8951.86
897.496	8861.46
897.811	8815.36
898.126	8838.19
898.441	8857.17
898.756	8757.06
899.071	8684.74
899.386	8638.42
899.7	8645.2
900.015	8516.16
900.33	8583.28
900.644	8480.68
900.959	8612.43
901.273	8514.58
901.588	8429.83
901.902	8445.65
902.216	8400.68
902.531	8389.61
902.845	8305.54
903.159	8280.23
903.473	8244.08
903.787	8215.38
904.101	8176.28
904.415	8184.64
904.729	8134.93
905.042	8062.39
905.356	8082.27
905.67	7993.91
905.984	8040.69
906.297	8050.41
906.611	7971.09
906.924	7930.19
907.237	7910.75
907.551	7876.86
907.864	7831.21
908.177	7809.96
908.491	7786.69
908.804	7739.46
909.117	7707.82
909.43	7631.44
909.743	7569.07
910.056	7544.43
910.368	7542.85
910.681	7524.1
910.994	7508.96
911.307	7469.86
911.619	7433.48
911.932	7430.77
912.244	7379.47
912.557	7327.72
912.869	7368.85
913.181	7261.05
913.494	7256.53
913.806	7167.5
914.118	7234.61
914.43	7128.63
914.742	7164.11
915.054	7110.77
915.366	7128.17
915.678	7103.09
915.99	7025.35
916.302	6993.04
916.613	6957.11
916.925	6957.78
917.236	6902.87
917.548	6880.5
917.859	6865.13
918.171	6844.34
918.482	6892.25
918.794	6805.24
919.105	6767.73
919.416	6700.84
919.727	6735.64
920.038	6648.41
920.349	6669.88
920.66	6606.61
920.971	6577.68
921.282	6600.96
921.593	6516.66
921.903	6525.93
922.214	6473.5
922.525	6451.36
922.835	6431.47
923.146	6413.84
923.456	6373.62
923.767	6364.8
924.077	6366.16
924.387	6263.56
924.697	6271.02
925.008	6266.73
925.318	6242.1
925.628	6237.8
925.938	6198.03
926.248	6158.26
926.558	6117.35
926.867	6169.33
927.177	6087.3
927.487	6029.45
927.796	5992.38
928.106	5983.35
928.416	6000.75
928.725	5927.3
929.034	5911.71
929.344	5925.04
929.653	5862.44
929.962	5926.17
930.271	5804.14
930.581	5822.45
930.89	5794.88
931.199	5745.16
931.508	5765.05
931.817	5719.62
932.125	5720.75
932.434	5714.88
932.743	5594.43
933.051	5641.21
933.36	5552.17
933.669	5564.37
933.977	5550.59
934.286	5535
934.594	5492.96
934.902	5457.48
935.21	5439.63
935.519	5494.54
935.827	5357.37
936.135	5422
936.443	5363.7
936.751	5351.72
937.059	5339.29
937.367	5318.96
937.674	5297.71
937.982	5243.93
938.29	5253.2
938.597	5238.05
938.905	5149.24
939.213	5151.5
939.52	5125.29
939.827	5157.83
940.135	5089.13
940.442	5092.52
940.749	5055.46
941.056	5079.64
941.363	5034.9
941.67	4992.86
941.977	4931.85
942.284	4889.14
942.591	4952.41
942.898	4912.41
943.205	4890.04
943.511	4856.6
943.818	4845.07
944.125	4796.26
944.431	4808.69
944.738	4804.39
945.044	4802.81
945.35	4729.37
945.657	4697.96
945.963	4673.32
946.269	4704.74
946.575	4667
946.881	4650.73
947.187	4648.24
947.493	4596.72
947.799	4611.86
948.105	4533.44
948.41	4544.29
948.716	4562.14
949.022	4518.07
949.327	4501.35
949.633	4427
949.938	4475.81
950.244	4457.28
950.549	4376.83
950.854	4402.82
951.16	4372.31
951.465	4346.1
951.77	4311.98
952.075	4311.53
952.38	4287.12
952.685	4315.59
952.99	4261.81
953.294	4263.62
953.599	4196.05
953.904	4156.73
954.209	4194.92
954.513	4147.69
954.818	4197.86
955.122	4136.39
955.426	4106.11
955.731	4097.97
956.035	4090.29
956.339	4071.31
956.643	4062.49
956.948	4045.32
957.252	4050.97
957.556	3992.89
957.86	3967.81
958.163	4002.15
958.467	3973.68
958.771	3929.61
959.075	3936.39
959.378	3907.69
959.682	3898.2
959.985	3861.59
960.289	3824.31
960.592	3826.11
960.896	3834.93
961.199	3795.61
961.502	3812.33
961.805	3765.55
962.108	3768.49
962.411	3748.6
962.714	3739.56
963.017	3718.77
963.32	3712.22
963.623	3690.98
963.926	3631.09
964.228	3664.99
964.531	3582.5
964.833	3622.5
965.136	3611.43
965.438	3590.19
965.741	3549.96
966.043	3577.31
966.345	3576.18
966.648	3518.33
966.95	3471.32
967.252	3471.77
967.554	3468.84
967.856	3472.68
968.158	3419.35
968.46	3469.51
968.761	3416.41
969.063	3382.96
969.365	3385
969.666	3392.45
969.968	3307.71
970.269	3346.13
970.571	3312.91
970.872	3286.47
971.174	3259.12
971.475	3259.12
971.776	3265.68
972.077	3222.97
972.378	3260.71
972.679	3210.09
972.98	3226.13
973.281	3231.1
973.582	3184.78
973.883	3192.68
974.183	3130.09
974.484	3104.55
974.785	3101.39
975.085	3128.28
975.386	3076.76
975.686	3074.5
975.986	3085.57
976.287	3050.32
976.587	3020.26
976.887	3017.32
977.187	3024.1
977.487	2976.64
977.787	2970.54
978.087	2972.13
978.387	2913.37
978.687	2944.1
978.987	2934.84
979.286	2904.78
979.586	2914.73
979.885	2893.26
980.185	2888.96
980.484	2894.39
980.784	2891.9
981.083	2854.39
981.382	2819.81
981.682	2829.76
981.981	2825.01
982.28	2807.84
982.579	2768.97
982.878	2796.99
983.177	2750.21
983.475	2734.39
983.774	2708.63
984.073	2709.76
984.372	2680.38
984.67	2700.04
984.969	2687.84
985.267	2656.43
985.566	2677.22
985.864	2620.5
986.162	2634.06
986.461	2643.55
986.759	2612.36
987.057	2602.42
987.355	2568.52
987.653	2550.22
987.951	2561.29
988.249	2580.5
988.547	2539.14
988.844	2549.31
989.142	2558.8
989.44	2488.52
989.737	2507.28
990.035	2519.03
990.332	2486.94
990.63	2463.89
990.927	2477
991.224	2432.03
991.521	2452.59
991.819	2446.94
992.116	2418.24
992.413	2399.94
992.71	2394.29
993.006	2366.72
993.303	2353.84
993.6	2346.15
993.897	2327.17
994.193	2360.39
994.49	2315.87
994.787	2281.3
995.083	2299.83
995.379	2304.35
995.676	2271.58
995.972	2232.26
996.268	2239.49
996.565	2236.33
996.861	2218.47
997.157	2217.34
997.453	2206.04
997.749	2202.65
998.044	2196.55
998.34	2228.87
998.636	2197.68
998.932	2151.58
999.227	2101.87
999.523	2127.85
999.818	2127.4
1000.114	2112.71
1000.409	2131.7
1000.704	2106.39
1001	2046.5
1001.295	2077.01
1001.59	2051.02
1001.885	2052.15
1002.18	2032.71
1002.475	2047.18
1002.77	1995.65
1003.065	1994.98
1003.359	1991.59
1003.654	1993.17
1003.949	1971.02
1004.243	1942.1
1004.538	1952.94
1004.832	1955.43
1005.127	1942.55
1005.421	1926.95
1005.715	1911.36
1006.009	1885.37
1006.304	1879.05
1006.598	1886.96
1006.892	1860.52
1007.186	1863.23
1007.48	1820.29
1007.773	1827.3
1008.067	1794.08
1008.361	1774.64
1008.655	1786.17
1008.948	1766.06
1009.242	1779.39
1009.535	1788.65
1009.829	1745.94
1010.122	1736.68
1010.415	1730.12
1010.708	1728.09
1011.001	1700.75
1011.295	1722.21
1011.588	1694.42
1011.881	1685.61
1012.173	1684.25
1012.466	1672.95
1012.759	1630.24
1013.052	1650.13
1013.344	1660.97
1013.637	1610.35
1013.93	1628.66
1014.222	1595.66
1014.514	1587.3
1014.807	1619.84
1015.099	1592.73
1015.391	1564.7
1015.683	1573.97
1015.976	1544.14
1016.268	1548.66
1016.56	1533.74
1016.851	1543.24
1017.143	1506.63
1017.435	1489
1017.727	1516.57
1018.018	1481.77
1018.31	1495.33
1018.602	1478.83
1018.893	1435.22
1019.185	1442.45
1019.476	1439.74
1019.767	1432.05
1020.058	1452.17
1020.35	1426.63
1020.641	1437.48
1020.932	1390.25
1021.223	1379.17
1021.514	1389.12
1021.804	1359.06
1022.095	1357.03
1022.386	1357.48
1022.677	1372.39
1022.967	1303.92
1023.258	1319.29
1023.548	1326.97
1023.839	1340.98
1024.129	1296.69
1024.419	1295.79
1024.709	1290.36
1025	1289.23
1025.29	1287.65
1025.58	1264.15
1025.87	1243.58
1026.16	1259.18
1026.449	1249.91
1026.739	1211.27
1027.029	1223.02
1027.319	1224.83
1027.608	1213.08
1027.898	1199.97
1028.187	1180.99
1028.477	1166.07
1028.766	1166.52
1029.055	1176.69
1029.344	1170.82
1029.634	1164.94
1029.923	1141.89
1030.212	1162.91
1030.501	1152.51
1030.79	1133.53
1031.078	1098.28
1031.367	1100.31
1031.656	1091.04
1031.945	1105.96
1032.233	1093.76
1032.522	1087.43
1032.81	1089.01
1033.099	1069.58
1033.387	1047.66
1033.675	1050.14
1033.963	1032.29
1034.251	1035.9
1034.54	1030.03
1034.828	1033.65
1035.116	1034.1
1035.403	1003.14
1035.691	1041.1
1035.979	984.15
1036.267	992.06
1036.554	999.97
1036.842	986.87
1037.129	1004.04
1037.417	963.59
1037.704	950.71
1037.992	930.6
1038.279	955.46
1038.566	951.16
1038.853	951.16
1039.14	951.16
