Data from hue_00_FLMS001491_32.txt Node
Date: Mon Feb 06 15:29:36 GMT 2017
User: dcchb
Spectrometer: FLMS00149
Trigger mode: 0
Integration Time (sec): 2.000000E-2
Scans to average: 10
Electric dark correction enabled: true
Nonlinearity correction enabled: false
Boxcar width: 0
XAxis mode: Wavelengths
Number of Pixels in Spectrum: 2048
>>>>>Begin Spectral Data<<<<<
341.393	-8.97
341.776	-8.97
342.16	-8.97
342.543	-66.14
342.927	-61.17
343.31	-87.61
343.693	-54.62
344.077	-56.43
344.46	-66.82
344.843	-64.33
345.226	-35.63
345.61	-32.02
345.993	-17.1
346.376	-13.49
346.759	-2.64
347.142	37.58
347.525	51.37
347.908	57.92
348.291	80.29
348.674	81.65
349.057	121.88
349.44	129.11
349.823	132.95
350.206	171.14
350.588	203.91
350.971	178.15
351.354	230.57
351.737	240.29
352.119	236.45
352.502	260.4
352.884	273.28
353.267	269.89
353.65	288.65
354.032	296.79
354.414	321.87
354.797	292.27
355.179	325.71
355.562	329.78
355.944	310.12
356.326	318.48
356.709	336.78
357.091	317.12
357.473	345.82
357.855	346.95
358.238	331.36
358.62	332.49
359.002	328.65
359.384	338.37
359.766	326.39
360.148	302.89
360.53	329.78
360.912	330.68
361.294	327.07
361.676	341.98
362.057	338.59
362.439	321.64
362.821	330.68
363.203	322.1
363.584	328.42
363.966	341.76
364.348	317.8
364.729	331.59
365.111	311.47
365.493	320.06
365.874	300.18
366.256	324.13
366.637	315.99
367.019	300.18
367.4	297.92
367.781	308.76
368.163	315.99
368.544	311.7
368.925	302.66
369.306	320.06
369.688	318.71
370.069	298.14
370.45	315.99
370.831	296.33
371.212	326.16
371.593	301.08
371.974	300.85
372.355	337.69
372.736	325.03
373.117	329.33
373.498	317.12
373.879	310.8
374.26	339.04
374.641	308.09
375.021	312.15
375.402	327.52
375.783	325.26
376.163	331.14
376.544	323.9
376.925	326.84
377.305	320.97
377.686	328.42
378.066	312.83
378.447	339.27
378.827	314.86
379.208	322.77
379.588	323.9
379.968	318.03
380.349	338.82
380.729	346.28
381.109	314.86
381.489	326.16
381.87	332.27
382.25	348.54
382.63	339.5
383.01	332.49
383.39	337.46
383.77	330.46
384.15	340.17
384.53	337.46
384.91	341.53
385.29	362.09
385.67	328.65
386.049	337.46
386.429	333.4
386.809	332.72
387.189	369.1
387.568	355.09
387.948	322.1
388.328	359.61
388.707	353.51
389.087	349.44
389.466	351.93
389.846	348.76
390.225	341.08
390.605	342.66
390.984	368.42
391.363	364.35
391.743	376.11
392.122	373.17
392.501	365.48
392.881	343.34
393.26	358.03
393.639	369.33
394.018	352.6
394.397	368.2
394.776	385.15
395.155	355.54
395.534	365.03
395.913	369.55
396.292	345.82
396.671	364.58
397.05	371.59
397.429	379.72
397.808	354.19
398.186	408.65
398.565	379.72
398.944	380.63
399.323	386.95
399.701	383.34
400.08	404.35
400.458	392.38
400.837	378.82
401.215	405.94
401.594	390.57
401.972	399.61
402.351	390.57
402.729	413.62
403.107	399.83
403.486	381.98
403.864	400.29
404.242	397.8
404.62	418.14
404.999	417.01
405.377	419.49
405.755	401.19
406.133	407.97
406.511	401.19
406.889	414.3
407.267	413.62
407.645	410.23
408.023	393.51
408.401	432.6
408.779	424.69
409.156	432.83
409.534	441.64
409.912	437.35
410.29	438.7
410.667	441.87
411.045	431.47
411.422	432.15
411.8	465.37
412.178	463.34
412.555	450.23
412.933	460.85
413.31	464.47
413.687	473.5
414.065	470.11
414.442	477.57
414.819	484.13
415.197	478.02
415.574	442.54
415.951	478.48
416.328	474.41
416.705	476.67
417.082	498.81
417.46	509.21
417.837	478.93
418.214	482.54
418.591	481.64
418.967	499.04
419.344	491.13
419.721	496.78
420.098	517.35
420.475	522.09
420.852	516.89
421.228	508.31
421.605	521.64
421.982	518.02
422.358	516.67
422.735	522.32
423.111	530.23
423.488	547.85
423.864	548.3
424.241	550.56
424.617	536.33
424.994	553.28
425.37	537.23
425.746	538.14
426.123	543.56
426.499	562.99
426.875	563.45
427.251	590.79
427.627	575.2
428.003	555.99
428.379	590.79
428.756	597.12
429.132	581.3
429.507	595.08
429.883	595.99
430.259	598.92
430.635	596.67
431.011	615.2
431.387	629.88
431.763	592.37
432.138	617
432.514	636.66
432.89	655.42
433.265	670.56
433.641	629.21
434.016	643.9
434.392	648.64
434.767	666.49
435.143	646.16
435.518	659.94
435.894	688.64
436.269	683.89
436.644	700.84
437.02	707.4
437.395	711.24
437.77	727.28
438.145	689.32
438.52	725.25
438.895	729.54
439.271	705.14
439.646	731.8
440.021	701.52
440.395	738.81
440.77	731.58
441.145	715.08
441.52	734.51
441.895	765.25
442.27	758.02
442.645	778.36
443.019	758.47
443.394	757.34
443.769	734.29
444.143	773.16
444.518	781.52
444.892	771.12
445.267	789.65
445.641	800.95
446.016	788.3
446.39	799.37
446.764	799.37
447.139	817.45
447.513	784.91
447.887	781.07
448.262	827.39
448.636	802.76
449.01	800.95
449.384	824.23
449.758	810.9
450.132	821.29
450.506	824.23
450.88	842.31
451.254	838.69
451.628	844.79
452.002	847.05
452.376	875.53
452.75	833.04
453.123	861.06
453.497	889.09
453.871	882.08
454.244	914.17
454.618	893.15
454.992	898.58
455.365	904.45
455.739	914.62
456.112	934.28
456.486	945.81
456.859	955.98
457.232	962.08
457.606	966.6
457.979	956.66
458.352	972.47
458.725	973.83
459.099	976.32
459.472	1029.65
459.845	1022.87
460.218	1014.28
460.591	1024.68
460.964	1014.51
461.337	1038.01
461.71	1047.5
462.083	1068.07
462.456	1081.62
462.829	1073.26
463.201	1071.68
463.574	1099.25
463.947	1126.37
464.32	1148.74
464.692	1125.46
465.065	1153.03
465.438	1182.86
465.81	1148.29
466.183	1175.63
466.555	1211.11
466.928	1210.21
467.3	1205.46
467.672	1249.3
468.045	1255.63
468.417	1270.32
468.789	1268.96
469.161	1290.88
469.534	1283.65
469.906	1346.93
470.278	1362.75
470.65	1344.22
471.022	1361.16
471.394	1389.19
471.766	1390.54
472.138	1421.05
472.51	1473.03
472.882	1489.97
473.253	1500.82
473.625	1523.19
473.997	1562.97
474.369	1565.91
474.74	1571.1
475.112	1566.81
475.484	1614.27
475.855	1660.59
476.227	1669.18
476.598	1736.52
476.97	1730.65
477.341	1751.21
477.713	1817.88
478.084	1792.11
478.455	1860.13
478.827	1885.9
479.198	1915.5
479.569	1925.44
479.94	1960.7
480.311	1978.32
480.682	2023.97
481.053	2116.85
481.424	2127.92
481.795	2156.62
482.166	2164.99
482.537	2239.79
482.908	2268.26
483.279	2273.46
483.65	2346.9
484.021	2393
484.391	2444.75
484.762	2436.16
485.133	2476.16
485.503	2505.32
485.874	2588.7
486.244	2585.99
486.615	2630.74
486.985	2699.21
487.356	2731.07
487.726	2748.47
488.097	2795.03
488.467	2833.22
488.837	2908.24
489.207	2909.37
489.578	3005.42
489.948	3005.19
490.318	3068.01
490.688	3039.54
491.058	3126.54
491.428	3199.31
491.798	3212.42
492.168	3206.99
492.538	3278.4
492.908	3327.89
493.278	3349.36
493.648	3372.86
494.017	3415.12
494.387	3419.42
494.757	3462.58
495.126	3514.1
495.496	3538.28
495.866	3571.5
496.235	3635.46
496.605	3661.67
496.974	3648.34
497.344	3682.46
497.713	3730.82
498.082	3719.29
498.452	3816.69
498.821	3743.25
499.19	3779.41
499.559	3835
499.928	3897.37
500.298	3884.94
500.667	3937.37
501.036	3914.54
501.405	3964.03
501.774	3973.07
502.143	3960.42
502.512	3994.32
502.88	4045.61
503.249	4060.75
503.618	4106.86
503.987	4107.31
504.356	4153.63
504.724	4140.75
505.093	4176.91
505.462	4150.24
505.83	4252.84
506.199	4222.11
506.567	4270.01
506.936	4272.05
507.304	4300.75
507.672	4338.04
508.041	4345.49
508.409	4363.35
508.777	4389.56
509.145	4444.47
509.514	4424.14
509.882	4467.52
510.25	4442.89
510.618	4469.33
510.986	4499.84
511.354	4507.75
511.722	4571.93
512.09	4570.35
512.458	4581.19
512.826	4594.53
513.193	4632.04
513.561	4621.42
513.929	4639.27
514.297	4674.98
514.664	4703
515.032	4684.24
515.4	4735.54
515.767	4700.51
516.135	4752.49
516.502	4743.9
516.869	4741.87
517.237	4833.62
517.604	4785.03
517.972	4806.27
518.339	4844.69
518.706	4841.75
519.073	4842.43
519.44	4881.75
519.808	4937.12
520.175	4875.2
520.542	4931.01
520.909	4940.28
521.276	4968.98
521.643	5048.3
522.009	5045.59
522.376	5029.32
522.743	5057.11
523.11	5064.34
523.477	5132.37
523.843	5154.74
524.21	5175.75
524.577	5219.37
524.943	5292.13
525.31	5259.59
525.676	5304.56
526.043	5319.25
526.409	5326.48
526.776	5349.08
527.142	5355.18
527.508	5331.68
527.874	5479.93
528.241	5463.88
528.607	5476.76
528.973	5501.17
529.339	5515.86
529.705	5587.27
530.071	5642.63
530.437	5674.05
530.803	5618
531.169	5698.45
531.535	5662.52
531.901	5721.28
532.267	5697.1
532.632	5782.07
532.998	5723.99
533.364	5796.98
533.73	5799.24
534.095	5832.46
534.461	5879.46
534.826	5883.76
535.192	5930.76
535.557	5972.79
535.923	6027.48
536.288	5972.79
536.653	6037.2
537.019	6043.08
537.384	6025
537.749	6110.19
538.114	6085.56
538.479	6093.7
538.845	6133.92
539.21	6203.75
539.575	6166.69
539.94	6181.15
540.305	6250.08
540.67	6226.8
541.034	6248.72
541.399	6275.84
541.764	6332.79
542.129	6370.3
542.494	6345.21
542.858	6424.08
543.223	6462.27
543.587	6495.27
543.952	6543.4
544.316	6553.34
544.681	6514.7
545.045	6567.58
545.41	6589.73
545.774	6671.08
546.138	6644.19
546.503	6702.49
546.867	6710.85
547.231	6804.86
547.595	6714.92
547.959	6724.41
548.324	6760.12
548.688	6797.86
549.052	6815.26
549.416	6890.51
549.779	6885.31
550.143	6904.97
550.507	6937.74
550.871	6919.89
551.235	6908.82
551.599	7044.18
551.962	7012.09
552.326	7062.48
552.689	7112.43
553.053	7073.33
553.417	7113.1
553.78	7167.11
554.143	7180.45
554.507	7179.99
554.87	7217.28
555.234	7298.86
555.597	7164.63
555.96	7285.53
556.323	7234
556.686	7270.39
557.05	7330.73
557.413	7327.34
557.776	7366.66
558.139	7423.15
558.502	7431.74
558.865	7425.41
559.228	7540.21
559.59	7525.3
559.953	7459.99
560.316	7639.87
560.679	7610.04
561.041	7612.07
561.404	7639.87
561.767	7596.03
562.129	7716.7
562.492	7797.61
562.854	7742.92
563.217	7748.34
563.579	7760.09
563.941	7819.3
564.304	7900.88
564.666	7916.47
565.028	7931.84
565.39	7960.99
565.753	8003.25
566.115	7998.96
566.477	7993.31
566.839	8058.84
567.201	8053.42
567.563	8137.48
567.925	8166.64
568.287	8121.44
568.648	8200.08
569.01	8186.97
569.372	8264.03
569.734	8235.11
570.095	8343.35
570.457	8399.17
570.819	8433.52
571.18	8462
571.542	8502.22
571.903	8495.89
572.265	8532.28
572.626	8658.15
572.987	8676.23
573.349	8717.36
573.71	8769.33
574.071	8765.04
574.432	8879.84
574.794	8927.97
575.155	9001.87
575.516	8959.16
575.877	9010.91
576.238	9066.95
576.599	9128.42
576.96	9280.96
577.32	9262.65
577.681	9384.23
578.042	9482.53
578.403	9632.13
578.763	9685.47
579.124	9704.67
579.485	9841.39
579.845	10064.66
580.206	10049.07
580.566	10232.34
580.927	10326.8
581.287	10560.24
581.648	10611.99
582.008	10758.21
582.368	10827.81
582.728	10993.91
583.089	11162.04
583.449	11275.71
583.809	11467.79
584.169	11700.78
584.529	11837.05
584.889	12116.81
585.249	12178.96
585.609	12359.75
585.969	12716.8
586.329	12835.44
586.688	13131.48
587.048	13255.77
587.408	13499.6
587.768	13812.81
588.127	13955.18
588.487	14121.06
588.846	14586.13
589.206	14709.06
589.565	15025.44
589.925	15327.58
590.284	15449.83
590.643	15796.04
591.003	16198.97
591.362	16454.1
591.721	16666.75
592.08	16976.57
592.44	17334.08
592.799	17599.83
593.158	17833.05
593.517	18195.3
593.876	18496.31
594.235	18740.37
594.593	18994.37
594.952	19417.41
595.311	19675.03
595.67	20030.73
596.029	20374.68
596.387	20712.07
596.746	21098.5
597.104	21364.71
597.463	21497.58
597.822	22040.17
598.18	22207.17
598.538	22587.73
598.897	23017.54
599.255	23127.82
599.613	23739.11
599.972	23812.33
600.33	24275.82
600.688	24460.9
601.046	24773.43
601.404	25236.02
601.762	25365.73
602.12	25800.52
602.478	26158.25
602.836	26214.3
603.194	26490.45
603.552	26746.26
603.91	26983.09
604.268	27422.63
604.625	27620.14
604.983	27964.08
605.341	28110.74
605.698	28527.23
606.056	28826.66
606.413	28946.43
606.771	29389.13
607.128	29637.03
607.485	29717.71
607.843	30073.4
608.2	30401.31
608.557	30711.81
608.914	30813.27
609.272	31180.72
609.629	31314.28
609.986	31811.66
610.343	31811.21
610.7	32214.36
611.057	32409.16
611.414	32523.28
611.771	32673.79
612.127	33016.6
612.484	33182.47
612.841	33451.39
613.198	33425.63
613.554	33735.45
613.911	34071.94
614.267	34182.45
614.624	34406.62
614.98	34558.03
615.337	34834.41
615.693	34840.06
616.05	34972.48
616.406	35364.56
616.762	35447.5
617.118	35449.53
617.475	35632.35
617.831	35975.85
618.187	36054.49
618.543	36176.75
618.899	36595.94
619.255	36649.95
619.611	36711.87
619.967	36911.87
620.323	37097.85
620.678	37119.09
621.034	37136.04
621.39	37215.36
621.746	37257.62
622.101	37698.97
622.457	37660.32
622.812	37790.72
623.168	37862.58
623.523	38110.93
623.879	38251.95
624.234	37987.55
624.589	38387.08
624.945	38484.03
625.3	38460.53
625.655	38599.96
626.01	38676.12
626.365	38764.7
626.72	38862.1
627.075	38806.73
627.43	38856.22
627.785	38802.89
628.14	39095.77
628.495	39049.67
628.85	39033.85
629.205	39029.78
629.559	39318.36
629.914	39109.55
630.269	39265.03
630.623	39212.15
630.978	39228.64
631.332	39453.27
631.687	39488.3
632.041	39452.59
632.396	39624.11
632.75	39448.07
633.104	39654.62
633.459	39387.74
633.813	39382.31
634.167	39439.71
634.521	39576.21
634.875	39659.82
635.229	39657.33
635.583	39344.35
635.937	39483.33
636.291	39412.59
636.645	39500.27
636.999	39382.76
637.352	39681.74
637.706	39409.2
638.06	39609.88
638.413	39570.78
638.767	39616.2
639.121	39604
639.474	39338.02
639.828	39588.63
640.181	39557.67
640.534	39507.51
640.888	39536.43
641.241	39309.09
641.594	39416.89
641.947	39506.83
642.301	39425.25
642.654	39575.3
643.007	39602.65
643.36	39493.5
643.713	39461.63
644.066	39689.87
644.419	39362.43
644.771	39140.74
645.124	38723.12
645.477	38641.31
645.83	38492.17
646.182	38311.83
646.535	38353.64
646.888	38379.85
647.24	38137.15
647.593	38384.82
647.945	38185.28
648.298	38172.85
648.65	38180.31
649.002	38056.25
649.355	38262.12
649.707	37955.23
650.059	38294.43
650.411	38797.69
650.763	38839.5
651.115	39300.51
651.467	39051.25
651.819	39116.56
652.171	38894.19
652.523	38993.17
652.875	38912.72
653.227	38719.96
653.578	39087.63
653.93	39028.42
654.282	38830.69
654.633	38733.97
654.985	38881.31
655.337	38838.6
655.688	38897.58
656.039	39096.67
656.391	38779.16
656.742	38761.09
657.094	38810.35
657.445	38800.63
657.796	38695.78
658.147	38794.76
658.498	38749.33
658.849	38827.75
659.2	38768.99
659.551	38691.26
659.902	38801.08
660.253	38694.65
660.604	38757.7
660.955	38641.77
661.306	38657.81
661.656	38572.84
662.007	38576.46
662.358	38630.92
662.708	38644.48
663.059	38465.5
663.409	38432.73
663.76	38735.78
664.11	38547.31
664.461	38666.4
664.811	38476.35
665.161	38694.65
665.511	38518.83
665.862	38659.85
666.212	38630.47
666.562	38609
666.912	38599.51
667.262	38594.31
667.612	38464.37
667.962	38622.33
668.312	38451.71
668.662	38579.4
669.011	38502.56
669.361	38455.78
669.711	38428.89
670.06	38470.92
670.41	38276.13
670.76	38356.12
671.109	38502.56
671.459	38366.29
671.808	38323.36
672.157	38383.47
672.507	38218.05
672.856	38314.32
673.205	38334.88
673.554	38461.66
673.904	38268.22
674.253	38484.93
674.602	38389.12
674.951	37761.11
675.3	37550.5
675.649	38274.77
675.998	38065.96
676.346	38079.97
676.695	38193.19
677.044	37994.78
677.393	38023.25
677.741	38176.02
678.09	37982.35
678.438	37906.64
678.787	38067.09
679.135	38003.14
679.484	37755.46
679.832	37872.07
680.181	37669.36
680.529	37719.98
680.877	37721.56
681.225	37801.79
681.573	37809.02
681.922	37556.37
682.27	37529.48
682.618	37466.88
682.966	37376.26
683.314	37537.84
683.661	37511.85
684.009	37255.59
684.357	37265.08
684.705	37092.88
685.053	37219.43
685.4	37367.9
685.748	37087.01
686.095	36891.98
686.443	36896.95
686.79	36834.13
687.138	37021.47
687.485	36854.24
687.832	36809.05
688.18	36856.5
688.527	36599.56
688.874	36486.12
689.221	36433.24
689.568	36310.53
689.915	36308.27
690.262	36257.87
690.609	36218.33
690.956	36099.01
691.303	36047.03
691.65	35839.35
691.997	35851.78
692.344	35761.16
692.69	35632.35
693.037	35544.9
693.383	35274.85
693.73	35571.56
694.077	35311.91
694.423	35361.85
694.769	35272.82
695.116	35204.12
695.462	35038.25
695.808	34917.8
696.155	35042.31
696.501	34724.58
696.847	34706.5
697.193	34502.67
697.539	34681.19
697.885	34450.92
698.231	34360.52
698.577	34413.4
698.923	34214.31
699.269	34043.02
699.614	33993.98
699.96	33944.94
700.306	33998.95
700.651	33800.54
700.997	33620.2
701.342	33577.49
701.688	33657.49
702.033	33443.71
702.379	33394.67
702.724	33403.94
703.069	33359.42
703.415	33022.48
703.76	33010.5
704.105	32999.65
704.45	32851.64
704.795	32753.33
705.14	32713.56
705.485	32645.09
705.83	32434.02
706.175	32566.45
706.52	32432.21
706.865	32245.1
707.209	32321.25
707.554	32106.12
707.899	32238.77
708.243	32118.77
708.588	32022.28
708.932	31846.01
709.277	31836.52
709.621	31839.23
709.966	31711.78
710.31	31727.82
710.654	31535.06
710.998	31434.27
711.342	31608.73
711.687	31503.65
712.031	31476.08
712.375	31260.94
712.719	31291.23
713.063	31097.78
713.407	31355.63
713.75	31060.95
714.094	31061.63
714.438	30930.1
714.782	31012.14
715.125	30860.73
715.469	30960.39
715.812	30774.63
716.156	30580.51
716.499	30483.56
716.843	30572.83
717.186	30432.49
717.53	30550
717.873	30494.18
718.216	30362.89
718.559	30183.46
718.902	30202.21
719.246	30119.96
719.589	30066.17
719.932	29875.9
720.275	30000.41
720.617	29843.13
720.96	29863.69
721.303	29845.16
721.646	29745.5
721.989	29589.35
722.331	29620.31
722.674	29629.12
723.016	29728.33
723.359	29572.17
723.701	29642.46
724.044	29440.43
724.386	29298.28
724.729	29358.85
725.071	29228.91
725.413	29432.74
725.755	29314.33
726.097	29196.82
726.439	28943.72
726.782	29044.28
727.124	29112.07
727.465	28961.34
727.807	28998.18
728.149	28904.62
728.491	28856.49
728.833	28867.56
729.175	28740.33
729.516	28776.04
729.858	28665.08
730.199	28786.21
730.541	28691.29
730.882	28611.3
731.224	28656.49
731.565	28456.05
731.906	28449.72
732.248	28367.69
732.589	28343.96
732.93	28146.68
733.271	28225.77
733.612	28256.28
733.953	28197.07
734.294	28135.38
734.635	28146.22
734.976	28122.95
735.317	27958.88
735.658	27942.61
735.999	28109.39
736.339	27836.85
736.68	28057.64
737.021	27832.79
737.361	27715.73
737.702	27856.06
738.042	27781.49
738.383	27769.06
738.723	27658.78
739.063	27664.43
739.404	27546.01
739.744	27473.02
740.084	27398.9
740.424	27530.65
740.764	27445
741.104	27576.97
741.444	27323.65
741.784	27195.51
742.124	27303.31
742.464	27341.5
742.804	27160.94
743.143	27150.09
743.483	27301.27
743.823	27043.2
744.162	27132.46
744.502	27110.54
744.841	26879.14
745.181	27097.89
745.52	26873.49
745.86	27127.72
746.199	26844.11
746.538	26740.84
746.877	26931.79
747.216	26791
747.556	26688.63
747.895	26723.21
748.234	26637.79
748.573	26511.69
748.911	26567.73
749.25	26580.84
749.589	26304.46
749.928	26374.07
750.267	26434.18
750.605	26311.92
750.944	26287.97
751.283	26181.98
751.621	26309.21
751.96	26217.46
752.298	26037.13
752.636	26077.13
752.975	26039.61
753.313	25861.76
753.651	26056.33
753.989	25937.92
754.327	25797.81
754.666	25749.45
755.004	25709.23
755.342	25749
755.679	25646.63
756.017	25526.18
756.355	25552.17
756.693	25520.53
757.031	25455.22
757.368	25433.07
757.706	25269.01
758.044	25161.44
758.381	25311.04
758.719	25183.82
759.056	25219.52
759.394	25028.34
759.731	24943.14
760.068	24786.31
760.405	24760.1
760.743	24829.47
761.08	24841.23
761.417	24603.94
761.754	24577.5
762.091	24493.21
762.428	24441.69
762.765	24325.53
763.102	24347.45
763.438	24188.59
763.775	24140.45
764.112	24180
764.449	24091.41
764.785	23896.84
765.122	23878.76
765.458	23832.89
765.795	23716.28
766.131	23728.71
766.467	23635.61
766.804	23487.36
767.14	23361.72
767.476	23395.61
767.812	23308.84
768.148	23389.29
768.485	23236.07
768.821	23049.86
769.157	23004.21
769.492	22940.71
769.828	22937.09
770.164	22698.68
770.5	22681.51
770.836	22765.8
771.171	22546.82
771.507	22618.68
771.842	22307.51
772.178	22360.84
772.513	22347.05
772.849	22146.15
773.184	22140.05
773.519	22141.64
773.855	21959.27
774.19	21854.86
774.525	21850.12
774.86	21849.21
775.195	21731.7
775.53	21562.67
775.865	21550.92
776.2	21296.01
776.535	21275.22
776.87	21202.68
777.205	21100.08
777.539	20991.84
777.874	21100.08
778.209	20922.68
778.543	20854.89
778.878	20730.6
779.212	20777.15
779.547	20651.73
779.881	20648.79
780.215	20488.8
780.55	20522.47
780.884	20363.38
781.218	20346.65
781.552	20353.21
781.886	20191.4
782.22	20100.79
782.554	20102.59
782.888	19916.61
783.222	19770.17
783.556	19759.33
783.889	19690.17
784.223	19500.12
784.557	19504.64
784.89	19583.51
785.224	19447.92
785.557	19303.97
785.891	19260.81
786.224	19254.71
786.558	19227.36
786.891	19029.17
787.224	19051.1
787.557	18940.82
787.891	19020.36
788.224	18876.86
788.557	18790.99
788.89	18680.26
789.223	18732.69
789.556	18498.79
789.888	18545.12
790.221	18410.66
790.554	18328.18
790.887	18363.43
791.219	18243.88
791.552	18193.04
791.884	18121.63
792.217	18078.92
792.549	18060.16
792.882	17957.34
793.214	17838.92
793.546	17831.01
793.879	17797.57
794.211	17651.13
794.543	17741.07
794.875	17666.72
795.207	17747.4
795.539	17557.12
795.871	17451.36
796.203	17382.66
796.535	17267.19
796.867	17313.51
797.198	17230.13
797.53	17228.54
797.862	17196
798.193	17076.01
798.525	17062.9
798.856	16973.86
799.188	16830.14
799.519	16773.64
799.85	16723.92
800.182	16720.53
800.513	16715.34
800.844	16553.99
801.175	16638.73
801.506	16591.72
801.837	16420.66
802.168	16429.02
802.499	16251.17
802.83	16209.59
803.161	16233.77
803.491	16274.22
803.822	16227.89
804.153	16034.23
804.483	16012.3
804.814	15939.09
805.145	15900.9
805.475	15883.27
805.805	15872.65
806.136	15873.55
806.466	15835.81
806.796	15792.42
807.126	15628.36
807.457	15553.56
807.787	15547.46
808.117	15514.46
808.447	15413.68
808.777	15424.3
809.107	15394.24
809.436	15346.33
809.766	15399.89
810.096	15423.17
810.426	15166
810.755	15306.11
811.085	15242.61
811.414	15201.48
811.744	15099.33
812.073	15000.13
812.403	15002.39
812.732	14976.85
813.061	14850.08
813.39	14911.77
813.719	14857.76
814.049	14885.1
814.378	14815.05
814.707	14717.88
815.036	14757.42
815.365	14647.6
815.693	14595.39
816.022	14547.94
816.351	14482.18
816.68	14394.49
817.008	14445.11
817.337	14355.17
817.665	14311.33
817.994	14399.24
818.322	14373.03
818.651	14192.24
818.979	14228.85
819.307	14241.5
819.636	14192.69
819.964	14108.85
820.292	14146.37
820.62	14087.84
820.948	14038.12
821.276	14173.71
821.604	14055.97
821.932	14015.97
822.259	14093.71
822.587	14042.19
822.915	14027.05
823.243	14062.07
823.57	13974.17
823.898	14103.65
824.225	13985.69
824.553	14029.31
824.88	13963.77
825.207	14047.16
825.535	13931.91
825.862	14029.98
826.189	13976.88
826.516	14023.88
826.843	14015.3
827.17	14028.18
827.497	14047.16
827.824	13965.58
828.151	14076.99
828.478	14059.36
828.805	14045.35
829.131	13955.64
829.458	13943.88
829.785	13864.56
830.111	13879.48
830.438	14000.83
830.764	13941.4
831.09	13923.32
831.417	13881.51
831.743	13902.76
832.069	13972.58
832.395	13779.82
832.722	13865.47
833.048	13812.14
833.374	13801.29
833.7	13766.04
834.026	13882.19
834.351	13824.34
834.677	13753.38
835.003	13719.26
835.329	13857.11
835.654	13814.17
835.98	13662.54
836.306	13704.57
836.631	13690.56
836.956	13702.08
837.282	13667.06
837.607	13679.03
837.932	13554.74
838.258	13650.11
838.583	13612.59
838.908	13550
839.233	13575.98
839.558	13556.55
839.883	13531.01
840.208	13389.78
840.533	13402.66
840.858	13418.25
841.182	13427.74
841.507	13372.6
841.832	13293.96
842.156	13293.73
842.481	13280.17
842.805	13251.25
843.13	13251.7
843.454	13092.16
843.778	13149.56
844.103	13068.2
844.427	13064.36
844.751	13095.77
845.075	13020.97
845.399	12924.02
845.723	12957.24
846.047	12914.99
846.371	12913.86
846.695	12835.67
847.019	12686.97
847.343	12616.01
847.666	12613.07
847.99	12529.01
848.313	12587.99
848.637	12430.03
848.96	12483.13
849.284	12399.74
849.607	12359.52
849.931	12356.36
850.254	12203.37
850.577	12169.02
850.9	12107.55
851.223	12091.28
851.546	11958.63
851.869	11941.68
852.192	11934.67
852.515	11906.2
852.838	11755.69
853.161	11863.26
853.483	11754.79
853.806	11758.63
854.129	11660.78
854.451	11620.33
854.774	11641.8
855.096	11569.03
855.419	11569.26
855.741	11566.09
856.063	11435.25
856.385	11385.99
856.708	11359.09
857.03	11412.2
857.352	11337.63
857.674	11301.02
857.996	11253.11
858.318	11209.49
858.64	11204.3
858.961	11194.58
859.283	11112.09
859.605	11049.5
859.926	11149.16
860.248	11044.07
860.57	10985.32
860.891	11042.04
861.212	10936.96
861.534	10942.16
861.855	10831.88
862.176	10948.26
862.498	10818.09
862.819	10877.52
863.14	10763.86
863.461	10754.14
863.782	10673.46
864.103	10720.92
864.424	10679.79
864.745	10738.77
865.065	10636.85
865.386	10591.88
865.707	10564.99
866.027	10571.54
866.348	10580.58
866.668	10552.56
866.989	10558.89
867.309	10435.95
867.63	10494.48
867.95	10437.99
868.27	10379.23
868.59	10486.57
868.91	10413.58
869.23	10397.76
869.55	10355.5
869.87	10386.46
870.19	10309.18
870.51	10414.71
870.83	10306.69
871.15	10354.83
871.469	10309.4
871.789	10303.98
872.109	10325
872.428	10244.32
872.748	10220.82
873.067	10287.71
873.386	10204.32
873.706	10222.63
874.025	10135.62
874.344	10159.13
874.663	10212.23
874.982	10110.99
875.301	10071.22
875.62	10066.25
875.939	10064.21
876.258	10092.23
876.577	10011.33
876.896	10049.3
877.214	9953.48
877.533	10031.67
877.852	10015.63
878.17	10018.11
878.489	9962.52
878.807	9930.43
879.125	9877.1
879.444	9911.45
879.762	9892.47
880.08	9885.01
880.398	9866.48
880.716	9874.84
881.034	9856.08
881.352	9876.65
881.67	9750.55
881.988	9743.54
882.306	9737.67
882.624	9693.15
882.941	9674.39
883.259	9646.82
883.577	9587.62
883.894	9618.57
884.212	9618.12
884.529	9497
884.846	9520.27
885.164	9529.54
885.481	9492.02
885.798	9510.33
886.115	9459.03
886.432	9424.23
886.75	9384.91
887.067	9359.37
887.383	9359.37
887.7	9388.07
888.017	9289.54
888.334	9306.49
888.651	9246.16
888.967	9187.4
889.284	9212.48
889.6	9176.1
889.917	9140.4
890.233	9161.19
890.55	9103.11
890.866	9068.31
891.182	9096.33
891.498	8955.32
891.815	9044.8
892.131	8979.5
892.447	8967.74
892.763	8940.17
893.079	8932.49
893.395	8859.72
893.71	8845.49
894.026	8814.75
894.342	8814.75
894.657	8744.02
894.973	8726.62
895.289	8712.84
895.604	8700.63
895.92	8636.91
896.235	8617.92
896.55	8589.9
896.865	8596.68
897.181	8579.28
897.496	8646.62
897.811	8428.78
898.126	8510.58
898.441	8437.59
898.756	8405.95
899.071	8384.03
899.386	8417.48
899.7	8371.83
900.015	8313.75
900.33	8228.33
900.644	8266.52
900.959	8256.58
901.273	8174.77
901.588	8154.88
901.902	8106.75
902.216	8125.05
902.531	8066.53
902.845	8017.49
903.159	7981.1
903.473	7943.14
903.787	7985.17
904.101	7979.52
904.415	7956.47
904.729	7909.47
905.042	7824.72
905.356	7833.08
905.67	7794.22
905.984	7742.92
906.297	7716.93
906.611	7651.39
906.924	7676.25
907.237	7598.06
907.551	7626.76
907.864	7570.49
908.177	7631.06
908.491	7587.44
908.804	7485.07
909.117	7459.99
909.43	7455.24
909.743	7364.85
910.056	7358.97
910.368	7375.47
910.681	7313.78
910.994	7268.13
911.307	7286.21
911.619	7172.31
911.932	7183.16
912.244	7116.49
912.557	7116.95
912.869	7058.64
913.181	7080.34
913.494	6972.32
913.806	7020
914.118	6950.62
914.43	6946.33
914.742	6918.08
915.054	6841.7
915.366	6861.59
915.678	6868.36
915.99	6848.7
916.302	6761.93
916.613	6780.68
916.925	6729.84
917.236	6683.74
917.548	6692.1
917.859	6656.39
918.171	6581.14
918.482	6664.53
918.794	6558.32
919.105	6519.22
919.416	6449.17
919.727	6512.89
920.038	6433.12
920.349	6432.22
920.66	6394.48
920.971	6405.55
921.282	6355.16
921.593	6350.64
921.903	6260.47
922.214	6220.47
922.525	6293.92
922.835	6215.05
923.146	6143.64
923.456	6174.6
923.767	6130.76
924.077	6143.86
924.387	6125.79
924.697	6086.69
925.008	6048.5
925.318	6069.74
925.628	5975.73
925.938	5992
926.248	5929.86
926.558	5977.31
926.867	5862.97
927.177	5873.36
927.487	5888.96
927.796	5838.34
928.106	5843.98
928.416	5766.47
928.725	5731.22
929.034	5673.37
929.344	5734.16
929.653	5693.93
929.962	5675.18
930.271	5632.24
930.581	5582.75
930.89	5603.54
931.199	5543.65
931.508	5522.64
931.817	5491.68
932.125	5514.73
932.434	5462.98
932.743	5439.7
933.051	5411.91
933.36	5358.57
933.669	5320.61
933.977	5323.55
934.286	5296.65
934.594	5245.58
934.902	5236.32
935.21	5235.87
935.519	5201.97
935.827	5212.59
936.135	5156.09
936.443	5130.78
936.751	5090.78
937.059	5117.68
937.367	5010.33
937.674	5071.12
937.982	5072.71
938.29	5034.29
938.597	4973.5
938.905	4918.59
939.213	4914.07
939.52	4882.43
939.827	4918.36
940.135	4852.6
940.442	4873.16
940.749	4878.59
941.056	4864.35
941.363	4785.26
941.67	4766.27
941.977	4724.01
942.284	4744.35
942.591	4758.36
942.898	4723.11
943.205	4706.39
943.511	4679.72
943.818	4653.28
944.125	4599.72
944.431	4599.27
944.738	4616.45
945.044	4564.7
945.35	4538.48
945.657	4566.96
945.963	4540.74
946.269	4488.99
946.575	4517.01
946.881	4417.81
947.187	4418.03
947.493	4461.65
947.799	4390.24
948.105	4375.55
948.41	4354.31
948.716	4347.07
949.022	4358.83
949.327	4324.48
949.633	4288.55
949.938	4300.3
950.244	4265.5
950.549	4277.02
950.854	4197.25
951.16	4187.31
951.465	4183.01
951.77	4164.03
952.075	4118.83
952.38	4084.03
952.685	4132.17
952.99	4073.64
953.294	4108.44
953.599	4080.19
953.904	4041.77
954.209	4002.68
954.513	3962.23
954.818	3950.93
955.122	3959.74
955.426	3963.81
955.731	3924.71
956.035	3902.11
956.339	3881.1
956.643	3877.03
956.948	3891.49
957.252	3839.97
957.556	3809.01
957.86	3783.25
958.163	3780.08
958.467	3775.34
958.771	3769.91
959.075	3761.1
959.378	3711.61
959.682	3728.56
959.985	3688.34
960.289	3688.34
960.592	3646.53
960.896	3652.18
961.199	3650.37
961.502	3629.58
961.805	3628.22
962.108	3558.85
962.411	3534.67
962.714	3565.17
963.017	3528.79
963.32	3557.94
963.623	3494.67
963.926	3519.3
964.228	3506.87
964.531	3485.63
964.833	3493.31
965.136	3392.98
965.438	3406.99
965.741	3422.13
966.043	3363.37
966.345	3368.57
966.648	3386.42
966.95	3350.04
967.252	3326.08
967.554	3313.66
967.856	3305.07
968.158	3267.33
968.46	3275.69
968.761	3273.66
969.063	3276.14
969.365	3257.84
969.666	3263.71
969.968	3198.18
970.269	3176.71
970.571	3158.18
970.872	3184.39
971.174	3194.79
971.475	3137.16
971.776	3116.6
972.077	3112.08
972.378	3116.82
972.679	3074.34
972.98	3092.64
973.281	3090.84
973.582	3059.43
973.883	3027.56
974.183	3006.77
974.484	3017.84
974.785	2943.04
975.085	3005.42
975.386	2978.07
975.686	2949.6
975.986	2906.66
976.287	2940.78
976.587	2876.83
976.887	2887.68
977.187	2898.98
977.487	2856.49
977.787	2867.57
978.087	2845.65
978.387	2832.31
978.687	2816.49
978.987	2805.65
979.286	2771.98
979.586	2798.87
979.885	2722.26
980.185	2734.24
980.484	2737.85
980.784	2750.05
981.083	2725.65
981.382	2715.71
981.682	2703.95
981.981	2681.81
982.28	2661.7
982.579	2661.24
982.878	2630.51
983.177	2626.22
983.475	2661.47
983.774	2630.51
984.073	2606.33
984.372	2596.16
984.67	2617.18
984.969	2581.25
985.267	2579.21
985.566	2557.74
985.864	2538.31
986.162	2524.98
986.461	2516.61
986.759	2508.93
987.057	2484.75
987.355	2473.23
987.653	2466.67
987.951	2468.48
988.249	2469.84
988.547	2441.81
988.844	2433
989.142	2410.85
989.44	2377.86
989.737	2398.2
990.035	2385.09
990.332	2346.45
990.63	2355.94
990.927	2338.54
991.224	2303.74
991.521	2342.61
991.819	2294.25
992.116	2306
992.413	2291.31
992.71	2295.38
993.006	2291.76
993.303	2272.78
993.6	2245.66
993.897	2251.08
994.193	2272.55
994.49	2237.98
994.787	2222.84
995.083	2221.71
995.379	2215.15
995.676	2185.78
995.972	2175.38
996.268	2171.09
996.565	2156.17
996.861	2133.8
997.157	2117.98
997.453	2140.81
997.749	2069.62
998.044	2068.26
998.34	2102.39
998.636	2107.36
998.932	2065.1
999.227	2044.31
999.523	2056.51
999.818	2045.89
1000.114	2010.19
1000.409	2029.62
1000.704	1980.13
1001	1977.65
1001.295	1969.74
1001.59	1980.58
1001.885	1976.06
1002.18	1946.46
1002.475	1929.51
1002.77	1948.95
1003.065	1922.73
1003.359	1904.43
1003.654	1905.11
1003.949	1884.99
1004.243	1875.5
1004.538	1862.85
1004.832	1853.36
1005.127	1865.33
1005.421	1838.44
1005.715	1835.5
1006.009	1838.67
1006.304	1803.86
1006.598	1791.21
1006.892	1800.7
1007.186	1778.55
1007.48	1754.83
1007.773	1773.13
1008.067	1738.56
1008.361	1718.9
1008.655	1747.37
1008.948	1727.26
1009.242	1713.7
1009.535	1667.82
1009.829	1673.7
1010.122	1669.41
1010.415	1685
1010.708	1634.15
1011.001	1656.07
1011.295	1652.68
1011.588	1639.35
1011.881	1637.77
1012.173	1625.34
1012.466	1594.83
1012.759	1616.3
1013.052	1601.16
1013.344	1587.6
1013.637	1556.87
1013.93	1564.32
1014.222	1574.49
1014.514	1566.13
1014.807	1532.69
1015.099	1522.97
1015.391	1513.48
1015.683	1522.74
1015.976	1508.51
1016.268	1492.46
1016.56	1475.51
1016.851	1467.83
1017.143	1473.48
1017.435	1440.48
1017.727	1428.73
1018.018	1414.27
1018.31	1435.97
1018.602	1436.42
1018.893	1422.86
1019.185	1403.88
1019.476	1393.48
1019.767	1399.13
1020.058	1385.34
1020.35	1365.91
1020.641	1357.55
1020.932	1345.57
1021.223	1337.21
1021.514	1333.14
1021.804	1334.72
1022.095	1334.05
1022.386	1330.43
1022.677	1301.73
1022.967	1272.81
1023.258	1279.36
1023.548	1283.43
1023.839	1252.02
1024.129	1263.31
1024.419	1255.4
1024.709	1257.66
1025	1255.86
1025.29	1247.27
1025.58	1229.19
1025.87	1196.65
1026.16	1198.23
1026.449	1211.11
1026.739	1200.27
1027.029	1193.49
1027.319	1173.15
1027.608	1186.48
1027.898	1173.15
1028.187	1155.07
1028.477	1146.48
1028.766	1116.2
1029.055	1151
1029.344	1109.65
1029.634	1115.75
1029.923	1121.85
1030.212	1110.32
1030.501	1082.08
1030.79	1079.59
1031.078	1089.31
1031.367	1081.62
1031.656	1085.92
1031.945	1066.48
1032.233	1063.77
1032.522	1074.84
1032.81	1014.96
1033.099	1025.35
1033.387	1038.69
1033.675	1029.87
1033.963	1033.72
1034.251	1025.35
1034.54	980.16
1034.828	995.3
1035.116	981.06
1035.403	1012.25
1035.691	1000.72
1035.979	966.15
1036.267	944.23
1036.554	954.17
1036.842	972.7
1037.129	932.93
1037.417	951.91
1037.704	918.69
1037.992	944.9
1038.279	938.8
1038.566	909.43
1038.853	909.43
1039.14	909.43
