Data from hue_28_FLMS001491_00080.txt Node
Date: Tue Feb 07 17:17:48 GMT 2017
User: dcchb
Spectrometer: FLMS00149
Trigger mode: 0
Integration Time (sec): 2.000000E-2
Scans to average: 10
Electric dark correction enabled: true
Nonlinearity correction enabled: false
Boxcar width: 0
XAxis mode: Wavelengths
Number of Pixels in Spectrum: 2048
>>>>>Begin Spectral Data<<<<<
341.393	9.62
341.776	9.62
342.16	9.62
342.543	-53.43
342.927	-70.15
343.31	-74.45
343.693	-81.9
344.077	-51.85
344.46	-44.62
344.843	-62.02
345.226	-35.35
345.61	-14.34
345.993	-18.86
346.376	-11.62
346.759	-5.3
347.142	24.31
347.525	30.63
347.908	56.62
348.291	81.93
348.674	90.75
349.057	116.06
349.44	126.23
349.823	148.6
350.206	185.88
350.588	208.26
350.971	216.62
351.354	236.28
351.737	240.12
352.119	258.43
352.502	251.42
352.884	265.2
353.267	283.28
353.65	286.22
354.032	290.97
354.414	304.75
354.797	331.42
355.179	338.88
355.562	321.47
355.944	333.23
356.326	334.36
356.709	333.68
357.091	339.78
357.473	356.28
357.855	347.46
358.238	341.14
358.62	343.62
359.002	336.84
359.384	339.1
359.766	345.43
360.148	330.51
360.53	348.14
360.912	330.06
361.294	326.9
361.676	329.38
362.057	326.67
362.439	319.89
362.821	339.1
363.203	339.78
363.584	337.52
363.966	325.77
364.348	322.15
364.729	323.06
365.111	318.08
365.493	329.16
365.874	305.2
366.256	314.24
366.637	327.12
367.019	343.85
367.4	342.27
367.781	312.89
368.163	335.26
368.544	306.33
368.925	309.95
369.306	327.58
369.688	304.53
370.069	287.58
370.45	333.68
370.831	326.45
371.212	339.1
371.593	324.41
371.974	319.44
372.355	296.16
372.736	307.24
373.117	309.5
373.498	347.01
373.879	322.83
374.26	316.05
374.641	316.05
375.021	341.36
375.402	317.41
375.783	309.95
376.163	338.2
376.544	328.48
376.925	340.91
377.305	337.29
377.686	334.81
378.066	332.1
378.447	340.91
378.827	327.35
379.208	333.23
379.588	314.92
379.968	332.32
380.349	348.59
380.729	356.95
381.109	324.86
381.489	349.27
381.87	371.19
382.25	337.75
382.63	354.92
383.01	365.32
383.39	359.21
383.77	357.86
384.15	370.74
384.53	373.22
384.91	364.86
385.29	354.02
385.67	351.08
386.049	364.64
386.429	350.85
386.809	363.73
387.189	349.95
387.568	356.28
387.948	348.59
388.328	363.73
388.707	374.13
389.087	384.52
389.466	358.54
389.846	361.7
390.225	372.55
390.605	364.41
390.984	353.56
391.363	372.77
391.743	375.26
392.122	373
392.501	384.07
392.881	361.93
393.26	382.04
393.639	383.17
394.018	361.02
394.397	378.42
394.776	391.76
395.155	379.55
395.534	370.29
395.913	377.29
396.292	395.6
396.671	387.91
397.05	400.57
397.429	396.5
397.808	370.29
398.186	376.16
398.565	393.79
398.944	405.31
399.323	412.09
399.701	414.13
400.08	395.37
400.458	415.71
400.837	408.48
401.215	402.83
401.594	394.02
401.972	413.9
402.351	410.29
402.729	391.76
403.107	419.33
403.486	416.16
403.864	437.86
404.242	419.33
404.62	420
404.999	422.04
405.377	440.79
405.755	417.52
406.133	424.3
406.511	408.48
406.889	454.58
407.267	421.81
407.645	429.49
408.023	433.79
408.401	450.96
408.779	462.71
409.156	447.12
409.534	464.3
409.912	453.67
410.29	441.47
410.667	434.01
411.045	469.95
411.422	478.53
411.8	480.79
412.178	474.46
412.555	492.09
412.933	478.31
413.31	478.08
413.687	493.67
414.065	463.84
414.442	487.12
414.819	489.61
415.197	499.32
415.574	498.65
415.951	509.94
416.328	513.79
416.705	512.66
417.082	505.88
417.46	505.88
417.837	493.67
418.214	529.15
418.591	524.86
418.967	536.84
419.344	521.02
419.721	537.74
420.098	539.77
420.475	540.9
420.852	536.84
421.228	551.07
421.605	530.51
421.982	533.9
422.358	519.66
422.735	546.33
423.111	563.95
423.488	532.54
423.864	532.99
424.241	560.34
424.617	572.99
424.994	572.09
425.37	566.21
425.746	566.89
426.123	568.47
426.499	573.67
426.875	597.4
427.251	591.3
427.627	575.25
428.003	589.94
428.379	596.27
428.756	589.72
429.132	596.04
429.507	628.59
429.883	612.31
430.259	622.48
430.635	637.4
431.011	605.08
431.387	643.27
431.763	669.49
432.138	604.41
432.514	643.5
432.89	669.04
433.265	662.71
433.641	677.4
434.016	675.82
434.392	685.98
434.767	685.76
435.143	711.07
435.518	707
435.894	680.34
436.269	699.77
436.644	723.95
437.02	711.75
437.395	708.81
437.77	723.27
438.145	740.67
438.52	723.72
438.895	728.24
439.271	747.45
439.646	748.81
440.021	766.43
440.395	783.84
440.77	755.81
441.145	779.54
441.52	780.45
441.895	779.09
442.27	788.58
442.645	794.23
443.019	806.43
443.394	791.74
443.769	788.35
444.143	798.52
444.518	805.3
444.892	804.63
445.267	819.54
445.641	806.21
446.016	810.05
446.39	817.05
446.764	829.26
447.139	813.44
447.513	863.16
447.887	835.81
448.262	846.66
448.636	869.71
449.01	852.99
449.384	859.54
449.758	857.05
450.132	855.7
450.506	893.44
450.88	905.41
451.254	898.18
451.628	907
452.002	917.84
452.376	931.18
452.75	909.71
453.123	916.94
453.497	909.48
453.871	963.49
454.244	930.5
454.618	960.55
454.992	972.08
455.365	957.39
455.739	1001.46
456.112	992.64
456.486	982.25
456.859	1003.49
457.232	999.65
457.606	1021.12
457.979	1020.44
458.352	1042.59
458.725	1057.95
459.099	1072.42
459.472	1085.07
459.845	1112.64
460.218	1092.53
460.591	1103.15
460.964	1125.3
461.337	1156.93
461.71	1161.9
462.083	1169.59
462.456	1153.77
462.829	1173.66
463.201	1184.05
463.574	1179.76
463.947	1209.59
464.32	1239.42
464.692	1244.61
465.065	1263.37
465.438	1287.32
465.81	1311.51
466.183	1302.24
466.555	1342.24
466.928	1346.08
467.3	1341.79
467.672	1369.36
468.045	1386.53
468.417	1387.66
468.789	1381.11
469.161	1402.8
469.534	1451.39
469.906	1485.96
470.278	1457.04
470.65	1502.23
471.022	1541.1
471.394	1569.58
471.766	1559.41
472.138	1577.94
472.51	1603.25
472.882	1644.38
473.253	1649.58
473.625	1685.73
473.997	1719.63
474.369	1731.83
474.74	1758.72
475.112	1817.48
475.484	1836.46
475.855	1876.46
476.227	1909.68
476.598	1955.78
476.97	1944.71
477.341	2015.67
477.713	2057.7
478.084	2065.38
478.455	2124.14
478.827	2140.64
479.198	2189.67
479.569	2205.94
479.94	2280.29
480.311	2330.01
480.682	2354.42
481.053	2416.56
481.424	2438.48
481.795	2534.3
482.166	2569.1
482.537	2619.04
482.908	2666.27
483.279	2692.03
483.65	2747.17
484.021	2838.92
484.391	2883.44
484.762	2868.07
485.133	2985.13
485.503	2998.92
485.874	3085.7
486.244	3155.07
486.615	3181.74
486.985	3207.27
487.356	3328.63
487.726	3343.09
488.097	3423.54
488.467	3431
488.837	3482.52
489.207	3592.35
489.578	3696.98
489.948	3698.33
490.318	3746.47
490.688	3800.25
491.058	3889.52
491.428	3944.2
491.798	4008.61
492.168	4072.11
492.538	4083.64
492.908	4168.15
493.278	4189.85
493.648	4272.56
494.017	4317.75
494.387	4326.57
494.757	4411.31
495.126	4461.25
495.496	4496.05
495.866	4548.93
496.235	4566.79
496.605	4642.26
496.974	4702.38
497.344	4711.87
497.713	4791.87
498.082	4835.25
498.452	4891.98
498.821	4910.28
499.19	4956.61
499.559	4968.13
499.928	5055.59
500.298	5054.68
500.667	5133.1
501.036	5141.46
501.405	5222.14
501.774	5198.41
502.143	5268.92
502.512	5294
502.88	5357.05
503.249	5347.33
503.618	5414.45
503.987	5426.88
504.356	5479.76
504.724	5524.5
505.093	5485.18
505.462	5538.29
505.83	5583.48
506.199	5692.86
506.567	5673.65
506.936	5700.09
507.304	5824.61
507.672	5781.67
508.041	5773.99
508.409	5846.53
508.777	5891.72
509.145	5941.44
509.514	5939.41
509.882	6000.42
510.25	6031.38
510.618	5999.29
510.986	6154.77
511.354	6122
511.722	6149.57
512.09	6223.69
512.458	6141.21
512.826	6207.42
513.193	6245.16
513.561	6279.28
513.929	6343.01
514.297	6328.55
514.664	6405.83
515.032	6458.04
515.4	6515.66
515.767	6477.47
516.135	6481.76
516.502	6465.95
516.869	6527.87
517.237	6590.24
517.604	6583.91
517.972	6659.39
518.339	6672.27
518.706	6697.35
519.073	6752.04
519.44	6748.42
519.808	6806.28
520.175	6800.85
520.542	6870
520.909	6943
521.276	6918.82
521.643	6956.78
522.009	6963.79
522.376	7066.16
522.743	7021.19
523.11	7110.45
523.477	7171.69
523.843	7166.94
524.21	7271.8
524.577	7300.5
524.943	7344.11
525.31	7347.96
525.676	7432.47
526.043	7473.6
526.409	7463.43
526.776	7539.59
527.142	7585.69
527.508	7611.68
527.874	7667.95
528.241	7674.28
528.607	7733.48
528.973	7758.12
529.339	7770.54
529.705	7852.8
530.071	7946.36
530.437	7960.82
530.803	7984.55
531.169	8023.42
531.535	8029.75
531.901	8047.37
532.267	8043.98
532.632	8188.16
532.998	8175.51
533.364	8203.75
533.73	8246.92
534.095	8348.83
534.461	8392.67
534.826	8401.49
535.192	8429.51
535.557	8482.84
535.923	8519
536.288	8578.21
536.653	8619.56
537.019	8552.22
537.384	8642.84
537.749	8674.93
538.114	8713.12
538.479	8640.13
538.845	8783.62
539.21	8689.16
539.575	8841.48
539.94	8838.54
540.305	8830.63
540.67	8921.47
541.034	8905.2
541.399	8987.46
541.764	9011.64
542.129	9021.36
542.494	9049.61
542.858	9156.72
543.223	9140.23
543.587	9280.79
543.952	9244.86
544.316	9194.24
544.681	9264.52
545.045	9342.25
545.41	9377.28
545.774	9450.73
546.138	9400.33
546.503	9403.5
546.867	9536.6
547.231	9591.06
547.595	9530.72
547.959	9642.36
548.324	9610.95
548.688	9625.41
549.052	9671.29
549.416	9777.72
549.779	9687.56
550.143	9755.12
550.507	9779.31
550.871	9796.71
551.235	9842.81
551.599	9939.75
551.962	9957.15
552.326	9921.67
552.689	9998.28
553.053	10012.97
553.417	10057.49
553.78	10181.78
554.143	10102.91
554.507	10175
554.87	10209.8
555.234	10277.15
555.597	10209.12
555.96	10311.04
556.323	10383.81
556.686	10384.94
557.05	10361.66
557.413	10481.89
557.776	10422.45
558.139	10590.58
558.502	10600.98
558.865	10624.93
559.228	10603.01
559.59	10611.6
559.953	10636.01
560.316	10780.41
560.679	10715.33
561.041	10786.74
561.404	10916.45
561.767	10899.05
562.129	10880.52
562.492	10951.93
562.854	10974.53
563.217	10878.03
563.579	11028.54
563.941	11068.54
564.304	11142.21
564.666	11242.09
565.028	11135.43
565.39	11157.57
565.753	11306.27
566.115	11320.96
566.477	11360.73
566.839	11361.41
567.201	11471.01
567.563	11491.8
567.925	11570.9
568.287	11602.99
568.648	11660.39
569.01	11624.23
569.372	11728.41
569.734	11712.81
570.095	11786.03
570.457	11876.88
570.819	11953.03
571.18	11908.51
571.542	12070.32
571.903	12075.52
572.265	12083.88
572.626	12150.77
572.987	12204.33
573.349	12280.26
573.71	12325.45
574.071	12400.25
574.432	12464.88
574.794	12569.06
575.155	12600.25
575.516	12676.18
575.877	12743.75
576.238	12800.47
576.599	12940.58
576.96	12957.75
577.32	13073.68
577.681	13164.3
578.042	13337.4
578.403	13356.16
578.763	13527.46
579.124	13670.05
579.485	13765.41
579.845	13864.85
580.206	13982.81
580.566	14012.19
580.927	14191.17
581.287	14349.58
581.648	14502.34
582.008	14719.74
582.368	14879.28
582.728	14982.11
583.089	15115.21
583.449	15456.9
583.809	15449.66
584.169	15672.26
584.529	15777.57
584.889	16135.75
585.249	16190.89
585.609	16428.4
585.969	16656.64
586.329	16897.99
586.688	17122.84
587.048	17373.91
587.408	17502.49
587.768	17784.97
588.127	18065.87
588.487	18239.42
588.846	18594.21
589.206	18762.57
589.565	19044.6
589.925	19429.67
590.284	19598.93
590.643	19884.8
591.003	20135.42
591.362	20438.23
591.721	20814.5
592.08	21027.82
592.44	21371.77
592.799	21598.43
593.158	21887.91
593.517	22164.29
593.876	22462.36
594.235	22705.07
594.593	23016.47
594.952	23378.72
595.311	23545.72
595.67	23856.45
596.029	24283.1
596.387	24518.35
596.746	24811.68
597.104	25003.31
597.463	25373.47
597.822	25727.36
598.18	25818.66
598.538	26173.22
598.897	26554.46
599.255	26669.93
599.613	27277.83
599.972	27490.03
600.33	27871.48
600.688	28087.52
601.046	28410.45
601.404	28685.93
601.762	28864.45
602.12	29431.9
602.478	29575.85
602.836	29922.05
603.194	29798.89
603.552	30237.98
603.91	30387.8
604.268	30821.24
604.625	30951.18
604.983	31211.96
605.341	31319.76
605.698	31842.23
606.056	32021.66
606.413	32276.79
606.771	32501.19
607.128	32899.6
607.485	32823.44
607.843	33079.71
608.2	33446.03
608.557	33697.32
608.914	33768.28
609.272	34088.04
609.629	34289.17
609.986	34653.91
610.343	34655.71
610.7	35081.92
611.057	35240.1
611.414	35391.96
611.771	35544.5
612.127	35869.69
612.484	36035.11
612.841	36269.46
613.198	36302.68
613.554	36526.62
613.911	36839.38
614.267	36954.18
614.624	37079.15
614.98	37341.97
615.337	37560.72
615.693	37618.8
616.05	37725.01
616.406	38124.32
616.762	37996.42
617.118	38193.47
617.475	38359.8
617.831	38566.8
618.187	38650.18
618.543	38831.42
618.899	39101.7
619.255	38946.67
619.611	39185.54
619.967	39428.47
620.323	39596.15
620.678	39544.62
621.034	39465.98
621.39	39539.43
621.746	39806.76
622.101	40202.46
622.457	39989.58
622.812	40152.97
623.168	40350.03
623.523	40508.21
623.879	40658.04
624.234	40472.06
624.589	40639.51
624.945	40856.45
625.3	40915.89
625.655	40872.5
626.01	41066.17
626.365	41137.12
626.72	41103.23
627.075	41132.83
627.43	41125.83
627.785	41157.69
628.14	41380.96
628.495	41414.18
628.85	41372.82
629.205	41256.9
629.559	41371.02
629.914	41324.69
630.269	41433.39
630.623	41392.71
630.978	41415.08
631.332	41659.14
631.687	41809.2
632.041	41483.1
632.396	41754.06
632.75	41669.77
633.104	41738.46
633.459	41618.47
633.813	41728.52
634.167	41696.21
634.521	41720.16
634.875	41881.96
635.229	41728.52
635.583	41710.22
635.937	41639.94
636.291	41630.44
636.645	41851.46
636.999	41663.21
637.352	41890.1
637.706	41623.44
638.06	41795.19
638.413	41706.83
638.767	41657.56
639.121	41829.08
639.474	41599.03
639.828	41540.73
640.181	41586.6
640.534	41657.79
640.888	41446.04
641.241	41414.86
641.594	41548.19
641.947	41598.58
642.301	41610.56
642.654	41560.62
643.007	41529.88
643.36	41522.88
643.713	41547.06
644.066	41557.68
644.419	41456.66
644.771	41182.32
645.124	40759.28
645.477	40808.09
645.83	40621.66
646.182	40451.04
646.535	40343.47
646.888	40338.28
647.24	40263.93
647.593	40552.28
647.945	40431.61
648.298	40082.91
648.65	40147.77
649.002	40247.88
649.355	40220.99
649.707	40301.44
650.059	40397.48
650.411	40879.05
650.763	40818.71
651.115	41158.59
651.467	41109.33
651.819	41204.92
652.171	41005.6
652.523	40991.82
652.875	40939.16
653.227	40770.81
653.578	41113.62
653.93	40900.97
654.282	40797.02
654.633	40670.92
654.985	40843.57
655.337	40867.08
655.688	40981.65
656.039	40926.96
656.391	40811.94
656.742	40841.09
657.094	40856.45
657.445	40931.71
657.796	40884.25
658.147	40774.42
658.498	40917.02
658.849	40797.02
659.2	40845.15
659.551	40780.52
659.902	40786.85
660.253	40840.41
660.604	40833.18
660.955	40620.98
661.306	40830.69
661.656	40807.64
662.007	40750.92
662.358	40765.16
662.708	40722.45
663.059	40621.21
663.409	40459.18
663.76	40711.37
664.11	40763.12
664.461	40755.44
664.811	40694.42
665.161	40576.01
665.511	40607.42
665.862	40602.45
666.212	40684.26
666.562	40698.04
666.912	40638.61
667.262	40700.3
667.612	40673.86
667.962	40625.5
668.312	40660.75
668.662	40675.44
669.011	40690.58
669.361	40526.97
669.711	40556.8
670.06	40542.56
670.41	40456.01
670.76	40422.34
671.109	40495.56
671.459	40542.34
671.808	40622.11
672.157	40511.6
672.507	40252.18
672.856	40251.05
673.205	40330.37
673.554	40384.15
673.904	40323.59
674.253	40493.53
674.602	40129.47
674.951	39801.11
675.3	39572.87
675.649	40164.27
675.998	40245.85
676.346	40232.29
676.695	40286.3
677.044	39951.39
677.393	40128.79
677.741	40183.48
678.09	40011.05
678.438	40031.62
678.787	40068.45
679.135	40138.96
679.484	39862.36
679.832	40053.76
680.181	39714.11
680.529	39877.72
680.877	39807.22
681.225	39607.45
681.573	39858.51
681.922	39607.45
682.27	39550.73
682.618	39604.74
682.966	39406.77
683.314	39555.47
683.661	39510.73
684.009	39244.07
684.357	39249.49
684.705	39214.01
685.053	39271.18
685.4	39101.47
685.748	39023.51
686.095	39042.49
686.443	39063.05
686.79	38762.72
687.138	39018.76
687.485	38961.81
687.832	38707.13
688.18	38858.54
688.527	38625.55
688.874	38640.24
689.221	38473.69
689.568	38382.62
689.915	38271.21
690.262	38321.83
690.609	38186.47
690.956	37992.8
691.303	38046.81
691.65	37827.16
691.997	37862.86
692.344	37678.68
692.69	37684.79
693.037	37623.09
693.383	37315.3
693.73	37372.93
694.077	37259.94
694.423	37189.88
694.769	37236.21
695.116	37072.82
695.462	36974.3
695.808	36918.93
696.155	36881.19
696.501	36625.38
696.847	36643.23
697.193	36479.62
697.539	36534.76
697.885	36320.75
698.231	36188.78
698.577	36214.54
698.923	36203.47
699.269	35979.07
699.614	35813.87
699.96	35736.14
700.306	35853.42
700.651	35561.23
700.997	35536.14
701.342	35511.28
701.688	35506.99
702.033	35436.48
702.379	35309.93
702.724	35140.22
703.069	35255.92
703.415	34897.51
703.76	35005.08
704.105	35071.52
704.45	34809.38
704.795	34740
705.14	34637.86
705.485	34606.67
705.83	34455.27
706.175	34491.42
706.52	34330.98
706.865	34127.82
707.209	34195.39
707.554	34112.9
707.899	34098.89
708.243	33924.43
708.588	33912
708.932	33677.21
709.277	33698.45
709.621	33745.23
709.966	33477.66
710.31	33553.6
710.654	33348.4
710.998	33374.16
711.342	33382.53
711.687	33189.99
712.031	33052.14
712.375	33042.42
712.719	33085.36
713.063	32954.29
713.407	32965.36
713.75	32784.58
714.094	32869.09
714.438	32664.13
714.782	32688.76
715.125	32493.28
715.469	32603.34
715.812	32401.54
716.156	32284.02
716.499	32310.92
716.843	32263.91
717.186	32136.91
717.53	32333.29
717.873	32201.77
718.216	32135.55
718.559	32034.31
718.902	31772.4
719.246	31933.75
719.589	31725.85
719.932	31722.23
720.275	31653.08
720.617	31592.52
720.96	31599.3
721.303	31664.83
721.646	31598.84
721.989	31336.7
722.331	31498.73
722.674	31370.15
723.016	31572.18
723.359	31272.53
723.701	31309.36
724.044	31173.32
724.386	30971.06
724.729	31141
725.071	30963.38
725.413	30993.66
725.755	30917.96
726.097	30737.4
726.439	30641.81
726.782	30664.63
727.124	30816.04
727.465	30661.69
727.807	30597.51
728.149	30652.2
728.491	30584.41
728.833	30690.17
729.175	30374.24
729.516	30436.16
729.858	30342.38
730.199	30337.18
730.541	30318.65
730.882	30238.88
731.224	30421.47
731.565	30283.62
731.906	30226.9
732.248	30115.95
732.589	29930.64
732.93	29960.24
733.271	29923.86
733.612	29972.45
733.953	29956.4
734.294	29792.79
734.635	29734.71
734.976	29822.85
735.317	29634.15
735.658	29703.3
735.999	29632.57
736.339	29569.29
736.68	29713.47
737.021	29393.48
737.361	29363.42
737.702	29518.67
738.042	29350.54
738.383	29331.56
738.723	29443.87
739.063	29298.34
739.404	29261.73
739.744	29216.76
740.084	29055.86
740.424	28998.46
740.764	29044.11
741.104	29099.93
741.444	28892.93
741.784	28887.73
742.124	28916.65
742.464	28969.76
742.804	28875.53
743.143	28741.97
743.483	28695.64
743.823	28701.29
744.162	28569.32
744.502	28567.74
744.841	28469.89
745.181	28692.48
745.52	28570.45
745.86	28567.51
746.199	28439.61
746.538	28436.44
746.877	28443.22
747.216	28379.49
747.556	28355.54
747.895	28401.64
748.234	28261.3
748.573	28283.23
748.911	28171.14
749.25	28181.76
749.589	28032.38
749.928	27999.16
750.267	28015.89
750.605	27993.06
750.944	27894.08
751.283	27795.55
751.621	27775.89
751.96	27788.1
752.298	27704.03
752.636	27832.62
752.975	27489.35
753.313	27496.13
753.651	27654.99
753.989	27423.13
754.327	27403.93
754.666	27270.14
755.004	27280.09
755.342	27240.77
755.679	27262.69
756.017	27068.12
756.355	27240.77
756.693	27030.6
757.031	27106.98
757.368	26878.97
757.706	26892.3
758.044	26775.69
758.381	26858.63
758.719	26723.04
759.056	26771.85
759.394	26559.43
759.731	26459.09
760.068	26461.35
760.405	26235.14
760.743	26180
761.08	26186.78
761.417	26188.37
761.754	26137.07
762.091	26126.9
762.428	25933.91
762.765	25866.34
763.102	25914.93
763.438	25759.22
763.775	25687.36
764.112	25673.12
764.449	25634.03
764.785	25479.68
765.122	25250.76
765.458	25279.24
765.795	25175.28
766.131	25244.66
766.467	25109.07
766.804	24990.88
767.14	24952.92
767.476	24825.92
767.812	24857.33
768.148	24801.28
768.485	24598.35
768.821	24479.94
769.157	24511.35
769.492	24434.29
769.828	24239.72
770.164	24144.8
770.5	24056.22
770.836	23970.57
771.171	23950.46
771.507	23982.55
771.842	23694.19
772.178	23675.89
772.513	23616.23
772.849	23441.54
773.184	23491.49
773.519	23440.87
773.855	23320.19
774.19	23239.52
774.525	23111.84
774.86	23082.46
775.195	23074.32
775.53	22989.35
775.865	22919.75
776.2	22620.32
776.535	22597.05
776.87	22569.7
777.205	22421.68
777.539	22314.34
777.874	22369.71
778.209	22215.59
778.543	22110.96
778.878	22021.92
779.212	21961.58
779.547	21988.7
779.881	21902.38
780.215	21760.68
780.55	21828.93
780.884	21684.3
781.218	21663.29
781.552	21584.19
781.886	21396.85
782.22	21373.8
782.554	21280.92
782.888	21089.52
783.222	21066.92
783.556	20922.51
783.889	20901.5
784.223	20727.72
784.557	20709.64
784.89	20765.68
785.224	20558.23
785.557	20561.17
785.891	20531.34
786.224	20313.27
786.558	20345.13
786.891	20136.09
787.224	20068.75
787.557	20056.55
787.891	20053.39
788.224	19995.99
788.557	19982.88
788.89	19899.26
789.223	19888.19
789.556	19747.86
789.888	19626.96
790.221	19588.99
790.554	19401.88
790.887	19394.19
791.219	19335.44
791.552	19322.56
791.884	19245.04
792.217	19136.8
792.549	19137.48
792.882	18937.03
793.214	18958.27
793.546	19008.67
793.879	18924.6
794.211	18689.81
794.543	18843.25
794.875	18729.13
795.207	18757.83
795.539	18675.57
795.871	18559.87
796.203	18359.64
796.535	18406.87
796.867	18283.26
797.198	18333.66
797.53	18240.33
797.862	18211.63
798.193	18193.77
798.525	18003.04
798.856	18058.86
799.188	17895.93
799.519	17808.47
799.85	17734.8
800.182	17706.78
800.513	17723.28
800.844	17500.91
801.175	17657.97
801.506	17609.83
801.837	17521.25
802.168	17480.35
802.499	17446.45
802.83	17360.35
803.161	17273.35
803.491	17204.87
803.822	17235.83
804.153	17104.54
804.483	16937.99
804.814	16931.66
805.145	16916.29
805.475	16944.31
805.805	16886.69
806.136	16912.45
806.466	16796.75
806.796	16815.5
807.126	16607.83
807.457	16607.6
807.787	16581.84
808.117	16453.03
808.447	16548.62
808.777	16476.76
809.107	16325.8
809.436	16361.5
809.766	16343.2
810.096	16283.77
810.426	16192.47
810.755	16255.97
811.085	16149.31
811.414	16117.67
811.744	16088.74
812.073	15960.61
812.403	16009.2
812.732	15885.13
813.061	15904.34
813.39	15865.47
813.719	15750.22
814.049	15794.06
814.378	15747.28
814.707	15648.53
815.036	15639.72
815.365	15611.02
815.693	15469.55
816.022	15470.91
816.351	15400.85
816.68	15356.33
817.008	15401.3
817.337	15223
817.665	15096.91
817.994	15283.12
818.322	15213.29
818.651	15124.7
818.979	15056.23
819.307	15055.1
819.636	15040.41
819.964	14985.04
820.292	15036.12
820.62	15010.13
820.948	14992.73
821.276	15015.1
821.604	14937.59
821.932	14995.21
822.259	14912.28
822.587	14811.94
822.915	14949.11
823.243	14918.6
823.57	14870.47
823.898	14826.4
824.225	14790.47
824.553	14806.52
824.88	14894.42
825.207	14883.8
825.535	14817.82
825.862	14849.91
826.189	14811.72
826.516	14880.87
826.843	14959.73
827.17	14820.53
827.497	14877.7
827.824	14908.44
828.151	14930.58
828.478	14855.78
828.805	14884.71
829.131	14812.84
829.458	14803.81
829.785	14685.16
830.111	14751.6
830.438	14837.03
830.764	14814.65
831.09	14849.45
831.417	14790.25
831.743	14779.85
832.069	14783.92
832.395	14694.88
832.722	14770.13
833.048	14766.29
833.374	14721.1
833.7	14671.38
834.026	14699.63
834.351	14792.05
834.677	14667.99
835.003	14681.77
835.329	14689.46
835.654	14629.8
835.98	14527.65
836.306	14564.72
836.631	14534.21
836.956	14595
837.282	14545.28
837.607	14433.19
837.932	14481.55
838.258	14520.42
838.583	14430.93
838.908	14356.59
839.233	14423.48
839.558	14258.51
839.883	14256.48
840.208	14286.53
840.533	14177.61
840.858	14272.75
841.182	14255.57
841.507	14252.18
841.832	14161.11
842.156	14082.02
842.481	14138.29
842.805	14108.23
843.13	13990.04
843.454	14014.45
843.778	14042.24
844.103	13927.22
844.427	13871.17
844.751	13944.62
845.075	13788.01
845.399	13856.26
845.723	13776.71
846.047	13714.12
846.371	13649.94
846.695	13614.68
847.019	13520.68
847.343	13490.62
847.666	13397.97
847.99	13307.12
848.313	13374.24
848.637	13254.24
848.96	13287.69
849.284	13217.18
849.607	13145.77
849.931	13143.06
850.254	13039.78
850.577	12912.56
850.9	12840.24
851.223	12858.77
851.546	12756.63
851.869	12699.68
852.192	12705.56
852.515	12615.16
852.838	12542.17
853.161	12529.52
853.483	12469.4
853.806	12460.36
854.129	12405.45
854.451	12352.34
854.774	12354.6
855.096	12337.88
855.419	12300.82
855.741	12252.69
856.063	12116.64
856.385	12099.24
856.708	12034.39
857.03	11992.81
857.352	12086.59
857.674	11970.21
857.996	11924.11
858.318	11907.61
858.64	11886.14
858.961	11801.62
859.283	11838.69
859.605	11699.48
859.926	11845.24
860.248	11703.77
860.57	11678.46
860.891	11712.59
861.212	11706.03
861.534	11560.73
861.855	11559.82
862.176	11593.95
862.498	11617.67
862.819	11588.52
863.14	11561.86
863.461	11506.49
863.782	11490.67
864.103	11454.52
864.424	11392.6
864.745	11437.79
865.065	11268.31
865.386	11287.29
865.707	11300.39
866.027	11304.91
866.348	11268.53
866.668	11251.13
866.989	11232.83
867.309	11259.49
867.63	11208.42
867.95	11181.3
868.27	11134.52
868.59	11127.97
868.91	11143.56
869.23	11075.32
869.55	11024.24
869.87	11088.2
870.19	11025.15
870.51	11049.1
870.83	11037.58
871.15	10967.97
871.469	11002.1
871.789	11020.63
872.109	10979.5
872.428	10889.11
872.748	10830.35
873.067	10894.08
873.386	10917.35
873.706	10788.32
874.025	10794.42
874.344	10781.09
874.663	10813.85
874.982	10760.3
875.301	10718.94
875.62	10687.98
875.939	10653.41
876.258	10714.2
876.577	10699.05
876.896	10575.67
877.214	10661.32
877.533	10611.15
877.852	10599.85
878.17	10618.15
878.489	10514.43
878.807	10623.58
879.125	10510.13
879.444	10507.65
879.762	10527.08
880.08	10472.85
880.398	10476.69
880.716	10405.96
881.034	10416.58
881.352	10504.26
881.67	10356.01
881.988	10336.58
882.306	10373.64
882.624	10327.09
882.941	10252.51
883.259	10215.45
883.577	10179.29
883.894	10193.53
884.212	10203.47
884.529	10185.17
884.846	10243.02
885.164	10135.45
885.481	10086.42
885.798	10040.54
886.115	9951.28
886.432	9989.24
886.75	9985.85
887.067	9864.73
887.383	9953.76
887.7	9880.32
888.017	9900.88
888.334	9867.21
888.651	9891.84
888.967	9856.82
889.284	9774.56
889.6	9756.93
889.917	9710.83
890.233	9700.44
890.55	9638.07
890.866	9699.76
891.182	9666.77
891.498	9595.58
891.815	9538.86
892.131	9489.6
892.447	9521.23
892.763	9475.36
893.079	9456.6
893.395	9341.12
893.71	9374.12
894.026	9378.41
894.342	9338.64
894.657	9243.73
894.973	9301.35
895.289	9281.69
895.604	9275.82
895.92	9184.52
896.235	9123.73
896.55	9183.61
896.865	9145.42
897.181	9156.27
897.496	9090.74
897.811	9041.25
898.126	9017.29
898.441	8932.55
898.756	8960.57
899.071	8936.62
899.386	8864.98
899.7	8809.39
900.015	8814.13
900.33	8674.25
900.644	8713.34
900.959	8747.69
901.273	8744.76
901.588	8593.35
901.902	8608.26
902.216	8620.69
902.531	8577.75
902.845	8497.08
903.159	8470.41
903.473	8465.22
903.787	8347.48
904.101	8431.77
904.415	8369.17
904.729	8368.72
905.042	8303.64
905.356	8298.44
905.67	8295.95
905.984	8315.84
906.297	8173.92
906.611	8108.84
906.924	8167.37
907.237	8077.88
907.551	8080.37
907.864	8014.61
908.177	8018.22
908.491	7969.64
908.804	7948.84
909.117	7919.47
909.43	7835.85
909.743	7854.61
910.056	7820.94
910.368	7827.04
910.681	7699.13
910.994	7738.68
911.307	7665.46
911.619	7694.16
911.932	7692.58
912.244	7551.12
912.557	7567.61
912.869	7532.81
913.181	7492.81
913.494	7434.28
913.806	7385.24
914.118	7420.05
914.43	7344.34
914.742	7322.19
915.054	7328.52
915.366	7305.02
915.678	7263.21
915.99	7236.55
916.302	7224.12
916.613	7147.96
916.925	7123.33
917.236	7140.28
917.548	7087.17
917.859	7012.6
918.171	6973.5
918.482	6976.44
918.794	6888.76
919.105	6910.91
919.416	6885.14
919.727	6844.24
920.038	6845.82
920.349	6797.01
920.66	6748.88
920.971	6771.7
921.282	6763.11
921.593	6709.1
921.903	6659.39
922.214	6686.28
922.525	6591.59
922.835	6546.4
923.146	6528.09
923.456	6489.67
923.767	6481.31
924.077	6453.29
924.387	6428.88
924.697	6418.72
925.008	6380.75
925.318	6402.9
925.628	6359.06
925.938	6316.8
926.248	6248.78
926.558	6224.6
926.867	6229.34
927.177	6238.83
927.487	6147.08
927.796	6157.48
928.106	6091.49
928.416	6104.15
928.725	6131.94
929.034	6062.57
929.344	6068.89
929.653	5973.98
929.962	5934.21
930.271	5941.21
930.581	5894.89
930.89	5893.31
931.199	5810.6
931.508	5851.72
931.817	5833.19
932.125	5819.18
932.434	5807.21
932.743	5693.54
933.051	5703.71
933.36	5678.62
933.669	5619.87
933.977	5606.99
934.286	5638.4
934.594	5603.82
934.902	5558.17
935.21	5539.19
935.519	5487.89
935.827	5503.49
936.135	5445.63
936.443	5426.88
936.751	5412.19
937.059	5453.54
937.367	5397.73
937.674	5344.62
937.982	5364.73
938.29	5327.44
938.597	5280.67
938.905	5235.47
939.213	5291.29
939.52	5209.26
939.827	5215.36
940.135	5185.53
940.442	5191.63
940.749	5114.34
941.056	5131.52
941.363	5091.07
941.67	5062.37
941.977	5055.81
942.284	4988.02
942.591	5017.62
942.898	4985.08
943.205	4951.18
943.511	4927.68
943.818	4916.16
944.125	4878.19
944.431	4883.16
944.738	4883.16
945.044	4871.86
945.35	4807.23
945.657	4742.83
945.963	4783.96
946.269	4750.06
946.575	4758.87
946.881	4642.94
947.187	4768.59
947.493	4599.78
947.799	4671.64
948.105	4621.93
948.41	4631.19
948.716	4569.5
949.022	4577.86
949.327	4554.81
949.633	4508.03
949.938	4537.41
950.244	4541.7
950.549	4462.38
950.854	4447.02
951.16	4461.93
951.465	4416.06
951.77	4394.36
952.075	4391.65
952.38	4375.15
952.685	4377.41
952.99	4288.83
953.294	4330.86
953.599	4299
953.904	4251.09
954.209	4216.29
954.513	4215.61
954.818	4193.92
955.122	4202.95
955.426	4202.28
955.731	4189.85
956.035	4090.64
956.339	4064.88
956.643	4075.95
956.948	4068.49
957.252	4071.66
957.556	4068.95
957.86	4010.87
958.163	4027.59
958.467	4010.42
958.771	3972.45
959.075	3944.88
959.378	3955.28
959.682	3926.8
959.985	3899.46
960.289	3908.72
960.592	3882.06
960.896	3841.83
961.199	3841.38
961.502	3827.37
961.805	3797.09
962.108	3775.85
962.411	3750.76
962.714	3736.98
963.017	3727.71
963.32	3764.77
963.623	3721.84
963.926	3680.26
964.228	3685
964.531	3651.1
964.833	3665.57
965.136	3617.21
965.438	3598
965.741	3614.27
966.043	3606.13
966.345	3560.03
966.648	3579.69
966.95	3528.85
967.252	3518.45
967.554	3508.74
967.856	3476.42
968.158	3485.91
968.46	3464.22
968.761	3452.47
969.063	3420.15
969.365	3451.56
969.666	3423.77
969.968	3378.8
970.269	3332.47
970.571	3350.32
970.872	3346.93
971.174	3356.88
971.475	3297.22
971.776	3301.06
972.077	3265.13
972.378	3280.49
972.679	3250.66
972.98	3258.12
973.281	3225.81
973.582	3219.7
973.883	3199.37
974.183	3160.04
974.484	3175.86
974.785	3145.58
975.085	3167.5
975.386	3094.06
975.686	3088.86
975.986	3112.59
976.287	3083.89
976.587	3096.99
976.887	3056.32
977.187	3060.84
977.487	3021.52
977.787	2995.98
978.087	2983.55
978.387	3021.06
978.687	2975.19
978.987	2986.49
979.286	2953.72
979.586	2949.2
979.885	2930.45
980.185	2940.16
980.484	2895.19
980.784	2876.89
981.083	2906.04
981.382	2880.73
981.682	2851.58
981.981	2809.32
982.28	2832.6
982.579	2814.06
982.878	2808.64
983.177	2787.17
983.475	2772.48
983.774	2776.33
984.073	2761.86
984.372	2743.56
984.67	2726.61
984.969	2702.65
985.267	2714.86
985.566	2726.38
985.864	2709.89
986.162	2659.49
986.461	2687.29
986.759	2633.05
987.057	2621.98
987.355	2598.02
987.653	2627.85
987.951	2596.89
988.249	2580.17
988.547	2555.31
988.844	2583.11
989.142	2534.52
989.44	2545.14
989.737	2499.5
990.035	2490.68
990.332	2498.14
990.63	2507.86
990.927	2496.56
991.224	2462.66
991.521	2477.12
991.819	2453.4
992.116	2441.64
992.413	2430.12
992.71	2403.68
993.006	2383.34
993.303	2389.89
993.6	2371.82
993.897	2412.72
994.193	2403.23
994.49	2309.22
994.787	2319.61
995.083	2343.57
995.379	2305.15
995.676	2320.29
995.972	2302.44
996.268	2252.5
996.565	2262.89
996.861	2268.77
997.157	2250.46
997.453	2220.41
997.749	2242.78
998.044	2206.4
998.34	2182.67
998.636	2211.14
998.932	2168.88
999.227	2169.79
999.523	2163.91
999.818	2150.81
1000.114	2143.35
1000.409	2120.07
1000.704	2133.4
1001	2106.74
1001.295	2120.07
1001.59	2088.43
1001.885	2077.13
1002.18	2060.19
1002.475	2060.86
1002.77	2008.66
1003.065	2030.58
1003.359	2031.71
1003.654	2013.18
1003.949	1998.94
1004.243	1981.54
1004.538	1969.34
1004.832	1969.34
1005.127	1938.38
1005.421	1937.03
1005.715	1969.34
1006.009	1919.17
1006.304	1895.44
1006.598	1889.34
1006.892	1895.9
1007.186	1871.26
1007.48	1849.8
1007.773	1830.36
1008.067	1859.97
1008.361	1851.83
1008.655	1813.86
1008.948	1786.07
1009.242	1807.54
1009.535	1803.47
1009.829	1776.8
1010.122	1776.58
1010.415	1777.03
1010.708	1764.37
1011.001	1740.42
1011.295	1742
1011.588	1738.84
1011.881	1723.47
1012.173	1717.82
1012.466	1671.04
1012.759	1684.83
1013.052	1681.66
1013.344	1676.02
1013.637	1687.77
1013.93	1629.46
1014.222	1665.39
1014.514	1650.03
1014.807	1627.2
1015.099	1605.96
1015.391	1591.95
1015.683	1572.29
1015.976	1575
1016.268	1572.52
1016.56	1543.59
1016.851	1572.52
1017.143	1534.55
1017.435	1543.36
1017.727	1539.07
1018.018	1531.39
1018.31	1485.29
1018.602	1525.51
1018.893	1485.96
1019.185	1504.27
1019.476	1473.76
1019.767	1431.73
1020.058	1455.91
1020.35	1426.53
1020.641	1425.17
1020.932	1431.95
1021.223	1448.9
1021.514	1373.65
1021.804	1414.33
1022.095	1397.6
1022.386	1347.44
1022.677	1344.05
1022.967	1374.55
1023.258	1355.57
1023.548	1349.02
1023.839	1335.23
1024.129	1320.09
1024.419	1348.11
1024.709	1291.39
1025	1288
1025.29	1280.55
1025.58	1283.48
1025.87	1283.71
1026.16	1244.16
1026.449	1259.08
1026.739	1249.36
1027.029	1238.96
1027.319	1246.87
1027.608	1233.09
1027.898	1230.6
1028.187	1236.48
1028.477	1208.68
1028.766	1216.14
1029.055	1182.92
1029.344	1161.9
1029.634	1179.53
1029.923	1161
1030.212	1163.71
1030.501	1168.01
1030.79	1168.23
1031.078	1142.02
1031.367	1100.89
1031.656	1127.33
1031.945	1109.7
1032.233	1116.93
1032.522	1092.08
1032.81	1081.91
1033.099	1095.92
1033.387	1067.67
1033.675	1073.32
1033.963	1081.45
1034.251	1076.26
1034.54	1055.24
1034.828	1040.78
1035.116	1038.52
1035.403	1038.74
1035.691	1040.1
1035.979	1015.02
1036.267	1002.59
1036.554	1016.82
1036.842	991.74
1037.129	989.25
1037.417	988.8
1037.704	984.06
1037.992	975.47
1038.279	963.27
1038.566	963.27
1038.853	963.27
1039.14	963.27
