Data from hue_220_FLMS001491_00087.txt Node
Date: Tue Feb 07 16:40:04 GMT 2017
User: dcchb
Spectrometer: FLMS00149
Trigger mode: 0
Integration Time (sec): 2.000000E-2
Scans to average: 10
Electric dark correction enabled: true
Nonlinearity correction enabled: false
Boxcar width: 0
XAxis mode: Wavelengths
Number of Pixels in Spectrum: 2048
>>>>>Begin Spectral Data<<<<<
341.393	-18.22
341.776	-18.22
342.16	-18.22
342.543	-53.47
342.927	-52.34
343.31	-52.57
343.693	-83.3
344.077	-73.13
344.46	-72.68
344.843	-37.43
345.226	-57.09
345.61	-19.35
345.993	-20.03
346.376	4.6
346.759	6.86
347.142	21.1
347.525	44.15
347.908	68.11
348.291	83.47
348.674	75.56
349.057	111.72
349.44	136.13
349.823	145.84
350.206	163.7
350.588	205.05
350.971	205.05
351.354	221.1
351.737	224.71
352.119	257.93
352.502	258.84
352.884	261.77
353.267	295.22
353.65	269.46
354.032	286.86
354.414	301.09
354.797	320.08
355.179	291.38
355.562	336.12
355.944	301.55
356.326	322.34
356.709	332.05
357.091	338.61
357.473	335.9
357.855	347.19
358.238	324.14
358.62	332.05
359.002	324.14
359.384	350.13
359.766	323.92
360.148	315.56
360.53	337.48
360.912	336.35
361.294	339.74
361.676	327.76
362.057	327.76
362.439	325.5
362.821	322.56
363.203	309.91
363.584	318.04
363.966	296.12
364.348	334.77
364.729	317.36
365.111	306.29
365.493	319.85
365.874	323.92
366.256	312.84
366.637	324.82
367.019	301.55
367.4	322.11
367.781	309.68
368.163	314.88
368.544	305.39
368.925	321.66
369.306	309.23
369.688	305.16
370.069	308.78
370.45	319.4
370.831	306.07
371.212	335.9
371.593	300.64
371.974	303.35
372.355	296.57
372.736	304.48
373.117	295.67
373.498	317.36
373.879	305.84
374.26	297.03
374.641	300.19
375.021	321.66
375.402	298.83
375.783	315.56
376.163	314.2
376.544	323.69
376.925	317.59
377.305	317.82
377.686	316.91
378.066	314.2
378.447	322.79
378.827	312.84
379.208	339.28
379.588	332.05
379.968	313.75
380.349	347.42
380.729	326.18
381.109	349.45
381.489	325.27
381.87	331.6
382.25	314.88
382.63	326.18
383.01	349.23
383.39	340.64
383.77	333.86
384.15	334.31
384.53	342.22
384.91	338.83
385.29	347.65
385.67	340.19
386.049	324.82
386.429	349.91
386.809	346.06
387.189	352.39
387.568	350.81
387.948	334.54
388.328	335.22
388.707	359.62
389.087	352.84
389.466	356.46
389.846	368.66
390.225	353.3
390.605	362.56
390.984	351.49
391.363	370.02
391.743	364.14
392.122	369.11
392.501	377.7
392.881	376.57
393.26	377.7
393.639	385.61
394.018	370.24
394.397	368.66
394.776	386.29
395.155	383.13
395.534	360.53
395.913	364.59
396.292	367.53
396.671	376.35
397.05	383.8
397.429	379.74
397.808	379.06
398.186	378.15
398.565	398.04
398.944	423.58
399.323	387.19
399.701	405.72
400.08	416.8
400.458	395.78
400.837	420.19
401.215	382.45
401.594	411.15
401.972	429.9
402.351	405.27
402.729	433.29
403.107	400.53
403.486	437.14
403.864	420.19
404.242	428.77
404.62	447.53
404.999	458.6
405.377	421.77
405.755	436.01
406.133	436.91
406.511	447.53
406.889	475.1
407.267	483.69
407.645	454.08
408.023	472.16
408.401	465.84
408.779	478.04
409.156	488.89
409.534	488.89
409.912	498.83
410.29	506.74
410.667	504.93
411.045	520.98
411.422	537.7
411.8	540.18
412.178	544.93
412.555	543.35
412.933	544.93
413.31	554.42
413.687	602.1
414.065	560.97
414.442	607.3
414.819	594.65
415.197	597.58
415.574	637.81
415.951	625.15
416.328	635.55
416.705	610.24
417.082	644.81
417.46	650.69
417.837	657.47
418.214	680.52
418.591	676.68
418.967	671.71
419.344	713.96
419.721	686.62
420.098	708.99
420.475	715.32
420.852	736.79
421.228	714.64
421.605	729.33
421.982	732.04
422.358	790.57
422.735	787.18
423.111	828.09
423.488	805.26
423.864	808.65
424.241	856.56
424.617	873.06
424.994	868.54
425.37	878.25
425.746	880.51
426.123	876.9
426.499	926.84
426.875	904.92
427.251	955.09
427.627	962.09
428.003	960.74
428.379	965.03
428.756	975.65
429.132	1003.22
429.507	1020.62
429.883	1028.53
430.259	1030.57
430.635	1052.03
431.011	1029.44
431.387	1091.13
431.763	1080.28
432.138	1073.95
432.514	1122.99
432.89	1121.19
433.265	1150.79
433.641	1160.96
434.016	1183.78
434.392	1210
434.767	1224.46
435.143	1239.15
435.518	1288.86
435.894	1278.02
436.269	1327.51
436.644	1311.91
437.02	1324.57
437.395	1334.96
437.77	1400.5
438.145	1419.48
438.52	1422.42
438.895	1462.19
439.271	1471.46
439.646	1483.21
440.021	1501.06
440.395	1510.55
440.77	1509.65
441.145	1584.22
441.52	1602.53
441.895	1605.24
442.27	1611.34
442.645	1613.83
443.019	1642.08
443.394	1668.29
443.769	1673.26
444.143	1722.53
444.518	1708.06
444.892	1715.07
445.267	1713.26
445.641	1769.08
446.016	1762.98
446.39	1806.36
446.764	1791.22
447.139	1809.3
447.513	1792.35
447.887	1833.71
448.262	1832.13
448.636	1841.84
449.01	1856.31
449.384	1870.09
449.758	1868.96
450.132	1904.22
450.506	1938.34
450.88	1927.94
451.254	1929.53
451.628	1965.46
452.002	1983.31
452.376	2023.76
452.75	2038.68
453.123	2034.83
453.497	2061.95
453.871	2046.81
454.244	2115.06
454.618	2131.78
454.992	2180.14
455.365	2161.84
455.739	2198.67
456.112	2233.02
456.486	2245.9
456.859	2241.83
457.232	2286.35
457.606	2264.66
457.979	2323.41
458.352	2385.78
458.725	2367.25
459.099	2388.27
459.472	2412.45
459.845	2457.65
460.218	2493.13
460.591	2494.48
460.964	2516.4
461.337	2564.76
461.71	2633.69
462.083	2594.14
462.456	2672.56
462.829	2614.71
463.201	2681.37
463.574	2692.9
463.947	2722.5
464.32	2801.14
464.692	2781.25
465.065	2803.63
465.438	2857.18
465.81	2881.82
466.183	2923.4
466.555	3007.69
466.928	2983.28
467.3	2985.32
467.672	3018.54
468.045	3089.95
468.417	3111.19
468.789	3129.95
469.161	3180.34
469.534	3218.08
469.906	3232.32
470.278	3287
470.65	3320.22
471.022	3380.56
471.394	3451.97
471.766	3449.26
472.138	3510.95
472.51	3517.05
472.882	3618.07
473.253	3611.74
473.625	3682.47
473.997	3744.17
474.369	3754.79
474.74	3755.24
475.112	3860.77
475.484	3888.57
475.855	3941
476.227	3998.85
476.598	4090.37
476.97	4101.22
477.341	4223.48
477.713	4231.84
478.084	4255.34
478.455	4364.49
478.827	4355.45
479.198	4473.87
479.569	4507.31
479.94	4620.53
480.311	4629.57
480.682	4753.18
481.053	4814.87
481.424	4863.91
481.795	4896.45
482.166	4938.03
482.537	5026.85
482.908	5068.2
483.279	5156.33
483.65	5269.32
484.021	5349.77
484.391	5381.19
484.762	5386.61
485.133	5446.72
485.503	5484.46
485.874	5587.06
486.244	5664.79
486.615	5719.48
486.985	5786.6
487.356	5869.31
487.726	5916.99
488.097	5967.39
488.467	5999.02
488.837	6156.99
489.207	6180.49
489.578	6261.62
489.948	6341.39
490.318	6428.39
490.688	6340.26
491.058	6450.31
491.428	6521.27
491.798	6602.4
492.168	6711.09
492.538	6710.42
492.908	6724.88
493.278	6810.3
493.648	6832.9
494.017	6972.1
494.387	6967.13
494.757	7016.17
495.126	7071.54
495.496	7075.6
495.866	7147.69
496.235	7178.43
496.605	7206.9
496.974	7228.6
497.344	7288.93
497.713	7319.89
498.082	7338.42
498.452	7406.44
498.821	7441.92
499.19	7447.35
499.559	7484.18
499.928	7536.84
500.298	7589.72
500.667	7651.86
501.036	7608.7
501.405	7630.62
501.774	7649.83
502.143	7737.96
502.512	7719.88
502.88	7749.49
503.249	7776.38
503.618	7813.44
503.987	7836.04
504.356	7880.1
504.724	7851.18
505.093	7859.09
505.462	7944.73
505.83	7922.81
506.199	7987.45
506.567	8035.81
506.936	8015.92
507.304	8115.8
507.672	8103.6
508.041	8152.86
508.409	8151.96
508.777	8246.87
509.145	8236.48
509.514	8140.44
509.882	8269.7
510.25	8246.87
510.618	8230.83
510.986	8276.48
511.354	8316.48
511.722	8313.76
512.09	8358.28
512.458	8324.84
512.826	8355.57
513.193	8410.94
513.561	8396.93
513.929	8413.87
514.297	8462.46
514.664	8417.94
515.032	8451.61
515.4	8475.12
515.767	8537.49
516.135	8483.7
516.502	8471.05
516.869	8526.64
517.237	8537.49
517.604	8511.5
517.972	8502.46
518.339	8546.07
518.706	8590.37
519.073	8542.46
519.44	8611.61
519.808	8579.75
520.175	8562.8
520.542	8701.32
520.909	8704.04
521.276	8596.92
521.643	8652.96
522.009	8655
522.376	8677.14
522.743	8699.52
523.11	8725.28
523.477	8757.14
523.843	8787.65
524.21	8885.05
524.577	8772.06
524.943	8845.28
525.31	8790.14
525.676	8811.6
526.043	8849.12
526.409	8827.65
526.776	8828.78
527.142	8911.94
527.508	8836.69
527.874	8919.17
528.241	8888.66
528.607	8902.45
528.973	8950.13
529.339	8893.41
529.705	8851.6
530.071	8895.22
530.437	8900.64
530.803	8892.73
531.169	8883.02
531.535	8871.04
531.901	8850.7
532.267	8845.05
532.632	8828.55
532.998	8869.46
533.364	8875.11
533.73	8903.35
534.095	8870.81
534.461	8802.34
534.826	8867.87
535.192	8895.9
535.557	8881.89
535.923	8795.11
536.288	8803.92
536.653	8864.03
537.019	8737.48
537.384	8671.04
537.749	8742.91
538.114	8715.34
538.479	8717.37
538.845	8688.44
539.21	8664.94
539.575	8682.79
539.94	8639.18
540.305	8665.39
540.67	8612.97
541.034	8647.54
541.399	8589.69
541.764	8528.67
542.129	8551.95
542.494	8468.34
542.858	8546.3
543.223	8442.35
543.587	8570.03
543.952	8462.46
544.316	8485.74
544.681	8329.36
545.045	8400.32
545.41	8362.12
545.774	8300.66
546.138	8327.78
546.503	8312.63
546.867	8286.42
547.231	8319.87
547.595	8287.78
547.959	8296.59
548.324	8150.6
548.688	8228.12
549.052	8202.35
549.416	8205.97
549.779	8159.42
550.143	8138.18
550.507	8090.27
550.871	8063.38
551.235	8070.83
551.599	8096.82
551.962	8027.9
552.326	8019.53
552.689	7976.37
553.053	7956.94
553.417	7917.16
553.78	8069.03
554.143	7902.7
554.507	7963.27
554.87	7941.12
555.234	7976.37
555.597	7885.3
555.96	7913.55
556.323	7868.8
556.686	7866.32
557.05	7961.01
557.413	7892.76
557.776	7879.88
558.139	7864.06
558.502	7845.98
558.865	7777.06
559.228	7902.02
559.59	7869.26
559.953	7819.99
560.316	7894.11
560.679	7857.05
561.041	7937.73
561.404	7817.73
561.767	7855.02
562.129	7768.24
562.492	7859.09
562.854	7858.18
563.217	7873.1
563.579	7857.05
563.941	7942.25
564.304	7860.9
564.666	7924.17
565.028	7892.53
565.39	7861.8
565.753	7911.97
566.115	7890.5
566.477	7984.06
566.839	7992.64
567.201	7946.77
567.563	7894.57
567.925	8040.78
568.287	8034.22
568.648	8002.81
569.01	8058.18
569.372	8086.43
569.734	8044.62
570.095	8006.43
570.457	8095.69
570.819	8110.38
571.18	8052.08
571.542	8083.49
571.903	8106.76
572.265	8111.28
572.626	8149.93
572.987	8114
573.349	8124.39
573.71	8152.86
574.071	8168.46
574.432	8187.89
574.794	8251.17
575.155	8236.7
575.516	8193.99
575.877	8266.08
576.238	8295.46
576.599	8252.98
576.96	8276.93
577.32	8334.78
577.681	8343.37
578.042	8412.07
578.403	8359.19
578.763	8342.92
579.124	8332.3
579.485	8391.5
579.845	8468.79
580.206	8391.05
580.566	8485.51
580.927	8425.4
581.287	8480.09
581.648	8469.01
582.008	8542.68
582.368	8518.73
582.728	8504.72
583.089	8518.5
583.449	8562.12
583.809	8529.8
584.169	8574.1
584.529	8546.3
584.889	8621.55
585.249	8640.54
585.609	8588.11
585.969	8707.88
586.329	8623.36
586.688	8697.94
587.048	8642.12
587.408	8679.63
587.768	8690.03
588.127	8699.29
588.487	8691.61
588.846	8800.53
589.206	8716.92
589.565	8752.85
589.925	8791.72
590.284	8785.84
590.643	8750.82
591.003	8816.58
591.362	8859.74
591.721	8818.84
592.08	8817.25
592.44	8833.52
592.799	8876.46
593.158	8876.91
593.517	8903.35
593.876	8877.37
594.235	8852.96
594.593	8891.83
594.952	8919.62
595.311	8907.42
595.67	8885.27
596.029	8995.1
596.387	9035.78
596.746	8987.87
597.104	8924.37
597.463	8919.17
597.822	8975.67
598.18	8917.82
598.538	8944.48
598.897	9011.6
599.255	8970.24
599.613	9060.19
599.972	8948.1
600.33	9055.44
600.688	8952.17
601.046	9008.89
601.404	8995.1
601.762	8995.33
602.12	9041.88
602.478	9099.05
602.836	9062.9
603.194	9026.29
603.552	9054.31
603.91	9084.37
604.268	9103.8
604.625	9055.44
604.983	9052.5
605.341	9043.69
605.698	9070.81
606.056	9103.57
606.413	9069.45
606.771	9098.6
607.128	9120.07
607.485	9090.24
607.843	9096.34
608.2	9108.09
608.557	9173.85
608.914	9139.28
609.272	9184.93
609.629	9193.97
609.986	9196.45
610.343	9201.88
610.7	9249.11
611.057	9271.25
611.414	9227.19
611.771	9165.95
612.127	9234.64
612.484	9242.78
612.841	9191.26
613.198	9204.59
613.554	9265.6
613.911	9318.48
614.267	9340.18
614.624	9298.37
614.98	9265.83
615.337	9310.35
615.693	9322.1
616.05	9303.79
616.406	9367.3
616.762	9290.46
617.118	9339.27
617.475	9347.18
617.831	9315.09
618.187	9401.87
618.543	9381.31
618.899	9400.97
619.255	9368.65
619.611	9403.91
619.967	9434.19
620.323	9465.15
620.678	9426.5
621.034	9421.31
621.39	9359.39
621.746	9364.81
622.101	9492.94
622.457	9396.9
622.812	9412.72
623.168	9454.53
623.523	9377.47
623.879	9454.53
624.234	9391.25
624.589	9383.11
624.945	9460.17
625.3	9440.29
625.655	9414.53
626.01	9371.59
626.365	9405.04
626.72	9386.73
627.075	9439.84
627.43	9430.12
627.785	9415.88
628.14	9441.64
628.495	9402.1
628.85	9421.76
629.205	9378.14
629.559	9430.8
629.914	9378.82
630.269	9397.58
630.623	9329.33
630.978	9342.44
631.332	9407.52
631.687	9428.99
632.041	9336.56
632.396	9361.65
632.75	9290.69
633.104	9250.46
633.459	9240.07
633.813	9198.26
634.167	9245.72
634.521	9259.5
634.875	9321.2
635.229	9282.55
635.583	9198.94
635.937	9162.1
636.291	9173.85
636.645	9192.84
636.999	9144.25
637.352	9166.85
637.706	9166.17
638.06	9162.1
638.413	9086.4
638.767	9107.64
639.121	9108.32
639.474	9104.48
639.828	9129.56
640.181	9106.74
640.534	9035.55
640.888	9061.99
641.241	9002.56
641.594	9045.72
641.947	9021.77
642.301	8979.96
642.654	9088.89
643.007	9020.41
643.36	9040.98
643.713	8982.67
644.066	8934.09
644.419	9001.88
644.771	8932.73
645.124	8789.91
645.477	8837.14
645.83	8817.93
646.182	8793.75
646.535	8796.69
646.888	8739.06
647.24	8747.65
647.593	8779.97
647.945	8668.78
648.298	8705.84
648.65	8635.79
649.002	8638.05
649.355	8711.72
649.707	8731.83
650.059	8720.53
650.411	8879.85
650.763	8846.63
651.115	8906.29
651.467	8909.91
651.819	8915.78
652.171	8848.67
652.523	8850.93
652.875	8859.29
653.227	8853.64
653.578	8821.77
653.93	8887.53
654.282	8838.72
654.633	8855.45
654.985	8926.18
655.337	8863.81
655.688	8843.69
656.039	8885.73
656.391	8846.18
656.742	8924.82
657.094	8875.11
657.445	8893.41
657.796	8871.72
658.147	8912.17
658.498	8880.08
658.849	8924.82
659.2	8933.18
659.551	8925.27
659.902	8939.06
660.253	8904.71
660.604	8965.95
660.955	8881.43
661.306	8921.43
661.656	8916.46
662.007	8919.4
662.358	8916.91
662.708	8935.44
663.059	8953.07
663.409	8917.14
663.76	8992.39
664.11	8959.17
664.461	8930.02
664.811	8936.35
665.161	9002.79
665.511	8932.73
665.862	8973.18
666.212	9000.98
666.562	8938.15
666.912	8939.96
667.262	8979.51
667.612	8953.52
667.962	9020.64
668.312	8941.54
668.662	8961.21
669.011	8934.77
669.361	8961.66
669.711	8865.16
670.06	8955.1
670.41	8907.2
670.76	8852.73
671.109	8973.41
671.459	8835.78
671.808	8913.3
672.157	8905.61
672.507	8821.32
672.856	8830.14
673.205	8825.39
673.554	8953.52
673.904	8794.66
674.253	8895.44
674.602	8806.18
674.951	8717.14
675.3	8648.67
675.649	8864.48
675.998	8807.31
676.346	8810.93
676.695	8892.28
677.044	8740.19
677.393	8787.65
677.741	8797.37
678.09	8787.65
678.438	8722.57
678.787	8717.14
679.135	8718.27
679.484	8623.36
679.832	8718.73
680.181	8725.96
680.529	8744.94
680.877	8658.39
681.225	8672.85
681.573	8731.61
681.922	8664.04
682.27	8599.41
682.618	8594.66
682.966	8627.88
683.314	8593.08
683.661	8596.02
684.009	8523.48
684.357	8477.6
684.705	8495.23
685.053	8482.57
685.4	8484.61
685.748	8345.4
686.095	8416.81
686.443	8367.77
686.79	8377.27
687.138	8396.25
687.485	8428.34
687.832	8347.66
688.18	8383.37
688.527	8302.69
688.874	8288.23
689.221	8281
689.568	8250.26
689.915	8214.56
690.262	8217.95
690.609	8142.92
690.956	8152.41
691.303	8075.13
691.65	8060.21
691.997	8143.15
692.344	8028.12
692.69	7934.79
693.037	8072.64
693.383	7949.71
693.73	7903.15
694.077	7906.77
694.423	7918.52
694.769	7864.28
695.116	7783.61
695.462	7862.93
695.808	7780.22
696.155	7795.36
696.501	7705.64
696.847	7673.56
697.193	7633.56
697.539	7652.54
697.885	7574.12
698.231	7568.7
698.577	7580
698.923	7566.67
699.269	7517.4
699.614	7446.22
699.96	7377.74
700.306	7396.05
700.651	7355.15
700.997	7346.78
701.342	7294.58
701.688	7419.32
702.033	7339.78
702.379	7250.29
702.724	7258.65
703.069	7310.4
703.415	7129.16
703.76	7195.6
704.105	7161.7
704.45	7189.27
704.795	7112.89
705.14	7063.85
705.485	7084.87
705.83	7021.82
706.175	7005.1
706.52	7013.23
706.865	6887.14
707.209	6928.04
707.554	6941.15
707.899	6915.61
708.243	6817.98
708.588	6847.36
708.932	6824.76
709.277	6838.1
709.621	6818.89
709.966	6770.3
710.31	6751.09
710.654	6720.13
710.998	6735.95
711.342	6719.91
711.687	6694.37
712.031	6661.83
712.375	6660.47
712.719	6631.77
713.063	6666.35
713.407	6654.83
713.75	6581.83
714.094	6631.32
714.438	6543.42
714.782	6549.07
715.125	6529.63
715.469	6571.44
715.812	6522.85
716.156	6439.24
716.499	6479.69
716.843	6489.41
717.186	6469.29
717.53	6511.55
717.873	6467.71
718.216	6511.55
718.559	6400.14
718.902	6398.79
719.246	6428.62
719.589	6396.07
719.932	6409.86
720.275	6411.67
720.617	6374.38
720.96	6369.18
721.303	6385
721.646	6399.01
721.989	6308.17
722.331	6384.55
722.674	6338.22
723.016	6339.13
723.359	6332.35
723.701	6313.37
724.044	6293.48
724.386	6247.38
724.729	6301.39
725.071	6350.65
725.413	6272.24
725.755	6281.5
726.097	6286.02
726.439	6216.42
726.782	6234.95
727.124	6263.2
727.465	6210.99
727.807	6201.05
728.149	6263.65
728.491	6205.8
728.833	6235.63
729.175	6217.77
729.516	6177.78
729.858	6196.76
730.199	6229.07
730.541	6186.14
730.882	6251.67
731.224	6292.12
731.565	6194.05
731.906	6232.92
732.248	6265.68
732.589	6130.09
732.93	6188.17
733.271	6233.82
733.612	6192.24
733.953	6182.07
734.294	6192.69
734.635	6209.64
734.976	6202.63
735.317	6184.1
735.658	6166.02
735.999	6209.19
736.339	6251.22
736.68	6268.85
737.021	6199.02
737.361	6238.79
737.702	6233.37
738.042	6258
738.383	6319.47
738.723	6290.99
739.063	6285.12
739.404	6303.2
739.744	6235.85
740.084	6299.58
740.424	6340.03
740.764	6332.57
741.104	6328.96
741.444	6349.3
741.784	6341.84
742.124	6381.39
742.464	6432.01
742.804	6432.68
743.143	6434.72
743.483	6470.42
743.823	6472.68
744.162	6480.82
744.502	6488.5
744.841	6522.4
745.181	6583.41
745.52	6580.7
745.86	6652.57
746.199	6655.28
746.538	6656.86
746.877	6778.44
747.216	6769.4
747.556	6806.01
747.895	6860.02
748.234	6841.71
748.573	6900.92
748.911	6991.99
749.25	7054.36
749.589	7009.39
749.928	7186.11
750.267	7187.47
750.605	7281.02
750.944	7336.62
751.283	7396.95
751.621	7496.16
751.96	7531.41
752.298	7642.14
752.636	7712.2
752.975	7823.83
753.313	7886.21
753.651	7980.67
753.989	8020.66
754.327	8185.63
754.666	8313.09
755.004	8380.66
755.342	8588.33
755.679	8624.72
756.017	8721.89
756.355	8916.69
756.693	8987.42
757.031	9187.87
757.368	9233.74
757.706	9390.12
758.044	9569.78
758.381	9680.06
758.719	9857.45
759.056	9968.41
759.394	10145.13
759.731	10281.85
760.068	10431.67
760.405	10591.22
760.743	10695.17
761.08	10939.68
761.417	11116.63
761.754	11217.87
762.091	11455.6
762.428	11624.64
762.765	11656.05
763.102	11986.21
763.438	12055.14
763.775	12188.24
764.112	12370.83
764.449	12613.31
764.785	12779.86
765.122	12795.45
765.458	13012.4
765.795	13217.36
766.131	13439.96
766.467	13444.48
766.804	13565.6
767.14	13751.36
767.476	13879.27
767.812	13989.1
768.148	14226.6
768.485	14229.99
768.821	14405.13
769.157	14588.63
769.492	14764.44
769.828	14801.73
770.164	14904.55
770.5	15023.19
770.836	15154.04
771.171	15215.05
771.507	15365.78
771.842	15372.11
772.178	15504.08
772.513	15604.65
772.849	15648.26
773.184	15788.82
773.519	16007.57
773.855	15909.95
774.19	16055.26
774.525	16078.08
774.86	16278.3
775.195	16311.29
775.53	16416.83
775.865	16381.35
776.2	16455.25
776.535	16542.25
776.87	16649.59
777.205	16540.21
777.539	16596.48
777.874	16730.49
778.209	16677.16
778.543	16713.09
778.878	16689.59
779.212	16854.78
779.547	16837.61
779.881	16988.11
780.215	16952.63
780.55	17034.89
780.884	16986.3
781.218	16891.17
781.552	17019.75
781.886	16919.64
782.22	16973.88
782.554	16979.07
782.888	16903.6
783.222	16970.71
783.556	16936.59
783.889	16939.3
784.223	16861.11
784.557	16945.85
784.89	16927.78
785.224	16857.72
785.557	16839.19
785.891	16930.94
786.224	16871.05
786.558	16943.59
786.891	16825.86
787.224	16756.25
787.557	16861.56
787.891	16876.48
788.224	16856.82
788.557	16883.03
788.89	16857.04
789.223	16775.24
789.556	16844.61
789.888	16826.53
790.221	16724.62
790.554	16706.76
790.887	16627.22
791.219	16641.68
791.552	16644.17
791.884	16607.56
792.217	16567.78
792.549	16559.2
792.882	16343.84
793.214	16463.61
793.546	16557.39
793.879	16403.5
794.211	16333.67
794.543	16455.02
794.875	16437.17
795.207	16475.81
795.539	16349.49
795.871	16341.8
796.203	16253.89
796.535	16244.63
796.867	16149.49
797.198	16142.49
797.53	16075.82
797.862	16083.5
798.193	16071.75
798.525	16001.92
798.856	16002.83
799.188	15785.43
799.519	15857.29
799.85	15744.98
800.182	15793.12
800.513	15829.27
800.844	15670.86
801.175	15822.72
801.506	15737.98
801.837	15631.76
802.168	15604.19
802.499	15625.44
802.83	15556.74
803.161	15505.89
803.491	15524.42
803.822	15514.48
804.153	15391.77
804.483	15291.89
804.814	15356.07
805.145	15327.37
805.475	15215.96
805.805	15277.42
806.136	15217.76
806.466	15302.28
806.796	15194.04
807.126	15034.72
807.457	15073.36
807.787	15079.69
808.117	15024.55
808.447	15024.32
808.777	14949.97
809.107	14934.38
809.436	14946.13
809.766	14819.36
810.096	14858.68
810.426	14798.79
810.755	14770.77
811.085	14797.44
811.414	14783.42
811.744	14655.52
812.073	14610.32
812.403	14673.15
812.732	14615.97
813.061	14645.8
813.39	14484.68
813.719	14527.84
814.049	14494.17
814.378	14487.61
814.707	14461.63
815.036	14493.94
815.365	14365.36
815.693	14321.97
816.022	14341.63
816.351	14245.13
816.68	14205.59
817.008	14204.23
817.337	14157
817.665	14092.14
817.994	14135.31
818.322	14146.15
818.651	14019.38
818.979	14022.09
819.307	14154.06
819.636	14010.34
819.964	13950.45
820.292	14058.92
820.62	13988.19
820.948	14016.67
821.276	14025.48
821.604	13971.24
821.932	13967.18
822.259	14010.56
822.587	13985.71
822.915	13978.7
823.243	13947.51
823.57	13918.14
823.898	13947.74
824.225	13904.58
824.553	14001.3
824.88	13962.88
825.207	13955.88
825.535	13909.1
825.862	13970.56
826.189	13976.21
826.516	14015.08
826.843	13990.9
827.17	13962.66
827.497	14077.45
827.824	14026.16
828.151	13999.26
828.478	13972.82
828.805	14106.38
829.131	13987.97
829.458	13992.71
829.785	13918.14
830.111	13913.84
830.438	14065.7
830.764	14027.74
831.09	13943.67
831.417	13982.32
831.743	14034.74
832.069	14013.28
832.395	13880.4
832.722	14022.99
833.048	13869.32
833.374	13897.35
833.7	13850.57
834.026	13834.98
834.351	13913.62
834.677	13872.94
835.003	13967.85
835.329	13881.53
835.654	13874.97
835.98	13856.9
836.306	13828.65
836.631	13699.39
836.956	13719.5
837.282	13805.6
837.607	13712.27
837.932	13703.68
838.258	13651.03
838.583	13672.95
838.908	13691.93
839.233	13640.63
839.558	13590.24
839.883	13520.86
840.208	13474.08
840.533	13531.48
840.858	13569.45
841.182	13517.7
841.507	13555.21
841.832	13423.91
842.156	13407.42
842.481	13414.65
842.805	13364.71
843.13	13289.23
843.454	13334.65
843.778	13253.52
844.103	13240.19
844.427	13284.48
844.751	13248.1
845.075	13188.66
845.399	13096.92
845.723	13040.87
846.047	13093.3
846.371	12955
846.695	13030.02
847.019	12889.24
847.343	12826.87
847.666	12715.91
847.99	12772.18
848.313	12669.58
848.637	12688.56
848.96	12650.83
849.284	12554.1
849.607	12507.55
849.931	12475.46
850.254	12388.01
850.577	12395.92
850.9	12252.64
851.223	12291.29
851.546	12236.37
851.869	12031.63
852.192	12155.02
852.515	12112.53
852.838	11979.43
853.161	11910.96
853.483	11888.81
853.806	11906.89
854.129	11842.03
854.451	11818.08
854.774	11727.46
855.096	11749.61
855.419	11633
855.741	11687.46
856.063	11616.95
856.385	11655.37
856.708	11472.33
857.03	11496.51
857.352	11473.68
857.674	11445.43
857.996	11396.17
858.318	11306.23
858.64	11349.16
858.961	11328.83
859.283	11341.71
859.605	11162.96
859.926	11252.22
860.248	11197.3
860.57	11178.77
860.891	11209.73
861.212	11127.48
861.534	11074.14
861.855	11047.25
862.176	11101.26
862.498	11026.24
862.819	11032.11
863.14	10898.78
863.461	10958.44
863.782	10929.29
864.103	10923.19
864.424	10862.4
864.745	10877.99
865.065	10816.75
865.386	10769.97
865.707	10793.7
866.027	10800.03
866.348	10753.7
866.668	10850.19
866.989	10723.87
867.309	10658.79
867.63	10716.87
867.95	10678.9
868.27	10621.27
868.59	10622.18
868.91	10560.26
869.23	10603.87
869.55	10563.65
869.87	10585.12
870.19	10602.07
870.51	10573.59
870.83	10504.22
871.15	10570.88
871.469	10487.04
871.789	10494.72
872.109	10505.12
872.428	10399.81
872.748	10492.92
873.067	10431.22
873.386	10469.64
873.706	10442.97
874.025	10309.42
874.344	10346.25
874.663	10407.27
874.982	10288.18
875.301	10310.1
875.62	10272.81
875.939	10224
876.258	10294.05
876.577	10281.4
876.896	10193.04
877.214	10149.65
877.533	10202.53
877.852	10153.72
878.17	10089.09
878.489	10161.63
878.807	10171.79
879.125	10173.83
879.444	10115.75
879.762	10072.36
880.08	10013.38
880.398	10059.48
880.716	10024.68
881.034	10010.22
881.352	10048.86
881.67	9914.63
881.988	9955.3
882.306	9902.88
882.624	9846.15
882.941	9904.68
883.259	9828.53
883.577	9832.82
883.894	9824.01
884.212	9763.9
884.529	9789.21
884.846	9746.04
885.164	9733.84
885.481	9719.15
885.798	9690
886.115	9646.84
886.432	9577.23
886.75	9548.99
887.067	9574.3
887.383	9511.25
887.7	9639.61
888.017	9465.82
888.334	9550.57
888.651	9472.83
888.967	9468.76
889.284	9413.4
889.6	9356.22
889.917	9335.21
890.233	9345.83
890.55	9294.76
890.866	9296.11
891.182	9228.99
891.498	9187.19
891.815	9226.51
892.131	9168.66
892.447	9119.62
892.763	9097.47
893.079	9104.03
893.395	9014.31
893.71	8972.73
894.026	9040.3
894.342	8969.11
894.657	8883.47
894.973	8812.28
895.289	8893.18
895.604	8881.89
895.92	8847.31
896.235	8766.86
896.55	8805.05
896.865	8752.85
897.181	8685.51
897.496	8670.37
897.811	8657.94
898.126	8656.58
898.441	8572.29
898.756	8584.04
899.071	8526.87
899.386	8516.02
899.7	8515.57
900.015	8380.2
900.33	8270.83
900.644	8344.95
900.959	8382.92
901.273	8330.49
901.588	8300.43
901.902	8255.69
902.216	8272.18
902.531	8219.08
902.845	8184.28
903.159	8119.19
903.473	8130.27
903.787	8040.33
904.101	8053.88
904.415	8025.86
904.729	7954.9
905.042	7899.76
905.356	7890.72
905.67	7902.25
905.984	7866.77
906.297	7857.05
906.611	7754.01
906.924	7785.64
907.237	7743.16
907.551	7705.19
907.864	7675.14
908.177	7652.54
908.491	7641.47
908.804	7483.73
909.117	7544.52
909.43	7445.09
909.743	7441.02
910.056	7438.99
910.368	7431.3
910.681	7344.07
910.994	7274.92
911.307	7298.2
911.619	7243.96
911.932	7290.97
912.244	7207.35
912.557	7233.79
912.869	7163.96
913.181	7104.53
913.494	7141.82
913.806	7048.49
914.118	6994.93
914.43	6994.48
914.742	6968.49
915.054	6943.63
915.366	6912.22
915.678	6903.41
915.99	6847.59
916.302	6821.6
916.613	6797.19
916.925	6797.19
917.236	6827.02
917.548	6754.71
917.859	6736.86
918.171	6630.42
918.482	6665.67
918.794	6677.42
919.105	6630.19
919.416	6545
919.727	6575.51
920.038	6522.85
920.349	6459.12
920.66	6443.76
920.971	6440.14
921.282	6462.06
921.593	6342.74
921.903	6378.22
922.214	6374.83
922.525	6342.29
922.835	6342.06
923.146	6249.41
923.456	6222.97
923.767	6219.13
924.077	6200.37
924.387	6172.35
924.697	6133.71
925.008	6123.09
925.318	6073.37
925.628	6069.08
925.938	6010.32
926.248	5966.26
926.558	5991.79
926.867	5996.76
927.177	5912.02
927.487	5913.15
927.796	5856.88
928.106	5876.54
928.416	5813.72
928.725	5795.41
929.034	5828.41
929.344	5839.25
929.653	5772.81
929.962	5735.53
930.271	5714.96
930.581	5691.01
930.89	5689.43
931.199	5588.86
931.508	5604.23
931.817	5591.58
932.125	5572.14
932.434	5558.13
932.743	5486.95
933.051	5511.13
933.36	5531.01
933.669	5427.51
933.977	5437.91
934.286	5443.78
934.594	5382.99
934.902	5364.01
935.21	5327.63
935.519	5341.64
935.827	5251.47
936.135	5248.31
936.443	5235.43
936.751	5231.13
937.059	5243.11
937.367	5179.84
937.674	5178.03
937.982	5145.49
938.29	5154.07
938.597	5149.33
938.905	5101.65
939.213	5076.34
939.52	5012.38
939.827	4977.81
940.135	5031.59
940.442	5019.16
940.749	4964.25
941.056	5003.57
941.363	4912.05
941.67	4853.29
941.977	4866.62
942.284	4856
942.591	4824.14
942.898	4826.17
943.205	4838.6
943.511	4789.34
943.818	4769.68
944.125	4704.82
944.431	4722.22
944.738	4698.94
945.044	4617.59
945.35	4641.32
945.657	4634.77
945.963	4627.53
946.269	4619.4
946.575	4615.78
946.881	4540.76
947.187	4546.63
947.493	4537.59
947.799	4548.44
948.105	4465.73
948.41	4453.75
948.716	4483.81
949.022	4411.95
949.327	4381.44
949.633	4414.43
949.938	4382.79
950.244	4368.56
950.549	4307.54
950.854	4349.12
951.16	4306.41
951.465	4269.35
951.77	4254.66
952.075	4203.59
952.38	4247.88
952.685	4267.77
952.99	4169.92
953.294	4158.39
953.599	4124.04
953.904	4140.77
954.209	4071.62
954.513	4100.09
954.818	4044.95
955.122	4056.93
955.426	4084.72
955.731	4040.43
956.035	4027.78
956.339	3984.61
956.643	3967.44
956.948	3948
957.252	3942.58
957.556	3929.02
957.86	3932.18
958.163	3918.17
958.467	3891.73
958.771	3871.17
959.075	3860.77
959.378	3797.27
959.682	3844.05
959.985	3809.93
960.289	3730.83
960.592	3746.43
960.896	3756.6
961.199	3720.44
961.502	3738.52
961.805	3715.69
962.108	3691.06
962.411	3674.34
962.714	3623.94
963.017	3635.24
963.32	3650.61
963.623	3581.46
963.926	3597.96
964.228	3552.31
964.531	3563.15
964.833	3560.44
965.136	3561.12
965.438	3539.65
965.741	3495.36
966.043	3467.79
966.345	3451.52
966.648	3462.14
966.95	3424.85
967.252	3418.07
967.554	3439.32
967.856	3352.09
968.158	3366.32
968.46	3355.02
968.761	3329.49
969.063	3333.1
969.365	3310.51
969.666	3340.56
969.968	3292.65
970.269	3273.9
970.571	3255.14
970.872	3257.85
971.174	3242.94
971.475	3194.35
971.776	3215.37
972.077	3182.6
972.378	3151.41
972.679	3130.4
972.98	3134.24
973.281	3117.29
973.582	3122.04
973.883	3128.36
974.183	3078.87
974.484	3124.3
974.785	3063.51
975.085	3053.56
975.386	3046.11
975.686	3040
975.986	3002.04
976.287	3000.68
976.587	2957.75
976.887	2941.7
977.187	2976.05
977.487	2986.9
977.787	2950.52
978.087	2937.41
978.387	2937.63
978.687	2913.45
978.987	2904.19
979.286	2896.51
979.586	2854.47
979.885	2888.14
980.185	2846.11
980.484	2830.52
980.784	2835.49
981.083	2785.77
981.382	2794.14
981.682	2775.38
981.981	2768.15
982.28	2782.61
982.579	2722.5
982.878	2734.48
983.177	2708.94
983.475	2716.4
983.774	2652.22
984.073	2680.69
984.372	2604.31
984.67	2653.12
984.969	2629.85
985.267	2654.7
985.566	2613.35
985.864	2605.89
986.162	2605.67
986.461	2550.53
986.759	2565.89
987.057	2525.89
987.355	2551.43
987.653	2541.94
987.951	2499
988.249	2510.98
988.547	2498.78
988.844	2520.7
989.142	2497.42
989.44	2460.13
989.737	2445.9
990.035	2426.24
990.332	2444.54
990.63	2408.16
990.927	2402.51
991.224	2377.65
991.521	2400.47
991.819	2386.01
992.116	2351.44
992.413	2380.81
992.71	2340.81
993.006	2319.8
993.303	2353.47
993.6	2318.67
993.897	2288.61
994.193	2276.41
994.49	2257.65
994.787	2262.17
995.083	2243.19
995.379	2261.04
995.676	2230.76
995.972	2277.54
996.268	2209.74
996.565	2183.53
996.861	2204.77
997.157	2183.08
997.453	2150.08
997.749	2187.37
998.044	2183.76
998.34	2136.07
998.636	2133.59
998.932	2082.29
999.227	2107.83
999.523	2088.84
999.818	2068.28
1000.114	2051.33
1000.409	2054.49
1000.704	2057.43
1001	2032.8
1001.295	2045.23
1001.59	2022.63
1001.885	1989.18
1002.18	2010.43
1002.475	1998
1002.77	2025.79
1003.065	1971.11
1003.359	1968.17
1003.654	1961.39
1003.949	1955.97
1004.243	1942.18
1004.538	1902.86
1004.832	1911.22
1005.127	1929.3
1005.421	1887.49
1005.715	1883.43
1006.009	1850.66
1006.304	1848.4
1006.598	1848.4
1006.892	1832.13
1007.186	1805.46
1007.48	1821.73
1007.773	1801.62
1008.067	1791.9
1008.361	1788.06
1008.655	1778.34
1008.948	1760.94
1009.242	1773.82
1009.535	1743.54
1009.829	1702.41
1010.122	1735.63
1010.415	1701.73
1010.708	1673.26
1011.001	1697.22
1011.295	1692.02
1011.588	1678.23
1011.881	1681.62
1012.173	1651.57
1012.466	1656.76
1012.759	1630.78
1013.052	1632.58
1013.344	1637.33
1013.637	1610.66
1013.93	1613.83
1014.222	1612.25
1014.514	1596.2
1014.807	1570.66
1015.099	1552.13
1015.391	1570.21
1015.683	1550.33
1015.976	1550.55
1016.268	1468.97
1016.56	1500.61
1016.851	1485.7
1017.143	1506.94
1017.435	1487.28
1017.727	1459.93
1018.018	1472.36
1018.31	1456.77
1018.602	1427.39
1018.893	1447.73
1019.185	1441.4
1019.476	1408.18
1019.767	1433.04
1020.058	1408.41
1020.35	1356.89
1020.641	1381.29
1020.932	1380.61
1021.223	1366.83
1021.514	1359.82
1021.804	1335.64
1022.095	1355.76
1022.386	1312.14
1022.677	1327.73
1022.967	1284.34
1023.258	1312.59
1023.548	1278.02
1023.839	1306.72
1024.129	1299.71
1024.419	1250.22
1024.709	1260.62
1025	1263.1
1025.29	1241.18
1025.58	1225.14
1025.87	1232.14
1026.16	1235.76
1026.449	1218.36
1026.739	1205.93
1027.029	1193.27
1027.319	1183.33
1027.608	1186.72
1027.898	1184.23
1028.187	1186.49
1028.477	1137.68
1028.766	1151.69
1029.055	1130.9
1029.344	1155.99
1029.634	1136.1
1029.923	1122.54
1030.212	1092.49
1030.501	1111.47
1030.79	1108.3
1031.078	1100.39
1031.367	1081.41
1031.656	1067.4
1031.945	1097.91
1032.233	1057.68
1032.522	1062.88
1032.81	1062.43
1033.099	1067.85
1033.387	1047.97
1033.675	1046.84
1033.963	1026.95
1034.251	1020.4
1034.54	1005.03
1034.828	996.67
1035.116	1003.67
1035.403	991.02
1035.691	1003.9
1035.979	996.67
1036.267	974.97
1036.554	954.18
1036.842	972.71
1037.129	988.99
1037.417	942.43
1037.704	984.01
1037.992	923.45
1038.279	953.28
1038.566	932.94
1038.853	932.94
1039.14	932.94
