Data from hue_350_FLMS001491_95.txt Node
Date: Mon Feb 06 15:38:47 GMT 2017
User: dcchb
Spectrometer: FLMS00149
Trigger mode: 0
Integration Time (sec): 2.000000E-2
Scans to average: 10
Electric dark correction enabled: true
Nonlinearity correction enabled: false
Boxcar width: 0
XAxis mode: Wavelengths
Number of Pixels in Spectrum: 2048
>>>>>Begin Spectral Data<<<<<
341.393	14.27
341.776	14.27
342.16	14.27
342.543	-69.12
342.927	-62.79
343.31	-58.05
343.693	-75
344.077	-52.4
344.46	-61.67
344.843	-57.6
345.226	-36.35
345.61	-28.45
345.993	-28.45
346.376	4.55
346.759	11.55
347.142	30.76
347.525	51.78
347.908	42.51
348.291	77.54
348.674	73.92
349.057	105.34
349.44	100.59
349.823	127.26
350.206	159.12
350.588	197.09
350.971	211.32
351.354	206.35
351.737	232.56
352.119	235.95
352.502	252.23
352.884	262.62
353.267	302.17
353.65	304.43
354.032	292.22
354.414	315.73
354.797	312.56
355.179	310.75
355.562	325.44
355.944	321.15
356.326	325.22
356.709	340.58
357.091	318.66
357.473	356.63
357.855	357.98
358.238	342.62
358.62	342.62
359.002	349.17
359.384	327.25
359.766	332
360.148	326.12
360.53	322.05
360.912	331.54
361.294	336.97
361.676	327.48
362.057	340.13
362.439	323.41
362.821	326.35
363.203	330.87
363.584	317.76
363.966	338.32
364.348	342.62
364.729	319.12
365.111	320.25
365.493	334.26
365.874	300.81
366.256	305.33
366.637	310.98
367.019	313.24
367.4	326.57
367.781	314.14
368.163	309.4
368.544	307.36
368.925	310.75
369.306	330.87
369.688	308.27
370.069	320.92
370.45	317.31
370.831	293.81
371.212	302.17
371.593	332.45
371.974	335.16
372.355	329.74
372.736	300.13
373.117	315.5
373.498	312.34
373.879	331.54
374.26	302.62
374.641	300.59
375.021	311.66
375.402	328.83
375.783	312.34
376.163	328.61
376.544	316.63
376.925	334.26
377.305	331.54
377.686	321.6
378.066	310.98
378.447	317.53
378.827	328.16
379.208	342.62
379.588	331.09
379.968	341.49
380.349	340.58
380.729	332.67
381.109	329.74
381.489	355.05
381.87	341.04
382.25	343.3
382.63	333.35
383.01	353.01
383.39	324.54
383.77	318.66
384.15	325.9
384.53	346.46
384.91	345.33
385.29	333.8
385.67	348.72
386.049	334.03
386.429	341.49
386.809	334.03
387.189	355.95
387.568	357.98
387.948	348.49
388.328	363.63
388.707	350.53
389.087	351.88
389.466	367.02
389.846	353.47
390.225	352.34
390.605	352.11
390.984	364.76
391.363	345.1
391.743	367.7
392.122	365.89
392.501	352.11
392.881	359.57
393.26	367.02
393.639	354.14
394.018	337.65
394.397	368.38
394.776	383.3
395.155	389.4
395.534	388.94
395.913	378.55
396.292	376.52
396.671	360.7
397.05	376.29
397.429	388.04
397.808	375.39
398.186	361.83
398.565	381.94
398.944	399.57
399.323	368.83
399.701	393.24
400.08	401.6
400.458	395.72
400.837	384.88
401.215	410.41
401.594	369.96
401.972	379
402.351	405.22
402.729	393.24
403.107	382.62
403.486	418.77
403.864	409.28
404.242	414.25
404.62	404.31
404.999	404.76
405.377	392.33
405.755	416.06
406.133	407.48
406.511	399.11
406.889	425.1
407.267	444.08
407.645	416.97
408.023	416.29
408.401	434.59
408.779	424.2
409.156	425.55
409.534	443.18
409.912	422.16
410.29	453.35
410.667	439.11
411.045	432.79
411.422	446.57
411.8	455.16
412.178	459.45
412.555	457.42
412.933	456.51
413.31	464.65
413.687	466.68
414.065	468.26
414.442	466
414.819	496.29
415.197	488.6
415.574	481.82
415.951	465.78
416.328	493.8
416.705	483.18
417.082	480.47
417.46	508.72
417.837	486.34
418.214	519.11
418.591	503.74
418.967	494.03
419.344	512.78
419.721	532.9
420.098	529.51
420.475	516.17
420.852	512.56
421.228	538.77
421.605	526.79
421.982	520.92
422.358	558.66
422.735	536.96
423.111	547.58
423.488	541.03
423.864	541.03
424.241	537.19
424.617	584.19
424.994	549.62
425.37	585.1
425.746	583.97
426.123	562.73
426.499	552.1
426.875	596.17
427.251	574.93
427.627	586.23
428.003	585.55
428.379	611.31
428.756	602.27
429.132	629.62
429.507	612.67
429.883	607.7
430.259	604.53
430.635	603.85
431.011	640.69
431.387	643.63
431.763	635.94
432.138	661.25
432.514	638.2
432.89	674.59
433.265	666.23
433.641	683.4
434.016	659.22
434.392	658.99
434.767	682.95
435.143	691.08
435.518	686.11
435.894	706.22
436.269	704.87
436.644	705.77
437.02	727.47
437.395	692.67
437.77	729.05
438.145	721.82
438.52	717.07
438.895	719.33
439.271	735.38
439.646	743.29
440.021	758.88
440.395	764.08
440.77	763.4
441.145	749.16
441.52	779.22
441.895	794.58
442.27	779.67
442.645	779.22
443.019	798.65
443.394	758.65
443.769	773.34
444.143	784.41
444.518	795.71
444.892	809.72
445.267	813.57
445.641	829.38
446.016	813.34
446.39	830.51
446.764	805.88
447.139	811.08
447.513	818.09
447.887	820.35
448.262	827.35
448.636	838.2
449.01	869.84
449.384	842.27
449.758	827.35
450.132	856.95
450.506	846.79
450.88	863.28
451.254	879.55
451.628	859.89
452.002	865.99
452.376	915.03
452.75	871.42
453.123	895.6
453.497	928.59
453.871	888.82
454.244	899.89
454.618	926.33
454.992	939.21
455.365	942.83
455.739	949.83
456.112	938.76
456.486	964.07
456.859	966.1
457.232	981.92
457.606	994.35
457.979	997.97
458.352	1012.66
458.725	1011.08
459.099	1037.97
459.472	1071.19
459.845	1043.62
460.218	1055.82
460.591	1080.9
460.964	1063.73
461.337	1099.43
461.71	1094.69
462.083	1106.67
462.456	1108.02
462.829	1122.26
463.201	1144.18
463.574	1134.01
463.947	1156.61
464.32	1167.46
464.692	1156.61
465.065	1192.31
465.438	1201.13
465.81	1191.86
466.183	1211.52
466.555	1284.51
466.928	1256.94
467.3	1259.43
467.672	1264.4
468.045	1279.09
468.417	1302.37
468.789	1291.52
469.161	1322.71
469.534	1336.72
469.906	1343.5
470.278	1385.3
470.65	1393.44
471.022	1407.45
471.394	1450.84
471.766	1444.74
472.138	1457.62
472.51	1497.16
472.882	1510.05
473.253	1533.1
473.625	1560.44
473.997	1568.35
474.369	1587.11
474.74	1593.43
475.112	1642.47
475.484	1666.88
475.855	1692.41
476.227	1734.67
476.598	1720.66
476.97	1793.88
477.341	1812.64
477.713	1821.45
478.084	1835.46
478.455	1885.4
478.827	1907.1
479.198	1965.4
479.569	1957.04
479.94	2001.11
480.311	2028
480.682	2079.75
481.053	2101.89
481.424	2169.91
481.795	2131.95
482.166	2174.89
482.537	2246.07
482.908	2260.76
483.279	2298.72
483.65	2349.57
484.021	2384.15
484.391	2423.02
484.762	2432.05
485.133	2482.45
485.503	2492.39
485.874	2555.89
486.244	2604.25
486.615	2679.73
486.985	2640.64
487.356	2693.06
487.726	2728.77
488.097	2790.92
488.467	2792.5
488.837	2853.51
489.207	2879.05
489.578	2932.38
489.948	2956.11
490.318	2984.58
490.688	3037.01
491.058	3067.07
491.428	3155.2
491.798	3118.59
492.168	3199.49
492.538	3192.26
492.908	3215.54
493.278	3281.52
493.648	3320.39
494.017	3324.23
494.387	3402.65
494.757	3395.87
495.126	3439.71
495.496	3463.21
495.866	3463.21
496.235	3520.61
496.605	3569.65
496.974	3544.79
497.344	3625.24
497.713	3633.61
498.082	3668.63
498.452	3668.41
498.821	3707.73
499.19	3749.76
499.559	3773.71
499.928	3786.82
500.298	3785.24
500.667	3841.74
501.036	3842.87
501.405	3884.45
501.774	3866.37
502.143	3925.12
502.512	3925.8
502.88	3997.66
503.249	3970.32
503.618	3990.43
503.987	4009.41
504.356	4002.18
504.724	4030.88
505.093	4075.63
505.462	4115.4
505.83	4104.55
506.199	4140.48
506.567	4150.2
506.936	4187.94
507.304	4198.56
507.672	4223.65
508.041	4198.79
508.409	4297.09
508.777	4286.24
509.145	4303.64
509.514	4302.97
509.882	4356.75
510.25	4342.06
510.618	4362.17
510.986	4350.87
511.354	4430.65
511.722	4413.92
512.09	4478.55
512.458	4495.96
512.826	4494.15
513.193	4524.88
513.561	4562.39
513.929	4528.27
514.297	4570.98
514.664	4573.02
515.032	4595.39
515.4	4631.54
515.767	4604.88
516.135	4653.01
516.502	4636.74
516.869	4719.23
517.237	4686.46
517.604	4717.19
517.972	4742.5
518.339	4770.07
518.706	4772.33
519.073	4770.98
519.44	4835.61
519.808	4810.07
520.175	4801.03
520.542	4923.51
520.909	4892.78
521.276	4882.39
521.643	4902.05
522.009	4940.24
522.376	4972.1
522.743	4976.85
523.11	5020.24
523.477	4995.6
523.843	5078.54
524.21	5117.41
524.577	5140.46
524.943	5138.42
525.31	5142.49
525.676	5211.64
526.043	5243.05
526.409	5227.46
526.776	5272.21
527.142	5302.49
527.508	5354.92
527.874	5420.22
528.241	5404.86
528.607	5414.35
528.973	5443.95
529.339	5504.06
529.705	5514.23
530.071	5518.98
530.437	5579.32
530.803	5578.86
531.169	5601.69
531.535	5619.77
531.901	5623.38
532.267	5649.15
532.632	5699.99
532.998	5769.59
533.364	5758.29
533.73	5737.5
534.095	5794.45
534.461	5846.65
534.826	5886.43
535.192	5902.02
535.557	5937.5
535.923	5887.11
536.288	5931.4
536.653	5935.01
537.019	5957.61
537.384	5992.41
537.749	5986.31
538.114	6035.58
538.479	6055.69
538.845	6101.56
539.21	6080.32
539.575	6172.75
539.94	6180.43
540.305	6262.01
540.67	6203.03
541.034	6215.23
541.399	6237.83
541.764	6276.02
542.129	6268.79
542.494	6303.82
542.858	6350.37
543.223	6344.27
543.587	6431.5
543.952	6400.54
544.316	6458.62
544.681	6477.82
545.045	6508.78
545.41	6530.03
545.774	6541.1
546.138	6589.46
546.503	6579.29
546.867	6607.31
547.231	6615
547.595	6670.14
547.959	6731.38
548.324	6739.74
548.688	6779.06
549.052	6765.5
549.416	6742.68
549.779	6802.34
550.143	6761.66
550.507	6825.16
550.871	6931.6
551.235	6870.81
551.599	6940.18
551.962	6922.78
552.326	6977.92
552.689	6987.64
553.053	7037.81
553.417	6987.42
553.78	7112.16
554.143	7059.5
554.507	7094.08
554.87	7095.66
555.234	7202.32
555.597	7161.87
555.96	7176.11
556.323	7207.52
556.686	7250.01
557.05	7284.58
557.413	7280.51
557.776	7227.18
558.139	7302.66
558.502	7287.29
558.865	7328.2
559.228	7402.55
559.59	7419.27
559.953	7442.32
560.316	7471.47
560.679	7496.78
561.041	7492.94
561.404	7621.52
561.767	7638.47
562.129	7567.74
562.492	7655.42
562.854	7730.22
563.217	7681.18
563.579	7740.84
563.941	7724.57
564.304	7767.28
564.666	7827.17
565.028	7811.35
565.39	7833.27
565.753	7884.79
566.115	7915.3
566.477	7980.84
566.839	7949.42
567.201	8008.86
567.563	8019.7
567.925	8061.96
568.287	8069.65
568.648	8121.17
569.01	8143.54
569.372	8225.8
569.734	8164.11
570.095	8199.36
570.457	8319.81
570.819	8255.18
571.18	8346.93
571.542	8355.97
571.903	8398.23
572.265	8416.3
572.626	8497.88
572.987	8533.59
573.349	8589.63
573.71	8653.13
574.071	8702.17
574.432	8749.4
574.794	8841.38
575.155	8785.33
575.516	8806.58
575.877	8941.26
576.238	8976.29
576.599	9054.48
576.96	9091.54
577.32	9116.4
577.681	9305.09
578.042	9390.29
578.403	9409.5
578.763	9458.54
579.124	9575.6
579.485	9666.67
579.845	9778.08
580.206	9891.97
580.566	9945.08
580.927	10075.02
581.287	10244.05
581.648	10284.73
582.008	10378.06
582.368	10597.04
582.728	10674.78
583.089	10772.17
583.449	10996.58
583.809	11110.24
584.169	11220.75
584.529	11435.89
584.889	11650.12
585.249	11710.91
585.609	11933.05
585.969	12189.54
586.329	12389.98
586.688	12483.09
587.048	12715.63
587.408	12866.58
587.768	13075.39
588.127	13344.76
588.487	13510.63
588.846	13805.77
589.206	14032.2
589.565	14199.65
589.925	14497.05
590.284	14623.82
590.643	14921.22
591.003	15167.99
591.362	15487.98
591.721	15701.54
592.08	15957.8
592.44	16264.46
592.799	16562.53
593.158	16700.83
593.517	17081.61
593.876	17340.36
594.235	17589.85
594.593	17897.41
594.952	18207.46
595.311	18392.54
595.67	18714.34
596.029	19102.35
596.387	19318.84
596.746	19728.78
597.104	19840.86
597.463	20208.99
597.822	20561.52
598.18	20777.34
598.538	20982.75
598.897	21389.97
599.255	21512.23
599.613	22046.23
599.972	22221.14
600.33	22529.15
600.688	22725.31
601.046	23020.89
601.404	23425.4
601.762	23634.66
602.12	23992.62
602.478	24233.97
602.836	24419.95
603.194	24712.6
603.552	24861.97
603.91	25170.89
604.268	25512.35
604.625	25667.38
604.983	26026.01
605.341	26104.88
605.698	26514.81
606.056	26796.16
606.413	26934.46
606.771	27329.03
607.128	27441.57
607.485	27578.51
607.843	27854.66
608.2	28236.12
608.557	28641.76
608.914	28673.4
609.272	29079.04
609.629	29326.71
609.986	29550.44
610.343	29713.6
610.7	30074.04
611.057	30083.76
611.414	30290.53
611.771	30511.99
612.127	30829.73
612.484	30831.31
612.841	31046.9
613.198	31354.23
613.554	31485.3
613.911	31652.98
614.267	31838.97
614.624	32099.3
614.98	32165.06
615.337	32435.79
615.693	32693.86
616.05	32720.98
616.406	33034.41
616.762	33051.14
617.118	33195.99
617.475	33234.63
617.831	33630.56
618.187	33704.9
618.543	33900.83
618.899	34194.84
619.255	34180.6
619.611	34313.7
619.967	34547.59
620.323	34572.9
620.678	34612.68
621.034	34693.58
621.39	34771.54
621.746	34883.63
622.101	35298.76
622.457	35160.91
622.812	35340.12
623.168	35413.11
623.523	35471.41
623.879	35788.01
624.234	35659.43
624.589	35828.01
624.945	35981
625.3	36069.59
625.655	36051.96
626.01	36249.02
626.365	36273.42
626.72	36257.83
627.075	36329.24
627.43	36297.15
627.785	36293.09
628.14	36642.23
628.495	36659.63
628.85	36651.72
629.205	36521.33
629.559	36801.09
629.914	36733.07
630.269	36838.16
630.623	36764.26
630.978	36766.97
631.332	36853.75
631.687	36976.68
632.041	36788.21
632.396	36983.91
632.75	36822.11
633.104	37046.06
633.459	36866.18
633.813	36910.24
634.167	36932.39
634.521	36946.63
634.875	37013.07
635.229	37048.77
635.583	36907.08
635.937	36888.78
636.291	36968.1
636.645	37021.65
636.999	36924.93
637.352	36855.56
637.706	36945.5
638.06	37205.38
638.413	36981.43
638.767	36997.47
639.121	36976.46
639.474	36861.43
639.828	36909.79
640.181	37031.82
640.534	37093.74
640.888	36948.89
641.241	36816.91
641.594	37017.81
641.947	37071.82
642.301	36894.43
642.654	36979.17
643.007	36952.95
643.36	36952.5
643.713	36823.01
644.066	36958.83
644.419	36752.28
644.771	36496.24
645.124	36243.6
645.477	36113.2
645.83	35908.01
646.182	35841.57
646.535	35811.06
646.888	35835.24
647.24	35578.98
647.593	35923.6
647.945	35752.53
648.298	35734.68
648.65	35582.14
649.002	35617.4
649.355	35722.03
649.707	35556.16
650.059	35849.71
650.411	36145.74
650.763	36275.68
651.115	36632.06
651.467	36368.11
651.819	36463.7
652.171	36416.25
652.523	36378.73
652.875	36446.75
653.227	36374.67
653.578	36496.02
653.93	36488.33
654.282	36314.33
654.633	36149.13
654.985	36376.02
655.337	36357.04
655.688	36380.09
656.039	36480.2
656.391	36276.36
656.742	36163.15
657.094	36221.9
657.445	36265.06
657.796	36313.2
658.147	36197.27
658.498	36085.86
658.849	36327.21
659.2	36079.53
659.551	36123.37
659.902	36275.01
660.253	36134.9
660.604	36233.88
660.955	35964.73
661.306	36140.32
661.656	35977.84
662.007	36251.5
662.358	35960.44
662.708	36196.82
663.059	36086.54
663.409	35810.61
663.76	36088.34
664.11	36044.96
664.461	36085.86
664.811	36191.84
665.161	36028.46
665.511	36004.51
665.862	35975.81
666.212	36128.12
666.562	36098.51
666.912	36065.29
667.262	35930.38
667.612	36086.99
667.962	36059.87
668.312	36130.83
668.662	36173.31
669.011	36022.13
669.361	36100.1
669.711	35917.05
670.06	35861.68
670.41	35990.27
670.76	35895.58
671.109	36049.93
671.459	36016.26
671.808	35759.99
672.157	35937.16
672.507	35658.75
672.856	35723.61
673.205	35711.18
673.554	35868.92
673.904	35681.12
674.253	35860.78
674.602	35809.26
674.951	35215.15
675.3	35042.04
675.649	35698.98
675.998	35611.52
676.346	35622.14
676.695	35755.25
677.044	35416.05
677.393	35694
677.741	35630.28
678.09	35547.57
678.438	35513.9
678.787	35572.65
679.135	35490.39
679.484	35266.45
679.832	35493.11
680.181	35174.7
680.529	35426.22
680.877	35261.47
681.225	35115.04
681.573	35379.89
681.922	35075.72
682.27	34979.9
682.618	35086.11
682.966	34980.13
683.314	35030.52
683.661	34993.01
684.009	34807.02
684.357	34763.63
684.705	34671.88
685.053	34713.69
685.4	34590.08
685.748	34459.24
686.095	34399.8
686.443	34338.33
686.79	34274.61
687.138	34327.94
687.485	34323.65
687.832	34119.13
688.18	34226.7
688.527	33981.73
688.874	34086.36
689.221	33979.47
689.568	33859.93
689.915	33733.83
690.262	33882.08
690.609	33794.62
690.956	33598.24
691.303	33642.53
691.65	33426.95
691.997	33510.33
692.344	33371.58
692.69	33237.8
693.037	33275.09
693.383	33041.65
693.73	33183.56
694.077	32871.93
694.423	32867.64
694.769	32904.93
695.116	32717.13
695.462	32809.56
695.808	32559.17
696.155	32648.44
696.501	32425.16
696.847	32490.02
697.193	32088.45
697.539	32344.04
697.885	32033.31
698.231	32006.19
698.577	31995.12
698.923	31972.52
699.269	31839.42
699.614	31608.91
699.96	31577.28
700.306	31488.24
700.651	31403.27
700.997	31373.67
701.342	31297.28
701.688	31285.53
702.033	31158.98
702.379	31229.72
702.724	31020.91
703.069	31019.55
703.415	30709.28
703.76	30744.98
704.105	30789.95
704.45	30733.23
704.795	30495.5
705.14	30439.68
705.485	30434.71
705.83	30288.05
706.175	30411.88
706.52	30208.73
706.865	30179.57
707.209	30145.45
707.554	30094.38
707.899	30106.36
708.243	29805.8
708.588	29834.05
708.932	29639.25
709.277	29513.15
709.621	29693.71
709.966	29522.19
710.31	29503.21
710.654	29391.12
710.998	29463.89
711.342	29345.47
711.687	29187.96
712.031	29057.34
712.375	29076.33
712.719	29098.02
713.063	28968.08
713.407	29099.83
713.75	28956.78
714.094	28919.95
714.438	28814.19
714.782	28793.62
715.125	28684.47
715.469	28736
715.812	28479.05
716.156	28383.91
716.499	28443.8
716.843	28308.66
717.186	28307.31
717.53	28426.85
717.873	28362.22
718.216	28219.63
718.559	28237.93
718.902	27912.97
719.246	28124.71
719.589	27889.24
719.932	27873.42
720.275	27813.99
720.617	27828.68
720.96	27699.19
721.303	27760.43
721.646	27803.36
721.989	27624.16
722.331	27748.45
722.674	27530.6
723.016	27544.61
723.359	27524.28
723.701	27536.48
724.044	27401.57
724.386	27209.71
724.729	27410.61
725.071	27264.17
725.413	27307.56
725.755	27239.09
726.097	27170.39
726.439	26952.09
726.782	26936.27
727.124	26970.39
727.465	26899.89
727.807	26813.11
728.149	26845.42
728.491	26823.5
728.833	26767.01
729.175	26699.89
729.516	26670.51
729.858	26551.42
730.199	26718.65
730.541	26546.22
730.882	26552.1
731.224	26693.11
731.565	26498.99
731.906	26453.57
732.248	26390.97
732.589	26350.52
732.93	26258.09
733.271	26233.69
733.612	26347.58
733.953	26296.96
734.294	26137.19
734.635	26111.21
734.976	26213.35
735.317	26053.81
735.658	26043.86
735.999	25958.22
736.339	25966.35
736.68	26049.96
737.021	26005.9
737.361	25734.49
737.702	25970.19
738.042	25834.38
738.383	25731.1
738.723	25794.38
739.063	25591.45
739.404	25705.12
739.744	25717.09
740.084	25428.29
740.424	25618.11
740.764	25538.79
741.104	25606.36
741.444	25424.44
741.784	25378.12
742.124	25402.75
742.464	25386.93
742.804	25375.86
743.143	25206.15
743.483	25266.93
743.823	25180.16
744.162	25178.8
744.502	25191.46
744.841	25074.17
745.181	25080.27
745.52	24999.82
745.86	25009.31
746.199	24985.59
746.538	24947.85
746.877	24869.2
747.216	24964.8
747.556	24790.79
747.895	24881.41
748.234	24830.34
748.573	24675.09
748.911	24631.92
749.25	24711.47
749.589	24569.55
749.928	24655.65
750.267	24675.54
750.605	24513.73
750.944	24540.17
751.283	24370.91
751.621	24434.41
751.96	24232.16
752.298	24325.04
752.636	24291.37
752.975	24203.69
753.313	24027.19
753.651	24235.1
753.989	24016.57
754.327	24055.44
754.666	23939.29
755.004	23892.96
755.342	23933.86
755.679	23941.32
756.017	23674.43
756.355	23829.46
756.693	23677.6
757.031	23713.53
757.368	23534.1
757.706	23523.7
758.044	23441.45
758.381	23467.21
758.719	23508.11
759.056	23435.57
759.394	23393.99
759.731	23171.17
760.068	23210.49
760.405	23095.01
760.743	22981.12
761.08	23162.58
761.417	23000.1
761.754	23004.4
762.091	22778.86
762.428	22808.24
762.765	22593.33
763.102	22777.51
763.438	22555.14
763.775	22499.32
764.112	22468.82
764.449	22432.66
764.785	22368.03
765.122	22213.46
765.458	22131.42
765.795	22161.71
766.131	22128.49
766.467	22031.99
766.804	21905.44
767.14	21870.87
767.476	21811.88
767.812	21668.39
768.148	21816.63
768.485	21699.8
768.821	21437.2
769.157	21435.17
769.492	21417.32
769.828	21487.6
770.164	21215.52
770.5	21133.94
770.836	21075.63
771.171	20962.64
771.507	20987.5
771.842	20814.85
772.178	20846.26
772.513	20700.5
772.849	20605.81
773.184	20638.36
773.519	20627.73
773.855	20536.89
774.19	20347.06
774.525	20422.54
774.86	20248.08
775.195	20264.58
775.53	20212.38
775.865	20033.85
776.2	19847.87
776.535	19797.93
776.87	19863.46
777.205	19738.94
777.539	19555.67
777.874	19662.34
778.209	19525.16
778.543	19534.2
778.878	19288.56
779.212	19258.73
779.547	19197.04
779.881	19319.29
780.215	19105.29
780.55	19127.21
780.884	19006.99
781.218	18985.97
781.552	18946.65
781.886	18832.53
782.22	18711.4
782.554	18643.38
782.888	18508.02
783.222	18371.52
783.556	18356.61
783.889	18321.35
784.223	18208.36
784.557	18230.96
784.89	18157.29
785.224	18086.33
785.557	17954.81
785.891	17903.06
786.224	17905.09
786.558	17910.29
786.891	17662.84
787.224	17749.17
787.557	17624.2
787.891	17564.54
788.224	17719.79
788.557	17600.92
788.89	17576.29
789.223	17421.04
789.556	17329.06
789.888	17302.17
790.221	17228.05
790.554	16967.27
790.887	17051.56
791.219	16974.95
791.552	17049.98
791.884	16982.18
792.217	16885.01
792.549	16797.78
792.882	16643.66
793.214	16539.03
793.546	16669.87
793.879	16550.33
794.211	16428.75
794.543	16502.65
794.875	16361.63
795.207	16351.01
795.539	16198.47
795.871	16330.67
796.203	16153.28
796.535	15997.8
796.867	16092.03
797.198	16030.12
797.53	16043.45
797.862	15916.22
798.193	15864.7
798.525	15797.13
798.856	15836
799.188	15596.23
799.519	15670.12
799.85	15615.89
800.182	15641.65
800.513	15600.75
800.844	15468.1
801.175	15446.18
801.506	15395.78
801.837	15321.66
802.168	15304.26
802.499	15232.62
802.83	15179.29
803.161	15115.79
803.491	15165.96
803.822	15091.61
804.153	14945.17
804.483	14831.5
804.814	14855.23
805.145	14845.29
805.475	14770.26
805.805	14758.96
806.136	14720.77
806.466	14742.69
806.796	14747.66
807.126	14510.83
807.457	14531.4
807.787	14535.01
808.117	14543.83
808.447	14392.64
808.777	14513.32
809.107	14344.06
809.436	14261.35
809.766	14307
810.096	14245.08
810.426	14219.32
810.755	14181.58
811.085	14183.61
811.414	14055.93
811.744	13997.4
812.073	14023.61
812.403	13992.43
812.732	13822.72
813.061	13967.12
813.39	13763.06
813.719	13805.77
814.049	13814.81
814.378	13813.68
814.707	13726
815.036	13746.79
815.365	13634.02
815.693	13594.7
816.022	13552.21
816.351	13513.35
816.68	13469.28
817.008	13480.58
817.337	13304.99
817.665	13304.54
817.994	13359.9
818.322	13354.71
818.651	13279.45
818.979	13214.37
819.307	13220.92
819.636	13277.19
819.964	13207.59
820.292	13173.02
820.62	13189.96
820.948	13148.38
821.276	13198.33
821.604	13159
821.932	13171.89
822.259	13159.23
822.587	13119.46
822.915	13104.09
823.243	13116.75
823.57	13068.16
823.898	13103.19
824.225	13109.51
824.553	13007.6
824.88	13104.99
825.207	13063.64
825.535	13017.99
825.862	13164.65
826.189	13008.95
826.516	13035.17
826.843	13135.95
827.17	13074.49
827.497	13026.58
827.824	13027.03
828.151	13157.2
828.478	13122.4
828.805	13097.76
829.131	13000.82
829.458	12991.1
829.785	12978.44
830.111	12978.22
830.438	13060.93
830.764	13020.93
831.09	13073.13
831.417	12993.13
831.743	12970.53
832.069	12924.43
832.395	12957.65
832.722	12903.19
833.048	12959.69
833.374	12893.25
833.7	12852.57
834.026	12914.72
834.351	12918.56
834.677	12878.79
835.003	12796.08
835.329	12855.74
835.654	12836.75
835.98	12780.48
836.306	12814.15
836.631	12752.91
836.956	12756.3
837.282	12760.37
837.607	12671.11
837.932	12673.59
838.258	12647.38
838.583	12676.31
838.908	12527.38
839.233	12570.09
839.558	12524.22
839.883	12533.48
840.208	12559.25
840.533	12555.4
840.858	12462.53
841.182	12492.58
841.507	12471.56
841.832	12405.13
842.156	12363.77
842.481	12418.23
842.805	12375.75
843.13	12320.83
843.454	12288.97
843.778	12283.77
844.103	12275.19
844.427	12175.08
844.751	12247.39
845.075	12153.83
845.399	12154.74
845.723	12023.89
846.047	12053.27
846.371	11966.27
846.695	11929.88
847.019	11861.64
847.343	11833.84
847.666	11791.81
847.99	11675.65
848.313	11661.87
848.637	11617.12
848.96	11606.95
849.284	11585.26
849.607	11472.72
849.931	11526.96
850.254	11358.37
850.577	11429.78
850.9	11354.08
851.223	11335.32
851.546	11148.21
851.869	11098.72
852.192	11194.99
852.515	11086.74
852.838	11056.23
853.161	11097.36
853.483	10972.4
853.806	10952.06
854.129	10878.39
854.451	10838.16
854.774	10808.11
855.096	10757.03
855.419	10764.72
855.741	10680.65
856.063	10630.26
856.385	10676.58
856.708	10596.59
857.03	10617.15
857.352	10553.42
857.674	10547.1
857.996	10499.41
858.318	10450.83
858.64	10472.97
858.961	10397.04
859.283	10334.45
859.605	10328.8
859.926	10289.48
860.248	10323.82
860.57	10233.43
860.891	10290.61
861.212	10258.06
861.534	10170.16
861.855	10183.94
862.176	10174.45
862.498	10117.95
862.819	10101.91
863.14	10055.13
863.461	10019.65
863.782	10004.74
864.103	9985.3
864.424	9985.08
864.745	9980.1
865.065	9948.92
865.386	9914.34
865.707	9985.3
866.027	9909.6
866.348	9934
866.668	9922.48
866.989	9879.09
867.309	9764.52
867.63	9826.66
867.95	9829.6
868.27	9717.96
868.59	9720
868.91	9743.95
869.23	9722.71
869.55	9672.77
869.87	9673.22
870.19	9636.39
870.51	9695.82
870.83	9663.05
871.15	9637.97
871.469	9668.7
871.789	9687.68
872.109	9624.41
872.428	9499.67
872.748	9575.14
873.067	9574.01
873.386	9593.22
873.706	9527.46
874.025	9491.98
874.344	9450.63
874.663	9458.31
874.982	9454.92
875.301	9416.73
875.62	9378.76
875.939	9379.44
876.258	9463.51
876.577	9304.87
876.896	9343.74
877.214	9325.43
877.533	9327.69
877.852	9294.93
878.17	9260.58
878.489	9308.26
878.807	9335.15
879.125	9282.5
879.444	9230.97
879.762	9166.79
880.08	9228.49
880.398	9129.73
880.716	9151.2
881.034	9078.43
881.352	9065.33
881.67	9141.48
881.988	9145.1
882.306	9075.95
882.624	9060.13
882.941	9008.15
883.259	8963.18
883.577	8986.68
883.894	8988.72
884.212	8926.57
884.529	8981.26
884.846	8855.39
885.164	8865.11
885.481	8885.22
885.798	8794.37
886.115	8787.37
886.432	8763.64
886.75	8814.03
887.067	8797.31
887.383	8725.22
887.7	8699.69
888.017	8688.61
888.334	8616.07
888.651	8650.42
888.967	8645.9
889.284	8616.07
889.6	8561.16
889.917	8556.19
890.233	8513.48
890.55	8516.64
890.866	8487.94
891.182	8413.82
891.498	8447.26
891.815	8381.73
892.131	8403.42
892.447	8400.94
892.763	8355.97
893.079	8351.9
893.395	8289.53
893.71	8247.27
894.026	8275.52
894.342	8250.66
894.657	8217.21
894.973	8097.22
895.289	8119.36
895.604	8098.8
895.92	8066.93
896.235	8066.71
896.55	8013.6
896.865	7989.2
897.181	7980.38
897.496	7951.23
897.811	7915.75
898.126	7869.43
898.441	7858.58
898.756	7858.35
899.071	7792.82
899.386	7794.85
899.7	7800.95
900.015	7734.51
900.33	7714.4
900.644	7669.66
900.959	7668.98
901.273	7667.62
901.588	7628.53
901.902	7558.93
902.216	7583.78
902.531	7541.52
902.845	7458.36
903.159	7457.23
903.473	7417.46
903.787	7424.92
904.101	7316.45
904.415	7391.47
904.729	7322.1
905.042	7243.45
905.356	7278.48
905.67	7233.74
905.984	7271.48
906.297	7197.13
906.611	7144.7
906.924	7151.48
907.237	7119.84
907.551	7052.27
907.864	7001.43
908.177	6970.92
908.491	7026.74
908.804	6961.88
909.117	6909
909.43	6943.8
909.743	6905.84
910.056	6855.89
910.368	6867.87
910.681	6789
910.994	6737.7
911.307	6771.6
911.619	6679.85
911.932	6713.3
912.244	6705.84
912.557	6678.95
912.869	6619.52
913.181	6630.36
913.494	6640.31
913.806	6570.93
914.118	6538.61
914.43	6500.87
914.742	6487.09
915.054	6441.67
915.366	6418.62
915.678	6412.74
915.99	6327.09
916.302	6329.58
916.613	6285.06
916.925	6220.2
917.236	6268.34
917.548	6182.69
917.859	6213.42
918.171	6175.69
918.482	6144.73
918.794	6137.27
919.105	6108.12
919.416	6094.78
919.727	6095.91
920.038	6020.66
920.349	5935.01
920.66	5988.8
920.971	5949.25
921.282	5917.84
921.593	5898.86
921.903	5835.13
922.214	5834.45
922.525	5801.23
922.835	5798.07
923.146	5764.85
923.456	5748.35
923.767	5739.31
924.077	5734.34
924.387	5725.75
924.697	5630.61
925.008	5636.04
925.318	5617.06
925.628	5628.13
925.938	5575.25
926.248	5541.35
926.558	5488.02
926.867	5451.86
927.177	5455.03
927.487	5420.9
927.796	5440.34
928.106	5400.56
928.416	5402.82
928.725	5395.37
929.034	5323.05
929.344	5333.22
929.653	5290.74
929.962	5222.49
930.271	5200.34
930.581	5205.77
930.89	5196.05
931.199	5176.39
931.508	5126.9
931.817	5160.8
932.125	5152.21
932.434	5109.72
932.743	5103.4
933.051	5051.87
933.36	5017.75
933.669	5003.29
933.977	5006.45
934.286	4979.11
934.594	4939.33
934.902	4891.43
935.21	4900.69
935.519	4903.18
935.827	4850.3
936.135	4809.39
936.443	4789.28
936.751	4809.62
937.059	4781.37
937.367	4769.17
937.674	4740.47
937.982	4722.16
938.29	4702.96
938.597	4722.62
938.905	4622.51
939.213	4612.79
939.52	4595.16
939.827	4608.27
940.135	4578.21
940.442	4530.76
940.749	4580.02
941.056	4509.06
941.363	4489.18
941.67	4489.18
941.977	4456.18
942.284	4436.07
942.591	4421.15
942.898	4408.95
943.205	4391.78
943.511	4319.01
943.818	4349.74
944.125	4284.89
944.431	4337.09
944.738	4341.61
945.044	4281.72
945.35	4333.7
945.657	4239.69
945.963	4229.75
946.269	4192.46
946.575	4199.47
946.881	4144.33
947.187	4188.62
947.493	4108.62
947.799	4105.68
948.105	4102.97
948.41	4089.86
948.716	4035.18
949.022	4068.85
949.327	4032.69
949.633	4014.61
949.938	3996.76
950.244	3974.16
950.549	3929.87
950.854	3955.4
951.16	3932.58
951.465	3928.06
951.77	3864.79
952.075	3887.61
952.38	3848.29
952.685	3853.03
952.99	3823.43
953.294	3780.27
953.599	3801.06
953.904	3807.61
954.209	3764
954.513	3778.69
954.818	3740.72
955.122	3726.26
955.426	3662.76
955.731	3654.4
956.035	3646.26
956.339	3658.92
956.643	3663.89
956.948	3609.65
957.252	3646.26
957.556	3632.7
957.86	3581.85
958.163	3555.64
958.467	3587.05
958.771	3546.83
959.075	3514.74
959.378	3483.78
959.682	3491.46
959.985	3498.47
960.289	3442.65
960.592	3432.25
960.896	3395.19
961.199	3421.18
961.502	3375.76
961.805	3364.23
962.108	3359.71
962.411	3332.82
962.714	3332.82
963.017	3323.56
963.32	3302.09
963.623	3267.74
963.926	3294.86
964.228	3253.73
964.531	3257.57
964.833	3239.94
965.136	3225.25
965.438	3254.41
965.741	3208.76
966.043	3185.26
966.345	3170.34
966.648	3166.5
966.95	3174.18
967.252	3157.01
967.554	3130.12
967.856	3126.5
968.158	3100.06
968.46	3097.12
968.761	3067.07
969.063	3037.69
969.365	3020.29
969.666	3006.05
969.968	3037.69
970.269	3000.63
970.571	2995.43
970.872	2990.23
971.174	2968.76
971.475	2967.86
971.776	2940.97
972.077	2910.69
972.378	2893.96
972.679	2899.16
972.98	2886.28
973.281	2891.48
973.582	2887.41
973.883	2869.33
974.183	2833.17
974.484	2848.54
974.785	2735.78
975.085	2797.24
975.386	2780.75
975.686	2763.8
975.986	2774.19
976.287	2751.59
976.587	2743.01
976.887	2718.83
977.187	2720.18
977.487	2700.07
977.787	2684.93
978.087	2658.49
978.387	2635.44
978.687	2660.52
978.987	2653.74
979.286	2650.13
979.586	2628.21
979.885	2607.64
980.185	2585.72
980.484	2572.84
980.784	2569
981.083	2604.71
981.382	2543.01
981.682	2575.55
981.981	2506.63
982.28	2518.83
982.579	2528.78
982.878	2540.75
983.177	2512.05
983.475	2475.22
983.774	2437.7
984.073	2452.39
984.372	2427.08
984.67	2417.82
984.969	2438.83
985.267	2406.29
985.566	2402.9
985.864	2404.71
986.162	2373.98
986.461	2373.3
986.759	2364.49
987.057	2355.45
987.355	2311.15
987.653	2330.36
987.951	2310.93
988.249	2326.07
988.547	2315.45
988.844	2280.87
989.142	2303.92
989.44	2264.15
989.737	2240.42
990.035	2251.95
990.332	2246.75
990.63	2228.67
990.927	2189.58
991.224	2216.47
991.521	2161.78
991.819	2172.17
992.116	2157.26
992.413	2139.86
992.71	2158.84
993.006	2146.64
993.303	2156.36
993.6	2131.95
993.897	2133.53
994.193	2108.67
994.49	2109.13
994.787	2092.18
995.083	2104.38
995.379	2065.74
995.676	2066.41
995.972	2045.4
996.268	2058.96
996.565	2004.04
996.861	2048.11
997.157	2018.96
997.453	1988.68
997.749	2013.08
998.044	1971.05
998.34	1955.01
998.636	1939.86
998.932	1965.4
999.227	1972.63
999.523	1955.91
999.818	1919.3
1000.114	1910.26
1000.409	1915.46
1000.704	1905.29
1001	1876.82
1001.295	1867.78
1001.59	1879.98
1001.885	1847.66
1002.18	1845.86
1002.475	1823.94
1002.77	1814.67
1003.065	1802.47
1003.359	1795.69
1003.654	1831.62
1003.949	1779.87
1004.243	1780.09
1004.538	1743.26
1004.832	1749.81
1005.127	1774.44
1005.421	1735.8
1005.715	1751.39
1006.009	1726.31
1006.304	1709.81
1006.598	1679.98
1006.892	1730.83
1007.186	1668.23
1007.48	1679.08
1007.773	1691.51
1008.067	1644.73
1008.361	1635.47
1008.655	1627.33
1008.948	1618.97
1009.242	1628.01
1009.535	1623.94
1009.829	1588.91
1010.122	1597.5
1010.415	1572.42
1010.708	1586.2
1011.001	1566.77
1011.295	1542.81
1011.588	1538.29
1011.881	1548.24
1012.173	1547.33
1012.466	1531.06
1012.759	1560.44
1013.052	1518.18
1013.344	1515.47
1013.637	1483.83
1013.93	1499.2
1014.222	1486.09
1014.514	1451.29
1014.807	1471.4
1015.099	1467.56
1015.391	1462.14
1015.683	1458.75
1015.976	1411.29
1016.268	1405.87
1016.56	1404.06
1016.851	1411.06
1017.143	1406.54
1017.435	1425.98
1017.727	1382.82
1018.018	1364.51
1018.31	1378.98
1018.602	1364.51
1018.893	1337.39
1019.185	1342.37
1019.476	1314.57
1019.767	1340.33
1020.058	1320.45
1020.35	1314.8
1020.641	1275.02
1020.932	1263.27
1021.223	1257.62
1021.514	1281.8
1021.804	1261.46
1022.095	1250.62
1022.386	1255.36
1022.677	1237.28
1022.967	1232.54
1023.258	1239.09
1023.548	1230.5
1023.839	1191.18
1024.129	1186.66
1024.419	1192.77
1024.709	1194.57
1025	1187.57
1025.29	1169.72
1025.58	1145.31
1025.87	1143.73
1026.16	1161.35
1026.449	1142.37
1026.739	1122.48
1027.029	1132.43
1027.319	1120.22
1027.608	1116.16
1027.898	1101.02
1028.187	1098.76
1028.477	1086.33
1028.766	1084.52
1029.055	1071.86
1029.344	1073.9
1029.634	1033.22
1029.923	1076.16
1030.212	1062.37
1030.501	1041.36
1030.79	1013.56
1031.078	1056.5
1031.367	1033.22
1031.656	1022.37
1031.945	1007.01
1032.233	1033.67
1032.522	1002.26
1032.81	983.73
1033.099	996.61
1033.387	983.51
1033.675	1009.27
1033.963	964.97
1034.251	990.96
1034.54	939.44
1034.828	941.47
1035.116	957.52
1035.403	938.99
1035.691	944.41
1035.979	927.69
1036.267	926.78
1036.554	932.21
1036.842	917.07
1037.129	908.7
1037.417	891.3
1037.704	906.22
1037.992	905.54
1038.279	879.33
1038.566	855.6
1038.853	855.6
1039.14	855.6
