Data from hue_22_FLMS001491_00057.txt Node
Date: Tue Feb 07 17:10:20 GMT 2017
User: dcchb
Spectrometer: FLMS00149
Trigger mode: 0
Integration Time (sec): 2.000000E-2
Scans to average: 10
Electric dark correction enabled: true
Nonlinearity correction enabled: false
Boxcar width: 0
XAxis mode: Wavelengths
Number of Pixels in Spectrum: 2048
>>>>>Begin Spectral Data<<<<<
341.393	-9.27
341.776	-9.27
342.16	-9.27
342.543	-64.41
342.927	-76.61
343.31	-59.89
343.693	-76.38
344.077	-68.92
344.46	-73.22
344.843	-45.87
345.226	-45.87
345.61	-35.48
345.993	-12.88
346.376	-7.68
346.759	20.56
347.142	25.08
347.525	48.13
347.908	51.52
348.291	80.22
348.674	85.2
349.057	115.48
349.44	107.12
349.823	146.44
350.206	156.83
350.588	188.47
350.971	222.59
351.354	236.15
351.737	250.84
352.119	228.24
352.502	269.15
352.884	299.2
353.267	299.2
353.65	304.85
354.032	288.81
354.414	307.56
354.797	306.88
355.179	334.68
355.562	336.04
355.944	328.13
356.326	336.71
356.709	332.42
357.091	338.3
357.473	348.92
357.855	324.51
358.238	349.82
358.62	361.12
359.002	338.75
359.384	365.64
359.766	329.03
360.148	349.14
360.53	351.18
360.912	327
361.294	338.75
361.676	327.9
362.057	342.36
362.439	357.73
362.821	316.38
363.203	339.88
363.584	327.22
363.966	304.4
364.348	330.16
364.729	322.25
365.111	319.77
365.493	324.96
365.874	316.6
366.256	326.77
366.637	325.87
367.019	318.86
367.4	320.44
367.781	327
368.163	324.29
368.544	319.31
368.925	310.27
369.306	320.44
369.688	303.04
370.069	291.97
370.45	319.31
370.831	322.48
371.212	325.87
371.593	321.35
371.974	317.73
372.355	320.9
372.736	298.3
373.117	315.7
373.498	329.71
373.879	318.64
374.26	327.68
374.641	303.72
375.021	309.37
375.402	328.8
375.783	328.35
376.163	337.17
376.544	317.05
376.925	335.36
377.305	312.08
377.686	329.48
378.066	309.37
378.447	339.88
378.827	310.5
379.208	367.22
379.588	344.17
379.968	324.06
380.349	326.32
380.729	320.67
381.109	336.94
381.489	343.04
381.87	341.23
382.25	342.36
382.63	347.56
383.01	349.82
383.39	341.23
383.77	357.96
384.15	340.78
384.53	372.87
384.91	351.4
385.29	352.08
385.67	355.24
386.049	347.11
386.429	354.79
386.809	348.47
387.189	359.09
387.568	364.96
387.948	359.31
388.328	375.36
388.707	361.12
389.087	384.85
389.466	360.22
389.846	363.61
390.225	379.65
390.605	382.14
390.984	397.5
391.363	363.61
391.743	385.07
392.122	368.58
392.501	378.52
392.881	370.39
393.26	397.73
393.639	362.25
394.018	375.81
394.397	382.81
394.776	376.71
395.155	367.67
395.534	385.07
395.913	388.69
396.292	378.52
396.671	392.08
397.05	387.79
397.429	391.4
397.808	376.94
398.186	394.11
398.565	381.91
398.944	394.57
399.323	395.24
399.701	395.02
400.08	391.85
400.458	391.63
400.837	403.38
401.215	406.32
401.594	401.8
401.972	402.93
402.351	396.15
402.729	411.97
403.107	417.39
403.486	382.14
403.864	419.2
404.242	416.71
404.62	425.07
404.999	410.38
405.377	431.4
405.755	430.72
406.133	436.15
406.511	435.02
406.889	447.67
407.267	439.54
407.645	430.72
408.023	455.36
408.401	435.47
408.779	438.63
409.156	440.67
409.534	438.18
409.912	450.16
410.29	454.45
410.667	451.06
411.045	465.07
411.422	462.59
411.8	443.6
412.178	466.65
412.555	480.44
412.933	468.91
413.31	493.09
413.687	465.07
414.065	481.34
414.442	479.76
414.819	501.46
415.197	486.77
415.574	478.18
415.951	496.71
416.328	489.7
416.705	510.95
417.082	506.2
417.46	514.79
417.837	530.83
418.214	506.2
418.591	514.34
418.967	508.46
419.344	505.98
419.721	525.86
420.098	536.03
420.475	523.38
420.852	541.45
421.228	526.77
421.605	527.9
421.982	522.7
422.358	554.11
422.735	536.94
423.111	542.81
423.488	536.26
423.864	559.08
424.241	570.83
424.617	569.02
424.994	572.64
425.37	575.58
425.746	578.52
426.123	577.84
426.499	559.76
426.875	589.59
427.251	602.92
427.627	602.92
428.003	588.46
428.379	603.6
428.756	605.63
429.132	604.73
429.507	622.36
429.883	616.71
430.259	624.16
430.635	629.14
431.011	628.91
431.387	635.01
431.763	659.42
432.138	643.82
432.514	639.31
432.89	618.29
433.265	663.71
433.641	663.94
434.016	679.08
434.392	661.23
434.767	678.63
435.143	703.71
435.518	669.81
435.894	729.02
436.269	701.45
436.644	713.65
437.02	724.73
437.395	714.78
437.77	725.4
438.145	731.28
438.52	734.67
438.895	731.96
439.271	744.16
439.646	776.25
440.021	750.49
440.395	747.78
440.77	766.53
441.145	742.35
441.52	764.5
441.895	773.76
442.27	783.71
442.645	759.3
443.019	795.46
443.394	786.87
443.769	802.92
444.143	803.59
444.518	814.67
444.892	803.82
445.267	809.02
445.641	808.11
446.016	819.19
446.39	837.49
446.764	825.97
447.139	818.06
447.513	841.56
447.887	866.19
448.262	849.92
448.636	850.83
449.01	856.47
449.384	879.75
449.758	854.89
450.132	874.33
450.506	865.97
450.88	877.27
451.254	896.02
451.628	905.51
452.002	890.37
452.376	908.22
452.75	889.92
453.123	902.8
453.497	908.22
453.871	938.73
454.244	934.44
454.618	960.2
454.992	991.16
455.365	1002.46
455.739	959.3
456.112	986.87
456.486	973.08
456.859	999.75
457.232	1028.22
457.606	1029.8
457.979	1036.13
458.352	1052.63
458.725	1071.61
459.099	1060.76
459.472	1080.42
459.845	1099.63
460.218	1087.2
460.591	1103.02
460.964	1086.07
461.337	1134.43
461.71	1164.49
462.083	1145.96
462.456	1145.96
462.829	1183.02
463.201	1196.58
463.574	1187.77
463.947	1213.3
464.32	1218.95
464.692	1239.52
465.065	1236.58
465.438	1256.01
465.81	1270.48
466.183	1279.06
466.555	1310.93
466.928	1337.82
467.3	1310.7
467.672	1355.9
468.045	1354.77
468.417	1390.25
468.789	1381.43
469.161	1390.92
469.534	1426.4
469.906	1429.79
470.278	1503.24
470.65	1480.64
471.022	1519.73
471.394	1521.54
471.766	1538.94
472.138	1579.85
472.51	1580.98
472.882	1627.53
473.253	1649.22
473.625	1655.32
473.997	1709.33
474.369	1731.25
474.74	1720.18
475.112	1785.49
475.484	1777.81
475.855	1816
476.227	1832.27
476.598	1886.73
476.97	1910.01
477.341	1930.12
477.713	1981.64
478.084	2000.63
478.455	2068.65
478.827	2067.52
479.198	2179.15
479.569	2166.27
479.94	2219.83
480.311	2220.28
480.682	2322.65
481.053	2344.57
481.424	2378.24
481.795	2409.88
482.166	2454.4
482.537	2504.79
482.908	2515.19
483.279	2554.51
483.65	2603.55
484.021	2669.53
484.391	2702.75
484.762	2730.55
485.133	2799.7
485.503	2819.81
485.874	2891.45
486.244	2902.07
486.615	3008.73
486.985	3019.36
487.356	3077.21
487.726	3107.04
488.097	3187.94
488.467	3204.21
488.837	3300.48
489.207	3337.09
489.578	3423.64
489.948	3447.82
490.318	3477.2
490.688	3477.65
491.058	3575.27
491.428	3573.69
491.798	3640.13
492.168	3717.42
492.538	3758.77
492.908	3846.45
493.278	3831.54
493.648	3840.58
494.017	3913.8
494.387	3983.62
494.757	3998.31
495.126	4060.23
495.496	4088.03
495.866	4127.35
496.235	4152.43
496.605	4198.53
496.974	4247.35
497.344	4297.51
497.713	4311.3
498.082	4302.03
498.452	4359.89
498.821	4380.45
499.19	4389.72
499.559	4464.52
499.928	4512.88
500.298	4563.5
500.667	4577.51
501.036	4581.57
501.405	4609.6
501.774	4673.55
502.143	4661.8
502.512	4718.97
502.88	4745.86
503.249	4771.17
503.618	4761.23
503.987	4796.71
504.356	4852.53
504.724	4897.5
505.093	4889.36
505.462	4885.52
505.83	4945.41
506.199	5007.1
506.567	4984.5
506.936	5014.33
507.304	5104.72
507.672	5126.64
508.041	5177.94
508.409	5156.02
508.777	5192.41
509.145	5191.5
509.514	5210.03
509.882	5229.69
510.25	5296.13
510.618	5273.31
510.986	5321.67
511.354	5364.15
511.722	5402.34
512.09	5436.69
512.458	5401.67
512.826	5495
513.193	5450.93
513.561	5492.51
513.929	5526.86
514.297	5606.18
514.664	5645.73
515.032	5642.34
515.4	5680.98
515.767	5684.37
516.135	5696.8
516.502	5712.39
516.869	5738.15
517.237	5719.85
517.604	5740.87
517.972	5854.76
518.339	5857.47
518.706	5815.21
519.073	5845.72
519.44	5876.91
519.808	5992.61
520.175	5937.02
520.542	6005.49
520.909	6073.29
521.276	6004.81
521.643	6071.03
522.009	6142.66
522.376	6163
522.743	6182.21
523.11	6224.47
523.477	6263.34
523.843	6293.17
524.21	6356.9
524.577	6359.15
524.943	6343.11
525.31	6426.72
525.676	6478.25
526.043	6491.35
526.409	6530
526.776	6597.79
527.142	6579.94
527.508	6599.83
527.874	6658.81
528.241	6701.07
528.607	6715.76
528.973	6771.8
529.339	6809.99
529.705	6828.97
530.071	6937.67
530.437	6969.08
530.803	6950.1
531.169	6951
531.535	7053.15
531.901	6981.06
532.267	7030.1
532.632	7107.38
532.998	7119.36
533.364	7149.19
533.73	7174.05
534.095	7216.76
534.461	7273.03
534.826	7320.49
535.192	7347.38
535.557	7381.95
535.923	7402.97
536.288	7379.92
536.653	7415.85
537.019	7388.96
537.384	7480.71
537.749	7512.57
538.114	7470.31
538.479	7567.03
538.845	7612.23
539.21	7584.43
539.575	7598.67
539.94	7690.19
540.305	7723.41
540.67	7704.43
541.034	7765.45
541.399	7872.34
541.764	7856.06
542.129	7890.87
542.494	7895.16
542.858	7936.29
543.223	7946.68
543.587	8045.21
543.952	8003.41
544.316	8082.73
544.681	8109.84
545.045	8095.38
545.41	8145.55
545.774	8164.08
546.138	8162.27
546.503	8281.59
546.867	8265.09
547.231	8332.44
547.595	8348.48
547.959	8359.55
548.324	8355.94
548.688	8429.83
549.052	8471.19
549.416	8453.56
549.779	8429.16
550.143	8545.31
550.507	8625.31
550.871	8606.33
551.235	8685.87
551.599	8698.75
551.962	8703.5
552.326	8694.69
552.689	8738.98
553.053	8717.51
553.417	8803.16
553.78	8838.86
554.143	8793.67
554.507	8904.4
554.87	8858.98
555.234	9048.8
555.597	8953.21
555.96	9011.97
556.323	9017.39
556.686	9007.9
557.05	9131.29
557.413	9157.05
557.776	9186.65
558.139	9193.2
558.502	9218.51
558.865	9226.65
559.228	9261.9
559.59	9309.13
559.953	9283.15
560.316	9362.01
560.679	9400.66
561.041	9484.72
561.404	9460.77
561.767	9536.7
562.129	9490.37
562.492	9578.73
562.854	9583.48
563.217	9628.22
563.579	9635.23
563.941	9727.2
564.304	9784.6
564.666	9753.19
565.028	9833.64
565.39	9852.17
565.753	9899.85
566.115	9945.28
566.477	9963.81
566.839	10044.03
567.201	10014.43
567.563	10031.37
567.925	10101.66
568.287	10182.78
568.648	10131.71
569.01	10319.5
569.372	10333.74
569.734	10238.6
570.095	10394.3
570.457	10392.72
570.819	10385.72
571.18	10467.75
571.542	10539.16
571.903	10504.81
572.265	10606.05
572.626	10663
572.987	10691.24
573.349	10717.46
573.71	10803.78
574.071	10822.09
574.432	10914.29
574.794	11001.07
575.155	10992.03
575.516	11099.82
575.877	11145.47
576.238	11189.31
576.599	11284.9
576.96	11389.76
577.32	11395.63
577.681	11514.73
578.042	11647.15
578.403	11643.08
578.763	11732.12
579.124	11805.34
579.485	11941.61
579.845	12176.4
580.206	12195.16
580.566	12315.38
580.927	12386.57
581.287	12558.31
581.648	12711.98
582.008	12839.44
582.368	12942.48
582.728	13122.82
583.089	13252.31
583.449	13455.92
583.809	13602.35
584.169	13728
584.529	13900.65
584.889	14242.79
585.249	14258.61
585.609	14397.81
585.969	14739.5
586.329	14782.44
586.688	15145.14
587.048	15340.84
587.408	15552.13
587.768	15835.29
588.127	16000.03
588.487	16250.65
588.846	16596.85
589.206	16746.68
589.565	17032.77
589.925	17396.38
590.284	17600.67
590.643	17813.09
591.003	18220.54
591.362	18453.53
591.721	18733.74
592.08	19001.08
592.44	19238.59
592.799	19559.49
593.158	19879.48
593.517	20120.83
593.876	20538.89
594.235	20750.87
594.593	21030.86
594.952	21321.02
595.311	21784.96
595.67	22053.43
596.029	22476.25
596.387	22719.4
596.746	23127.75
597.104	23232.61
597.463	23612.49
597.822	24005.02
598.18	24206.37
598.538	24524.1
598.897	25013.58
599.255	25008.38
599.613	25741.47
599.972	25878.42
600.33	26206.09
600.688	26475.46
601.046	26823.25
601.404	27133.07
601.762	27451.26
602.12	27797.01
602.478	28181.86
602.836	28410.55
603.194	28502.53
603.552	28941.16
603.91	29117.2
604.268	29638.99
604.625	29750.4
604.983	29990.62
605.341	30229.49
605.698	30689.59
606.056	31017.04
606.413	31102.23
606.771	31520.53
607.128	31895.21
607.485	31928.2
607.843	32159.61
608.2	32574.74
608.557	32925.46
608.914	33153.03
609.272	33517.54
609.629	33740.36
609.986	34048.82
610.343	34061.03
610.7	34494.91
611.057	34582.82
611.414	34807.9
611.771	34931.96
612.127	35414.21
612.484	35333.76
612.841	35743.24
613.198	35765.39
613.554	36048.09
613.911	36247.41
614.267	36556.55
614.624	36767.85
614.98	36761.75
615.337	37244.22
615.693	37338
616.05	37396.53
616.406	37950.64
616.762	37801.27
617.118	37986.57
617.475	38143.86
617.831	38421.36
618.187	38485.32
618.543	38681.47
618.899	39031.74
619.255	38981.57
619.611	39144.51
619.967	39439.41
620.323	39625.62
620.678	39606.42
621.034	39593.76
621.39	39783.81
621.746	39782
622.101	40397.58
622.457	40080.75
622.812	40207.53
623.168	40543.57
623.523	40464.02
623.879	40764.58
624.234	40584.92
624.589	40818.14
624.945	40882.99
625.3	41016.32
625.655	41072.59
626.01	41254.96
626.365	41204.34
626.72	41356.65
627.075	41324.79
627.43	41456.09
627.785	41456.76
628.14	41617.66
628.495	41573.82
628.85	41710.09
629.205	41613.14
629.559	42003.87
629.914	41736.3
630.269	41842.29
630.623	41814.49
630.978	41819.69
631.332	42037.99
631.687	42251.09
632.041	41952.8
632.396	42087.93
632.75	42059.23
633.104	42114.15
633.459	41998.67
633.813	42079.12
634.167	42071.89
634.521	42144.43
634.875	42217.65
635.229	42239.12
635.583	42051.32
635.937	42233.24
636.291	42059.46
636.645	42221.26
636.999	42185.78
637.352	42220.81
637.706	41986.01
638.06	42253.58
638.413	42140.59
638.767	42090.19
639.121	42337.64
639.474	41929.52
639.828	42008.39
640.181	42247.93
640.534	42150.76
640.888	42125.22
641.241	41975.85
641.594	41998.67
641.947	42055.39
642.301	42030.99
642.654	42095.62
643.007	42088.61
643.36	42105.33
643.713	41913.02
644.066	42168.38
644.419	41806.58
644.771	41662.41
645.124	41334.28
645.477	41390.1
645.83	41140.39
646.182	41019.94
646.535	40933.16
646.888	40914.4
647.24	40822.66
647.593	41070.78
647.945	40913.27
648.298	40793.96
648.65	40722.09
649.002	40565.94
649.355	40900.62
649.707	40696.78
650.059	40853.39
650.411	41322.3
650.763	41597.1
651.115	41781.05
651.467	41575.63
651.819	41592.58
652.171	41573.37
652.523	41584.44
652.875	41497.21
653.227	41358.01
653.578	41732.01
653.93	41670.77
654.282	41500.15
654.633	41524.56
654.985	41500.83
655.337	41448.85
655.688	41511.68
656.039	41725.46
656.391	41233.27
656.742	41455.63
657.094	41400.72
657.445	41682.29
657.796	41402.98
658.147	41400.72
658.498	41398.91
658.849	41334.05
659.2	41396.43
659.551	41209.99
659.902	41491.79
660.253	41365.24
660.604	41409.31
660.955	41223.77
661.306	41310.55
661.656	41274.62
662.007	41276.2
662.358	41388.52
662.708	41253.83
663.059	41336.77
663.409	41001.41
663.76	41401.62
664.11	41373.6
664.461	41419.7
664.811	41458.8
665.161	41395.97
665.511	41204.79
665.862	41200.5
666.212	41332.47
666.562	41292.93
666.912	41221.51
667.262	41119.14
667.612	41159.82
667.962	41215.87
668.312	41129.54
668.662	41327.95
669.011	41177.9
669.361	41149.43
669.711	41094.74
670.06	41172.25
670.41	40963.67
670.76	41072.59
671.109	41255.86
671.459	41096.55
671.808	41050.67
672.157	41126.15
672.507	40892.94
672.856	40935.42
673.205	40941.75
673.554	41126.6
673.904	40967.96
674.253	41238.92
674.602	40777.23
674.951	40386.96
675.3	40311.71
675.649	41043.44
675.998	40955.53
676.346	40880.06
676.695	40967.74
677.044	40660.4
677.393	40702.88
677.741	40747.4
678.09	40651.36
678.438	40767.97
678.787	40593.06
679.135	40803.22
679.484	40577.92
679.832	40698.82
680.181	40470.8
680.529	40379.73
680.877	40311.93
681.225	40426.73
681.573	40492.27
681.922	40244.82
682.27	40166.4
682.618	40314.42
682.966	40028.33
683.314	40254.08
683.661	39966.63
684.009	39861.55
684.357	39855.68
684.705	39760.54
685.053	39844.6
685.4	39753.98
685.748	39637.15
686.095	39538.62
686.443	39441.22
686.79	39350.15
687.138	39524.84
687.485	39479.87
687.832	39314.22
688.18	39361.22
688.527	39039.65
688.874	39127.56
689.221	39069.48
689.568	39036.26
689.915	38866.1
690.262	38861.8
690.609	38774.8
690.956	38733.22
691.303	38612.32
691.65	38529.83
691.997	38555.37
692.344	38387.47
692.69	38253.91
693.037	38249.62
693.383	37914.71
693.73	38197.64
694.077	37869.06
694.423	37881.26
694.769	37787.93
695.116	37683.53
695.462	37559.69
695.808	37479.92
696.155	37630.42
696.501	37260.72
696.847	37307.04
697.193	36978.46
697.539	37161.51
697.885	36971.68
698.231	36760.16
698.577	36848.07
698.923	36810.11
699.269	36485.59
699.614	36418.93
699.96	36409.89
700.306	36541.41
700.651	36253.96
700.997	36104.59
701.342	36105.27
701.688	35968.55
702.033	35842
702.379	35909.11
702.724	35800.19
703.069	35800.64
703.415	35474.77
703.76	35463.47
704.105	35454.44
704.45	35391.16
704.795	35201.33
705.14	35085.18
705.485	34972.87
705.83	34836.37
706.175	34927.44
706.52	34733.55
706.865	34740.78
707.209	34784.62
707.554	34617.85
707.899	34743.04
708.243	34383.5
708.588	34400.45
708.932	34138.09
709.277	34206.56
709.621	34354.12
709.966	34000.69
710.31	34085.43
710.654	33816.06
710.998	33815.83
711.342	33790.07
711.687	33575.84
712.031	33655.84
712.375	33517.08
712.719	33638.21
713.063	33586.01
713.407	33591.89
713.75	33402.29
714.094	33396.18
714.438	33255.62
714.782	33309.18
715.125	33140.15
715.469	33281.61
715.812	33054.95
716.156	32852.7
716.499	32881.4
716.843	32957.78
717.186	32681.17
717.53	32826.93
717.873	32695.86
718.216	32768.4
718.559	32470.33
718.902	32404.57
719.246	32414.51
719.589	32270.11
719.932	32171.58
720.275	32294.07
720.617	32142.43
720.96	32161.87
721.303	32070.8
721.646	32001.64
721.989	31923.45
722.331	32072.6
722.674	31736.11
723.016	31816.11
723.359	31796.68
723.701	31818.15
724.044	31625.38
724.386	31568.21
724.729	31751.03
725.071	31526.85
725.413	31574.31
725.755	31453.41
726.097	31259.07
726.439	31134.1
726.782	31212.96
727.124	31313.3
727.465	31080.76
727.807	31203.25
728.149	31029.69
728.491	31060.43
728.833	31068.79
729.175	30823.14
729.516	30878.28
729.858	30934.1
730.199	30784.28
730.541	30583.6
730.882	30687.1
731.224	30782.47
731.565	30523.72
731.906	30680.78
732.248	30584.51
732.589	30466.77
732.93	30328.69
733.271	30525.3
733.612	30401.91
733.953	30367.34
734.294	30346.55
734.635	30271.07
734.976	30234.46
735.317	30200.79
735.658	30137.96
735.999	30206.89
736.339	30013.22
736.68	30071.3
737.021	30065.88
737.361	29820.91
737.702	30034.69
738.042	29875.15
738.383	29729.39
738.723	29944.75
739.063	29660.24
739.404	29762.61
739.744	29644.64
740.084	29512.67
740.424	29715.15
740.764	29552.9
741.104	29667.47
741.444	29435.16
741.784	29449.62
742.124	29434.25
742.464	29379.79
742.804	29329.4
743.143	29269.29
743.483	29241.04
743.823	29133.02
744.162	29192.9
744.502	29230.19
744.841	29049.18
745.181	29145.67
745.52	28967.15
745.86	29112.45
746.199	29058.9
746.538	28992.68
746.877	29079.91
747.216	29009.18
747.556	28824.1
747.895	28788.62
748.234	28754.27
748.573	28870.2
748.911	28707.49
749.25	28757.66
749.589	28530.1
749.928	28501.4
750.267	28549.08
750.605	28445.58
750.944	28450.1
751.283	28309.76
751.621	28402.19
751.96	28281.06
752.298	28284.45
752.636	28245.13
752.975	28098.47
753.313	27985.93
753.651	28109.32
753.989	27952.71
754.327	27846.27
754.666	27792.49
755.004	27882.43
755.342	27920.62
755.679	27773.96
756.017	27693.06
756.355	27787.29
756.693	27546.85
757.031	27699.16
757.368	27458.94
757.706	27466.4
758.044	27397.47
758.381	27450.58
758.719	27242.67
759.056	27228.44
759.394	27263.69
759.731	27019.63
760.068	27037.03
760.405	26963.58
760.743	26922.23
761.08	26856.69
761.417	26827.32
761.754	26661.22
762.091	26578.06
762.428	26526.31
762.765	26326.99
763.102	26497.61
763.438	26292.42
763.775	26274.34
764.112	26366.76
764.449	26323.83
764.785	26173.32
765.122	25911.86
765.458	26011.07
765.795	25849.72
766.131	25769.04
766.467	25713.9
766.804	25686.1
767.14	25529.72
767.476	25492.21
767.812	25308.49
768.148	25337.64
768.485	25142.62
768.821	24991.43
769.157	24985.56
769.492	24987.37
769.828	24941.04
770.164	24673.7
770.5	24667.15
770.836	24695.4
771.171	24586.92
771.507	24442.75
771.842	24311.68
772.178	24309.42
772.513	24256.54
772.849	24171.34
773.184	24098.58
773.519	24007.28
773.855	24029.65
774.19	23846.83
774.525	23734.97
774.86	23705.14
775.195	23541.98
775.53	23403
775.865	23363.45
776.2	23273.51
776.535	23141.76
776.87	23025.38
777.205	23055.21
777.539	22929.34
777.874	23012.73
778.209	22748.33
778.543	22705.62
778.878	22586.98
779.212	22584.94
779.547	22335.01
779.881	22440.77
780.215	22352.41
780.55	22384.04
780.884	22185.18
781.218	22205.52
781.552	22142.92
781.886	22046.88
782.22	21855.47
782.554	21819.09
782.888	21549.26
783.222	21629.94
783.556	21527.8
783.889	21460.45
784.223	21269.72
784.557	21109.73
784.89	21383.62
785.224	21182.95
785.557	20983.18
785.891	20927.59
786.224	20969.17
786.558	21051.65
786.891	20646.46
787.224	20698.66
787.557	20600.14
787.891	20525.56
788.224	20469.52
788.557	20552.91
788.89	20439.24
789.223	20412.8
789.556	20268.39
789.888	20205.57
790.221	20119.92
790.554	19955.41
790.887	19867.05
791.219	19822.76
791.552	19761.06
791.884	19722.19
792.217	19699.14
792.549	19596.55
792.882	19438.81
793.214	19455.08
793.546	19340.73
793.879	19269.55
794.211	19220.51
794.543	19222.55
794.875	19148.65
795.207	19169.21
795.539	19103
795.871	19102.77
796.203	18902.33
796.535	18801.31
796.867	18723.12
797.198	18765.83
797.53	18637.93
797.862	18465.05
798.193	18632.5
798.525	18520.64
798.856	18538.95
799.188	18300.99
799.519	18229.58
799.85	18153.42
800.182	18176.92
800.513	18176.92
800.844	18015.12
801.175	18101.67
801.506	18080.2
801.837	17961.56
802.168	17938.06
802.499	17797.95
802.83	17705.75
803.161	17649.25
803.491	17635.24
803.822	17730.16
804.153	17567.67
804.483	17441.58
804.814	17368.13
805.145	17383.27
805.475	17329.04
805.805	17292.65
806.136	17286.78
806.466	17228.93
806.796	17229.15
807.126	17026.22
807.457	17002.49
807.787	17049.5
808.117	16967.46
808.447	16906.67
808.777	16939.89
809.107	16814.93
809.436	16721.59
809.766	16827.13
810.096	16638.43
810.426	16585.55
810.755	16597.3
811.085	16503.75
811.414	16483.18
811.744	16451.54
812.073	16380.36
812.403	16340.59
812.732	16311.21
813.061	16192.34
813.39	16216.52
813.719	16166.81
814.049	16177.65
814.378	16121.61
814.707	16063.98
815.036	16040.26
815.365	16048.62
815.693	15843.88
816.022	15911.9
816.351	15783.54
816.68	15777.21
817.008	15791.68
817.337	15659.7
817.665	15649.08
817.994	15628.97
818.322	15582.64
818.651	15453.6
818.979	15482.53
819.307	15551
819.636	15476.66
819.964	15321.63
820.292	15393.27
820.62	15426.04
820.948	15355.53
821.276	15390.33
821.604	15406.37
821.932	15435.98
822.259	15404.57
822.587	15337
822.915	15202.09
823.243	15424.91
823.57	15319.37
823.898	15275.08
824.225	15339.48
824.553	15220.62
824.88	15241.63
825.207	15240.96
825.535	15283.67
825.862	15352.36
826.189	15225.14
826.516	15315.53
826.843	15250.9
827.17	15321.86
827.497	15209.77
827.824	15243.22
828.151	15285.25
828.478	15172.03
828.805	15322.08
829.131	15237.79
829.458	15205.48
829.785	15129.55
830.111	15232.14
830.438	15214.74
830.764	15178.58
831.09	15169.32
831.417	15089.09
831.743	15252.93
832.069	15198.47
832.395	15083.22
832.722	15165.7
833.048	15067.85
833.374	15054.75
833.7	15064.91
834.026	15021.98
834.351	15123.44
834.677	14986.5
835.003	15102.65
835.329	15042.09
835.654	15004.35
835.98	14944.69
836.306	14999.61
836.631	14941.75
836.956	14900.63
837.282	14963.22
837.607	14846.62
837.932	14772.04
838.258	14890.68
838.583	14807.97
838.908	14723.68
839.233	14684.81
839.558	14716.68
839.883	14699.05
840.208	14626.28
840.533	14667.86
840.858	14627.64
841.182	14598.03
841.507	14671.03
841.832	14441.2
842.156	14542.89
842.481	14492.95
842.805	14389.23
843.13	14397.81
843.454	14440.98
843.778	14369.79
844.103	14284.37
844.427	14268.1
844.751	14293.86
845.075	14144.26
845.399	14154.2
845.723	14149.68
846.047	14120.98
846.371	13960.31
846.695	13924.38
847.019	13965.73
847.343	13795.8
847.666	13725.97
847.99	13643.71
848.313	13654.33
848.637	13588.12
848.96	13640.32
849.284	13516.25
849.607	13430.83
849.931	13388.35
850.254	13322.36
850.577	13282.59
850.9	13180.9
851.223	13151.52
851.546	13081.24
851.869	12965.31
852.192	13124.4
852.515	12976.61
852.838	12868.14
853.161	12866.1
853.483	12852.32
853.806	12766.67
854.129	12748.14
854.451	12691.42
854.774	12669.72
855.096	12646.45
855.419	12566.22
855.741	12459.11
856.063	12422.72
856.385	12460.69
856.708	12441.93
857.03	12368.49
857.352	12328.49
857.674	12295.5
857.996	12299.11
858.318	12137.76
858.64	12191.77
858.961	12207.81
859.283	12083.52
859.605	12036.29
859.926	11978.67
860.248	11954.04
860.57	11921.72
860.891	11963.98
861.212	11883.76
861.534	11903.19
861.855	11883.98
862.176	11863.87
862.498	11925.79
862.819	11893.25
863.14	11768.96
863.461	11722.63
863.782	11761.72
864.103	11730.09
864.424	11718.11
864.745	11675.4
865.065	11599.7
865.386	11571.45
865.707	11511.11
866.027	11530.32
866.348	11540.71
866.668	11589.53
866.989	11517.21
867.309	11460.94
867.63	11512.92
867.95	11516.53
868.27	11410.32
868.59	11400.15
868.91	11372.13
869.23	11483.77
869.55	11342.75
869.87	11398.12
870.19	11331.91
870.51	11324.9
870.83	11257.33
871.15	11258.24
871.469	11259.14
871.789	11307.05
872.109	11260.72
872.428	11135.98
872.748	11168.07
873.067	11187.05
873.386	11197.22
873.706	11103.44
874.025	10969.43
874.344	11053.72
874.663	11045.59
874.982	11038.81
875.301	11029.09
875.62	10977.79
875.939	10935.31
876.258	10976.89
876.577	10919.26
876.896	10892.82
877.214	10905.7
877.533	10870.22
877.852	10880.17
878.17	10846.95
878.489	10902.31
878.807	10882.2
879.125	10820.96
879.444	10828.64
879.762	10777.12
880.08	10783.67
880.398	10749.1
880.716	10715.42
881.034	10675.43
881.352	10689.44
881.67	10616.9
881.988	10693.05
882.306	10599.95
882.624	10561.3
882.941	10537.35
883.259	10509.55
883.577	10462.55
883.894	10450.12
884.212	10447.63
884.529	10391.14
884.846	10366.06
885.164	10385.04
885.481	10368.31
885.798	10397.01
886.115	10256.91
886.432	10226.85
886.75	10303.91
887.067	10263.23
887.383	10140.98
887.7	10182.33
888.017	10163.8
888.334	10152.73
888.651	10144.59
888.967	10034.76
889.284	10042.45
889.6	10036.57
889.917	9934.2
890.233	9992.28
890.55	9912.06
890.866	9938.95
891.182	9892.85
891.498	9821.44
891.815	9797.93
892.131	9807.2
892.447	9812.62
892.763	9712.74
893.079	9724.49
893.395	9666.86
893.71	9661.89
894.026	9657.37
894.342	9576.92
894.657	9504.61
894.973	9522.69
895.289	9519.98
895.604	9502.12
895.92	9384.16
896.235	9386.65
896.55	9365.4
896.865	9412.18
897.181	9322.47
897.496	9275.69
897.811	9249.02
898.126	9273.65
898.441	9204.73
898.756	9184.62
899.071	9110.72
899.386	9092.64
899.7	9033.43
900.015	8952.76
900.33	8962.48
900.644	8981.01
900.959	8957.05
901.273	8894
901.588	8914.34
901.902	8842.93
902.216	8794.12
902.531	8805.64
902.845	8748.7
903.159	8715.03
903.473	8697.17
903.787	8578.53
904.101	8635.48
904.415	8612.65
904.729	8524.75
905.042	8504.86
905.356	8517.52
905.67	8486.56
905.984	8488.36
906.297	8455.14
906.611	8376.28
906.924	8382.15
907.237	8335.83
907.551	8320.91
907.864	8234.81
908.177	8213.57
908.491	8191.88
908.804	8123.63
909.117	8033.01
909.43	8063.97
909.743	8025.1
910.056	7999.56
910.368	7982.39
910.681	7937.87
910.994	7941.71
911.307	7906.01
911.619	7849.51
911.932	7891.09
912.244	7776.52
912.557	7794.15
912.869	7630.53
913.181	7707.14
913.494	7661.04
913.806	7647.48
914.118	7595.96
914.43	7538.78
914.742	7597.77
915.054	7526.13
915.366	7481.39
915.678	7449.07
915.99	7415.4
916.302	7333.37
916.613	7332.01
916.925	7284.55
917.236	7309.64
917.548	7277.77
917.859	7306.7
918.171	7196.42
918.482	7207.95
918.794	7168.85
919.105	7148.29
919.416	7057.89
919.727	7072.81
920.038	7069.64
920.349	7023.54
920.66	7006.37
920.971	6969.99
921.282	6883.89
921.593	6915.75
921.903	6891.12
922.214	6822.19
922.525	6747.17
922.835	6777.45
923.146	6714.4
923.456	6724.12
923.767	6639.83
924.077	6646.6
924.387	6607.96
924.697	6562.77
925.008	6538.59
925.318	6497.91
925.628	6489.09
925.938	6465.37
926.248	6440.73
926.558	6404.8
926.867	6343.56
927.177	6362.09
927.487	6332.71
927.796	6297.24
928.106	6273.06
928.416	6263.34
928.725	6215.88
929.034	6242.55
929.344	6226.05
929.653	6184.24
929.962	6096.11
930.271	6109.9
930.581	6036
930.89	6045.26
931.199	5959.39
931.508	6040.97
931.817	6003.23
932.125	5934.31
932.434	5982.89
932.743	5870.35
933.051	5898.15
933.36	5877.81
933.669	5784.25
933.977	5791.26
934.286	5764.82
934.594	5736.35
934.902	5718.95
935.21	5720.53
935.519	5680.98
935.827	5629.68
936.135	5643.24
936.443	5595.56
936.751	5597.37
937.059	5515.11
937.367	5507.43
937.674	5500.87
937.982	5479.86
938.29	5492.51
938.597	5478.5
938.905	5381.1
939.213	5364.38
939.52	5352.4
939.827	5330.71
940.135	5320.99
940.442	5307.43
940.749	5261.78
941.056	5279.64
941.363	5203.7
941.67	5211.39
941.977	5144.05
942.284	5153.76
942.591	5113.99
942.898	5142.24
943.205	5128.23
943.511	5074.22
943.818	5043.48
944.125	5007.1
944.431	4983.37
944.738	5018.85
945.044	4929.36
945.35	4906.09
945.657	4963.03
945.963	4888.46
946.269	4912.19
946.575	4888.01
946.881	4905.41
947.187	4825.18
947.493	4816.6
947.799	4775.02
948.105	4771.85
948.41	4743.38
948.716	4715.13
949.022	4726.66
949.327	4642.59
949.633	4634.68
949.938	4658.41
950.244	4669.03
950.549	4578.41
950.854	4576.83
951.16	4561.91
951.465	4489.83
951.77	4545.19
952.075	4527.56
952.38	4470.39
952.685	4433.78
952.99	4427
953.294	4415.48
953.599	4400.79
953.904	4391.75
954.209	4352.65
954.513	4314.01
954.818	4310.17
955.122	4270.85
955.426	4248.93
955.731	4222.94
956.035	4204.86
956.339	4251.41
956.643	4260.45
956.948	4193.34
957.252	4179.78
957.556	4142.72
957.86	4141.59
958.163	4199.89
958.467	4085.54
958.771	4059.33
959.075	4074.7
959.378	4067.24
959.682	4022.04
959.985	3979.56
960.289	4004.19
960.592	3929.16
960.896	3952.66
961.199	3942.27
961.502	3961.03
961.805	3915.15
962.108	3867.69
962.411	3892.1
962.714	3868.6
963.017	3832.67
963.32	3855.04
963.623	3785.66
963.926	3799.67
964.228	3775.27
964.531	3728.26
964.833	3719.22
965.136	3675.38
965.438	3716.74
965.741	3672.45
966.043	3672.22
966.345	3613.01
966.648	3649.17
966.95	3627.02
967.252	3624.76
967.554	3570.08
967.856	3570.3
968.158	3546.12
968.46	3509.74
968.761	3562.17
969.063	3514.03
969.365	3489.85
969.666	3494.6
969.968	3466.8
970.269	3449.85
970.571	3432.45
970.872	3397.88
971.174	3409.4
971.475	3416.18
971.776	3387.26
972.077	3361.72
972.378	3321.49
972.679	3339.8
972.98	3309.74
973.281	3283.98
973.582	3313.13
973.883	3298.22
974.183	3230.88
974.484	3285.34
974.785	3239.91
975.085	3203.98
975.386	3201.5
975.686	3199.69
975.986	3172.12
976.287	3180.48
976.587	3135.74
976.887	3102.74
977.187	3121.27
977.487	3148.84
977.787	3095.51
978.087	3076.76
978.387	3079.24
978.687	3072.91
978.987	3006.02
979.286	3040.15
979.586	3005.34
979.885	2957.89
980.185	3012.58
980.484	2957.21
980.784	2968.06
981.083	2958.11
981.382	2927.61
981.682	2900.71
981.981	2905.69
982.28	2857.1
982.579	2876.31
982.878	2902.07
983.177	2883.99
983.475	2883.09
983.774	2873.37
984.073	2808.29
984.372	2784.33
984.67	2795.41
984.969	2814.16
985.267	2778.91
985.566	2754.28
985.864	2738.01
986.162	2753.83
986.461	2721.74
986.759	2714.28
987.057	2701.85
987.355	2663.43
987.653	2655.3
987.951	2656.65
988.249	2628.86
988.547	2648.74
988.844	2610.78
989.142	2599.03
989.44	2573.27
989.737	2585.24
990.035	2566.94
990.332	2566.71
990.63	2554.06
990.927	2578.01
991.224	2542.76
991.521	2508.63
991.819	2515.87
992.116	2508.63
992.413	2476.32
992.71	2475.42
993.006	2448.52
993.303	2437
993.6	2413.27
993.897	2432.25
994.193	2412.59
994.49	2439.94
994.787	2402.2
995.083	2389.54
995.379	2386.83
995.676	2408.75
995.972	2377.11
996.268	2330.33
996.565	2314.29
996.861	2320.84
997.157	2310.67
997.453	2290.56
997.749	2311.13
998.044	2260.28
998.34	2233.61
998.636	2275.65
998.932	2245.82
999.227	2244.01
999.523	2227.96
999.818	2174.18
1000.114	2181.64
1000.409	2153.84
1000.704	2143.45
1001	2173.73
1001.295	2138.25
1001.59	2121.75
1001.885	2144.12
1002.18	2146.84
1002.475	2117.91
1002.77	2087.4
1003.065	2092.37
1003.359	2053.28
1003.654	2064.58
1003.949	2084.01
1004.243	2018.03
1004.538	2029.33
1004.832	2008.76
1005.127	1971.02
1005.421	1969.89
1005.715	1952.27
1006.009	1956.11
1006.304	1950.23
1006.598	1922.89
1006.892	1916.56
1007.186	1910.23
1007.48	1922.21
1007.773	1902.32
1008.067	1873.17
1008.361	1846.28
1008.655	1860.97
1008.948	1876.56
1009.242	1848.09
1009.535	1848.99
1009.829	1812.16
1010.122	1812.38
1010.415	1816
1010.708	1777.35
1011.001	1749.78
1011.295	1798.37
1011.588	1759.73
1011.881	1767.19
1012.173	1734.42
1012.466	1710.46
1012.759	1725.6
1013.052	1712.27
1013.344	1706.62
1013.637	1698.03
1013.93	1675.44
1014.222	1668.2
1014.514	1682.89
1014.807	1642.67
1015.099	1644.25
1015.391	1660.52
1015.683	1650.8
1015.976	1629.79
1016.268	1622.1
1016.56	1594.76
1016.851	1603.35
1017.143	1568.55
1017.435	1588.21
1017.727	1561.31
1018.018	1549.56
1018.31	1567.87
1018.602	1516.34
1018.893	1509.79
1019.185	1504.37
1019.476	1484.93
1019.767	1498.27
1020.058	1481.77
1020.35	1467.98
1020.641	1458.27
1020.932	1452.17
1021.223	1453.07
1021.514	1431.15
1021.804	1394.31
1022.095	1407.19
1022.386	1408.55
1022.677	1394.09
1022.967	1380.08
1023.258	1394.31
1023.548	1373.98
1023.839	1363.58
1024.129	1357.03
1024.419	1333.98
1024.709	1330.36
1025	1298.5
1025.29	1323.58
1025.58	1307.99
1025.87	1285.39
1026.16	1289.91
1026.449	1279.74
1026.739	1295.33
1027.029	1284.94
1027.319	1251.04
1027.608	1268.44
1027.898	1260.76
1028.187	1249.91
1028.477	1227.99
1028.766	1194.32
1029.055	1222.11
1029.344	1199.29
1029.634	1218.5
1029.923	1196.35
1030.212	1185.05
1030.501	1164.26
1030.79	1172.4
1031.078	1153.87
1031.367	1150.7
1031.656	1143.25
1031.945	1126.3
1032.233	1140.99
1032.522	1134.89
1032.81	1086.98
1033.099	1079.97
1033.387	1088.11
1033.675	1096.02
1033.963	1092.85
1034.251	1091.5
1034.54	1067.54
1034.828	1052.63
1035.116	1050.59
1035.403	1037.26
1035.691	1037.71
1035.979	1029.13
1036.267	1017.6
1036.554	1039.52
1036.842	1026.64
1037.129	1024.83
1037.417	976.02
1037.704	985.06
1037.992	1000.2
1038.279	1004.04
1038.566	968.56
1038.853	968.56
1039.14	968.56
