Data from hue_10_FLMS001491_18.txt Node
Date: Mon Feb 06 15:31:30 GMT 2017
User: dcchb
Spectrometer: FLMS00149
Trigger mode: 0
Integration Time (sec): 2.000000E-2
Scans to average: 10
Electric dark correction enabled: true
Nonlinearity correction enabled: false
Boxcar width: 0
XAxis mode: Wavelengths
Number of Pixels in Spectrum: 2048
>>>>>Begin Spectral Data<<<<<
341.393	-17.41
341.776	-17.41
342.16	-17.41
342.543	-64.42
342.927	-65.1
343.31	-71.2
343.693	-65.1
344.077	-76.62
344.46	-60.35
344.843	-32.33
345.226	-32.56
345.61	-11.31
345.993	-33.01
346.376	-26.23
346.759	4.73
347.142	38.63
347.525	37.5
347.908	49.48
348.291	75.69
348.674	92.41
349.057	110.27
349.44	135.35
349.823	150.94
350.206	163.37
350.588	191.17
350.971	200.88
351.354	244.27
351.737	252.41
352.119	258.51
352.502	258.06
352.884	265.97
353.267	279.75
353.65	274.78
354.032	284.72
354.414	299.19
354.797	336.02
355.179	318.62
355.562	336.7
355.944	317.04
356.326	321.11
356.709	342.8
357.091	348
357.473	340.32
357.855	322.46
358.238	341.22
358.62	326.76
359.002	333.99
359.384	341.67
359.766	330.6
360.148	372.86
360.53	345.74
360.912	318.17
361.294	344.16
361.676	328.79
362.057	314.78
362.439	328.11
362.821	333.76
363.203	322.69
363.584	306.64
363.966	329.24
364.348	317.94
364.729	321.79
365.111	313.2
365.493	325.4
365.874	316.81
366.256	286.76
366.637	293.99
367.019	323.82
367.4	323.14
367.781	322.01
368.163	305.51
368.544	285.4
368.925	299.41
369.306	299.64
369.688	312.29
370.069	323.59
370.45	321.79
370.831	310.49
371.212	288.11
371.593	326.76
371.974	306.42
372.355	310.26
372.736	309.13
373.117	332.18
373.498	348
373.879	310.03
374.26	315.68
374.641	290.15
375.021	315.91
375.402	301.9
375.783	312.29
376.163	318.4
376.544	320.88
376.925	330.82
377.305	324.72
377.686	318.85
378.066	314.55
378.447	310.03
378.827	322.01
379.208	321.11
379.588	328.56
379.968	325.18
380.349	312.07
380.729	324.27
381.109	338.28
381.489	330.6
381.87	333.54
382.25	340.54
382.63	337.6
383.01	337.83
383.39	341.45
383.77	352.97
384.15	317.04
384.53	341.22
384.91	340.54
385.29	341.9
385.67	332.86
386.049	348.9
386.429	326.53
386.809	339.41
387.189	345.97
387.568	336.25
387.948	333.76
388.328	333.31
388.707	353.65
389.087	348.45
389.466	345.06
389.846	357.26
390.225	343.03
390.605	351.84
390.984	357.94
391.363	342.12
391.743	364.95
392.122	373.54
392.501	355
392.881	366.08
393.26	368.79
393.639	370.82
394.018	357.94
394.397	352.97
394.776	348.68
395.155	385.06
395.534	358.85
395.913	355.23
396.292	363.82
396.671	364.5
397.05	373.31
397.429	352.07
397.808	359.98
398.186	359.98
398.565	376.7
398.944	376.25
399.323	371.95
399.701	398.39
400.08	386.64
400.458	377.83
400.837	377.83
401.215	407.21
401.594	386.42
401.972	392.07
402.351	382.57
402.729	383.48
403.107	383.48
403.486	375.8
403.864	388
404.242	418.05
404.62	397.94
404.999	395.91
405.377	392.97
405.755	392.97
406.133	385.74
406.511	395.91
406.889	394.55
407.267	405.62
407.645	409.01
408.023	394.33
408.401	416.02
408.779	416.92
409.156	403.59
409.534	424.38
409.912	411.95
410.29	423.93
410.667	418.96
411.045	423.93
411.422	435.45
411.8	444.49
412.178	410.6
412.555	433.42
412.933	425.96
413.31	443.82
413.687	431.61
414.065	429.58
414.442	443.36
414.819	446.08
415.197	454.66
415.574	477.49
415.951	449.47
416.328	481.78
416.705	457.15
417.082	451.95
417.46	463.7
417.837	465.51
418.214	487.88
418.591	473.42
418.967	472.06
419.344	473.65
419.721	471.39
420.098	481.78
420.475	446.53
420.852	452.4
421.228	470.71
421.605	475.45
421.982	491.05
422.358	497.37
422.735	492.85
423.111	485.17
423.488	512.97
423.864	498.5
424.241	511.16
424.617	491.05
424.994	513.64
425.37	506.64
425.746	510.03
426.123	506.19
426.499	517.94
426.875	555.45
427.251	541.44
427.627	530.59
428.003	550.03
428.379	535.57
428.756	519.97
429.132	551.61
429.507	523.36
429.883	540.76
430.259	563.59
430.635	563.36
431.011	568.11
431.387	556.13
431.763	596.13
432.138	577.6
432.514	599.74
432.89	578.5
433.265	579.86
433.641	590.03
434.016	594.55
434.392	605.62
434.767	601.78
435.143	596.13
435.518	614.43
435.894	624.83
436.269	615.34
436.644	627.54
437.02	635.45
437.395	650.36
437.77	622.12
438.145	655.11
438.52	635
438.895	641.32
439.271	639.52
439.646	647.65
440.021	637.26
440.395	682.23
440.77	686.97
441.145	683.13
441.52	697.14
441.895	662.12
442.27	663.47
442.645	674.54
443.019	664.15
443.394	683.81
443.769	693.3
444.143	680.42
444.518	704.6
444.892	695.33
445.267	695.56
445.641	696.92
446.016	701.66
446.39	698.72
446.764	706.18
447.139	717.26
447.513	713.64
447.887	729.68
448.262	743.7
448.636	721.32
449.01	719.29
449.384	742.57
449.758	744.15
450.132	749.57
450.506	752.06
450.88	763.13
451.254	774.65
451.628	753.19
452.002	762
452.376	764.49
452.75	795.67
453.123	766.52
453.497	782.79
453.871	805.16
454.244	800.19
454.618	821.89
454.992	799.06
455.365	803.58
455.739	805.61
456.112	829.12
456.486	848.78
456.859	838.61
457.232	867.53
457.606	856.91
457.979	879.06
458.352	868.44
458.725	896.91
459.099	894.2
459.472	887.65
459.845	906.63
460.218	895.33
460.591	907.08
460.964	937.59
461.337	931.26
461.71	959.96
462.083	951.15
462.456	970.36
462.829	982.56
463.201	983.01
463.574	983.91
463.947	975.55
464.32	1002.45
464.692	1005.38
465.065	1013.07
465.438	1028.89
465.81	1035.21
466.183	1062.56
466.555	1055.55
466.928	1084.7
467.3	1104.59
467.672	1110.01
468.045	1119.05
468.417	1129.45
468.789	1121.99
469.161	1130.8
469.534	1157.92
469.906	1163.57
470.278	1169.9
470.65	1235.21
471.022	1221.87
471.394	1228.88
471.766	1231.37
472.138	1265.49
472.51	1274.3
472.882	1284.47
473.253	1307.75
473.625	1339.61
473.997	1372.38
474.369	1384.81
474.74	1382.32
475.112	1448.54
475.484	1426.62
475.855	1470.68
476.227	1492.6
476.598	1517.01
476.97	1531.25
477.341	1567.63
477.713	1572.6
478.084	1608.31
478.455	1644.24
478.827	1662.09
479.198	1705.93
479.569	1724.69
479.94	1736.44
480.311	1785.25
480.682	1829.09
481.053	1858.92
481.424	1912.25
481.795	1924.46
482.166	1979.59
482.537	1976.43
482.908	2032.47
483.279	2013.49
483.65	2093.49
484.021	2145.47
484.391	2167.61
484.762	2197.22
485.133	2252.36
485.503	2264.11
485.874	2288.51
486.244	2311.34
486.615	2381.39
486.985	2431.79
487.356	2426.36
487.726	2506.81
488.097	2520.6
488.467	2516.98
488.837	2623.42
489.207	2649.63
489.578	2660.48
489.948	2695.73
490.318	2777.54
490.688	2752.23
491.058	2840.36
491.428	2880.14
491.798	2914.94
492.168	2956.07
492.538	2984.09
492.908	2994.26
493.278	3033.13
493.648	3090.07
494.017	3076.29
494.387	3161.03
494.757	3219.34
495.126	3215.04
495.496	3208.49
495.866	3288.94
496.235	3274.48
496.605	3324.19
496.974	3339.79
497.344	3416.85
497.713	3393.34
498.082	3441.48
498.452	3481.25
498.821	3460.46
499.19	3526.9
499.559	3576.16
499.928	3566.67
500.298	3584.75
500.667	3637.63
501.036	3642.38
501.405	3667.69
501.774	3643.73
502.143	3724.18
502.512	3764.63
502.88	3738.42
503.249	3745.65
503.618	3761.02
503.987	3772.77
504.356	3834.46
504.724	3842.82
505.093	3908.13
505.462	3889.83
505.83	3945.87
506.199	3954.91
506.567	3967.79
506.936	3990.84
507.304	4047.56
507.672	4023.16
508.041	4062.03
508.409	4034.46
508.777	4078.3
509.145	4136.83
509.514	4127.79
509.882	4132.31
510.25	4159.2
510.618	4197.39
510.986	4170.72
511.354	4182.47
511.722	4241
512.09	4241
512.458	4226.32
512.826	4281.68
513.193	4336.14
513.561	4300.44
513.929	4317.39
514.297	4369.14
514.664	4387.67
515.032	4389.93
515.4	4388.8
515.767	4416.14
516.135	4453.65
516.502	4404.62
516.869	4482.35
517.237	4531.39
517.604	4499.3
517.972	4504.73
518.339	4516.93
518.706	4553.76
519.073	4538.85
519.44	4588.79
519.808	4604.61
520.175	4569.81
520.542	4633.76
520.909	4593.54
521.276	4649.81
521.643	4650.03
522.009	4719.64
522.376	4709.69
522.743	4776.13
523.11	4736.58
523.477	4818.39
523.843	4767.54
524.21	4820.88
524.577	4854.32
524.943	4892.51
525.31	4911.72
525.676	5014.09
526.043	4960.76
526.409	5002.57
526.776	5035.79
527.142	5040.31
527.508	5033.75
527.874	5068.33
528.241	5076.91
528.607	5113.07
528.973	5171.83
529.339	5151.26
529.705	5205.5
530.071	5214.54
530.437	5289.34
530.803	5305.38
531.169	5354.42
531.535	5341.77
531.901	5343.8
532.267	5339.05
532.632	5410.92
532.998	5392.84
533.364	5435.1
533.73	5510.35
534.095	5532.72
534.461	5505.15
534.826	5532.27
535.192	5505.6
535.557	5596
535.923	5623.57
536.288	5624.92
536.653	5682.1
537.019	5686.84
537.384	5644.58
537.749	5686.62
538.114	5679.38
538.479	5654.98
538.845	5741.08
539.21	5738.59
539.575	5800.74
539.94	5841.41
540.305	5805.26
540.67	5840.96
541.034	5887.29
541.399	5906.72
541.764	5870.34
542.129	5938.81
542.494	6026.72
542.858	6015.65
543.223	5995.08
543.587	6031.24
543.952	6062.88
544.316	6081.86
544.681	6070.79
545.045	6129.77
545.41	6204.57
545.774	6122.54
546.138	6213.16
546.503	6217.45
546.867	6184.68
547.231	6323.21
547.595	6249.31
547.959	6315.07
548.324	6362.76
548.688	6378.8
549.052	6383.09
549.416	6401.17
549.779	6456.99
550.143	6402.3
550.507	6527.27
550.871	6494.73
551.235	6529.53
551.599	6505.35
551.962	6600.94
552.326	6585.8
552.689	6631.68
553.053	6646.82
553.417	6630.77
553.78	6652.47
554.143	6657.44
554.507	6713.03
554.87	6744.67
555.234	6750.99
555.597	6714.39
555.96	6750.54
556.323	6760.03
556.686	6855.4
557.05	6853.59
557.413	6871.9
557.776	6898.56
558.139	6937.2
558.502	6920.71
558.865	6925.91
559.228	7030.31
559.59	7001.38
559.953	7063.08
560.316	7103.08
560.679	7047.94
561.041	7116.63
561.404	7127.48
561.767	7150.31
562.129	7167.71
562.492	7185.56
562.854	7195.05
563.217	7168.38
563.579	7243.86
563.941	7285.44
564.304	7275.5
564.666	7355.05
565.028	7352.33
565.39	7505.33
565.753	7396.85
566.115	7405.21
566.477	7491.99
566.839	7482.28
567.201	7541.71
567.563	7524.31
567.925	7606.11
568.287	7643.85
568.648	7548.04
569.01	7692.89
569.372	7693.57
569.734	7678.88
570.095	7766.34
570.457	7821.25
570.819	7820.57
571.18	7838.88
571.542	7880.23
571.903	7948.93
572.265	7911.87
572.626	7958.42
572.987	8005.88
573.349	8056.72
573.71	8093.78
574.071	8151.86
574.432	8214.91
574.794	8250.39
575.155	8263.05
575.516	8296.72
575.877	8486.77
576.238	8493.55
576.599	8616.71
576.96	8612.41
577.32	8643.6
577.681	8785.29
578.042	8842.69
578.403	8898.73
578.763	8984.61
579.124	9045.17
579.485	9175.34
579.845	9251.04
580.206	9338.95
580.566	9472.05
580.927	9544.82
581.287	9689.67
581.648	9790.91
582.008	9900.97
582.368	10070.46
582.728	10146.16
583.089	10353.39
583.449	10478.58
583.809	10653.04
584.169	10873.6
584.529	10934.16
584.889	11158.79
585.249	11274.94
585.609	11439.01
585.969	11621.38
586.329	11835.61
586.688	12098.88
587.048	12110.63
587.408	12449.6
587.768	12617.06
588.127	12863.15
588.487	13000.32
588.846	13429.01
589.206	13517.6
589.565	13741.09
589.925	14102.89
590.284	14254.07
590.643	14412.49
591.003	14873.49
591.362	15032.58
591.721	15266.48
592.08	15578.56
592.44	15898.55
592.799	16183.29
593.158	16356.39
593.517	16703.05
593.876	16950.5
594.235	17260.55
594.593	17524.27
594.952	17925.39
595.311	18125.16
595.67	18413.96
596.029	18815.54
596.387	19053.95
596.746	19407.39
597.104	19510.66
597.463	19824.78
597.822	20359.9
598.18	20386.34
598.538	20665.66
598.897	21169.37
599.255	21228.35
599.613	21817.72
599.972	21980.65
600.33	22259.51
600.688	22553.52
601.046	22918.93
601.404	23181.07
601.762	23343.1
602.12	23809.08
602.478	24056.08
602.836	24409.51
603.194	24470.98
603.552	24724.31
603.91	25080.91
604.268	25450.39
604.625	25538.98
604.983	25796.14
605.341	26082.01
605.698	26405.17
606.056	26711.6
606.413	26908.66
606.771	27191.81
607.128	27468.42
607.485	27575.08
607.843	27836.32
608.2	28163.77
608.557	28484.43
608.914	28658.44
609.272	28888.94
609.629	29248.71
609.986	29438.76
610.343	29622.48
610.7	29881.23
611.057	29970.72
611.414	30198.51
611.771	30495.91
612.127	30580.65
612.484	30862
612.841	31125.04
613.198	31214.98
613.554	31411.59
613.911	31665.59
614.267	31952.82
614.624	31971.12
614.98	32226.03
615.337	32538.34
615.693	32599.58
616.05	32775.17
616.406	32997.31
616.762	33145.1
617.118	33152.56
617.475	33371.09
617.831	33632.1
618.187	33712.32
618.543	33886.55
618.899	34131.74
619.255	34267.11
619.611	34335.58
619.967	34505.75
620.323	34677.27
620.678	34761.78
621.034	34755.23
621.39	34792.97
621.746	35013.08
622.101	35516.79
622.457	35277.93
622.812	35452.84
623.168	35535.32
623.523	35624.81
623.879	35895.31
624.234	35694.87
624.589	36024.12
624.945	35968.53
625.3	36175.53
625.655	36157.68
626.01	36364.68
626.365	36435.19
626.72	36374.17
627.075	36290.11
627.43	36532.81
627.785	36367.39
628.14	36601.06
628.495	36660.49
628.85	36699.81
629.205	36683.54
629.559	36990.43
629.914	36805.57
630.269	36853.48
630.623	36908.62
630.978	36873.82
631.332	37156.52
631.687	37169.86
632.041	37099.8
632.396	37032.68
632.75	37058.67
633.104	37205.34
633.459	37060.25
633.813	37134.83
634.167	36949.52
634.521	37137.31
634.875	37178.9
635.229	37175.28
635.583	37093.93
635.937	37160.36
636.291	37161.49
636.645	37314.26
636.999	37292.11
637.352	37291.89
637.706	36965.12
638.06	37300.93
638.413	37266.58
638.767	37028.39
639.121	37229.29
639.474	37068.16
639.828	37161.72
640.181	37288.72
640.534	37273.36
640.888	37252.79
641.241	37146.35
641.594	37160.59
641.947	37204.66
642.301	37159.23
642.654	37167.82
643.007	37189.52
643.36	37182.06
643.713	37104.77
644.066	37158.33
644.419	37042.18
644.771	36855.06
645.124	36521.51
645.477	36476.77
645.83	36249.43
646.182	36279.48
646.535	36099.6
646.888	36186.61
647.24	35978.47
647.593	36309.77
647.945	36107.06
648.298	36014.63
648.65	35847.63
649.002	35852.38
649.355	36054.63
649.707	35824.13
650.059	35997.23
650.411	36606.71
650.763	36564.45
651.115	36899.35
651.467	36809.41
651.819	36702.52
652.171	36797.66
652.523	36673.82
652.875	36764.44
653.227	36516.77
653.578	36886.93
653.93	36756.08
654.282	36619.59
654.633	36519.03
654.985	36608.51
655.337	36814.16
655.688	36621.17
656.039	36762.18
656.391	36467.73
656.742	36337.11
657.094	36442.42
657.445	36616.2
657.796	36477.67
658.147	36491.23
658.498	36374.4
658.849	36486.94
659.2	36483.55
659.551	36412.59
659.902	36487.84
660.253	36429.99
660.604	36560.61
660.955	36325.81
661.306	36494.85
661.656	36380.95
662.007	36362.87
662.358	36285.81
662.708	36384.11
663.059	36311.35
663.409	36156.55
663.76	36552.02
664.11	36389.54
664.461	36413.04
664.811	36485.35
665.161	36375.53
665.511	36342.31
665.862	36461.63
666.212	36427.28
666.562	36417.56
666.912	36232.03
667.262	36412.14
667.612	36291.69
667.962	36453.26
668.312	36251.69
668.662	36517.9
669.011	36442.87
669.361	36262.99
669.711	36395.19
670.06	36251.69
670.41	36216.21
670.76	36104.57
671.109	36295.3
671.459	36316.77
671.808	36182.31
672.157	36159.04
672.507	36057.34
672.856	36125.82
673.205	36171.69
673.554	36293.27
673.904	36060.51
674.253	36278.35
674.602	36078.36
674.951	35580.97
675.3	35508.2
675.649	36240.39
675.998	36032.26
676.346	35985.03
676.695	36191.35
677.044	35854.64
677.393	36053.73
677.741	35931.92
678.09	35974.18
678.438	35840.63
678.787	35911.81
679.135	35968.31
679.484	35765.15
679.832	35738.71
680.181	35515.21
680.529	35782.77
680.877	35503.46
681.225	35671.14
681.573	35945.71
681.922	35536
682.27	35362.67
682.618	35452.39
682.966	35387.3
683.314	35317.93
683.661	35177.37
684.009	35244.48
684.357	34982.57
684.705	35002.23
685.053	35064.6
685.4	34908.67
685.748	34779.64
686.095	34839.75
686.443	34661.22
686.79	34799.3
687.138	34715.68
687.485	34721.11
687.832	34571.73
688.18	34566.08
688.527	34497.61
688.874	34364.96
689.221	34391.85
689.568	34218.97
689.915	34247.22
690.262	34268.46
690.609	34086.1
690.956	34007.45
691.303	34016.27
691.65	33940.56
691.997	33903.95
692.344	33724.75
692.69	33633.68
693.037	33702.6
693.383	33309.39
693.73	33477.07
694.077	33327.02
694.423	33331.99
694.769	33166.12
695.116	33172.45
695.462	33054.94
695.808	33023.52
696.155	33057.65
696.501	32809.97
696.847	32743.53
697.193	32552.35
697.539	32781.04
697.885	32418.79
698.231	32336.54
698.577	32287.5
698.923	32374.95
699.269	32154.85
699.614	32107.39
699.96	31984
700.306	32087.96
700.651	31825.14
700.997	31775.65
701.342	31567.52
701.688	31674.86
702.033	31396.45
702.379	31499.04
702.724	31351.7
703.069	31482.32
703.415	31072.62
703.76	31106.74
704.105	31260.41
704.45	30986.29
704.795	30911.49
705.14	30842.34
705.485	30835.33
705.83	30682.57
706.175	30712.62
706.52	30603.7
706.865	30464.5
707.209	30451.16
707.554	30348.34
707.899	30398.51
708.243	30273.54
708.588	30162.13
708.932	29937.73
709.277	30046.2
709.621	30037.39
709.966	29757.85
710.31	29914.45
710.654	29628.81
710.998	29609.6
711.342	29718.3
711.687	29606.67
712.031	29450.28
712.375	29357.63
712.719	29564.63
713.063	29315.15
713.407	29380.91
713.75	29237.41
714.094	29158.09
714.438	29136.39
714.782	29141.82
715.125	29057.98
715.469	29093.68
715.812	28834.26
716.156	28752
716.499	28760.81
716.843	28802.17
717.186	28612.34
717.53	28767.37
717.873	28814.6
718.216	28601.95
718.559	28592
718.902	28402.63
719.246	28464.1
719.589	28340.48
719.932	28143.65
720.275	28217.32
720.617	28092.58
720.96	27981.17
721.303	28011.68
721.646	28069.3
721.989	27920.38
722.331	27944.11
722.674	27907.95
723.016	28072.92
723.359	27898.01
723.701	27851.23
724.044	27552.26
724.386	27452.6
724.729	27745.92
725.071	27519.71
725.413	27539.6
725.755	27591.35
726.097	27439.94
726.439	27309.55
726.782	27350.45
727.124	27362.88
727.465	27374.41
727.807	27300.74
728.149	27248.08
728.491	27194.3
728.833	27202.66
729.175	27107.97
729.516	27107.52
729.858	26953.4
730.199	27067.52
730.541	26961.54
730.882	26881.76
731.224	26937.13
731.565	26813.07
731.906	26880.64
732.248	26758.83
732.589	26680.64
732.93	26580.53
733.271	26716.35
733.612	26584.6
733.953	26532.4
734.294	26465.05
734.635	26377.6
734.976	26482.45
735.317	26327.66
735.658	26330.82
735.999	26349.12
736.339	26202.01
736.68	26213.76
737.021	26267.09
737.361	26126.3
737.702	26209.92
738.042	26097.6
738.383	26066.19
738.723	26099.19
739.063	26063.48
739.404	26028.68
739.744	26023.71
740.084	25872.07
740.424	25858.97
740.764	25877.05
741.104	25998.85
741.444	25877.72
741.784	25757.27
742.124	25802.47
742.464	25743.04
742.804	25758.18
743.143	25676.15
743.483	25623.49
743.823	25530.84
744.162	25575.13
744.502	25477.28
744.841	25446.1
745.181	25484.06
745.52	25346.44
745.86	25500.56
746.199	25361.8
746.538	25222.37
746.877	25435.93
747.216	25331.07
747.556	25243.62
747.895	25268.02
748.234	25010.4
748.573	25156.39
748.911	25070.06
749.25	25040.46
749.589	24899.22
749.928	24981.25
750.267	25118.65
750.605	24923.17
750.944	24803.85
751.283	24785.1
751.621	24745.55
751.96	24704.87
752.298	24701.71
752.636	24733.8
752.975	24637.08
753.313	24412.45
753.651	24513.24
753.989	24471.21
754.327	24381.04
754.666	24261.27
755.004	24377.88
755.342	24413.36
755.679	24336.52
756.017	24256.75
756.355	24251.33
756.693	24219.46
757.031	24191.21
757.368	24039.13
757.706	24035.74
758.044	24031.22
758.381	23973.14
758.719	23869.87
759.056	23896.98
759.394	23800.26
759.731	23652.25
760.068	23614.51
760.405	23486.15
760.743	23434.17
761.08	23521.4
761.417	23407.51
761.754	23358.47
762.091	23345.36
762.428	23190.79
762.765	23009.55
763.102	23150.11
763.438	22986.73
763.775	22848.2
764.112	22954.18
764.449	23057.23
764.785	22845.03
765.122	22680.97
765.458	22627.87
765.795	22630.13
766.131	22556
766.467	22454.31
766.804	22471.71
767.14	22296.35
767.476	22251.83
767.812	22090.93
768.148	22192.4
768.485	22052.51
768.821	21920.09
769.157	21982.68
769.492	21838.06
769.828	21795.57
770.164	21604.62
770.5	21548.12
770.836	21557.39
771.171	21444.17
771.507	21444.85
771.842	21202.37
772.178	21281.46
772.513	21261.8
772.849	21048.7
773.184	21020
773.519	21052.09
773.855	20874.24
774.19	20835.14
774.525	20784.52
774.86	20792.43
775.195	20610.52
775.53	20630.63
775.865	20472.44
776.2	20329.17
776.535	20191.77
776.87	20257.53
777.205	20173.47
777.539	20080.36
777.874	20130.08
778.209	19897.09
778.543	19967.14
778.878	19737.32
779.212	19712.91
779.547	19579.36
779.881	19724.44
780.215	19550.43
780.55	19482.41
780.884	19347.95
781.218	19347.5
781.552	19309.99
781.886	19142.31
782.22	19068.19
782.554	19079.48
782.888	18867.29
783.222	18803.33
783.556	18801.3
783.889	18740.51
784.223	18681.08
784.557	18576.67
784.89	18505.26
785.224	18516.79
785.557	18393.17
785.891	18350.24
786.224	18354.53
786.558	18290.58
786.891	18249.22
787.224	18057.36
787.557	18032.96
787.891	18050.58
788.224	17891.72
788.557	17893.98
788.89	17843.58
789.223	17799.07
789.556	17677.04
789.888	17649.01
790.221	17599.52
790.554	17366.08
790.887	17420.09
791.219	17387.1
791.552	17350.49
791.884	17176.71
792.217	17115.47
792.549	17152.53
792.882	16975.13
793.214	17010.39
793.546	17034.34
793.879	16866.66
794.211	16732.2
794.543	16860.11
794.875	16721.13
795.207	16769.71
795.539	16643.62
795.871	16647.68
796.203	16525.88
796.535	16431.87
796.867	16433.68
797.198	16440.68
797.53	16345.32
797.862	16173.35
798.193	16244.53
798.525	16075.72
798.856	16110.75
799.188	15971.54
799.519	15970.87
799.85	15850.19
800.182	15918.89
800.513	15895.61
800.844	15676.86
801.175	15828.04
801.506	15777.65
801.837	15682.29
802.168	15558.22
802.499	15482.29
802.83	15523.87
803.161	15480.26
803.491	15454.04
803.822	15404.33
804.153	15280.94
804.483	15243.43
804.814	15184.22
805.145	15228.29
805.475	15147.84
805.805	15067.61
806.136	15101.96
806.466	14991
806.796	14962.98
807.126	14833.95
807.457	14862.42
807.787	14862.87
808.117	14726.83
808.447	14796.66
808.777	14783.1
809.107	14652.93
809.436	14667.4
809.766	14635.53
810.096	14581.3
810.426	14455.65
810.755	14511.24
811.085	14478.25
811.414	14390.34
811.744	14298.14
812.073	14339.27
812.403	14296.11
812.732	14199.84
813.061	14183.34
813.39	14176.34
813.719	14046.4
814.049	14171.82
814.378	14015.21
814.707	13974.76
815.036	14088.65
815.365	13861.54
815.693	13758.72
816.022	13886.63
816.351	13807.98
816.68	13764.82
817.008	13753.75
817.337	13675.56
817.665	13653.41
817.994	13603.92
818.322	13522.57
818.651	13507.88
818.979	13507.43
819.307	13603.7
819.636	13548.1
819.964	13487.54
820.292	13455.68
820.62	13483.7
820.948	13442.34
821.276	13338.84
821.604	13354.21
821.932	13496.13
822.259	13461.55
822.587	13308.34
822.915	13359.86
823.243	13397.37
823.57	13325.29
823.898	13409.35
824.225	13245.97
824.553	13322.8
824.88	13311.73
825.207	13316.7
825.535	13321.67
825.862	13324.16
826.189	13278.28
826.516	13340.65
826.843	13353.08
827.17	13413.19
827.497	13278.28
827.824	13368.22
828.151	13396.92
828.478	13291.39
828.805	13306.75
829.131	13142.01
829.458	13294.55
829.785	13230.37
830.111	13254.78
830.438	13289.81
830.764	13264.27
831.09	13256.59
831.417	13204.84
831.743	13297.26
832.069	13270.82
832.395	13229.02
832.722	13256.13
833.048	13164.39
833.374	13205.29
833.7	13129.81
834.026	13109.02
834.351	13158.51
834.677	13201.67
835.003	13134.1
835.329	13101.34
835.654	13075.57
835.98	13147.89
836.306	13068.79
836.631	12999.19
836.956	13015.01
837.282	13034.67
837.607	12993.09
837.932	12868.12
838.258	12922.36
838.583	12966.65
838.908	12881.68
839.233	12945.18
839.558	12901.79
839.883	12737.96
840.208	12720.1
840.533	12800.1
840.858	12726.43
841.182	12700.22
841.507	12743.61
841.832	12646.21
842.156	12661.8
842.481	12672.2
842.805	12544.06
843.13	12631.97
843.454	12551.29
843.778	12442.37
844.103	12399.89
844.427	12478.75
844.751	12385.65
845.075	12352.43
845.399	12343.16
845.723	12235.14
846.047	12296.84
846.371	12190.4
846.695	12170.97
847.019	12088.93
847.343	12031.99
847.666	11959.67
847.99	11933.23
848.313	11915.38
848.637	11792.9
848.96	11791.77
849.284	11771.2
849.607	11719.23
849.931	11699.34
850.254	11621.6
850.577	11601.94
850.9	11526.24
851.223	11460.02
851.546	11440.14
851.869	11309.07
852.192	11393.81
852.515	11274.04
852.838	11245.11
853.161	11190.43
853.483	11240.14
853.806	11108.17
854.129	11127.6
854.451	11107.94
854.774	10949.75
855.096	10966.93
855.419	10928.74
855.741	10974.39
856.063	10876.31
856.385	10838.34
856.708	10828.4
857.03	10767.16
857.352	10806.71
857.674	10703.89
857.996	10761.96
858.318	10664.56
858.64	10660.72
858.961	10635.19
859.283	10560.61
859.605	10536.66
859.926	10540.73
860.248	10471.8
860.57	10457.79
860.891	10488.52
861.212	10441.07
861.534	10417.34
861.855	10344.57
862.176	10405.59
862.498	10383.89
862.819	10386.15
863.14	10320.62
863.461	10280.62
863.782	10201.07
864.103	10157.46
864.424	10145.03
864.745	10243.78
865.065	10197.23
865.386	10101.42
865.707	10133.96
866.027	10044.47
866.348	10088.99
866.668	10074.3
866.989	10043.34
867.309	9965.37
867.63	10066.16
867.95	10013.73
868.27	9955.2
868.59	9969.44
868.91	9936.9
869.23	9930.12
869.55	9919.5
869.87	9941.19
870.19	9833.63
870.51	9911.59
870.83	9904.81
871.15	9813.29
871.469	9809.22
871.789	9825.72
872.109	9770.8
872.428	9723.12
872.748	9758.6
873.067	9736.9
873.386	9763.34
873.706	9743.68
874.025	9690.58
874.344	9646.74
874.663	9640.18
874.982	9620.98
875.301	9671.6
875.62	9570.13
875.939	9576.46
876.258	9611.03
876.577	9552.28
876.896	9567.19
877.214	9492.62
877.533	9492.17
877.852	9463.24
878.17	9522.22
878.489	9510.7
878.807	9475.67
879.125	9491.49
879.444	9449.68
879.762	9422.11
880.08	9392.96
880.398	9395.22
880.716	9430.92
881.034	9333.98
881.352	9338.27
881.67	9253.75
881.988	9277.26
882.306	9231.16
882.624	9235.68
882.941	9253.08
883.259	9124.94
883.577	9172.63
883.894	9122.01
884.212	9143.47
884.529	9107.77
884.846	9108.22
885.164	9075
885.481	9034.55
885.798	9023.93
886.115	8964.95
886.432	8982.12
886.75	8931.73
887.067	8940.99
887.383	8919.07
887.7	8911.39
888.017	8909.13
888.334	8821.22
888.651	8919.3
888.967	8769.02
889.284	8739.87
889.6	8694.67
889.917	8722.92
890.233	8682.92
890.55	8575.13
890.866	8628.69
891.182	8638.63
891.498	8591.4
891.815	8566.09
892.131	8564.28
892.447	8546.88
892.763	8531.29
893.079	8509.14
893.395	8456.94
893.71	8456.03
894.026	8400.44
894.342	8411.97
894.657	8333.1
894.973	8326.09
895.289	8255.59
895.604	8363.16
895.92	8286.55
896.235	8183.05
896.55	8239.09
896.865	8223.27
897.181	8155.03
897.496	8107.8
897.811	8115.03
898.126	8077.29
898.441	8066.89
898.756	8030.96
899.071	7934.69
899.386	8006.1
899.7	7978.76
900.015	7951.19
900.33	7822.83
900.644	7827.58
900.959	7829.84
901.273	7781.48
901.588	7722.95
901.902	7715.94
902.216	7745.09
902.531	7655.38
902.845	7597.07
903.159	7611.99
903.473	7524.31
903.787	7583.29
904.101	7491.09
904.415	7524.76
904.729	7470.52
905.042	7364.09
905.356	7482.28
905.67	7393.46
905.984	7456.06
906.297	7353.01
906.611	7288.83
906.924	7292.45
907.237	7210.64
907.551	7282.51
907.864	7165
908.177	7205.22
908.491	7140.59
908.804	7099.23
909.117	7085.9
909.43	7044.77
909.743	6948.28
910.056	6994.15
910.368	6934.27
910.681	6925.45
910.994	6879.35
911.307	6856.53
911.619	6769.53
911.932	6849.75
912.244	6765.68
912.557	6807.49
912.869	6742.41
913.181	6732.24
913.494	6702.63
913.806	6620.15
914.118	6609.76
914.43	6659.02
914.742	6560.49
915.054	6550.1
915.366	6504.45
915.678	6486.14
915.99	6450.66
916.302	6442.08
916.613	6381.06
916.925	6438.01
917.236	6351.01
917.548	6361.4
917.859	6377.9
918.171	6286.15
918.482	6310.55
918.794	6252.48
919.105	6260.84
919.416	6207.05
919.727	6177
920.038	6169.09
920.349	6088.19
920.66	6089.77
920.971	6088.19
921.282	6080.28
921.593	6000.51
921.903	6002.77
922.214	5946.27
922.525	5975.42
922.835	5928.19
923.146	5887.51
923.456	5859.72
923.767	5894.29
924.077	5805.03
924.387	5831.24
924.697	5774.07
925.008	5751.7
925.318	5718.71
925.628	5698.37
925.938	5671.02
926.248	5631.25
926.558	5602.78
926.867	5594.64
927.177	5653.85
927.487	5543.57
927.796	5499.73
928.106	5515.77
928.416	5506.73
928.725	5509.22
929.034	5388.32
929.344	5414.53
929.653	5398.04
929.962	5356.46
930.271	5344.7
930.581	5301.77
930.89	5296.12
931.199	5233.97
931.508	5234.88
931.817	5252.96
932.125	5210.02
932.434	5217.02
932.743	5128.44
933.051	5151.49
933.36	5136.57
933.669	5095.67
933.977	5064.03
934.286	5045.95
934.594	5009.35
934.902	4960.31
935.21	4967.09
935.519	4971.83
935.827	4965.05
936.135	4928.44
936.443	4880.54
936.751	4856.81
937.059	4884.83
937.367	4822.23
937.674	4866.75
937.982	4758.5
938.29	4786.53
938.597	4752.86
938.905	4764.38
939.213	4689.58
939.52	4687.77
939.827	4714.44
940.135	4671.28
940.442	4665.63
940.749	4637.15
941.056	4650.71
941.363	4594.89
941.67	4518.29
941.977	4527.32
942.284	4535.23
942.591	4577.49
942.898	4518.74
943.205	4505.86
943.511	4439.64
943.818	4439.19
944.125	4324.62
944.431	4363.94
944.738	4360.1
945.044	4335.92
945.35	4362.13
945.657	4246.88
945.963	4300.44
946.269	4252.3
946.575	4299.08
946.881	4182.02
947.187	4249.59
947.493	4206.65
947.799	4187.9
948.105	4187.45
948.41	4125.75
948.716	4140.67
949.022	4104.06
949.327	4125.3
949.633	4078.3
949.938	4073.78
950.244	4055.7
950.549	4007.34
950.854	4049.82
951.16	3974.57
951.465	3978.41
951.77	4006.89
952.075	3937.74
952.38	3941.58
952.685	3922.14
952.99	3894.35
953.294	3907.68
953.599	3856.83
953.904	3862.71
954.209	3807.34
954.513	3814.8
954.818	3764.86
955.122	3781.81
955.426	3775.25
955.731	3718.76
956.035	3726.22
956.339	3733.9
956.643	3708.14
956.948	3653.9
957.252	3669.72
957.556	3674.69
957.86	3642.38
958.163	3658.42
958.467	3577.07
958.771	3596.73
959.075	3558.76
959.378	3617.52
959.682	3588.37
959.985	3535.49
960.289	3532.55
960.592	3505.66
960.896	3488.93
961.199	3478.99
961.502	3433.12
961.805	3443.06
962.108	3428.6
962.411	3432.44
962.714	3389.5
963.017	3392.89
963.32	3378.88
963.623	3381.82
963.926	3371.42
964.228	3314.93
964.531	3318.32
964.833	3318.99
965.136	3248.49
965.438	3269.73
965.741	3227.02
966.043	3236.06
966.345	3260.01
966.648	3266.34
966.95	3213.23
967.252	3188.38
967.554	3210.97
967.856	3133.46
968.158	3116.29
968.46	3144.76
968.761	3116.74
969.063	3093.69
969.365	3075.61
969.666	3103.41
969.968	3049.4
970.269	3054.14
970.571	3047.59
970.872	3054.82
971.174	2992
971.475	3024.31
971.776	2962.85
972.077	2982.51
972.378	2961.26
972.679	2917.88
972.98	2968.04
973.281	2940.7
973.582	2918.33
973.883	2888.05
974.183	2892.57
974.484	2835.62
974.785	2869.06
975.085	2836.52
975.386	2881.94
975.686	2849.85
975.986	2826.35
976.287	2753.81
976.587	2752.23
976.887	2785.45
977.187	2771.44
977.487	2732.34
977.787	2710.42
978.087	2719.01
978.387	2711.33
978.687	2678.11
978.987	2713.59
979.286	2661.61
979.586	2688.05
979.885	2631.33
980.185	2621.61
980.484	2618.45
980.784	2597.43
981.083	2601.73
981.382	2586.36
981.682	2615.74
981.981	2557.21
982.28	2598.34
982.579	2512.91
982.878	2536.87
983.177	2522.18
983.475	2516.53
983.774	2511.33
984.073	2491.9
984.372	2489.64
984.67	2469.3
984.969	2490.77
985.267	2457.77
985.566	2438.11
985.864	2427.27
986.162	2422.75
986.461	2422.75
986.759	2410.32
987.057	2393.82
987.355	2373.03
987.653	2362.18
987.951	2365.8
988.249	2351.56
988.547	2317.21
988.844	2281.06
989.142	2331.68
989.44	2339.59
989.737	2263.43
990.035	2241.96
990.332	2246.25
990.63	2254.62
990.927	2227.72
991.224	2221.62
991.521	2190.21
991.819	2221.85
992.116	2241.51
992.413	2204.67
992.71	2200.15
993.006	2174.17
993.303	2161.74
993.6	2164.22
993.897	2166.93
994.193	2172.13
994.49	2135.75
994.787	2103.89
995.083	2110.21
995.379	2080.38
995.676	2093.72
995.972	2079.03
996.268	2058.01
996.565	2080.38
996.861	2086.71
997.157	2066.37
997.453	2056.43
997.749	2050.55
998.044	2015.3
998.34	1976.21
998.636	1964.91
998.932	1973.49
999.227	1956.32
999.523	1980.27
999.818	1968.07
1000.114	1945.7
1000.409	1932.82
1000.704	1935.08
1001	1925.58
1001.295	1886.04
1001.59	1877.68
1001.885	1880.16
1002.18	1841.29
1002.475	1887.17
1002.77	1850.33
1003.065	1842.2
1003.359	1860.95
1003.654	1839.03
1003.949	1812.14
1004.243	1824.34
1004.538	1780.5
1004.832	1782.99
1005.127	1794.29
1005.421	1738.7
1005.715	1776.89
1006.009	1726.72
1006.304	1752.03
1006.598	1715.2
1006.892	1733.95
1007.186	1724.46
1007.48	1687.17
1007.773	1676.78
1008.067	1686.5
1008.361	1679.49
1008.655	1681.52
1008.948	1641.75
1009.242	1675.2
1009.535	1652.6
1009.829	1645.37
1010.122	1613.28
1010.415	1599.04
1010.708	1602.88
1011.001	1591.81
1011.295	1601.3
1011.588	1561.98
1011.881	1553.39
1012.173	1566.5
1012.466	1575.54
1012.759	1547.52
1013.052	1507.29
1013.344	1526.95
1013.637	1506.61
1013.93	1503.45
1014.222	1499.61
1014.514	1488.99
1014.807	1479.49
1015.099	1485.14
1015.391	1488.08
1015.683	1466.61
1015.976	1455.54
1016.268	1440.63
1016.56	1431.13
1016.851	1416.9
1017.143	1425.71
1017.435	1418.71
1017.727	1371.48
1018.018	1394.75
1018.31	1379.16
1018.602	1369.67
1018.893	1362.44
1019.185	1364.7
1019.476	1356.56
1019.767	1354.53
1020.058	1323.34
1020.35	1321.99
1020.641	1317.47
1020.932	1299.16
1021.223	1285.6
1021.514	1306.39
1021.804	1274.75
1022.095	1273.62
1022.386	1262.78
1022.677	1258.48
1022.967	1241.08
1023.258	1242.89
1023.548	1202.89
1023.839	1209.9
1024.129	1213.97
1024.419	1203.57
1024.709	1200.41
1025	1192.5
1025.29	1199.5
1025.58	1185.27
1025.87	1177.13
1026.16	1160.63
1026.449	1168.77
1026.739	1151.59
1027.029	1117.47
1027.319	1177.36
1027.608	1137.58
1027.898	1133.97
1028.187	1112.05
1028.477	1124.93
1028.766	1099.17
1029.055	1089.45
1029.344	1100.75
1029.634	1079.05
1029.923	1073.63
1030.212	1068.66
1030.501	1075.89
1030.79	1059.39
1031.078	1051.48
1031.367	1031.82
1031.656	1046.06
1031.945	1015.1
1032.233	1057.81
1032.522	1032.95
1032.81	1008.32
1033.099	1001.09
1033.387	998.83
1033.675	986.85
1033.963	989.56
1034.251	1009.22
1034.54	969.45
1034.828	966.97
1035.116	951.6
1035.403	960.19
1035.691	943.69
1035.979	944.59
1036.267	938.49
1036.554	921.32
1036.842	929.45
1037.129	928.32
1037.417	919.96
1037.704	875.9
1037.992	909.34
1038.279	887.19
1038.566	895.33
1038.853	895.33
1039.14	895.33
