Data from hue_30_FLMS001491_64.txt Node
Date: Mon Feb 06 15:05:45 GMT 2017
User: dcchb
Spectrometer: FLMS00149
Trigger mode: 0
Integration Time (sec): 2.000000E-2
Scans to average: 10
Electric dark correction enabled: true
Nonlinearity correction enabled: false
Boxcar width: 0
XAxis mode: Wavelengths
Number of Pixels in Spectrum: 2048
>>>>>Begin Spectral Data<<<<<
341.393	-20.01
341.776	-20.01
342.16	-20.01
342.543	-45.78
342.927	-70.86
343.31	-84.42
343.693	-55.27
344.077	-48.04
344.46	-67.47
344.843	-54.59
345.226	-39.22
345.61	-29.05
345.993	-39.9
346.376	17.95
346.759	21.57
347.142	29.93
347.525	56.59
347.908	41.68
348.291	63.83
348.674	81
349.057	105.41
349.44	133.2
349.823	129.59
350.206	159.87
350.588	193.54
350.971	225.63
351.354	253.65
351.737	245.97
352.119	242.8
352.502	266.08
352.884	266.53
353.267	264.72
353.65	294.55
354.032	281.67
354.414	301.33
354.797	317.15
355.179	324.16
355.562	328.45
355.944	309.47
356.326	348.79
356.709	339.98
357.091	311.96
357.473	336.36
357.855	331.16
358.238	325.74
358.62	344.72
359.002	323.03
359.384	332.52
359.766	333.88
360.148	364.84
360.53	337.27
360.912	335.23
361.294	321.22
361.676	349.24
362.057	322.35
362.439	338.85
362.821	317.83
363.203	333.2
363.584	324.61
363.966	349.92
364.348	320.99
364.729	329.36
365.111	322.58
365.493	320.32
365.874	320.77
366.256	322.12
366.637	323.48
367.019	302.24
367.4	333.2
367.781	324.16
368.163	320.09
368.544	325.74
368.925	309.92
369.306	306.08
369.688	314.89
370.069	323.48
370.45	336.59
370.831	325.51
371.212	311.28
371.593	323.25
371.974	307.21
372.355	321.9
372.736	322.8
373.117	311.73
373.498	310.37
373.879	312.18
374.26	316.93
374.641	342.24
375.021	299.3
375.402	323.71
375.783	323.48
376.163	316.7
376.544	326.19
376.925	324.38
377.305	339.75
377.686	321.45
378.066	323.25
378.447	349.92
378.827	315.34
379.208	344.27
379.588	342.24
379.968	324.84
380.349	323.03
380.729	323.03
381.109	343.14
381.489	349.02
381.87	336.14
382.25	357.83
382.63	339.75
383.01	345.17
383.39	328.9
383.77	344.95
384.15	355.12
384.53	329.36
384.91	338.4
385.29	343.59
385.67	365.74
386.049	353.76
386.429	365.06
386.809	357.38
387.189	338.4
387.568	337.49
387.948	349.02
388.328	364.38
388.707	367.09
389.087	352.41
389.466	348.79
389.846	346.08
390.225	365.29
390.605	365.96
390.984	398.51
391.363	367.55
391.743	383.37
392.122	369.58
392.501	381.56
392.881	394.21
393.26	397.15
393.639	379.52
394.018	401.22
394.397	376.13
394.776	374.1
395.155	379.07
395.534	393.76
395.913	369.35
396.292	392.63
396.671	408.45
397.05	384.04
397.429	399.41
397.808	378.17
398.186	396.25
398.565	392.18
398.944	404.16
399.323	378.39
399.701	392.86
400.08	402.12
400.458	384.27
400.837	407.32
401.215	405.06
401.594	425.4
401.972	421.1
402.351	425.17
402.729	407.09
403.107	419.97
403.486	442.57
403.864	432.18
404.242	435.12
404.62	423.14
404.999	432.86
405.377	437.83
405.755	416.81
406.133	418.17
406.511	426.3
406.889	451.16
407.267	431.95
407.645	441.9
408.023	435.12
408.401	434.66
408.779	449.35
409.156	446.64
409.534	426.53
409.912	455.23
410.29	470.82
410.667	472.63
411.045	469.01
411.422	471.27
411.8	480.76
412.178	495.68
412.555	486.19
412.933	466.53
413.31	492.52
413.687	467.88
414.065	480.09
414.442	502.46
414.819	501.1
415.197	503.59
415.574	505.62
415.951	501.55
416.328	499.75
416.705	504.04
417.082	494.32
417.46	523.25
417.837	512.18
418.214	513.98
418.591	539.52
418.967	507.66
419.344	533.64
419.721	516.7
420.098	521.22
420.475	537.03
420.852	529.35
421.228	526.86
421.605	551.95
421.982	558.05
422.358	570.48
422.735	538.84
423.111	603.25
423.488	570.48
423.864	563.7
424.241	590.37
424.617	582.46
424.994	581.55
425.37	584.94
425.746	584.94
426.123	577.26
426.499	609.12
426.875	600.31
427.251	610.25
427.627	601.89
428.003	612.74
428.379	637.37
428.756	613.19
429.132	641.44
429.507	620.87
429.883	614.32
430.259	649.8
430.635	644.38
431.011	657.71
431.387	642.34
431.763	666.75
432.138	645.05
432.514	664.26
432.89	696.8
433.265	693.19
433.641	686.18
434.016	701.32
434.392	700.42
434.767	721.66
435.143	713.3
435.518	725.05
435.894	728.22
436.269	708.55
436.644	739.97
437.02	724.15
437.395	742
437.77	734.32
438.145	754.66
438.52	756.46
438.895	764.37
439.271	763.92
439.646	787.2
440.021	795.33
440.395	767.99
440.77	776.35
441.145	784.03
441.52	785.39
441.895	801.66
442.27	815.44
442.645	819.06
443.019	801.21
443.394	825.16
443.769	815.22
444.143	826.52
444.518	835.11
444.892	804.6
445.267	852.96
445.641	833.07
446.016	849.12
446.39	873.07
446.764	847.53
447.139	865.84
447.513	867.65
447.887	871.04
448.262	887.53
448.636	878.27
449.01	892.73
449.384	894.99
449.758	883.01
450.132	901.32
450.506	918.27
450.88	895.67
451.254	897.25
451.628	903.35
452.002	937.25
452.376	961.43
452.75	971.37
453.123	957.14
453.497	987.42
453.871	952.16
454.244	977.93
454.618	999.62
454.992	998.04
455.365	1014.31
455.739	1013.41
456.112	1031.94
456.486	1014.31
456.859	1039.85
457.232	1068.09
457.606	1040.75
457.979	1066.51
458.352	1089.34
458.725	1114.42
459.099	1097.92
459.472	1116.91
459.845	1134.98
460.218	1141.31
460.591	1159.39
460.964	1159.16
461.337	1210.91
461.71	1190.35
462.083	1192.61
462.456	1214.08
462.829	1239.39
463.201	1234.19
463.574	1225.15
463.947	1250.46
464.32	1267.41
464.692	1294.98
465.065	1302.89
465.438	1293.62
465.81	1323.23
466.183	1340.18
466.555	1387.63
466.928	1372.72
467.3	1360.74
467.672	1369.1
468.045	1437.58
468.417	1457.24
468.789	1432.83
469.161	1478.25
469.534	1501.53
469.906	1529.32
470.278	1538.14
470.65	1554.41
471.022	1571.36
471.394	1611.81
471.766	1623.33
472.138	1643.67
472.51	1683.44
472.882	1686.61
473.253	1710.79
473.625	1747.85
473.997	1797.34
474.369	1826.72
474.74	1859.49
475.112	1858.36
475.484	1895.42
475.855	1949.88
476.227	1982.19
476.598	2029.65
476.97	2047.05
477.341	2105.81
477.713	2153.26
478.084	2173.38
478.455	2236.2
478.827	2242.3
479.198	2351.68
479.569	2343.99
479.94	2390.77
480.311	2439.36
480.682	2496.98
481.053	2574.04
481.424	2600.93
481.795	2627.15
482.166	2687.49
482.537	2716.19
482.908	2823.98
483.279	2844.77
483.65	2903.53
484.021	2984.43
484.391	3023.3
484.762	3081.6
485.133	3136.74
485.503	3174.48
485.874	3247.7
486.244	3317.75
486.615	3400.01
486.985	3435.04
487.356	3541.93
487.726	3595.71
488.097	3608.37
488.467	3667.8
488.837	3810.39
489.207	3827.57
489.578	3910.28
489.948	3960.67
490.318	4072.76
490.688	4048.35
491.058	4167.9
491.428	4211.97
491.798	4302.13
492.168	4402.24
492.538	4405.41
492.908	4461
493.278	4557.72
493.648	4605.85
494.017	4700.77
494.387	4719.3
494.757	4767.43
495.126	4865.28
495.496	4837.03
495.866	4979.85
496.235	5013.07
496.605	5060.53
496.974	5088.78
497.344	5202.22
497.713	5191.15
498.082	5239.06
498.452	5334.87
498.821	5378.26
499.19	5428.88
499.559	5475.66
499.928	5534.64
500.298	5590.23
500.667	5589.56
501.036	5606.05
501.405	5697.58
501.774	5719.5
502.143	5766.95
502.512	5809.89
502.88	5835.65
503.249	5885.59
503.618	5967.63
503.987	5989.09
504.356	6014.86
504.724	6038.58
505.093	6051.92
505.462	6137.56
505.83	6209.2
506.199	6220.73
506.567	6342.3
506.936	6362.87
507.304	6366.94
507.672	6393.83
508.041	6440.16
508.409	6520.15
508.777	6564.45
509.145	6583.43
509.514	6569.19
509.882	6671.34
510.25	6652.13
510.618	6736.87
510.986	6782.29
511.354	6794.72
511.722	6834.27
512.09	6899.58
512.458	6919.69
512.826	6978.45
513.193	6964.89
513.561	7041.04
513.929	7093.02
514.297	7155.84
514.664	7162.85
515.032	7156.52
515.4	7198.78
515.767	7264.09
516.135	7288.04
516.502	7248.27
516.869	7327.14
517.237	7391.09
517.604	7376.85
517.972	7460.92
518.339	7483.29
518.706	7520.81
519.073	7542.73
519.44	7606.45
519.808	7573.46
520.175	7621.82
520.542	7646.68
520.909	7744.53
521.276	7789.05
521.643	7853.23
522.009	7882.6
522.376	7925.09
522.743	8002.83
523.11	8024.97
523.477	8076.27
523.843	8130.96
524.21	8144.07
524.577	8260.9
524.943	8222.48
525.31	8249.37
525.676	8382.03
526.043	8420.22
526.409	8449.59
526.776	8533.89
527.142	8521.91
527.508	8605.3
527.874	8600.32
528.241	8698.63
528.607	8679.19
528.973	8755.35
529.339	8776.37
529.705	8900.2
530.071	8868.34
530.437	8930.03
530.803	8984.27
531.169	9079.18
531.535	9127.32
531.901	9156.24
532.267	9147.65
532.632	9236.24
532.998	9193.76
533.364	9356.69
533.73	9354.43
534.095	9389.91
534.461	9424.48
534.826	9471.94
535.192	9485.5
535.557	9516.01
535.923	9588.1
536.288	9607.98
536.653	9667.87
537.019	9579.06
537.384	9672.16
537.749	9724.59
538.114	9698.37
538.479	9784.25
538.845	9808.65
539.21	9886.62
539.575	9911.48
539.94	9901.08
540.305	10005.03
540.67	10057.69
541.034	10125.48
541.399	10141.08
541.764	10125.71
542.129	10148.98
542.494	10230.34
542.858	10277.34
543.223	10349.43
543.587	10442.08
543.952	10367.74
544.316	10459.03
544.681	10454.06
545.045	10479.82
545.41	10565.24
545.774	10632.36
546.138	10580.16
546.503	10675.52
546.867	10708.97
547.231	10733.6
547.595	10799.14
547.959	10841.17
548.324	10825.12
548.688	10867.38
549.052	10925.24
549.416	10957.1
549.779	10990.77
550.143	10983.31
550.507	11115.51
550.871	11132.24
551.235	11097.89
551.599	11313.02
551.962	11275.28
552.326	11257.88
552.689	11375.39
553.053	11322.74
553.417	11325
553.78	11462.62
554.143	11437.09
554.507	11425.34
554.87	11523.64
555.234	11692.22
555.597	11575.61
555.96	11632.56
556.323	11640.7
556.686	11656.29
557.05	11714.59
557.413	11814.93
557.776	11815.83
558.139	11888.37
558.502	11846.79
558.865	11914.36
559.228	12067.8
559.59	12072.1
559.953	12055.15
560.316	12135.37
560.679	12196.84
561.041	12316.61
561.404	12264.86
561.767	12389.83
562.129	12316.61
562.492	12437.29
562.854	12411.07
563.217	12474.12
563.579	12521.13
563.941	12551.63
564.304	12620.78
564.666	12729.93
565.028	12674.34
565.39	12737.62
565.753	12867.56
566.115	12817.16
566.477	12835.24
566.839	12932.19
567.201	13026.2
567.563	13013.77
567.925	13135.35
568.287	13041.79
568.648	13176.7
569.01	13241.56
569.372	13312.52
569.734	13234.55
570.095	13385.96
570.457	13464.83
570.819	13585.73
571.18	13500.53
571.542	13686.29
571.903	13681.1
572.265	13723.35
572.626	13726.74
572.987	13830.02
573.349	13924.93
573.71	13930.81
574.071	14061.65
574.432	14104.59
574.794	14247.41
575.155	14312.26
575.516	14251.02
575.877	14410.79
576.238	14482.2
576.599	14581.64
576.96	14736.89
577.32	14756.77
577.681	14839.48
578.042	14955.41
578.403	15005.35
578.763	15139.59
579.124	15278.57
579.485	15422.52
579.845	15577.54
580.206	15655.73
580.566	15790.19
580.927	15933.47
581.287	16083.74
581.648	16178.88
582.008	16493
582.368	16586.56
582.728	16633.11
583.089	16881.69
583.449	17107.9
583.809	17243.71
584.169	17447.78
584.529	17593.53
584.889	17955.11
585.249	18022
585.609	18257.47
585.969	18529.1
586.329	18706.95
586.688	18916.21
587.048	19135.87
587.408	19337.44
587.768	19607.27
588.127	19737.21
588.487	20041.83
588.846	20358.21
589.206	20424.87
589.565	20729.05
589.925	20994.8
590.284	21210.61
590.643	21546.65
591.003	21847.66
591.362	22149.8
591.721	22388.66
592.08	22544.82
592.44	23030.23
592.799	23259.15
593.158	23471.35
593.517	23692.13
593.876	24138.67
594.235	24239.24
594.593	24543.86
594.952	24890.52
595.311	25128.03
595.67	25400.11
596.029	25875.35
596.387	26098.17
596.746	26422.68
597.104	26608.44
597.463	26875.55
597.822	27210.91
598.18	27308.53
598.538	27660.39
598.897	28048.17
599.255	28222.63
599.613	28735.16
599.972	28743.07
600.33	29199.78
600.688	29338.08
601.046	29737.62
601.404	29869.37
601.762	30090.16
602.12	30532.63
602.478	30720.87
602.836	31038.15
603.194	31098.26
603.552	31432.27
603.91	31390.46
604.268	31835.87
604.625	32000.39
604.983	32354.95
605.341	32419.13
605.698	32650.54
606.056	32858.9
606.413	33125.78
606.771	33494.13
607.128	33704.75
607.485	33750.17
607.843	34030.62
608.2	34320.1
608.557	34552.41
608.914	34637.15
609.272	35019.07
609.629	35165.28
609.986	35548.09
610.343	35534.08
610.7	35950.57
611.057	36061.3
611.414	36188.98
611.771	36232.14
612.127	36545.13
612.484	36597.1
612.841	36988.05
613.198	36832.8
613.554	37035.28
613.911	37316.63
614.267	37585.33
614.624	37725.43
614.98	37801.36
615.337	38035.03
615.693	38239.55
616.05	38183.73
616.406	38625.07
616.762	38362.03
617.118	38595.02
617.475	38698.74
617.831	39029.81
618.187	39082.24
618.543	39225.51
618.899	39499.4
619.255	39557.02
619.611	39538.49
619.967	39692.39
620.323	40113.39
620.678	39831.14
621.034	39822.55
621.39	39960.4
621.746	39974.64
622.101	40608.3
622.457	40340.73
622.812	40408.75
623.168	40412.6
623.523	40657.79
623.879	40810.33
624.234	40586.38
624.589	40764.68
624.945	40987.95
625.3	41006.93
625.655	40990.43
626.01	41135.29
626.365	41151.79
626.72	41250.54
627.075	41279.24
627.43	41271.56
627.785	41412.34
628.14	41440.37
628.495	41418.44
628.85	41532.57
629.205	41344.77
629.559	41628.61
629.914	41432
630.269	41502.51
630.623	41558.1
630.978	41387.49
631.332	41714.48
631.687	41781.37
632.041	41672.45
632.396	41719
632.75	41573.24
633.104	41727.14
633.459	41522.4
633.813	41562.4
634.167	41648.04
634.521	41780.92
634.875	41691.43
635.229	41683.07
635.583	41457.99
635.937	41485.34
636.291	41388.84
636.645	41661.83
636.999	41456.41
637.352	41694.37
637.706	41457.31
638.06	41665.44
638.413	41525.79
638.767	41456.41
639.121	41577.76
639.474	41439.91
639.828	41483.08
640.181	41360.82
640.534	41500.25
640.888	41356.75
641.241	41221.16
641.594	41361.27
641.947	41479.69
642.301	41161.05
642.654	41389.52
643.007	41352.91
643.36	41390.87
643.713	41211.22
644.066	41461.16
644.419	41256.42
644.771	40898.01
645.124	40586.6
645.477	40459.83
645.83	40354.52
646.182	40164.01
646.535	40072.27
646.888	40159.04
647.24	39967.41
647.593	40181.19
647.945	40044.7
648.298	39875.89
648.65	39930.57
649.002	39690.81
649.355	40020.97
649.707	39978.71
650.059	40106.16
650.411	40595.42
650.763	40558.35
651.115	41032.92
651.467	40843.09
651.819	40749.99
652.171	40777.11
652.523	40706.37
652.875	40819.82
653.227	40555.19
653.578	40895.07
653.93	40653.95
654.282	40621.18
654.633	40408.3
654.985	40611.46
655.337	40562.65
655.688	40540.5
656.039	40627.96
656.391	40392.94
656.742	40466.38
657.094	40614.62
657.445	40660.05
657.796	40514.29
658.147	40504.8
658.498	40328.76
658.849	40593.61
659.2	40531.01
659.551	40347.51
659.902	40544.57
660.253	40288.98
660.604	40548.86
660.955	40313.62
661.306	40433.16
661.656	40281.07
662.007	40333.5
662.358	40337.57
662.708	40280.62
663.059	40339.6
663.409	40083.79
663.76	40131.25
664.11	40323.78
664.461	40418.02
664.811	40475.19
665.161	40257.12
665.511	40308.64
665.862	40375.08
666.212	40376.44
666.562	40392.03
666.912	40316.78
667.262	40249.21
667.612	40388.87
667.962	40467.96
668.312	40234.3
668.662	40291.47
669.011	40279.27
669.361	40246.05
669.711	40141.87
670.06	40143
670.41	40095.32
670.76	40218.02
671.109	40195.43
671.459	40145.71
671.808	40056.9
672.157	40109.1
672.507	39884.7
672.856	39973.51
673.205	39855.77
673.554	40040.4
673.904	39869.33
674.253	40059.84
674.602	40055.99
674.951	39405.84
675.3	39241.55
675.649	39874.53
675.998	39825.04
676.346	39804.93
676.695	39908.43
677.044	39589.57
677.393	39850.8
677.741	39784.59
678.09	39654.42
678.438	39600.19
678.787	39868.43
679.135	39729.45
679.484	39572.62
679.832	39653.75
680.181	39394.54
680.529	39560.41
680.877	39398.16
681.225	39358.84
681.573	39420.31
681.922	39183.93
682.27	39117.94
682.618	39081.33
682.966	39035.68
683.314	38985.51
683.661	38936.25
684.009	38949.81
684.357	38818.06
684.705	38734
685.053	38765.41
685.4	38640.89
685.748	38540.78
686.095	38565.64
686.443	38298.98
686.79	38330.39
687.138	38382.82
687.485	38451.52
687.832	38206.55
688.18	38364.74
688.527	38112.32
688.874	38110.28
689.221	38042.04
689.568	37953.9
689.915	37759.56
690.262	37916.84
690.609	37668.26
690.956	37657.41
691.303	37580.58
691.65	37544.87
691.997	37392.79
692.344	37232.79
692.69	37043.64
693.037	37206.8
693.383	36976.53
693.73	36939.69
694.077	36727.95
694.423	36877.55
694.769	36619.93
695.116	36511
695.462	36481.85
695.808	36284.34
696.155	36487.05
696.501	36107.17
696.847	36211.12
697.193	35879.16
697.539	36037.12
697.885	35719.39
698.231	35744.7
698.577	35788.54
698.923	35606.39
699.269	35486.62
699.614	35308.77
699.96	35305.61
700.306	35367.3
700.651	35181.32
700.997	35042.34
701.342	35061.32
701.688	34941.78
702.033	34769.35
702.379	35001.89
702.724	34733.2
703.069	34781.33
703.415	34389.03
703.76	34548.34
704.105	34494.11
704.45	34318.29
704.795	34122.59
705.14	34052.08
705.485	34188.13
705.83	33932.09
706.175	33947.23
706.52	33861.81
706.865	33707.24
707.209	33641.47
707.554	33549.73
707.899	33555.37
708.243	33391.31
708.588	33332.33
708.932	33312.22
709.277	33180.24
709.621	33269.28
709.966	32954.49
710.31	32948.61
710.654	32760.59
710.998	32789.75
711.342	32826.81
711.687	32645.79
712.031	32604.67
712.375	32355.41
712.719	32465.69
713.063	32260.49
713.407	32397.67
713.75	32237.9
714.094	32402.41
714.438	32102.53
714.782	32152.25
715.125	32086.26
715.469	32153.83
715.812	31943.44
716.156	31772.82
716.499	31908.41
716.843	31836.55
717.186	31618.93
717.53	31799.71
717.873	31831.8
718.216	31629.32
718.559	31574.18
718.902	31302.1
719.246	31277.02
719.589	31302.55
719.932	31093.97
720.275	31221.65
720.617	31077.93
720.96	31021.43
721.303	31125.16
721.646	31116.12
721.989	30797.48
722.331	31011.94
722.674	30710.03
723.016	30893.98
723.359	30758.61
723.701	30806.29
724.044	30515.45
724.386	30503.93
724.729	30700.99
725.071	30432.52
725.413	30402.69
725.755	30425.97
726.097	30311.62
726.439	30230.72
726.782	30210.15
727.124	30321.11
727.465	30102.58
727.807	30087.67
728.149	29983.49
728.491	29981.01
728.833	30095.8
729.175	29857.62
729.516	29866.21
729.858	29730.62
730.199	29835.47
730.541	29835.92
730.882	29777.17
731.224	29763.38
731.565	29595.93
731.906	29626.21
732.248	29537.4
732.589	29438.65
732.93	29455.14
733.271	29343.73
733.612	29374.47
733.953	29387.12
734.294	29340.57
734.635	29188.03
734.976	29256.05
735.317	29143.74
735.658	29134.25
735.999	29099.45
736.339	28981.03
736.68	29118.2
737.021	28910.98
737.361	28736.97
737.702	28987.81
738.042	28755.05
738.383	28773.58
738.723	28842.05
739.063	28667.82
739.404	28714.82
739.744	28636.18
740.084	28619.46
740.424	28637.76
740.764	28565
741.104	28672.34
741.444	28400.93
741.784	28373.14
742.124	28342.63
742.464	28305.34
742.804	28264.89
743.143	28304.89
743.483	28285.68
743.823	28134.5
744.162	28203.43
744.502	28211.79
744.841	28016.54
745.181	28214.72
745.52	28029.19
745.86	28099.7
746.199	27884.34
746.538	27915.3
746.877	27928.4
747.216	27975.18
747.556	27940.16
747.895	27859.03
748.234	27698.13
748.573	27696.55
748.911	27674.4
749.25	27587.4
749.589	27595.53
749.928	27487.51
750.267	27531.8
750.605	27511.92
750.944	27336.1
751.283	27333.39
751.621	27345.59
751.96	27121.42
752.298	27229.21
752.636	27216.11
752.975	27132.04
753.313	27025.38
753.651	27110.8
753.989	26958.94
754.327	27036.22
754.666	26724.82
755.004	26953.06
755.342	26899.5
755.679	26807.98
756.017	26539.06
756.355	26732.28
756.693	26596.46
757.031	26593.52
757.368	26402.34
757.706	26370.03
758.044	26334.32
758.381	26378.16
758.719	26206.42
759.056	26171.61
759.394	26219.97
759.731	26034.44
760.068	26028.57
760.405	25893.43
760.743	25785.18
761.08	25843.49
761.417	25714.68
761.754	25708.35
762.091	25555.59
762.428	25485.08
762.765	25404.85
763.102	25479.65
763.438	25318.3
763.775	25222.49
764.112	25240.57
764.449	25366.89
764.785	25111.3
765.122	24932.32
765.458	24763.97
765.795	24734.14
766.131	24777.75
766.467	24793.12
766.804	24509.28
767.14	24480.13
767.476	24488.27
767.812	24365.33
768.148	24439.46
768.485	24176.41
768.821	24103.19
769.157	24071.78
769.492	24032.46
769.828	23988.62
770.164	23825.69
770.5	23674.5
770.836	23623.88
771.171	23752.02
771.507	23486.04
771.842	23427.05
772.178	23423.66
772.513	23229.32
772.849	23330.11
773.184	23111.58
773.519	23079.72
773.855	23015.31
774.19	22844.92
774.525	22891.93
774.86	22859.38
775.195	22645.15
775.53	22675.66
775.865	22471.82
776.2	22387.76
776.535	22208.55
776.87	22273.19
777.205	22130.36
777.539	22017.83
777.874	22089.01
778.209	21974.66
778.543	21879.75
778.878	21725.63
779.212	21705.97
779.547	21551.85
779.881	21693.99
780.215	21483.15
780.55	21493.55
780.884	21356.83
781.218	21268.47
781.552	21337.39
781.886	21113.44
782.22	20984.86
782.554	20928.36
782.888	20757.75
783.222	20725.66
783.556	20684.53
783.889	20633.45
784.223	20382.16
784.557	20402.5
784.89	20415.83
785.224	20192.79
785.557	20243.86
785.891	20176.52
786.224	20061.49
786.558	20034.15
786.891	19933.36
787.224	19842.74
787.557	19717.09
787.891	19755.06
788.224	19731.11
788.557	19689.52
788.89	19584.89
789.223	19563.65
789.556	19455.63
789.888	19418.35
790.221	19225.81
790.554	19108.07
790.887	19227.39
791.219	19122.31
791.552	18997.57
791.884	19010.22
792.217	18868.98
792.549	18731.81
792.882	18728.65
793.214	18554.87
793.546	18647.97
793.879	18578.59
794.211	18468.31
794.543	18497.24
794.875	18525.94
795.207	18496.56
795.539	18305.15
795.871	18236.46
796.203	18034.65
796.535	18012.05
796.867	17979.97
797.198	17964.6
797.53	17911.27
797.862	17746.98
798.193	17955.11
798.525	17782.68
798.856	17711.5
799.188	17626.53
799.519	17506.76
799.85	17348.34
800.182	17469.92
800.513	17450.94
800.844	17164.17
801.175	17374.56
801.506	17383.37
801.837	17194.45
802.168	17128.46
802.499	17063.38
802.83	16990.39
803.161	16901.58
803.491	16962.82
803.822	16932.31
804.153	16863.16
804.483	16729.15
804.814	16574.13
805.145	16568.02
805.475	16604.41
805.805	16538.2
806.136	16428.82
806.466	16551.08
806.796	16514.24
807.126	16330.74
807.457	16339.33
807.787	16382.27
808.117	16221.37
808.447	16228.37
808.777	16242.16
809.107	16107.25
809.436	16014.82
809.766	16078.32
810.096	15940.24
810.426	15906.12
810.755	15900.92
811.085	15868.83
811.414	15881.26
811.744	15723.98
812.073	15731.44
812.403	15664.32
812.732	15573.93
813.061	15615.28
813.39	15480.37
813.719	15447.83
814.049	15621.84
814.378	15531.44
814.707	15424.1
815.036	15340.26
815.365	15305.01
815.693	15131.23
816.022	15169.42
816.351	15179.59
816.68	15020.95
817.008	15119.48
817.337	14960.84
817.665	14969.42
817.994	14919.25
818.322	14961.51
818.651	14857.11
818.979	14780.05
819.307	14887.84
819.636	14759.94
819.964	14766.72
820.292	14778.92
820.62	14753.16
820.948	14672.26
821.276	14804.91
821.604	14665.93
821.932	14660.73
822.259	14716.1
822.587	14718.81
822.915	14676.78
823.243	14683.1
823.57	14655.31
823.898	14669.09
824.225	14543.67
824.553	14559.72
824.88	14509.1
825.207	14658.7
825.535	14639.04
825.862	14576.21
826.189	14600.39
826.516	14692.14
826.843	14591.35
827.17	14612.82
827.497	14537.57
827.824	14643.78
828.151	14623.44
828.478	14571.24
828.805	14608.98
829.131	14509.32
829.458	14530.11
829.785	14431.81
830.111	14562.2
830.438	14602.65
830.764	14585.25
831.09	14501.41
831.417	14423
831.743	14581.18
832.069	14517.68
832.395	14421.64
832.722	14500.28
833.048	14433.84
833.374	14519.94
833.7	14427.06
834.026	14432.94
834.351	14447.85
834.677	14402.88
835.003	14389.33
835.329	14405.82
835.654	14425.71
835.98	14337.8
836.306	14330.34
836.631	14354.52
836.956	14251.93
837.282	14339.61
837.607	14275.2
837.932	14237.69
838.258	14282.44
838.583	14129.22
838.908	14077.47
839.233	14172.38
839.558	14077.47
839.883	14069.33
840.208	14060.52
840.533	14077.24
840.858	14100.07
841.182	14015.55
841.507	13987.75
841.832	13884.71
842.156	13865.72
842.481	13903.91
842.805	13780.3
843.13	13829.34
843.454	13768.78
843.778	13689
844.103	13670.7
844.427	13678.16
844.751	13581.89
845.075	13575.11
845.399	13623.47
845.723	13456.02
846.047	13496.02
846.371	13433.19
846.695	13443.59
847.019	13282.46
847.343	13184.16
847.666	13169.24
847.99	13091.73
848.313	13151.62
848.637	12993.66
848.96	12968.12
849.284	12980.32
849.607	12899.42
849.931	12815.58
850.254	12770.61
850.577	12731.52
850.9	12621.69
851.223	12590.95
851.546	12471.41
851.869	12422.37
852.192	12530.16
852.515	12405.2
852.838	12337.18
853.161	12300.79
853.483	12336.5
853.806	12171.3
854.129	12212.43
854.451	12181.02
854.774	12054.92
855.096	12055.38
855.419	12032.78
855.741	11972.89
856.063	11850.86
856.385	11928.37
856.708	11885.21
857.03	11824.65
857.352	11839.34
857.674	11760.47
857.996	11772.44
858.318	11711.2
858.64	11771.31
858.961	11629.62
859.283	11645.22
859.605	11538.55
859.926	11550.3
860.248	11491.1
860.57	11364.32
860.891	11489.97
861.212	11375.84
861.534	11291.1
861.855	11310.76
862.176	11391.66
862.498	11371.1
862.819	11328.39
863.14	11263.76
863.461	11216.98
863.782	11284.32
864.103	11233.7
864.424	11141.5
864.745	11198.9
865.065	11080.26
865.386	11096.98
865.707	11072.35
866.027	11094.95
866.348	11077.77
866.668	11018.57
866.989	11050.88
867.309	10917.33
867.63	10981.73
867.95	10983.09
868.27	10861.28
868.59	10925.46
868.91	10854.73
869.23	10882.98
869.55	10810.21
869.87	10797.1
870.19	10816.99
870.51	10782.64
870.83	10813.6
871.15	10715.07
871.469	10743.77
871.789	10755.07
872.109	10745.81
872.428	10681.17
872.748	10765.47
873.067	10696.54
873.386	10692.47
873.706	10624.9
874.025	10601.63
874.344	10577
874.663	10604.34
874.982	10510.56
875.301	10482.08
875.62	10504.46
875.939	10491.57
876.258	10478.47
876.577	10503.78
876.896	10453.84
877.214	10406.15
877.533	10400.73
877.852	10466.94
878.17	10338.58
878.489	10320.28
878.807	10361.18
879.125	10332.48
879.444	10366.15
879.762	10268.3
880.08	10312.14
880.398	10191.92
880.716	10264.24
881.034	10226.27
881.352	10290.68
881.67	10212.49
881.988	10150.11
882.306	10107.86
882.624	10113.28
882.941	10060.4
883.259	10031.93
883.577	9994.64
883.894	10017.24
884.212	9999.84
884.529	10009.33
884.846	9928.43
885.164	9999.16
885.481	9852.95
885.798	9890.01
886.115	9798.03
886.432	9787.64
886.75	9797.13
887.067	9838.03
887.383	9715.32
887.7	9735.89
888.017	9690.24
888.334	9745.61
888.651	9632.61
888.967	9635.78
889.284	9600.07
889.6	9544.93
889.917	9545.38
890.233	9518.04
890.55	9459.06
890.866	9516.01
891.182	9421.32
891.498	9432.85
891.815	9451.83
892.131	9374.99
892.447	9358.04
892.763	9325.96
893.079	9309.23
893.395	9270.59
893.71	9278.72
894.026	9176.13
894.342	9201.21
894.657	9172.06
894.973	9089.58
895.289	9137.94
895.604	9135.9
895.92	9051.84
896.235	8933.2
896.55	8945.4
896.865	8935.01
897.181	8896.81
897.496	8911.5
897.811	8862.69
898.126	8843.26
898.441	8788.12
898.756	8739.3
899.071	8735.91
899.386	8719.64
899.7	8691.62
900.015	8716.93
900.33	8544.28
900.644	8554.22
900.959	8581.79
901.273	8438.52
901.588	8495.69
901.902	8456.6
902.216	8406.21
902.531	8368.69
902.845	8327.34
903.159	8329.82
903.473	8320.56
903.787	8202.6
904.101	8192.2
904.415	8232.2
904.729	8194.23
905.042	8162.37
905.356	8125.08
905.67	8102.03
905.984	8082.82
906.297	8019.55
906.611	7981.58
906.924	7984.97
907.237	7940.23
907.551	7942.49
907.864	7929.38
908.177	7831.31
908.491	7835.6
908.804	7816.39
909.117	7671.54
909.43	7652.78
909.743	7664.08
910.056	7660.46
910.368	7607.81
910.681	7568.26
910.994	7517.87
911.307	7509.73
911.619	7438.77
911.932	7482.39
912.244	7450.3
912.557	7430.41
912.869	7363.07
913.181	7366.01
913.494	7360.13
913.806	7241.26
914.118	7246.69
914.43	7185.67
914.742	7170.98
915.054	7181.83
915.366	7128.27
915.678	7087.82
915.99	7084.88
916.302	7005.34
916.613	7043.98
916.925	6994.94
917.236	6923.53
917.548	6954.49
917.859	6914.04
918.171	6819.35
918.482	6847.15
918.794	6861.16
919.105	6808.73
919.416	6780.71
919.727	6735.74
920.038	6753.59
920.349	6612.58
920.66	6619.36
920.971	6642.64
921.282	6589.76
921.593	6561.51
921.903	6573.71
922.214	6513.83
922.525	6470.89
922.835	6463.43
923.146	6433.38
923.456	6461.4
923.767	6351.57
924.077	6407.16
924.387	6360.61
924.697	6279.26
925.008	6263.21
925.318	6196.32
925.628	6252.59
925.938	6188.18
926.248	6184.34
926.558	6166.49
926.867	6106.15
927.177	6065.93
927.487	6046.72
927.796	5994.29
928.106	6001.52
928.416	5968.76
928.725	5987.51
929.034	5915.42
929.344	5907.06
929.653	5911.36
929.962	5885.14
930.271	5876.1
930.581	5872.71
930.89	5762.21
931.199	5770.34
931.508	5699.38
931.817	5703.68
932.125	5714.07
932.434	5657.35
932.743	5606.28
933.051	5602.89
933.36	5596.11
933.669	5588.88
933.977	5543
934.286	5568.77
934.594	5474.53
934.902	5454.64
935.21	5426.17
935.519	5458.49
935.827	5429.79
936.135	5387.75
936.443	5367.42
936.751	5336
937.059	5339.39
937.367	5335.78
937.674	5256.46
937.982	5256.46
938.29	5242.22
938.597	5228.21
938.905	5180.3
939.213	5143.92
939.52	5087.65
939.827	5111.83
940.135	5077.71
940.442	5058.72
940.749	5049.68
941.056	5021.21
941.363	5014.66
941.67	4971.95
941.977	4974.66
942.284	4957.93
942.591	4924.72
942.898	4842.46
943.205	4895.11
943.511	4858.5
943.818	4789.58
944.125	4760.65
944.431	4790.03
944.738	4739.18
945.044	4730.82
945.35	4740.99
945.657	4678.17
945.963	4676.36
946.269	4659.86
946.575	4639.75
946.881	4640.2
947.187	4603.37
947.493	4558.85
947.799	4580.32
948.105	4506.87
948.41	4511.62
948.716	4535.57
949.022	4469.81
949.327	4464.39
949.633	4390.27
949.938	4399.53
950.244	4399.76
950.549	4390.94
950.854	4339.65
951.16	4341.91
951.465	4355.01
951.77	4303.71
952.075	4320.66
952.38	4238.63
952.685	4216.71
952.99	4211.74
953.294	4200.21
953.599	4203.38
953.904	4149.59
954.209	4130.61
954.513	4123.15
954.818	4127.22
955.122	4077.51
955.426	4125.64
955.731	4127.9
956.035	4074.34
956.339	4049.03
956.643	4007.9
956.948	4018.52
957.252	3964.06
957.556	4006.55
957.86	3980.56
958.163	3957.73
958.467	3897.62
958.771	3895.14
959.075	3882.71
959.378	3870.96
959.682	3850.39
959.985	3849.49
960.289	3824.41
960.592	3787.34
960.896	3801.13
961.199	3754.35
961.502	3760.68
961.805	3715.93
962.108	3721.81
962.411	3715.03
962.714	3689.95
963.017	3711.41
963.32	3660.79
963.623	3659.44
963.926	3634.81
964.228	3620.34
964.531	3596.84
964.833	3596.84
965.136	3574.24
965.438	3557.97
965.741	3532.66
966.043	3543.96
966.345	3500.12
966.648	3506.67
966.95	3499.67
967.252	3435.71
967.554	3480.23
967.856	3409.73
968.158	3383.06
968.46	3386.9
968.761	3360.46
969.063	3367.69
969.365	3382.38
969.666	3351.42
969.968	3350.07
970.269	3304.19
970.571	3319.56
970.872	3296.06
971.174	3278.88
971.475	3255.61
971.776	3232.1
972.077	3272.78
972.378	3206.34
972.679	3200.47
972.98	3195.5
973.281	3164.99
973.582	3163.41
973.883	3137.87
974.183	3147.81
974.484	3129.96
974.785	3130.64
975.085	3123.86
975.386	3078.89
975.686	3083.86
975.986	3015.61
976.287	3028.27
976.587	2992.56
976.887	3011.55
977.187	3003.18
977.487	2962.96
977.787	2970.42
978.087	2911.89
978.387	2924.99
978.687	2939.91
978.987	2923.86
979.286	2900.81
979.586	2879.57
979.885	2879.35
980.185	2848.39
980.484	2847.26
980.784	2861.04
981.083	2828.95
981.382	2773.81
981.682	2829.85
981.981	2794.6
982.28	2787.14
982.579	2738.33
982.878	2769.29
983.177	2747.6
983.475	2715.96
983.774	2707.15
984.073	2669.18
984.372	2672.12
984.67	2710.99
984.969	2681.61
985.267	2666.47
985.566	2623.98
985.864	2616.3
986.162	2616.3
986.461	2578.79
986.759	2626.92
987.057	2589.64
987.355	2575.62
987.653	2554.61
987.951	2528.17
988.249	2532.91
988.547	2509.41
988.844	2484.78
989.142	2512.35
989.44	2461.5
989.737	2476.64
990.035	2503.31
990.332	2477.55
990.63	2448.62
990.927	2466.93
991.224	2422.41
991.521	2438.23
991.819	2398
992.116	2390.32
992.413	2405.23
992.71	2365.23
993.006	2345.35
993.303	2351.45
993.6	2357.1
993.897	2337.21
994.193	2329.08
994.49	2261.73
994.787	2270.55
995.083	2266.25
995.379	2278.46
995.676	2241.17
995.972	2263.09
996.268	2259.02
996.565	2232.81
996.861	2197.78
997.157	2195.3
997.453	2181.51
997.749	2173.6
998.044	2179.48
998.34	2190.55
998.636	2184
998.932	2118.01
999.227	2137.22
999.523	2118.24
999.818	2057.9
1000.114	2103.09
1000.409	2113.04
1000.704	2074.39
1001	2052.02
1001.295	2055.86
1001.59	2053.38
1001.885	2018.12
1002.18	2025.81
1002.475	1995.53
1002.77	2020.38
1003.065	1999.82
1003.359	1971.8
1003.654	1953.49
1003.949	1971.8
1004.243	1960.05
1004.538	1970.22
1004.832	1898.35
1005.127	1912.36
1005.421	1924.57
1005.715	1859.49
1006.009	1876.89
1006.304	1894.29
1006.598	1861.07
1006.892	1859.71
1007.186	1811.8
1007.48	1805.7
1007.773	1831.24
1008.067	1816.32
1008.361	1819.26
1008.655	1752.14
1008.948	1813.38
1009.242	1761.41
1009.535	1767.96
1009.829	1720.96
1010.122	1739.26
1010.415	1758.24
1010.708	1741.97
1011.001	1693.16
1011.295	1715.99
1011.588	1690.68
1011.881	1675.08
1012.173	1701.75
1012.466	1673.5
1012.759	1667.85
1013.052	1643.67
1013.344	1623.56
1013.637	1643.22
1013.93	1622.88
1014.222	1610
1014.514	1618.59
1014.807	1610.45
1015.099	1592.37
1015.391	1574.07
1015.683	1557.12
1015.976	1545.37
1016.268	1535.65
1016.56	1530.91
1016.851	1532.94
1017.143	1522.54
1017.435	1501.08
1017.727	1499.95
1018.018	1504.92
1018.31	1459.5
1018.602	1478.7
1018.893	1445.94
1019.185	1444.13
1019.476	1436.67
1019.767	1408.2
1020.058	1447.52
1020.35	1419.72
1020.641	1394.41
1020.932	1371.59
1021.223	1375.66
1021.514	1384.47
1021.804	1392.83
1022.095	1369.1
1022.386	1365.49
1022.677	1341.98
1022.967	1344.7
1023.258	1332.27
1023.548	1370.91
1023.839	1297.24
1024.129	1268.31
1024.419	1277.81
1024.709	1285.94
1025	1271.03
1025.29	1279.84
1025.58	1296.79
1025.87	1227.19
1026.16	1233.74
1026.449	1273.96
1026.739	1242.33
1027.029	1212.04
1027.319	1222.67
1027.608	1192.16
1027.898	1191.93
1028.187	1181.54
1028.477	1187.19
1028.766	1170.24
1029.055	1158.71
1029.344	1177.47
1029.634	1161.42
1029.923	1137.24
1030.212	1154.87
1030.501	1109.9
1030.79	1124.59
1031.078	1095.21
1031.367	1133.18
1031.656	1112.16
1031.945	1097.92
1032.233	1103.35
1032.522	1078.94
1032.81	1048.88
1033.099	1066.06
1033.387	1073.97
1033.675	1076
1033.963	1054.99
1034.251	1064.7
1034.54	1023.8
1034.828	1023.8
1035.116	992.62
1035.403	1023.57
1035.691	1000.52
1035.979	1015.44
1036.267	999.17
1036.554	960.98
1036.842	974.54
1037.129	980.86
1037.417	942.9
1037.704	973.41
1037.992	949.45
1038.279	933.86
1038.566	962.33
1038.853	962.33
1039.14	962.33
