Data from hue_350_FLMS001491_20.txt Node
Date: Mon Feb 06 15:37:40 GMT 2017
User: dcchb
Spectrometer: FLMS00149
Trigger mode: 0
Integration Time (sec): 2.000000E-2
Scans to average: 10
Electric dark correction enabled: true
Nonlinearity correction enabled: false
Boxcar width: 0
XAxis mode: Wavelengths
Number of Pixels in Spectrum: 2048
>>>>>Begin Spectral Data<<<<<
341.393	-7.53
341.776	-7.53
342.16	-7.53
342.543	-71.03
342.927	-65.38
343.31	-64.7
343.693	-79.62
344.077	-72.16
344.46	-54.31
344.843	-52.05
345.226	-68.09
345.61	-43.91
345.993	-22.89
346.376	-8.43
346.759	20.72
347.142	23.43
347.525	54.39
347.908	70.21
348.291	72.7
348.674	108.85
349.057	115.86
349.44	126.48
349.823	152.69
350.206	169.87
350.588	180.94
350.971	201.96
351.354	222.3
351.737	241.05
352.119	248.28
352.502	246.02
352.884	268.62
353.267	285.8
353.65	304.78
354.032	293.48
354.414	323.54
354.797	321.95
355.179	326.02
355.562	305.46
355.944	316.53
356.326	338.45
356.709	331.9
357.091	348.85
357.473	335.97
357.855	338.23
358.238	330.09
358.62	333.03
359.002	347.04
359.384	339.58
359.766	351.33
360.148	341.84
360.53	325.34
360.912	338.45
361.294	319.69
361.676	331.45
362.057	324.21
362.439	319.69
362.821	331.22
363.203	300.26
363.584	299.36
363.966	340.49
364.348	326.93
364.729	313.59
365.111	318.57
365.493	330.32
365.874	305.46
366.256	309.3
366.637	311.79
367.019	325.8
367.4	323.08
367.781	304.33
368.163	310.88
368.544	309.98
368.925	312.69
369.306	315.4
369.688	285.35
370.069	314.5
370.45	308.17
370.831	316.53
371.212	318.11
371.593	313.82
371.974	322.41
372.355	330.32
372.736	307.49
373.117	309.53
373.498	331.67
373.879	304.55
374.26	312.01
374.641	303.65
375.021	301.62
375.402	312.92
375.783	322.18
376.163	316.76
376.544	340.03
376.925	310.2
377.305	322.18
377.686	322.86
378.066	332.12
378.447	332.8
378.827	329.19
379.208	351.78
379.588	332.8
379.968	327.15
380.349	316.98
380.729	329.64
381.109	337.77
381.489	334.84
381.87	334.61
382.25	346.13
382.63	341.62
383.01	352.24
383.39	347.94
383.77	335.51
384.15	349.52
384.53	334.38
384.91	353.59
385.29	353.37
385.67	330.54
386.049	340.03
386.429	340.71
386.809	347.04
387.189	355.4
387.568	373.25
387.948	358.56
388.328	329.41
388.707	356.3
389.087	351.78
389.466	366.02
389.846	356.53
390.225	351.78
390.605	371.45
390.984	345.46
391.363	358.11
391.743	373.93
392.122	366.47
392.501	368.96
392.881	376.19
393.26	378.45
393.639	404.89
394.018	359.24
394.397	355.4
394.776	390.2
395.155	399.47
395.534	373.48
395.913	385.68
396.292	389.52
396.671	390.88
397.05	389.07
397.429	394.72
397.808	397.43
398.186	376.87
398.565	361.73
398.944	384.33
399.323	408.05
399.701	393.82
400.08	388.62
400.458	413.03
400.837	409.18
401.215	413.25
401.594	399.47
401.972	396.3
402.351	421.16
402.729	410.09
403.107	401.27
403.486	396.53
403.864	403.31
404.242	429.97
404.62	407.83
404.999	403.53
405.377	393.59
405.755	431.56
406.133	416.64
406.511	419.13
406.889	425
407.267	420.03
407.645	450.31
408.023	442.63
408.401	437.88
408.779	448.96
409.156	428.17
409.534	436.08
409.912	452.12
410.29	427.49
410.667	446.92
411.045	458.67
411.422	462.97
411.8	455.51
412.178	439.01
412.555	454.61
412.933	480.14
413.31	459.13
413.687	482.18
414.065	476.3
414.442	472.01
414.819	505.68
415.197	486.24
415.574	465.91
415.951	496.41
416.328	490.09
416.705	521.95
417.082	505.45
417.46	501.39
417.837	518.11
418.214	526.7
418.591	518.33
418.967	508.16
419.344	516.98
419.721	503.87
420.098	532.12
420.475	541.84
420.852	536.86
421.228	538.22
421.605	527.83
421.982	546.13
422.358	550.42
422.735	558.11
423.111	551.55
423.488	575.51
423.864	549.52
424.241	584.77
424.617	575.73
424.994	574.15
425.37	570.54
425.746	564.66
426.123	593.36
426.499	585
426.875	588.84
427.251	589.52
427.627	612.34
428.003	596.75
428.379	609.86
428.756	616.64
429.132	630.2
429.507	631.78
429.883	644.21
430.259	638.56
430.635	657.77
431.011	653.25
431.387	672.68
431.763	671.1
432.138	651.44
432.514	702.74
432.89	651.66
433.265	686.92
433.641	675.17
434.016	687.37
434.392	695.5
434.767	728.27
435.143	713.13
435.518	719.01
435.894	734.37
436.269	719.46
436.644	702.06
437.02	727.14
437.395	730.08
437.77	754.71
438.145	763.98
438.52	764.2
438.895	782.28
439.271	762.17
439.646	801.26
440.021	813.92
440.395	783.86
440.77	773.24
441.145	789.29
441.52	817.99
441.895	797.42
442.27	798.33
442.645	796.52
443.019	835.61
443.394	804.2
443.769	824.99
444.143	826.12
444.518	820.02
444.892	845.1
445.267	819.57
445.641	837.87
446.016	849.17
446.39	830.19
446.764	852.34
447.139	848.49
447.513	860.7
447.887	876.52
448.262	876.97
448.636	874.71
449.01	879.23
449.384	904.76
449.758	890.75
450.132	906.57
450.506	890.53
450.88	899.79
451.254	911.54
451.628	892.79
452.002	928.04
452.376	931.66
452.75	934.37
453.123	931.43
453.497	946.35
453.871	947.7
454.244	972.79
454.618	959.45
454.992	977.3
455.365	980.24
455.739	988.38
456.112	1015.5
456.486	1010.3
456.859	1032.9
457.232	1051.88
457.606	1033.57
457.979	1033.57
458.352	1077.42
458.725	1056.62
459.099	1060.92
459.472	1090.3
459.845	1082.16
460.218	1092.33
460.591	1123.06
460.964	1110.18
461.337	1144.31
461.71	1164.64
462.083	1171.42
462.456	1189.05
462.829	1180.24
463.201	1189.05
463.574	1179.56
463.947	1197.86
464.32	1214.36
464.692	1234.7
465.065	1234.7
465.438	1271.31
465.81	1265.43
466.183	1279.44
466.555	1293.91
466.928	1352.89
467.3	1305.66
467.672	1354.92
468.045	1355.83
468.417	1374.36
468.789	1367.13
469.161	1406.22
469.534	1430.63
469.906	1450.06
470.278	1471.98
470.65	1463.17
471.022	1487.8
471.394	1522.83
471.766	1514.69
472.138	1555.37
472.51	1576.16
472.882	1604.63
473.253	1626.1
473.625	1616.84
473.997	1666.1
474.369	1665.65
474.74	1710.39
475.112	1755.36
475.484	1760.56
475.855	1775.93
476.227	1790.62
476.598	1846.89
476.97	1890.28
477.341	1870.16
477.713	1915.81
478.084	1929.82
478.455	1984.06
478.827	2022.7
479.198	2048.69
479.569	2084.39
479.94	2142.47
480.311	2164.39
480.682	2181.79
481.053	2260.43
481.424	2277.38
481.795	2296.59
482.166	2313.77
482.537	2354.22
482.908	2397.38
483.279	2475.34
483.65	2496.81
484.021	2520.77
484.391	2586.3
484.762	2584.95
485.133	2612.97
485.503	2720.08
485.874	2691.84
486.244	2747.43
486.615	2796.92
486.985	2810.25
487.356	2866.97
487.726	2906.29
488.097	2937.48
488.467	2980.42
488.837	3047.08
489.207	3071.26
489.578	3088.89
489.948	3132.73
490.318	3167.53
490.688	3243.91
491.058	3239.84
491.428	3299.28
491.798	3355.32
492.168	3412.95
492.538	3428.09
492.908	3472.15
493.278	3501.08
493.648	3528.2
494.017	3566.84
494.387	3582.21
494.757	3602.32
495.126	3634.41
495.496	3661.75
495.866	3719.83
496.235	3711.92
496.605	3783.11
496.974	3812.71
497.344	3858.58
497.713	3877.12
498.082	3847.51
498.452	3937.23
498.821	3966.6
499.19	3971.12
499.559	3979.49
499.928	4050.44
500.298	4040.73
500.667	4065.13
501.036	4057.68
501.405	4146.49
501.774	4158.92
502.143	4161.63
502.512	4168.41
502.88	4191.68
503.249	4212.25
503.618	4225.13
503.987	4238.69
504.356	4304.9
504.724	4302.64
505.093	4333.83
505.462	4351
505.83	4408.63
506.199	4412.24
506.567	4455.63
506.936	4453.37
507.304	4519.58
507.672	4517.78
508.041	4491.56
508.409	4546.48
508.777	4573.37
509.145	4570.43
509.514	4597.1
509.882	4683.65
510.25	4653.59
510.618	4690.43
510.986	4669.64
511.354	4708.73
511.722	4754.15
512.09	4779.24
512.458	4774.72
512.826	4760.93
513.193	4823.31
513.561	4786.02
513.929	4817.43
514.297	4840.48
514.664	4962.06
515.032	4946.92
515.4	4986.01
515.767	4947.14
516.135	4941.72
516.502	4989.18
516.869	5029.63
517.237	4996.41
517.604	5030.98
517.972	5077.08
518.339	5079.8
518.706	5081.38
519.073	5087.03
519.44	5118.21
519.808	5189.62
520.175	5124.77
520.542	5222.62
520.909	5247.48
521.276	5205.22
521.643	5277.76
522.009	5295.84
522.376	5297.64
522.743	5363.86
523.11	5395.04
523.477	5391.2
523.843	5455.38
524.21	5503.06
524.577	5494.7
524.943	5494.93
525.31	5509.62
525.676	5590.74
526.043	5580.57
526.409	5649.5
526.776	5663.51
527.142	5708.48
527.508	5702.15
527.874	5720.46
528.241	5736.73
528.607	5744.64
528.973	5868.93
529.339	5830.06
529.705	5909.6
530.071	5912.32
530.437	5935.14
530.803	6013.33
531.169	6003.39
531.535	6009.94
531.901	6023.27
532.267	6104.85
532.632	6080
532.998	6157.51
533.364	6159.32
533.73	6171.52
534.095	6225.75
534.461	6244.74
534.826	6277.5
535.192	6331.74
535.557	6319.76
535.923	6307.79
536.288	6341.91
536.653	6402.25
537.019	6398.41
537.384	6397.95
537.749	6449.7
538.114	6451.06
538.479	6468.46
538.845	6482.47
539.21	6540.77
539.575	6574.67
539.94	6634.56
540.305	6619.87
540.67	6640.43
541.034	6648.12
541.399	6665.97
541.764	6719.3
542.129	6820.32
542.494	6756.59
542.858	6779.86
543.223	6855.79
543.587	6860.09
543.952	6856.47
544.316	6883.82
544.681	6903.7
545.045	6938.5
545.41	6957.26
545.774	7067.54
546.138	6994.1
546.503	7076.58
546.867	7115.22
547.231	7211.94
547.595	7141.66
547.959	7190.25
548.324	7180.53
548.688	7203.36
549.052	7216.24
549.416	7221.21
549.779	7289.68
550.143	7266.4
550.507	7381.88
550.871	7356.8
551.235	7355.67
551.599	7460.75
551.962	7411.71
552.326	7406.06
552.689	7572.16
553.053	7437.93
553.417	7509.34
553.78	7613.74
554.143	7533.06
554.507	7568.77
554.87	7581.65
555.234	7699.84
555.597	7660.97
555.96	7731.48
556.323	7744.36
556.686	7722.21
557.05	7775.09
557.413	7826.84
557.776	7847.18
558.139	7819.61
558.502	7872.26
558.865	7892.6
559.228	7909.78
559.59	7956.78
559.953	7958.59
560.316	8063.9
560.679	8104.12
561.041	8067.29
561.404	8189.54
561.767	8178.02
562.129	8180.05
562.492	8250.56
562.854	8215.53
563.217	8233.16
563.579	8248.07
563.941	8278.58
564.304	8345.02
564.666	8384.79
565.028	8340.95
565.39	8374.85
565.753	8471.57
566.115	8500.5
566.477	8506.82
566.839	8509.08
567.201	8631.11
567.563	8597.44
567.925	8614.62
568.287	8672.02
568.648	8700.49
569.01	8728.29
569.372	8836.08
569.734	8745.46
570.095	8820.94
570.457	8893.03
570.819	8869.98
571.18	8913.14
571.542	8954.27
571.903	8983.2
572.265	9049.63
572.626	9130.99
572.987	9140.25
573.349	9139.8
573.71	9232.91
574.071	9294.83
574.432	9357.65
574.794	9416.86
575.155	9533.01
575.516	9462.73
575.877	9530.07
576.238	9598.32
576.599	9750.86
576.96	9758.32
577.32	9857.98
577.681	9908.82
578.042	10034.69
578.403	9996.28
578.763	10165.54
579.124	10297.29
579.485	10377.96
579.845	10513.1
580.206	10557.17
580.566	10698.18
580.927	10740.44
581.287	10930.72
581.648	10986.76
582.008	11181.33
582.368	11241.89
582.728	11414.09
583.089	11536.12
583.449	11665.61
583.809	11796.68
584.169	11960.74
584.529	12143.34
584.889	12361.41
585.249	12480.96
585.609	12621.97
585.969	12910.32
586.329	13069.19
586.688	13261.73
587.048	13440.71
587.408	13607.71
587.768	13921.6
588.127	14125.89
588.487	14338.54
588.846	14690.84
589.206	14717.28
589.565	14997.95
589.925	15377.15
590.284	15521.78
590.643	15851.26
591.003	16119.96
591.362	16437.46
591.721	16540.96
592.08	16860.95
592.44	17130.1
592.799	17448.51
593.158	17665.68
593.517	17968.5
593.876	18257.98
594.235	18465.88
594.593	18851.41
594.952	19097.73
595.311	19321
595.67	19659.3
596.029	20121.66
596.387	20411.37
596.746	20693.4
597.104	20845.93
597.463	21075.31
597.822	21567.27
598.18	21742.41
598.538	22037.54
598.897	22299.46
599.255	22392.79
599.613	23053.56
599.972	23284.74
600.33	23475.92
600.688	23709.81
601.046	24077.94
601.404	24443.81
601.762	24575.78
602.12	24908.65
602.478	25227.74
602.836	25501.86
603.194	25619.37
603.552	25907.95
603.91	26123.54
604.268	26464.32
604.625	26615.05
604.983	27027.47
605.341	27214.81
605.698	27545.42
606.056	27752.87
606.413	28092.52
606.771	28341.56
607.128	28627.65
607.485	28693.19
607.843	28948.55
608.2	29317.12
608.557	29698.36
608.914	29741.29
609.272	29955.3
609.629	30272.35
609.986	30581.95
610.343	30626.47
610.7	30945.33
611.057	31245.66
611.414	31355.26
611.771	31511.87
612.127	31801.13
612.484	31952.99
612.841	32207.22
613.198	32328.12
613.554	32393.2
613.911	32800.65
614.267	32953.41
614.624	33068.89
614.98	33265.95
615.337	33568.09
615.693	33705.48
616.05	33559.27
616.406	34228.86
616.762	34077.9
617.118	34184.12
617.475	34283.1
617.831	34655.06
618.187	34829.52
618.543	34880.14
618.899	35151.55
619.255	35223.86
619.611	35342.73
619.967	35620.46
620.323	35608.03
620.678	35655.49
621.034	35695.04
621.39	35865.43
621.746	35921.02
622.101	36349.26
622.457	36170.05
622.812	36327.56
623.168	36506.77
623.523	36702.69
623.879	36902.24
624.234	36655.01
624.589	36848.45
624.945	37008.67
625.3	37102.91
625.655	37150.36
626.01	37241.66
626.365	37409.34
626.72	37388.32
627.075	37425.84
627.43	37514.42
627.785	37325.05
628.14	37478.49
628.495	37600.52
628.85	37791.7
629.205	37775.66
629.559	37880.97
629.914	37735.89
630.269	37808.88
630.623	37828.09
630.978	37874.64
631.332	38102.43
631.687	38133.62
632.041	37981.98
632.396	38155.31
632.75	37971.81
633.104	38193.95
633.459	37945.37
633.813	38071.24
634.167	38054.75
634.521	38046.84
634.875	38080.74
635.229	38082.54
635.583	37961.19
635.937	38061.75
636.291	37973.17
636.645	37939.72
636.999	38027.86
637.352	38026.95
637.706	37917.58
638.06	38100.62
638.413	38007.29
638.767	38022.21
639.121	38045.93
639.474	37790.8
639.828	37943.79
640.181	38068.31
640.534	38038.93
640.888	37967.07
641.241	37836.22
641.594	37955.32
641.947	38038.48
642.301	37930.68
642.654	37980.63
643.007	38017.91
643.36	37999.38
643.713	37929.55
644.066	38066.05
644.419	37819.05
644.771	37618.6
645.124	37182.91
645.477	37295.9
645.83	36934.33
646.182	36935
646.535	36903.82
646.888	36876.93
647.24	36738.62
647.593	36961.67
647.945	36811.16
648.298	36729.59
648.65	36747.44
649.002	36631.28
649.355	36856.14
649.707	36824.05
650.059	36858.4
650.411	37193.75
650.763	37402.79
651.115	37699.05
651.467	37574.31
651.819	37650.92
652.171	37713.06
652.523	37475.78
652.875	37489.79
653.227	37242.34
653.578	37548.09
653.93	37502.67
654.282	37348.1
654.633	37352.85
654.985	37485.95
655.337	37318.95
655.688	37343.58
656.039	37501.09
656.391	37170.25
656.742	37234.43
657.094	37207.76
657.445	37382.45
657.796	37187.65
658.147	37248.89
658.498	37235.56
658.849	37235.33
659.2	37223.58
659.551	37089.35
659.902	37291.83
660.253	37215.45
660.604	37238.72
660.955	36989.24
661.306	37323.02
661.656	37210.7
662.007	37125.96
662.358	37193.3
662.708	37187.88
663.059	37219.29
663.409	37010.93
663.76	37287.54
664.11	37201.44
664.461	37209.35
664.811	37219.06
665.161	37081.44
665.511	37047.99
665.862	37099.74
666.212	37164.83
666.562	37215.22
666.912	37094.32
667.262	37070.14
667.612	37063.14
667.962	37088.9
668.312	37052.97
668.662	37269.46
669.011	37108.33
669.361	36989.92
669.711	36998.73
670.06	36989.47
670.41	37006.87
670.76	36847.32
671.109	37060.2
671.459	37064.27
671.808	36858.62
672.157	36937.49
672.507	36743.82
672.856	36927.77
673.205	36881.9
673.554	37005.74
673.904	36825.18
674.253	37030.59
674.602	36913.08
674.951	36284.63
675.3	36196.94
675.649	36706.99
675.998	36744.05
676.346	36638.97
676.695	36917.6
677.044	36544.51
677.393	36561.45
677.741	36636.93
678.09	36526.43
678.438	36534.79
678.787	36513.32
679.135	36542.92
679.484	36268.13
679.832	36516.03
680.181	36298.41
680.529	36466.54
680.877	36241.91
681.225	36224.06
681.573	36411.85
681.922	36289.82
682.27	36168.24
682.618	36039.43
682.966	36050.51
683.314	35876.73
683.661	35943.39
684.009	35730.74
684.357	35713.11
684.705	35730.97
685.053	35715.15
685.4	35682.83
685.748	35714.02
686.095	35493.01
686.443	35306.57
686.79	35374.37
687.138	35370.52
687.485	35334.82
687.832	35295.05
688.18	35313.58
688.527	35046.69
688.874	35194.94
689.221	35132.34
689.568	35102.51
689.915	34812.57
690.262	34890.09
690.609	34702.75
690.956	34649.19
691.303	34582.52
691.65	34446.48
691.997	34507.27
692.344	34244.23
692.69	34227.28
693.037	34318.8
693.383	34088.52
693.73	34188.86
694.077	33934.86
694.423	33911.81
694.769	33748.87
695.116	33808.76
695.462	33757.23
695.808	33628.65
696.155	33667.74
696.501	33289.9
696.847	33368.77
697.193	33160.64
697.539	33239.96
697.885	33096.23
698.231	32943.7
698.577	32883.13
698.923	32935.56
699.269	32805.62
699.614	32587.77
699.96	32491.28
700.306	32509.58
700.651	32529.92
700.997	32261.68
701.342	32312.98
701.688	32196.14
702.033	32063.49
702.379	32096.71
702.724	31971.74
703.069	32059.43
703.415	31644.52
703.76	31666.22
704.105	31720.9
704.45	31687.46
704.795	31454.24
705.14	31404.3
705.485	31369.27
705.83	31254.02
706.175	31266
706.52	31165.21
706.865	30981.26
707.209	31062.16
707.554	30943.07
707.899	30967.02
708.243	30826.46
708.588	30815.16
708.932	30603.19
709.277	30545.11
709.621	30574.04
709.966	30321.39
710.31	30468.28
710.654	30105.58
710.998	30279.36
711.342	30347.83
711.687	30134.5
712.031	30095.64
712.375	30039.59
712.719	29997.78
713.063	30003.43
713.407	29965.92
713.75	29918.01
714.094	29801.18
714.438	29709.43
714.782	29768.86
715.125	29602.77
715.469	29617.68
715.812	29512.83
716.156	29341.76
716.499	29300.63
716.843	29487.06
717.186	29143.57
717.53	29450
717.873	29262.21
718.216	29287.75
718.559	29010.47
718.902	28892.28
719.246	29029.9
719.589	28886.4
719.932	28774.54
720.275	28794.2
720.617	28786.29
720.96	28647.99
721.303	28760.3
721.646	28615.67
721.989	28436.7
722.331	28444.61
722.674	28443.7
723.016	28500.65
723.359	28407.32
723.701	28421.78
724.044	28171.84
724.386	28190.6
724.729	28103.6
725.071	28047.55
725.413	28074.67
725.755	27992.19
726.097	27992.41
726.439	27869.03
726.782	27747
727.124	27911.06
727.465	27777.28
727.807	27759.65
728.149	27609.6
728.491	27617.51
728.833	27707.45
729.175	27612.31
729.516	27572.09
729.858	27481.69
730.199	27572.09
730.541	27448.25
730.882	27353.33
731.224	27549.04
731.565	27277.86
731.906	27341.58
732.248	27348.59
732.589	27188.14
732.93	27152.21
733.271	27082.61
733.612	27190.4
733.953	27033.57
734.294	27044.19
734.635	26988.82
734.976	27099.1
735.317	26984.3
735.658	26837.42
735.999	26872.44
736.339	26843.97
736.68	26799.9
737.021	26807.36
737.361	26436.3
737.702	26723.97
738.042	26628.16
738.383	26643.97
738.723	26653.47
739.063	26428.39
739.404	26531.44
739.744	26443.53
740.084	26297.99
740.424	26433.81
740.764	26230.2
741.104	26276.07
741.444	26204.44
741.784	26212.35
742.124	26135.97
742.464	26179.81
742.804	26074.72
743.143	26140.48
743.483	26134.38
743.823	25874.5
744.162	25879.7
744.502	25977.78
744.841	25720.61
745.181	25786.6
745.52	25788.18
745.86	25850.1
746.199	25677.67
746.538	25610.33
746.877	25787.95
747.216	25700.95
747.556	25628.63
747.895	25592.7
748.234	25547.51
748.573	25520.16
748.911	25436.55
749.25	25469.09
749.589	25285.37
749.928	25318.13
750.267	25315.42
750.605	25309.77
750.944	25157.69
751.283	25149.78
751.621	25152.49
751.96	24966.96
752.298	24983.68
752.636	24959.5
752.975	24948.43
753.313	24728.32
753.651	24824.36
753.989	24737.81
754.327	24747.3
754.666	24564.71
755.004	24654.65
755.342	24671.15
755.679	24588.21
756.017	24365.16
756.355	24397.03
756.693	24290.36
757.031	24416.46
757.368	24219.18
757.706	24268.9
758.044	24056.47
758.381	24028.45
758.719	24085.17
759.056	24064.16
759.394	23929.02
759.731	23781
760.068	23835.46
760.405	23688.57
760.743	23686.31
761.08	23693.09
761.417	23478.86
761.754	23553.43
762.091	23461.01
762.428	23329.71
762.765	23301.92
763.102	23378.98
763.438	23159.09
763.775	23124.75
764.112	23153.9
764.449	23032.54
764.785	22971.53
765.122	22858.09
765.458	22832.78
765.795	22778.31
766.131	22682.72
766.467	22655.83
766.804	22538.32
767.14	22355.27
767.476	22406.8
767.812	22272.11
768.148	22288.16
768.485	22148.27
768.821	22108.95
769.157	22058.78
769.492	22037.77
769.828	21881.16
770.164	21787.38
770.5	21713.71
770.836	21739.92
771.171	21570.66
771.507	21517.78
771.842	21356.88
772.178	21365.02
772.513	21277.56
772.849	21224.46
773.184	21222.87
773.519	21155.31
773.855	21060.62
774.19	20857.91
774.525	20814.75
774.86	20833.51
775.195	20800.51
775.53	20677.8
775.865	20530.24
776.2	20434.42
776.535	20223.58
776.87	20308.1
777.205	20226.52
777.539	20119.17
777.874	20123.47
778.209	20047.76
778.543	20012.96
778.878	19755.34
779.212	19769.35
779.547	19562.58
779.881	19688
780.215	19615.91
780.55	19599.87
780.884	19512.18
781.218	19472.41
781.552	19456.59
781.886	19255.92
782.22	19176.83
782.554	19205.53
782.888	18924.4
783.222	18980.9
783.556	18832.65
783.889	18866.55
784.223	18705.43
784.557	18652.32
784.89	18576.84
785.224	18509.27
785.557	18488.03
785.891	18374.36
786.224	18368.71
786.558	18403.74
786.891	18221.37
787.224	18161.94
787.557	18106.12
787.891	18069.51
788.224	18103.63
788.557	17997.65
788.89	18021.38
789.223	17955.39
789.556	17786.81
789.888	17763.08
790.221	17716.53
790.554	17538.45
790.887	17524.21
791.219	17408.51
791.552	17416.42
791.884	17383.65
792.217	17229.53
792.549	17277.89
792.882	17069.76
793.214	17026.6
793.546	17030.67
793.879	16950.9
794.211	16839.26
794.543	16974.4
794.875	16837.9
795.207	16845.36
795.539	16664.12
795.871	16648.31
796.203	16616.89
796.535	16498.25
796.867	16429.78
797.198	16332.16
797.53	16431.14
797.862	16270.24
798.193	16339.39
798.525	16253.97
798.856	16279.5
799.188	16055.33
799.519	16018.27
799.85	15950.24
800.182	15901.88
800.513	15974.42
800.844	15802.68
801.175	15879.96
801.506	15848.55
801.837	15696.24
802.168	15739.85
802.499	15627.09
802.83	15623.47
803.161	15453.08
803.491	15459.41
803.822	15494.44
804.153	15501.89
804.483	15318.62
804.814	15152.98
805.145	15243.6
805.475	15269.81
805.805	15114.33
806.136	15167.89
806.466	15097.39
806.796	15080.66
807.126	14974.9
807.457	15038.18
807.787	14902.81
808.117	14856.94
808.447	14894
808.777	14832.53
809.107	14778.75
809.436	14727.45
809.766	14765.42
810.096	14642.48
810.426	14606.1
810.755	14628.47
811.085	14602.94
811.414	14501.92
811.744	14387.8
812.073	14301.02
812.403	14334.02
812.732	14168.82
813.061	14226.9
813.39	14247.24
813.719	14161.36
814.049	14208.82
814.378	14058.99
814.707	14094.25
815.036	14076.4
815.365	14002.5
815.693	13864.2
816.022	13896.97
816.351	13862.84
816.68	13741.94
817.008	13861.26
817.337	13743.75
817.665	13676.41
817.994	13698.33
818.322	13749.17
818.651	13614.03
818.979	13578.33
819.307	13597.54
819.636	13612.23
819.964	13406.13
820.292	13530.65
820.62	13524.77
820.948	13554.38
821.276	13520.25
821.604	13459.91
821.932	13442.74
822.259	13460.14
822.587	13395.96
822.915	13456.52
823.243	13385.11
823.57	13356.64
823.898	13393.02
824.225	13402.74
824.553	13385.79
824.88	13364.78
825.207	13407.94
825.535	13293.37
825.862	13411.33
826.189	13321.16
826.516	13454.04
826.843	13385.57
827.17	13475.51
827.497	13387.83
827.824	13489.74
828.151	13417.2
828.478	13328.62
828.805	13462.17
829.131	13395.96
829.458	13332.69
829.785	13219.02
830.111	13289.52
830.438	13319.58
830.764	13271.67
831.09	13360.03
831.417	13233.25
831.743	13272.35
832.069	13315.29
832.395	13251.11
832.722	13236.19
833.048	13131.11
833.374	13268.51
833.7	13245.23
834.026	13249.52
834.351	13166.14
834.677	13209.07
835.003	13223.08
835.329	13160.49
835.654	13184.89
835.98	13054.73
836.306	13123.43
836.631	13075.52
836.956	13139.7
837.282	13044.56
837.607	13001.4
837.932	13001.62
838.258	12982.86
838.583	12946.26
838.908	12934.73
839.233	12933.6
839.558	12847.5
839.883	12888.86
840.208	12828.52
840.533	12894.51
840.858	12827.39
841.182	12816.99
841.507	12851.57
841.832	12695.41
842.156	12705.13
842.481	12695.19
842.805	12670.33
843.13	12630.11
843.454	12553.5
843.778	12562.08
844.103	12517.34
844.427	12481.41
844.751	12480.73
845.075	12478.25
845.399	12419.04
845.723	12317.57
846.047	12397.12
846.371	12251.13
846.695	12193.51
847.019	12146.05
847.343	12126.16
847.666	11997.58
847.99	11984.47
848.313	11944.02
848.637	11940.63
848.96	11943.34
849.284	11859.5
849.607	11749.9
849.931	11706.29
850.254	11624.26
850.577	11592.39
850.9	11540.42
851.223	11486.63
851.546	11441.89
851.869	11461.1
852.192	11432.4
852.515	11327.77
852.838	11312.85
853.161	11269.69
853.483	11233.53
853.806	11212.74
854.129	11172.52
854.451	11150.37
854.774	11137.26
855.096	11123.7
855.419	10967.55
855.741	11029.92
856.063	10941.79
856.385	10980.66
856.708	10826.54
857.03	10833.54
857.352	10808.23
857.674	10745.41
857.996	10805.29
858.318	10777.05
858.64	10723.49
858.961	10686.65
859.283	10619.99
859.605	10600.33
859.926	10585.19
860.248	10549.48
860.57	10466.09
860.891	10478.3
861.212	10439.65
861.534	10451.41
861.855	10424.29
862.176	10395.81
862.498	10420.45
862.819	10330.51
863.14	10319.66
863.461	10341.58
863.782	10218.19
864.103	10273.11
864.424	10198.08
864.745	10276.27
865.065	10184.52
865.386	10130.96
865.707	10184.52
866.027	10184.97
866.348	10182.26
866.668	10189.94
866.989	10097.29
867.309	10062.72
867.63	10088.03
867.95	10031.76
868.27	9904.53
868.59	9960.8
868.91	9991.08
869.23	9958.31
869.55	9934.13
869.87	9985.2
870.19	9945.43
870.51	9943.62
870.83	9909.73
871.15	9854.81
871.469	9808.94
871.789	9885.32
872.109	9859.33
872.428	9852.78
872.748	9840.35
873.067	9842.61
873.386	9810.29
873.706	9813.68
874.025	9732.33
874.344	9685.55
874.663	9707.24
874.982	9684.87
875.301	9686.23
875.62	9624.99
875.939	9590.86
876.258	9617.98
876.577	9517.65
876.896	9579.56
877.214	9518.78
877.533	9571.43
877.852	9590.41
878.17	9510.19
878.489	9511.32
878.807	9491.88
879.125	9573.24
879.444	9523.52
879.762	9451.43
880.08	9434.48
880.398	9372.11
880.716	9402.39
881.034	9279.01
881.352	9395.61
881.67	9326.24
881.988	9344.09
882.306	9317.2
882.624	9235.17
882.941	9254.6
883.259	9134.38
883.577	9191.1
883.894	9168.73
884.212	9197.43
884.529	9153.81
884.846	9161.5
885.164	9112.23
885.481	9108.62
885.798	9070.2
886.115	8992.24
886.432	8990.2
886.75	8992.69
887.067	9001.05
887.383	8896.64
887.7	8994.5
888.017	8894.84
888.334	8883.54
888.651	8896.87
888.967	8847.83
889.284	8793.82
889.6	8771.68
889.917	8687.84
890.233	8685.8
890.55	8726.03
890.866	8710.43
891.182	8650.1
891.498	8621.17
891.815	8632.24
892.131	8625.69
892.447	8556.31
892.763	8514.28
893.079	8491.46
893.395	8492.14
893.71	8446.71
894.026	8509.99
894.342	8414.4
894.657	8366.04
894.973	8359.71
895.289	8403.55
895.604	8373.27
895.92	8267.51
896.235	8250.56
896.55	8248.53
896.865	8260.28
897.181	8159.49
897.496	8154.07
897.811	8162.65
898.126	8049.66
898.441	8103.9
898.756	8026.16
899.071	8014.86
899.386	8016.89
899.7	7966.95
900.015	7928.08
900.33	7912.72
900.644	7948.19
900.959	7872.04
901.273	7843.11
901.588	7739.84
901.902	7795.43
902.216	7730.57
902.531	7721.08
902.845	7653.29
903.159	7643.57
903.473	7568.32
903.787	7508.21
904.101	7536.91
904.415	7599.5
904.729	7538.04
905.042	7440.41
905.356	7470.24
905.67	7434.99
905.984	7449
906.297	7357.48
906.611	7332.39
906.924	7304.37
907.237	7251.26
907.551	7314.99
907.864	7192.73
908.177	7233.86
908.491	7174.2
908.804	7066.86
909.117	7129.91
909.43	7067.77
909.743	7070.93
910.056	7036.13
910.368	6969.46
910.681	6962.23
910.994	6976.24
911.307	6893.53
911.619	6887.66
911.932	6925.85
912.244	6766.08
912.557	6826.64
912.869	6788.23
913.181	6755.01
913.494	6735.35
913.806	6697.38
914.118	6621
914.43	6677.27
914.742	6604.73
915.054	6574.22
915.366	6575.58
915.678	6533.09
915.99	6501.23
916.302	6470.27
916.613	6458.74
916.925	6406.54
917.236	6458.97
917.548	6385.75
917.859	6404.28
918.171	6329.93
918.482	6337.16
918.794	6264.17
919.105	6286.09
919.416	6238.18
919.727	6201.8
920.038	6191.86
920.349	6146.89
920.66	6112.54
920.971	6111.41
921.282	6087.9
921.593	6030.73
921.903	6032.31
922.214	5973.78
922.525	5986.66
922.835	5905.76
923.146	5844.52
923.456	5894.92
923.767	5877.29
924.077	5866.22
924.387	5830.28
924.697	5739.21
925.008	5749.83
925.318	5711.42
925.628	5728.82
925.938	5629.39
926.248	5659.22
926.558	5658.31
926.867	5564.08
927.177	5535.83
927.487	5543.29
927.796	5517.3
928.106	5528.37
928.416	5480.24
928.725	5466.68
929.034	5445.21
929.344	5454.25
929.653	5387.13
929.962	5427.36
930.271	5322.5
930.581	5319.79
930.89	5346
931.199	5334.25
931.508	5337.19
931.817	5237.31
932.125	5273.24
932.434	5218.55
932.743	5152.79
933.051	5132.45
933.36	5154.37
933.669	5102.17
933.977	5079.34
934.286	5078.21
934.594	5074.6
934.902	5039.8
935.21	5014.49
935.519	5033.24
935.827	4963.64
936.135	4929.07
936.443	4923.42
936.751	4872.12
937.059	4890.2
937.367	4849.29
937.674	4864.66
937.982	4812.68
938.29	4813.81
938.597	4784.44
938.905	4770.2
939.213	4732.91
939.52	4746.25
939.827	4716.64
940.135	4726.81
940.442	4637.32
940.749	4658.79
941.056	4644.78
941.363	4560.04
941.67	4584.67
941.977	4566.36
942.284	4557.1
942.591	4553.48
942.898	4496.76
943.205	4504.9
943.511	4483.88
943.818	4446.14
944.125	4412.24
944.431	4417.44
944.738	4416.99
945.044	4357.33
945.35	4369.08
945.657	4310.55
945.963	4316.88
946.269	4308.52
946.575	4315.3
946.881	4267.84
947.187	4309.19
947.493	4170.89
947.799	4207.73
948.105	4202.98
948.41	4156.43
948.716	4196.88
949.022	4153.49
949.327	4127.96
949.633	4111.69
949.938	4090.22
950.244	4076.43
950.549	4014.51
950.854	4028.98
951.16	4038.02
951.465	4005.7
951.77	3967.28
952.075	3950.33
952.38	3958.7
952.685	3960.96
952.99	3878.02
953.294	3904.91
953.599	3903.1
953.904	3891.8
954.209	3821.75
954.513	3838.7
954.818	3814.29
955.122	3810.22
955.426	3784.91
955.731	3819.94
956.035	3770.45
956.339	3742.66
956.643	3711.24
956.948	3709.89
957.252	3722.54
957.556	3668.99
957.86	3649.78
958.163	3660.85
958.467	3668.53
958.771	3633.96
959.075	3589.21
959.378	3571.13
959.682	3533.17
959.985	3550.34
960.289	3522.77
960.592	3448.43
960.896	3523.68
961.199	3467.86
961.502	3494.07
961.805	3516.22
962.108	3393.51
962.411	3372.5
962.714	3431.03
963.017	3397.81
963.32	3398.26
963.623	3403.46
963.926	3366.17
964.228	3317.36
964.531	3317.13
964.833	3331.37
965.136	3305.83
965.438	3285.49
965.741	3287.07
966.043	3273.97
966.345	3235.32
966.648	3219.05
966.95	3215.89
967.252	3195.33
967.554	3187.42
967.856	3178.6
968.158	3168.89
968.46	3138.83
968.761	3143.35
969.063	3160.75
969.365	3109.9
969.666	3103.12
969.968	3080.75
970.269	3036.46
970.571	3035.56
970.872	3022.9
971.174	3022
971.475	3031.94
971.776	2984.71
972.077	2991.72
972.378	2989.46
972.679	2967.53
972.98	2923.02
973.281	2923.24
973.582	2916.01
973.883	2930.93
974.183	2881.89
974.484	2892.06
974.785	2887.54
975.085	2850.02
975.386	2841.66
975.686	2845.73
975.986	2803.25
976.287	2771.16
976.587	2778.39
976.887	2788.1
977.187	2794.88
977.487	2770.7
977.787	2739.97
978.087	2749.46
978.387	2709.46
978.687	2706.52
978.987	2687.99
979.286	2649.13
979.586	2657.26
979.885	2673.31
980.185	2655
980.484	2668.79
980.784	2638.96
981.083	2598.51
981.382	2571.39
981.682	2590.6
981.981	2598.73
982.28	2599.18
982.579	2536.81
982.878	2557.83
983.177	2565.96
983.475	2550.37
983.774	2542.69
984.073	2510.37
984.372	2507.43
984.67	2499.75
984.969	2482.58
985.267	2449.36
985.566	2482.8
985.864	2444.61
986.162	2456.59
986.461	2427.44
986.759	2446.19
987.057	2412.07
987.355	2401.9
987.653	2376.14
987.951	2349.25
988.249	2382.92
988.547	2387.66
988.844	2309.93
989.142	2344.05
989.44	2275.12
989.737	2308.57
990.035	2294.33
990.332	2290.94
990.63	2278.97
990.927	2314.22
991.224	2245.07
991.521	2269.25
991.819	2231.74
992.116	2223.15
992.413	2199.42
992.71	2194.45
993.006	2188.35
993.303	2194.67
993.6	2198.29
993.897	2166.2
994.193	2193.54
994.49	2136.6
994.787	2169.14
995.083	2139.08
995.379	2098.18
995.676	2095.47
995.972	2091.4
996.268	2078.74
996.565	2052.98
996.861	2046.2
997.157	2027.9
997.453	2047.56
997.749	2028.8
998.044	2019.31
998.34	2006.66
998.636	1993.55
998.932	1984.96
999.227	1979.99
999.523	1977.96
999.818	1959.2
1000.114	1928.47
1000.409	1902.03
1000.704	1926.66
1001	1916.72
1001.295	1894.12
1001.59	1938.86
1001.885	1874.91
1002.18	1911.07
1002.475	1868.35
1002.77	1825.19
1003.065	1836.94
1003.359	1821.12
1003.654	1844.85
1003.949	1817.06
1004.243	1807.34
1004.538	1788.58
1004.832	1808.7
1005.127	1768.7
1005.421	1768.24
1005.715	1774.57
1006.009	1763.5
1006.304	1736.61
1006.598	1734.35
1006.892	1759.21
1007.186	1731.18
1007.48	1717.17
1007.773	1691.18
1008.067	1670.17
1008.361	1691.64
1008.655	1695.25
1008.948	1679.66
1009.242	1650.28
1009.535	1665.2
1009.829	1636.95
1010.122	1609.83
1010.415	1632.65
1010.708	1622.49
1011.001	1592.66
1011.295	1572.32
1011.588	1569.61
1011.881	1565.76
1012.173	1575.48
1012.466	1550.62
1012.759	1565.31
1013.052	1538.65
1013.344	1532.54
1013.637	1518.31
1013.93	1501.58
1014.222	1516.73
1014.514	1489.83
1014.807	1492.32
1015.099	1483.05
1015.391	1447.35
1015.683	1452.09
1015.976	1459.78
1016.268	1449.38
1016.56	1423.17
1016.851	1438.76
1017.143	1442.83
1017.435	1405.32
1017.727	1387.92
1018.018	1389.05
1018.31	1390.18
1018.602	1390.4
1018.893	1366.9
1019.185	1358.76
1019.476	1358.09
1019.767	1318.99
1020.058	1335.26
1020.35	1332.1
1020.641	1313.57
1020.932	1325.77
1021.223	1300.23
1021.514	1307.01
1021.804	1295.49
1022.095	1266.11
1022.386	1286.22
1022.677	1264.98
1022.967	1254.36
1023.258	1252.33
1023.548	1214.81
1023.839	1220.69
1024.129	1226.56
1024.419	1218.2
1024.709	1236.51
1025	1214.36
1025.29	1178.88
1025.58	1198.99
1025.87	1194.93
1026.16	1175.27
1026.449	1185.66
1026.739	1161.03
1027.029	1160.8
1027.319	1184.76
1027.608	1144.31
1027.898	1135.72
1028.187	1107.92
1028.477	1108.15
1028.766	1121.48
1029.055	1103.63
1029.344	1105.66
1029.634	1088.94
1029.923	1087.13
1030.212	1064.31
1030.501	1070.41
1030.79	1057.53
1031.078	1074.03
1031.367	1063.18
1031.656	1034.7
1031.945	1018.89
1032.233	1028.38
1032.522	1036.51
1032.81	1010.98
1033.099	997.19
1033.387	981.82
1033.675	988.15
1033.963	971.88
1034.251	999.68
1034.54	960.58
1034.828	949.73
1035.116	966.68
1035.403	953.12
1035.691	936.4
1035.979	933.46
1036.267	926.46
1036.554	920.13
1036.842	914.93
1037.129	922.84
1037.417	926.91
1037.704	914.93
1037.992	891.66
1038.279	904.99
1038.566	904.99
1038.853	904.99
1039.14	904.99
