Data from hue_24_FLMS001491_00079.txt Node
Date: Tue Feb 07 17:12:45 GMT 2017
User: dcchb
Spectrometer: FLMS00149
Trigger mode: 0
Integration Time (sec): 2.000000E-2
Scans to average: 10
Electric dark correction enabled: true
Nonlinearity correction enabled: false
Boxcar width: 0
XAxis mode: Wavelengths
Number of Pixels in Spectrum: 2048
>>>>>Begin Spectral Data<<<<<
341.393	-20.48
341.776	-20.48
342.16	-20.48
342.543	-58.67
342.927	-71.1
343.31	-54.83
343.693	-57.99
344.077	-68.16
344.46	-65.68
344.843	-59.8
345.226	-36.52
345.61	-38.11
345.993	-22.06
346.376	-6.24
346.759	0.99
347.142	22.68
347.525	55.45
347.908	45.28
348.291	72.85
348.674	95.9
349.057	116.24
349.44	118.27
349.823	137.03
350.206	162.57
350.588	182.45
350.971	206.86
351.354	219.97
351.737	225.62
352.119	258.38
352.502	266.07
352.884	251.83
353.267	280.3
353.65	288.89
354.032	309.23
354.414	312.17
354.797	305.61
355.179	310.36
355.562	347.65
355.944	333.41
356.326	333.18
356.709	351.71
357.091	325.73
357.473	348.1
357.855	346.52
358.238	334.09
358.62	332.96
359.002	327.76
359.384	334.31
359.766	345.39
360.148	342.9
360.53	321.43
360.912	339.06
361.294	320.08
361.676	330.25
362.057	331.6
362.439	317.36
362.821	327.08
363.203	344.93
363.584	328.89
363.966	340.64
364.348	330.7
364.729	318.04
365.111	298.83
365.493	316.01
365.874	308.78
366.256	342.9
366.637	338.38
367.019	313.07
367.4	306.74
367.781	324.82
368.163	317.59
368.544	308.1
368.925	311.26
369.306	320.98
369.688	291.83
370.069	327.53
370.45	309.91
370.831	311.04
371.212	316.01
371.593	311.26
371.974	326.63
372.355	313.3
372.736	335.67
373.117	308.33
373.498	321.21
373.879	319.85
374.26	323.92
374.641	316.69
375.021	289.12
375.402	335.22
375.783	303.35
376.163	334.09
376.544	332.28
376.925	325.95
377.305	330.92
377.686	322.56
378.066	322.34
378.447	332.28
378.827	337.48
379.208	334.77
379.588	336.57
379.968	327.76
380.349	327.53
380.729	356.69
381.109	323.24
381.489	311.71
381.87	339.74
382.25	347.65
382.63	342.45
383.01	337.7
383.39	330.47
383.77	350.81
384.15	339.28
384.53	345.61
384.91	345.16
385.29	365.72
385.67	354.43
386.049	354.2
386.429	364.37
386.809	345.84
387.189	357.59
387.568	348.32
387.948	349.23
388.328	354.65
388.707	356.69
389.087	365.05
389.466	343.13
389.846	356.23
390.225	345.61
390.605	366.18
390.984	364.37
391.363	359.62
391.743	356.69
392.122	370.47
392.501	378.61
392.881	361.88
393.26	379.96
393.639	377.25
394.018	383.13
394.397	384.26
394.776	388.32
395.155	386.52
395.534	388.1
395.913	403.46
396.292	378.15
396.671	400.3
397.05	410.7
397.429	396.01
397.808	387.19
398.186	377.02
398.565	400.98
398.944	394.2
399.323	384.71
399.701	419.51
400.08	370.24
400.458	407.98
400.837	389.68
401.215	393.97
401.594	417.7
401.972	428.55
402.351	405.05
402.729	421.99
403.107	411.6
403.486	435.1
403.864	400.3
404.242	404.37
404.62	412.96
404.999	434.42
405.377	400.53
405.755	415.67
406.133	413.18
406.511	415.67
406.889	424.93
407.267	432.84
407.645	439.4
408.023	431.26
408.401	450.69
408.779	453.18
409.156	463.8
409.534	436.01
409.912	461.32
410.29	446.17
410.667	465.84
411.045	470.81
411.422	473.07
411.8	476.68
412.178	477.36
412.555	493.18
412.933	490.02
413.31	484.82
413.687	475.33
414.065	494.54
414.442	501.31
414.819	482.11
415.197	503.35
415.574	478.04
415.951	489.79
416.328	509.9
416.705	494.31
417.082	497.92
417.46	503.57
417.837	515.1
418.214	508.55
418.591	509.9
418.967	528.88
419.344	506.29
419.721	512.39
420.098	520.3
420.475	516.91
420.852	521.88
421.228	528.21
421.605	539.51
421.982	519.62
422.358	554.19
422.735	544.93
423.111	546.06
423.488	542.22
423.864	567.98
424.241	567.75
424.617	546.74
424.994	565.49
425.37	581.31
425.746	578.6
426.123	597.58
426.499	556.23
426.875	572.27
427.251	587.87
427.627	599.84
428.003	612.72
428.379	597.58
428.756	601.42
429.132	597.58
429.507	614.98
429.883	611.14
430.259	663.57
430.635	616.34
431.011	641.88
431.387	635.77
431.763	641.2
432.138	640.07
432.514	672.16
432.89	645.04
433.265	654.3
433.641	682.1
434.016	696.34
434.392	681.65
434.767	662.44
435.143	694.76
435.518	711.25
435.894	711.25
436.269	693.17
436.644	698.6
437.02	715.32
437.395	723
437.77	733.4
438.145	748.77
438.52	741.76
438.895	731.82
439.271	734.98
439.646	775.88
440.021	746.73
440.395	734.08
440.77	748.31
441.145	792.15
441.52	784.02
441.895	753.06
442.27	787.18
442.645	772.27
443.019	788.54
443.394	816.11
443.769	804.81
444.143	798.71
444.518	795.32
444.892	810.91
445.267	814.53
445.641	814.07
446.016	822.21
446.39	841.19
446.764	833.74
447.139	805.71
447.513	854.07
447.887	850.91
448.262	857.46
448.636	864.69
449.01	857.46
449.384	870.34
449.758	877.12
450.132	870.8
450.506	895.88
450.88	897.69
451.254	879.38
451.628	909.44
452.002	911.25
452.376	907.41
452.75	943.79
453.123	924.13
453.497	937.01
453.871	925.03
454.244	914.86
454.618	979.49
454.992	967.06
455.365	972.49
455.739	973.84
456.112	984.01
456.486	1002.77
456.859	1019.04
457.232	1011.36
457.606	1014.52
457.979	1042.09
458.352	1043
458.725	1054.29
459.099	1085.93
459.472	1089.32
459.845	1077.12
460.218	1102.43
460.591	1111.02
460.964	1112.37
461.337	1151.92
461.71	1148.3
462.083	1165.93
462.456	1168.19
462.829	1152.6
463.201	1192.37
463.574	1193.05
463.947	1217
464.32	1223.33
464.692	1238.92
465.065	1271.01
465.438	1259.94
465.81	1292.25
466.183	1286.83
466.555	1305.36
466.928	1346.49
467.3	1338.35
467.672	1351.69
468.045	1354.85
468.417	1402.76
468.789	1384
469.161	1400.73
469.534	1434.85
469.906	1487.28
470.278	1499.93
470.65	1490.22
471.022	1536.99
471.394	1544.68
471.766	1579.25
472.138	1592.13
472.51	1589.42
472.882	1669.42
473.253	1656.76
473.625	1703.09
473.997	1748.29
474.369	1716.65
474.74	1765.24
475.112	1786.7
475.484	1831
475.855	1844.78
476.227	1852.47
476.598	1914.84
476.97	1936.98
477.341	1969.07
477.713	2014.04
478.084	2040.03
478.455	2098.79
478.827	2118.67
479.198	2152.34
479.569	2195.28
479.94	2235.51
480.311	2254.49
480.682	2325.9
481.053	2360.93
481.424	2407.25
481.795	2439.57
482.166	2483.86
482.537	2548.94
482.908	2554.37
483.279	2640.47
483.65	2661.26
484.021	2695.16
484.391	2786.23
484.762	2782.16
485.133	2803.63
485.503	2892.21
485.874	2964.75
486.244	2997.07
486.615	3051.3
486.985	3069.61
487.356	3149.15
487.726	3198.42
488.097	3222.82
488.467	3256.5
488.837	3331.07
489.207	3382.82
489.578	3416.04
489.948	3472.31
490.318	3552.53
490.688	3558.64
491.058	3611.74
491.428	3665.75
491.798	3719.08
492.168	3756.6
492.538	3812.64
492.908	3820.78
493.278	3904.16
493.648	3909.81
494.017	3952.98
494.387	4040.2
494.757	4049.24
495.126	4137.38
495.496	4100.54
495.866	4153.87
496.235	4214.66
496.605	4292.18
496.974	4305.73
497.344	4354.32
497.713	4347.99
498.082	4406.52
498.452	4469.35
498.821	4449.46
499.19	4500.08
499.559	4551.15
499.928	4564.03
500.298	4575.11
500.667	4688.78
501.036	4617.36
501.405	4731.49
501.774	4672.05
502.143	4798.38
502.512	4757.93
502.88	4811.48
503.249	4809.9
503.618	4845.38
503.987	4867.53
504.356	4938.26
504.724	4917.02
505.093	4936
505.462	4978.94
505.83	5010.8
506.199	5046.73
506.567	5114.75
506.936	5157.69
507.304	5146.16
507.672	5157.46
508.041	5210.57
508.409	5221.64
508.777	5260.74
509.145	5289.89
509.514	5273.62
509.882	5317.91
510.25	5339.83
510.618	5338.93
510.986	5383.22
511.354	5437.46
511.722	5458.25
512.09	5512.26
512.458	5485.59
512.826	5585.7
513.193	5524.69
513.561	5584.57
513.929	5620.95
514.297	5684
514.664	5724
515.032	5726.94
515.4	5729.65
515.767	5771.01
516.135	5800.16
516.502	5739.59
516.869	5875.41
517.237	5836.54
517.604	5879.25
517.972	5938.23
518.339	5937.33
518.706	5879.93
519.073	5934.17
519.44	5976.42
519.808	5957.44
520.175	6049.42
520.542	6122.18
520.909	6116.99
521.276	6096.87
521.643	6182.52
522.009	6196.53
522.376	6195.85
522.743	6248.73
523.11	6338.22
523.477	6412.57
523.843	6444.21
524.21	6475.85
524.577	6428.39
524.943	6528.27
525.31	6552.45
525.676	6582.06
526.043	6630.42
526.409	6638.55
526.776	6686.69
527.142	6643.98
527.508	6770.75
527.874	6777.53
528.241	6828.38
528.607	6789.74
528.973	6902.05
529.339	6933.69
529.705	6956.51
530.071	7007.81
530.437	7026.34
530.803	7069.96
531.169	7115.6
531.535	7088.94
531.901	7088.94
532.267	7202.83
532.632	7209.39
532.998	7226.56
533.364	7264.3
533.73	7295.26
534.095	7346.78
534.461	7346.11
534.826	7428.82
535.192	7429.95
535.557	7478.08
535.923	7448.48
536.288	7570.51
536.653	7559.21
537.019	7532.77
537.384	7569.15
537.749	7641.92
538.114	7578.64
538.479	7652.76
538.845	7695.25
539.21	7669.71
539.575	7781.8
539.94	7791.97
540.305	7847.56
540.67	7769.15
541.034	7921.01
541.399	7962.81
541.764	7978.18
542.129	7992.19
542.494	8047.78
542.858	8038.97
543.223	8045.97
543.587	8116.93
543.952	8087.33
544.316	8163.94
544.681	8161
545.045	8199.42
545.41	8298.62
545.774	8347.89
546.138	8316.93
546.503	8337.94
546.867	8340.66
547.231	8437.6
547.595	8401.45
547.959	8422.91
548.324	8468.34
548.688	8538.17
549.052	8539.3
549.416	8553.98
549.779	8551.5
550.143	8589.92
550.507	8718.5
550.871	8739.06
551.235	8688.22
551.599	8723.47
551.962	8779.06
552.326	8760.08
552.689	8873.3
553.053	8845.5
553.417	8881.21
553.78	8970.92
554.143	8971.15
554.507	8986.52
554.87	9061.54
555.234	9143.35
555.597	9076.23
555.96	9059.28
556.323	9140.64
556.686	9149
557.05	9211.82
557.413	9225.83
557.776	9218.6
558.139	9242.78
558.502	9303.79
558.865	9345.83
559.228	9372.72
559.59	9360.29
559.953	9379.5
560.316	9520.29
560.679	9448.2
561.041	9497.69
561.404	9657.23
561.767	9713.73
562.129	9632.83
562.492	9669.89
562.854	9733.39
563.217	9750.34
563.579	9783.56
563.941	9801.41
564.304	9887.28
564.666	9910.78
565.028	9912.82
565.39	9967.51
565.753	10012.93
566.115	10053.83
566.477	10126.6
566.839	10046.15
567.201	10207.05
567.563	10239.82
567.925	10281.62
568.287	10294.73
568.648	10250.89
569.01	10366.14
569.372	10434.16
569.734	10419.92
570.095	10412.92
570.457	10476.19
570.819	10550.54
571.18	10523.65
571.542	10635.96
571.903	10639.13
572.265	10695.85
572.626	10776.07
572.987	10809.07
573.349	10846.58
573.71	10876.63
574.071	10959.8
574.432	11017.65
574.794	11060.81
575.155	11048.83
575.516	11144.42
575.877	11248.15
576.238	11286.57
576.599	11406.56
576.96	11414.02
577.32	11479.78
577.681	11593.45
578.042	11726.1
578.403	11803.62
578.763	11809.49
579.124	11895.82
579.485	12111.63
579.845	12174.68
580.206	12282.7
580.566	12411.96
580.927	12522.24
581.287	12644.05
581.648	12813.53
582.008	12891.27
582.368	13003.81
582.728	13196.35
583.089	13218.27
583.449	13418.71
583.809	13589.56
584.169	13873.62
584.529	13946.38
584.889	14236.09
585.249	14235.87
585.609	14395.86
585.969	14761.05
586.329	14828.4
586.688	15124.66
587.048	15294.37
587.408	15487.36
587.768	15632.22
588.127	15979.33
588.487	16157.63
588.846	16540.67
589.206	16607.33
589.565	16965.74
589.925	17270.82
590.284	17468.55
590.643	17621.77
591.003	18034.64
591.362	18321.86
591.721	18575.87
592.08	18800.49
592.44	19099.92
592.799	19421.27
593.158	19580.36
593.517	19943.74
593.876	20289.95
594.235	20556.38
594.593	20792.53
594.952	21158.85
595.311	21479.75
595.67	21682.68
596.029	22172.38
596.387	22388.2
596.746	22799.03
597.104	23013.94
597.463	23316.53
597.822	23700.48
598.18	23832.45
598.538	24031.77
598.897	24558.08
599.255	24691.41
599.613	25254.11
599.972	25464.05
600.33	25872.62
600.688	26016.8
601.046	26399.62
601.404	26787.63
601.762	26930.9
602.12	27337.45
602.478	27598.91
602.836	27912.35
603.194	28033.25
603.552	28275.27
603.91	28480.01
604.268	29021.69
604.625	29157.74
604.983	29476.37
605.341	29619.19
605.698	29996.36
606.056	30275.45
606.413	30619.17
606.771	30916.11
607.128	31184.12
607.485	31282.65
607.843	31462.08
608.2	31925.8
608.557	32206.02
608.914	32453.47
609.272	32732.11
609.629	32902.04
609.986	33176.16
610.343	33407.12
610.7	33644.62
611.057	33915.8
611.414	34007.55
611.771	34161.45
612.127	34419.97
612.484	34747.42
612.841	34986.06
613.198	35048.65
613.554	35197.58
613.911	35643.44
614.267	35625.14
614.624	35823.78
614.98	36049.98
615.337	36365.68
615.693	36571.78
616.05	36621.04
616.406	36936.06
616.762	36971.99
617.118	37004.76
617.475	37331.98
617.831	37442.72
618.187	37624.63
618.543	37634.8
618.899	38135.35
619.255	38138.97
619.611	38152.98
619.967	38514.55
620.323	38777.37
620.678	38634.78
621.034	38685.62
621.39	38853.75
621.746	38916.8
622.101	39342.1
622.457	39130.58
622.812	39304.59
623.168	39422.1
623.523	39577.8
623.879	39799.04
624.234	39628.87
624.589	39890.34
624.945	39998.13
625.3	40078.13
625.655	40129.43
626.01	40311.57
626.365	40441.51
626.72	40447.61
627.075	40488.96
627.43	40523.99
627.785	40570.32
628.14	40500.94
628.495	40759.69
628.85	40660.94
629.205	40606.93
629.559	40961.27
629.914	40766.7
630.269	40826.36
630.623	40800.82
630.978	40778.67
631.332	41021.15
631.687	41064.32
632.041	40968.27
632.396	41123.75
632.75	40987.26
633.104	41197.19
633.459	41025.9
633.813	41076.74
634.167	41160.58
634.521	41059.34
634.875	41329.39
635.229	41196.97
635.583	41011.21
635.937	41095.73
636.291	40985.9
636.645	41172.56
636.999	41091.66
637.352	41300.69
637.706	41120.81
638.06	41207.81
638.413	41226.12
638.767	41035.62
639.121	41189.96
639.474	40986.58
639.828	41063.19
640.181	41050.76
640.534	41116.52
640.888	40972.79
641.241	40872
641.594	40994.71
641.947	41186.35
642.301	40968.05
642.654	41080.59
643.007	41164.88
643.36	41064.54
643.713	40983.41
644.066	41152.45
644.419	40865.9
644.771	40641.28
645.124	40350.44
645.477	40310.21
645.83	40088.97
646.182	40077.22
646.535	39874.52
646.888	40047.17
647.24	39806.5
647.593	40009.43
647.945	39968.75
648.298	39777.34
648.65	39612.6
649.002	39574.86
649.355	39831.13
649.707	39724.92
650.059	39926.04
650.411	40375.52
650.763	40339.59
651.115	40939.8
651.467	40663.42
651.819	40748.62
652.171	40567.83
652.523	40495.29
652.875	40511.34
653.227	40327.39
653.578	40775.06
653.93	40524.44
654.282	40392.24
654.633	40345.46
654.985	40467.72
655.337	40435.86
655.688	40545.23
656.039	40621.16
656.391	40483.09
656.742	40448.96
657.094	40426.14
657.445	40530.32
657.796	40544.56
658.147	40403.32
658.498	40410.32
658.849	40553.14
659.2	40353.83
659.551	40294.62
659.902	40586.59
660.253	40332.58
660.604	40519.25
660.955	40338.91
661.306	40412.13
661.656	40425.69
662.007	40438.57
662.358	40345.01
662.708	40516.31
663.059	40288.06
663.409	40055.08
663.76	40390.21
664.11	40440.83
664.461	40366.93
664.811	40380.72
665.161	40245.58
665.511	40280.83
665.862	40304.79
666.212	40420.04
666.562	40324.9
666.912	40271.34
667.262	40171.68
667.612	40277.9
667.962	40227.28
668.312	40200.61
668.662	40366.03
669.011	40380.04
669.361	40218.69
669.711	40099.6
670.06	40129.43
670.41	40081.97
670.76	39978.69
671.109	40322.87
671.459	40114.28
671.808	40037
672.157	40140.95
672.507	39928.53
672.856	39929.43
673.205	40083.32
673.554	40220.5
673.904	39941.18
674.253	40167.39
674.602	40029.31
674.951	39385.49
675.3	39290.8
675.649	39960.39
675.998	39804.69
676.346	39794.74
676.695	39997.68
677.044	39708.87
677.393	39718.59
677.741	39828.87
678.09	39734.41
678.438	39681.53
678.787	39665.48
679.135	39647.63
679.484	39349.11
679.832	39772.82
680.181	39328.77
680.529	39566.95
680.877	39420.74
681.225	39411.93
681.573	39652.38
681.922	39355.89
682.27	39156.12
682.618	39249.9
682.966	39117.47
683.314	39200.64
683.661	38971.94
684.009	39000.19
684.357	38924.94
684.705	38872.28
685.053	38851.27
685.4	38893.3
685.748	38602.23
686.095	38632.29
686.443	38525.85
686.79	38553.65
687.138	38578.28
687.485	38609.01
687.832	38385.29
688.18	38387.32
688.527	38309.13
688.874	38277.95
689.221	38113.88
689.568	38014.23
689.915	37899.2
690.262	37929.26
690.609	37772.42
690.956	37743.5
691.303	37613.11
691.65	37544.63
691.997	37522.71
692.344	37281.14
692.69	37226.45
693.037	37268.26
693.383	36973.8
693.73	37118.88
694.077	36846.57
694.423	37033.46
694.769	36743.3
695.116	36781.04
695.462	36564.77
695.808	36664.21
696.155	36581.95
696.501	36314.38
696.847	36315.06
697.193	35954.17
697.539	36239.58
697.885	36089.76
698.231	35974.28
698.577	35972.7
698.923	35801.86
699.269	35594.63
699.614	35535.2
699.96	35398.7
700.306	35394.86
700.651	35284.58
700.997	35175.66
701.342	35180.18
701.688	35096.11
702.033	35003.46
702.379	34992.61
702.724	34818.15
703.069	34972.27
703.415	34522.57
703.76	34541.78
704.105	34625.61
704.45	34398.5
704.795	34288
705.14	34301.78
705.485	34236.25
705.83	34138.62
706.175	34173.88
706.52	33922.81
706.865	33960.77
707.209	33846.88
707.554	33782.7
707.899	33801.23
708.243	33624.74
708.588	33569.15
708.932	33361.47
709.277	33320.34
709.621	33392.2
709.966	33110.63
710.31	33227.69
710.654	32844.42
710.998	33084.41
711.342	33018.65
711.687	32909.95
712.031	32769.17
712.375	32612.79
712.719	32813.91
713.063	32717.87
713.407	32754.25
713.75	32468.84
714.094	32469.97
714.438	32384.54
714.782	32389.97
715.125	32251.44
715.469	32369.86
715.812	32218.22
716.156	32033.37
716.499	32027.27
716.843	32023.88
717.186	31893.26
717.53	32016.42
717.873	31906.59
718.216	31892.13
718.559	31628.63
718.902	31608.52
719.246	31675.64
719.589	31600.84
719.932	31414.85
720.275	31511.35
720.617	31424.57
720.96	31308.64
721.303	31181.41
721.646	31387.96
721.989	31303.22
722.331	31206.27
722.674	31115.88
723.016	31003.34
723.359	30947.52
723.701	31041.3
724.044	30712.95
724.386	30623.46
724.729	30832.72
725.071	30646.51
725.413	30699.62
725.755	30637.7
726.097	30559.28
726.439	30458.27
726.782	30439.96
727.124	30615.1
727.465	30441.09
727.807	30436.12
728.149	30307.08
728.491	30222.57
728.833	30284.03
729.175	30115
729.516	30133.98
729.858	30066.19
730.199	30084.27
730.541	29970.14
730.882	30004.95
731.224	30086.07
731.565	29935.34
731.906	29863.71
732.248	29839.07
732.589	29730.83
732.93	29514.56
733.271	29664.16
733.612	29644.05
733.953	29720.89
734.294	29445.41
734.635	29569.25
734.976	29400.44
735.317	29315.7
735.658	29440.44
735.999	29318.41
736.339	29245.19
736.68	29399.09
737.021	29108.02
737.361	29122.03
737.702	29282.03
738.042	29171.52
738.383	29030.51
738.723	29163.61
739.063	29065.08
739.404	29058.98
739.744	28946.44
740.084	28790.06
740.424	28858.31
740.764	28676.39
741.104	28912.32
741.444	28705.54
741.784	28610.86
742.124	28712.78
742.464	28681.36
742.804	28655.6
743.143	28425.55
743.483	28578.99
743.823	28354.59
744.162	28230.08
744.502	28447.92
744.841	28336.29
745.181	28461.26
745.52	28252.68
745.86	28386.01
746.199	28315.27
746.538	28264.88
746.877	28301.26
747.216	28226.91
747.556	28209.74
747.895	28133.58
748.234	28071.89
748.573	28011.33
748.911	27995.28
749.25	27922.97
749.589	27835.51
749.928	27830.99
750.267	28011.55
750.605	27767.72
750.944	27787.15
751.283	27633.71
751.621	27746.93
751.96	27548.29
752.298	27554.84
752.636	27645.69
752.975	27558.23
753.313	27384.22
753.651	27573.15
753.989	27315.52
754.327	27293.6
754.666	27106.49
755.004	27238.24
755.342	27189.88
755.679	27036.66
756.017	27033.95
756.355	27085.02
756.693	26932.03
757.031	27010.45
757.368	26806.84
757.706	26795.31
758.044	26682.32
758.381	26794.41
758.719	26677.35
759.056	26708.54
759.394	26598.03
759.731	26433.97
760.068	26473.06
760.405	26296.34
760.743	26227.42
761.08	26224.71
761.417	26158.49
761.754	26080.08
762.091	26066.97
762.428	25974.54
762.765	25766.86
763.102	25867.2
763.438	25706.53
763.775	25635.12
764.112	25689.13
764.449	25650.94
764.785	25513.31
765.122	25331.62
765.458	25288.46
765.795	25255.69
766.131	25259.99
766.467	25158.75
766.804	25010.27
767.14	25018.41
767.476	25024.96
767.812	24746.78
768.148	24881.69
768.485	24630.17
768.821	24573
769.157	24562.6
769.492	24460.46
769.828	24329.39
770.164	24123.74
770.5	24221.82
770.836	24135.04
771.171	23968.49
771.507	23952.9
771.842	23734.15
772.178	23741.16
772.513	23777.54
772.849	23615.73
773.184	23518.11
773.519	23474.95
773.855	23437.66
774.19	23362.18
774.525	23186.14
774.86	23238.8
775.195	23217.1
775.53	23141.85
775.865	22922.65
776.2	22805.59
776.535	22677.45
776.87	22718.81
777.205	22593.84
777.539	22509.32
777.874	22588.87
778.209	22299.16
778.543	22266.39
778.878	22149.56
779.212	22186.62
779.547	21929.45
779.881	22118.83
780.215	21910.02
780.55	21938.26
780.884	21776.91
781.218	21761.77
781.552	21575.56
781.886	21557.03
782.22	21384.83
782.554	21312.52
782.888	21268.23
783.222	21194.33
783.556	21027.55
783.889	20937.61
784.223	20848.8
784.557	20804.28
784.89	20910.72
785.224	20576.04
785.557	20553.22
785.891	20567.91
786.224	20469.15
786.558	20393.22
786.891	20324.3
787.224	20269.83
787.557	20164.53
787.891	20246.11
788.224	20170.18
788.557	20072.33
788.89	20017.41
789.223	19937.41
789.556	19851.77
789.888	19734.26
790.221	19689.51
790.554	19533.36
790.887	19550.08
791.219	19423.53
791.552	19343.08
791.884	19369.52
792.217	19312.8
792.549	19235.06
792.882	19085.91
793.214	19002.3
793.546	19061.96
793.879	18894.05
794.211	18824
794.543	18904.45
794.875	18777.44
795.207	18734.06
795.539	18691.8
795.871	18661.29
796.203	18498.13
796.535	18433.5
796.867	18410.45
797.198	18301.75
797.53	18370.9
797.862	18149.44
798.193	18224.01
798.525	18108.31
798.856	18142.43
799.188	17885.94
799.519	17812.05
799.85	17802.55
800.182	17776.57
800.513	17751.48
800.844	17664.25
801.175	17769.34
801.506	17690.24
801.837	17542.45
802.168	17561.2
802.499	17463.13
802.83	17405.5
803.161	17338.39
803.491	17358.27
803.822	17321.44
804.153	17245.73
804.483	17109.92
804.814	17029.92
805.145	17043.48
805.475	16985.85
805.805	16820.43
806.136	16889.36
806.466	16900.88
806.796	16839.19
807.126	16741.79
807.457	16717.39
807.787	16722.36
808.117	16573.66
808.447	16576.82
808.777	16641.68
809.107	16439.2
809.436	16468.58
809.766	16404.85
810.096	16303.84
810.426	16205.76
810.755	16250.5
811.085	16206.21
811.414	16202.6
811.744	16027.46
812.073	16056.16
812.403	16005.77
812.732	15982.72
813.061	16022.04
813.39	15869.95
813.719	15848.26
814.049	15862.04
814.378	15674.93
814.707	15757.86
815.036	15667.7
815.365	15595.61
815.693	15526.46
816.022	15515.83
816.351	15457.08
816.68	15408.72
817.008	15421.15
817.337	15279.01
817.665	15225.22
817.994	15334.14
818.322	15338.44
818.651	15187.48
818.979	15211.21
819.307	15254.37
819.636	15148.39
819.964	15036.98
820.292	15081.95
820.62	15149.74
820.948	15026.81
821.276	15095.73
821.604	14961.27
821.932	15013.48
822.259	15119.24
822.587	15056.19
822.915	14968.28
823.243	15008.05
823.57	14980.71
823.898	14970.76
824.225	14948.17
824.553	14893.25
824.88	14938.9
825.207	15015.96
825.535	14951.78
825.862	14932.35
826.189	14955.62
826.516	14944.32
826.843	14935.06
827.17	14974.83
827.497	15007.37
827.824	14875.17
828.151	14959.92
828.478	14915.17
828.805	15024.77
829.131	14930.09
829.458	14964.21
829.785	14830.43
830.111	14898.68
830.438	14901.84
830.764	14857.1
831.09	14875.85
831.417	14824.33
831.743	14883.54
832.069	14869.52
832.395	14812.8
832.722	14875.85
833.048	14831.56
833.374	14751.56
833.7	14815.29
834.026	14796.53
834.351	14769.19
834.677	14783.65
835.003	14776.42
835.329	14688.96
835.654	14725.57
835.98	14675.41
836.306	14730.09
836.631	14578.91
836.956	14674.5
837.282	14661.17
837.607	14552.47
837.932	14514.96
838.258	14499.36
838.583	14503.43
838.908	14399.93
839.233	14413.27
839.558	14330.33
839.883	14408.29
840.208	14290.33
840.533	14334.85
840.858	14312.93
841.182	14281.07
841.507	14213.95
841.832	14206.72
842.156	14186.6
842.481	14188.86
842.805	14143.22
843.13	14047.4
843.454	14083.33
843.778	14048.75
844.103	14003.78
844.427	13980.51
844.751	13996.33
845.075	13909.32
845.399	13915.65
845.723	13798.37
846.047	13842.66
846.371	13752.72
846.695	13769.67
847.019	13663.23
847.343	13535.1
847.666	13476.34
847.99	13441.09
848.313	13427.3
848.637	13378.49
848.96	13316.34
849.284	13287.42
849.607	13190.92
849.931	13108.21
850.254	13072.74
850.577	12955
850.9	12900.99
851.223	12885.4
851.546	12739.41
851.869	12806.98
852.192	12769.47
852.515	12696.02
852.838	12631.17
853.161	12585.29
853.483	12606.08
853.806	12466.42
854.129	12493.77
854.451	12457.38
854.774	12314.79
855.096	12397.72
855.419	12328.12
855.741	12254
856.063	12223.04
856.385	12165.87
856.708	12163.83
857.03	12063.27
857.352	12125.42
857.674	12073.44
857.996	12072.76
858.318	12013.55
858.64	11949.6
858.961	11889.94
859.283	11873.44
859.605	11783.28
859.926	11891.3
860.248	11824.63
860.57	11734.92
860.891	11781.24
861.212	11669.16
861.534	11661.7
861.855	11637.97
862.176	11608.59
862.498	11641.36
862.819	11608.59
863.14	11573.79
863.461	11519.33
863.782	11535.83
864.103	11470.74
864.424	11425.55
864.745	11353.46
865.065	11370.63
865.386	11363.18
865.707	11322.27
866.027	11375.38
866.348	11371.54
866.668	11263.52
866.989	11312.33
867.309	11116.18
867.63	11202.95
867.95	11175.61
868.27	11121.6
868.59	11203.86
868.91	11164.99
869.23	11142.84
869.55	11092.67
869.87	11131.09
870.19	11062.84
870.51	11012.68
870.83	11126.12
871.15	11021.72
871.469	11044.54
871.789	11025.11
872.109	11006.12
872.428	10866.24
872.748	10957.08
873.067	10894.94
873.386	10912.57
873.706	10887.93
874.025	10819.46
874.344	10876.63
874.663	10900.59
874.982	10779.24
875.301	10812.91
875.62	10771.33
875.939	10773.81
876.258	10747.37
876.577	10696.3
876.896	10666.47
877.214	10660.6
877.533	10664.21
877.852	10657.43
878.17	10581.05
878.489	10639.13
878.807	10561.84
879.125	10557.32
879.444	10531.11
879.762	10453.37
880.08	10500.15
880.398	10462.41
880.716	10498.34
881.034	10517.77
881.352	10488.62
881.67	10419.25
881.988	10388.06
882.306	10343.32
882.624	10323.88
882.941	10251.11
883.259	10260.61
883.577	10242.98
883.894	10307.84
884.212	10262.41
884.529	10236.2
884.846	10208.63
885.164	10176.99
885.481	10164.56
885.798	10104.9
886.115	10154.17
886.432	10131.34
886.75	10053.61
887.067	10064.23
887.383	9979.03
887.7	10063.77
888.017	9986.71
888.334	9958.24
888.651	9927.96
888.967	9902.65
889.284	9842.76
889.6	9855.64
889.917	9771.58
890.233	9791.01
890.55	9695.2
890.866	9738.81
891.182	9676.21
891.498	9728.64
891.815	9607.29
892.131	9590.79
892.447	9526.39
892.763	9493.85
893.079	9527.29
893.395	9406.17
893.71	9483.45
894.026	9444.36
894.342	9404.13
894.657	9378.14
894.973	9322.55
895.289	9315.09
895.604	9304.47
895.92	9262.21
896.235	9203.23
896.55	9239.16
896.865	9132.05
897.181	9134.53
897.496	9137.02
897.811	9020.19
898.126	9046.17
898.441	9050.24
898.756	9005.5
899.071	8950.36
899.386	8955.1
899.7	8881.21
900.015	8872.85
900.33	8779.51
900.644	8779.51
900.959	8760.31
901.273	8687.99
901.588	8657.03
901.902	8690.25
902.216	8641.21
902.531	8639.86
902.845	8565.51
903.159	8555.11
903.473	8492.74
903.787	8516.02
904.101	8450.94
904.415	8441.9
904.729	8391.05
905.042	8353.09
905.356	8319.41
905.67	8311.05
905.984	8290.49
906.297	8241
906.611	8169.81
906.924	8205.29
907.237	8130.27
907.551	8121
907.864	8061.34
908.177	8050.72
908.491	8051.85
908.804	7995.35
909.117	7953.1
909.43	7873.32
909.743	7877.84
910.056	7796.72
910.368	7846.43
910.681	7790.39
910.994	7794.46
911.307	7708.58
911.619	7705.87
911.932	7686.89
912.244	7597.63
912.557	7679.88
912.869	7554.91
913.181	7577.06
913.494	7469.49
913.806	7465.43
914.118	7432.66
914.43	7402.83
914.742	7380.91
915.054	7293.45
915.366	7363.05
915.678	7263.17
915.99	7237.41
916.302	7213
916.613	7161.03
916.925	7114.93
917.236	7167.58
917.548	7104.76
917.859	7085.55
918.171	7024.08
918.482	6983.86
918.794	7011.88
919.105	6897.76
919.416	6893.24
919.727	6888.94
920.038	6895.95
920.349	6843.52
920.66	6780.47
920.971	6820.47
921.282	6776.18
921.593	6707.7
921.903	6680.59
922.214	6640.81
922.525	6681.72
922.835	6650.76
923.146	6553.58
923.456	6546.35
923.767	6503.87
924.077	6594.49
924.387	6448.05
924.697	6458.67
925.008	6385.68
925.318	6401.05
925.628	6380.03
925.938	6315.62
926.248	6335.51
926.558	6255.74
926.867	6263.87
927.177	6240.37
927.487	6221.39
927.796	6112.47
928.106	6121.51
928.416	6133.71
928.725	6078.79
929.034	6009.19
929.344	6049.87
929.653	6036.08
929.962	5968.29
930.271	5970.78
930.581	5948.85
930.89	5913.83
931.199	5881.74
931.508	5870.66
931.817	5890.55
932.125	5824.11
932.434	5794.73
932.743	5725.13
933.051	5713.83
933.36	5675.42
933.669	5650.33
933.977	5700.05
934.286	5682.2
934.594	5581.86
934.902	5584.57
935.21	5576.44
935.519	5549.09
935.827	5540.96
936.135	5571.69
936.443	5491.24
936.751	5454.18
937.059	5449.43
937.367	5362.66
937.674	5429.32
937.982	5406.95
938.29	5368.53
938.597	5323.11
938.905	5250.79
939.213	5257.8
939.52	5212.15
939.827	5252.38
940.135	5197.69
940.442	5178.48
940.749	5174.41
941.056	5167.86
941.363	5140.97
941.67	5094.41
941.977	5050.8
942.284	5025.26
942.591	4965.6
942.898	5004.47
943.205	4984.36
943.511	4969.45
943.818	4972.38
944.125	4924.02
944.431	4873.63
944.738	4857.36
945.044	4850.13
945.35	4810.81
945.657	4829.11
945.963	4762.45
946.269	4773.97
946.575	4723.8
946.881	4742.56
947.187	4698.94
947.493	4683.58
947.799	4663.92
948.105	4647.65
948.41	4639.96
948.716	4619.62
949.022	4598.83
949.327	4608.78
949.633	4489.68
949.938	4522.23
950.244	4513.19
950.549	4522.9
950.854	4496.92
951.16	4380.08
951.465	4420.53
951.77	4369.01
952.075	4386.41
952.38	4392.96
952.685	4388.22
952.99	4307.54
953.294	4307.77
953.599	4310.03
953.904	4265.74
954.209	4249.01
954.513	4250.37
954.818	4270.93
955.122	4219.86
955.426	4164.95
955.731	4212.4
956.035	4153.65
956.339	4159.3
956.643	4130.37
956.948	4087.89
957.252	4098.73
957.556	4052.86
957.86	4042.24
958.163	4007.89
958.467	4038.4
958.771	3969.25
959.075	4020.77
959.378	3953.65
959.682	4012.86
959.985	3932.41
960.289	3914.56
960.592	3950.49
960.896	3868.91
961.199	3828.23
961.502	3858.29
961.805	3865.52
962.108	3785.3
962.411	3786.88
962.714	3813.54
963.017	3794.56
963.32	3758.86
963.623	3700.55
963.926	3731.06
964.228	3710.5
964.531	3715.24
964.833	3685.86
965.136	3613.1
965.438	3642.7
965.741	3634.57
966.043	3582.14
966.345	3536.94
966.648	3582.14
966.95	3572.19
967.252	3570.61
967.554	3532.42
967.856	3526.77
968.158	3500.11
968.46	3454.23
968.761	3471.63
969.063	3468.92
969.365	3463.04
969.666	3439.32
969.968	3354.12
970.269	3391.18
970.571	3370.62
970.872	3375.36
971.174	3334.01
971.475	3340.56
971.776	3291.52
972.077	3295.14
972.378	3249.04
972.679	3272.09
972.98	3263.28
973.281	3237.06
973.582	3243.39
973.883	3221.02
974.183	3213.56
974.484	3193.9
974.785	3136.73
975.085	3197.29
975.386	3167.01
975.686	3119.55
975.986	3130.17
976.287	3122.94
976.587	3082.49
976.887	3083.39
977.187	3022.38
977.487	3030.06
977.787	3044.3
978.087	3051.98
978.387	3033.9
978.687	2993.9
978.987	2982.38
979.286	2972.66
979.586	2972.89
979.885	2952.1
980.185	2929.95
980.484	2944.41
980.784	2896.73
981.083	2876.62
981.382	2899.67
981.682	2848.82
981.981	2881.59
982.28	2862.83
982.579	2863.06
982.878	2821.03
983.177	2799.11
983.475	2803.85
983.774	2807.02
984.073	2758.43
984.372	2753.23
984.67	2746.45
984.969	2745.55
985.267	2714.36
985.566	2724.08
985.864	2711.65
986.162	2670.07
986.461	2647.25
986.759	2662.39
987.057	2593.46
987.355	2619.9
987.653	2631.88
987.951	2604.31
988.249	2596.17
988.547	2615.61
988.844	2566.57
989.142	2569.28
989.44	2536.97
989.737	2503.97
990.035	2545.1
990.332	2535.16
990.63	2511.66
990.927	2455.61
991.224	2454.26
991.521	2509.17
991.819	2490.41
992.116	2460.36
992.413	2437.99
992.71	2427.59
993.006	2426.69
993.303	2401.38
993.6	2385.78
993.897	2371.32
994.193	2404.77
994.49	2366.58
994.787	2347.37
995.083	2345.79
995.379	2322.96
995.676	2309.4
995.972	2329.52
996.268	2290.87
996.565	2268.27
996.861	2298.33
997.157	2266.24
997.453	2251.32
997.749	2223.3
998.044	2210.42
998.34	2213.81
998.636	2186.02
998.932	2178.78
999.227	2224.66
999.523	2141.27
999.818	2181.27
1000.114	2149.86
1000.409	2103.76
1000.704	2089.3
1001	2128.62
1001.295	2075.96
1001.59	2087.49
1001.885	2065.34
1002.18	2091.78
1002.475	2056.08
1002.77	2044.78
1003.065	2046.13
1003.359	2047.94
1003.654	2029.18
1003.949	1990.77
1004.243	1948.51
1004.538	2010.2
1004.832	1967.49
1005.127	2005.68
1005.421	1931.79
1005.715	1952.58
1006.009	1964.78
1006.304	1906.25
1006.598	1898.11
1006.892	1913.25
1007.186	1899.47
1007.48	1866.7
1007.773	1873.71
1008.067	1845.91
1008.361	1853.6
1008.655	1834.16
1008.948	1832.13
1009.242	1840.71
1009.535	1803.43
1009.829	1772.24
1010.122	1766.14
1010.415	1781.51
1010.708	1774.5
1011.001	1751.9
1011.295	1742.64
1011.588	1715.07
1011.881	1707.38
1012.173	1704.9
1012.466	1689.31
1012.759	1687.5
1013.052	1689.31
1013.344	1659.25
1013.637	1671.91
1013.93	1653.6
1014.222	1639.59
1014.514	1622.41
1014.807	1628.97
1015.099	1631.45
1015.391	1612.92
1015.683	1566.37
1015.976	1586.48
1016.268	1586.26
1016.56	1562.08
1016.851	1558.24
1017.143	1568.86
1017.435	1558.69
1017.727	1540.38
1018.018	1510.78
1018.31	1508.07
1018.602	1548.74
1018.893	1509.65
1019.185	1471.23
1019.476	1483.21
1019.767	1484.11
1020.058	1474.17
1020.35	1449.99
1020.641	1437.11
1020.932	1428.07
1021.223	1427.17
1021.514	1417
1021.804	1402.08
1022.095	1388.75
1022.386	1353.04
1022.677	1363.66
1022.967	1360.27
1023.258	1354.4
1023.548	1334.06
1023.839	1356.21
1024.129	1329.99
1024.419	1311.46
1024.709	1285.93
1025	1304.68
1025.29	1311.46
1025.58	1298.36
1025.87	1260.16
1026.16	1268.53
1026.449	1263.1
1026.739	1259.49
1027.029	1220.84
1027.319	1256.55
1027.608	1224.69
1027.898	1234.63
1028.187	1194.4
1028.477	1232.14
1028.766	1211.58
1029.055	1171.58
1029.344	1203.67
1029.634	1186.95
1029.923	1180.84
1030.212	1187.4
1030.501	1172.48
1030.79	1161.18
1031.078	1137
1031.367	1120.06
1031.656	1154.86
1031.945	1124.8
1032.233	1108.53
1032.522	1088.42
1032.81	1081.64
1033.099	1089.1
1033.387	1094.52
1033.675	1042.54
1033.963	1064.92
1034.251	1094.52
1034.54	1051.13
1034.828	1070.11
1035.116	1030.11
1035.403	1032.6
1035.691	1017.01
1035.979	1008.65
1036.267	1004.58
1036.554	985.37
1036.842	989.89
1037.129	973.39
1037.417	995.09
1037.704	967.29
1037.992	990.34
1038.279	946.95
1038.566	971.13
1038.853	971.13
1039.14	971.13
