Data from hue_140_FLMS001491_00057.txt Node
Date: Tue Feb 07 16:56:07 GMT 2017
User: dcchb
Spectrometer: FLMS00149
Trigger mode: 0
Integration Time (sec): 2.000000E-2
Scans to average: 10
Electric dark correction enabled: true
Nonlinearity correction enabled: false
Boxcar width: 0
XAxis mode: Wavelengths
Number of Pixels in Spectrum: 2048
>>>>>Begin Spectral Data<<<<<
341.393	-10.28
341.776	-10.28
342.16	-10.28
342.543	-56.83
342.927	-80.56
343.31	-73.78
343.693	-58.64
344.077	-68.13
344.46	-61.35
344.843	-59.09
345.226	-43.28
345.61	-32.2
345.993	-4.41
346.376	-5.99
346.759	-0.11
347.142	46.44
347.525	26.1
347.908	52.54
348.291	77.17
348.674	82.6
349.057	122.14
349.44	130.05
349.823	140
350.206	161.46
350.588	192.42
350.971	230.16
351.354	227.68
351.737	229.26
352.119	237.85
352.502	260.67
352.884	257.06
353.267	264.06
353.65	288.47
354.032	320.78
354.414	308.35
354.797	294.57
355.179	333.66
355.562	330.27
355.944	345.87
356.326	323.49
356.709	328.69
357.091	357.17
357.473	344.96
357.855	340.44
358.238	365.3
358.62	353.55
359.002	329.6
359.384	350.61
359.766	357.84
360.148	336.6
360.53	350.39
360.912	361.69
361.294	306.77
361.676	338.64
362.057	338.86
362.439	328.24
362.821	331.86
363.203	347
363.584	335.7
363.966	314.46
364.348	336.6
364.729	322.14
365.111	313.55
365.493	311.52
365.874	311.74
366.256	305.19
366.637	317.39
367.019	326.88
367.4	334.57
367.781	305.87
368.163	296.38
368.544	328.47
368.925	311.29
369.306	341.57
369.688	306.09
370.069	302.93
370.45	319.43
370.831	315.36
371.212	311.07
371.593	317.84
371.974	313.55
372.355	319.88
372.736	345.41
373.117	323.27
373.498	325.53
373.879	325.75
374.26	316.49
374.641	317.17
375.021	327.34
375.402	327.56
375.783	322.82
376.163	325.75
376.544	342.93
376.925	332.53
377.305	338.64
377.686	352.19
378.066	344.74
378.447	326.21
378.827	322.36
379.208	365.98
379.588	317.39
379.968	355.13
380.349	346.77
380.729	342.93
381.109	363.49
381.489	330.27
381.87	328.92
382.25	355.13
382.63	339.09
383.01	366.88
383.39	351.97
383.77	329.82
384.15	354.23
384.53	346.09
384.91	358.07
385.29	368.24
385.67	357.84
386.049	352.87
386.429	353.55
386.809	376.37
387.189	372.53
387.568	359.43
387.948	347.45
388.328	352.87
388.707	368.69
389.087	381.8
389.466	356.04
389.846	382.25
390.225	389.26
390.605	375.92
390.984	375.47
391.363	383.83
391.743	370.72
392.122	376.37
392.501	397.39
392.881	399.2
393.26	385.87
393.639	395.13
394.018	391.52
394.397	398.07
394.776	402.14
395.155	372.08
395.534	390.84
395.913	379.76
396.292	391.97
396.671	389.03
397.05	396.71
397.429	407.33
397.808	399.2
398.186	385.19
398.565	397.62
398.944	400.1
399.323	405.98
399.701	416.83
400.08	421.57
400.458	404.17
400.837	404.62
401.215	404.62
401.594	415.47
401.972	412.76
402.351	410.95
402.729	441.23
403.107	415.24
403.486	432.19
403.864	455.69
404.242	414.34
404.62	424.51
404.999	443.94
405.377	454.11
405.755	443.49
406.133	420.21
406.511	431.51
406.889	432.87
407.267	434.45
407.645	444.85
408.023	458.63
408.401	458.18
408.779	474.22
409.156	457.5
409.534	443.72
409.912	487.78
410.29	471.96
410.667	469.71
411.045	470.61
411.422	498.4
411.8	475.58
412.178	487.78
412.555	475.58
412.933	503.6
413.31	521.68
413.687	515.35
414.065	513.55
414.442	500.66
414.819	514.9
415.197	502.47
415.574	516.48
415.951	516.48
416.328	516.26
416.705	532.75
417.082	507.22
417.46	507.9
417.837	531.17
418.214	537.5
418.591	537.95
418.967	526.88
419.344	552.41
419.721	540.44
420.098	566.88
420.475	551.51
420.852	542.25
421.228	551.51
421.605	556.03
421.982	586.31
422.358	585.86
422.735	564.84
423.111	563.71
423.488	575.69
423.864	589.48
424.241	593.77
424.617	605.97
424.994	588.12
425.37	598.29
425.746	589.25
426.123	610.94
426.499	620.21
426.875	633.09
427.251	623.15
427.627	622.92
428.003	627.67
428.379	631.28
428.756	644.16
429.132	646.42
429.507	649.59
429.883	650.49
430.259	665.18
430.635	692.07
431.011	671.06
431.387	676.25
431.763	677.38
432.138	691.85
432.514	698.17
432.89	721
433.265	698.4
433.641	727.78
434.016	730.49
434.392	725.29
434.767	757.38
435.143	734.56
435.518	756.7
435.894	745.86
436.269	756.7
436.644	758.51
437.02	775.23
437.395	786.31
437.77	778.62
438.145	794.67
438.52	797.61
438.895	806.42
439.271	816.14
439.646	798.51
440.021	835.57
440.395	835.35
440.77	826.98
441.145	804.39
441.52	853.65
441.895	863.14
442.27	857.04
442.645	855.01
443.019	863.59
443.394	871.95
443.769	878.51
444.143	888
444.518	906.3
444.892	895.91
445.267	875.57
445.641	914.67
446.016	901.11
446.39	890.94
446.764	921.22
447.139	912.41
447.513	932.74
447.887	902.24
448.262	919.18
448.636	949.47
449.01	940.65
449.384	965.51
449.758	960.77
450.132	973.65
450.506	973.87
450.88	977.26
451.254	987.21
451.628	1003.93
452.002	998.5
452.376	1037.37
452.75	1026.98
453.123	1019.07
453.497	1039.41
453.871	1054.77
454.244	1075.56
454.618	1109.69
454.992	1060.65
455.365	1089.35
455.739	1120.76
456.112	1124.6
456.486	1144.94
456.859	1147.65
457.232	1158.95
457.606	1170.48
457.979	1179.29
458.352	1223.13
458.725	1231.49
459.099	1223.81
459.472	1252.51
459.845	1248.67
460.218	1244.83
460.591	1283.7
460.964	1302.23
461.337	1309.68
461.71	1313.3
462.083	1339.96
462.456	1389.91
462.829	1396.91
463.201	1366.4
463.574	1408.66
463.947	1432.17
464.32	1457.93
464.692	1477.14
465.065	1495.89
465.438	1490.7
465.81	1544.25
466.183	1551.71
466.555	1566.17
466.928	1586.96
467.3	1599.84
467.672	1647.08
468.045	1679.16
468.417	1686.17
468.789	1690.92
469.161	1731.82
469.534	1777.47
469.906	1817.24
470.278	1853.85
470.65	1843.91
471.022	1895.66
471.394	1933.85
471.766	1961.87
472.138	2021.3
472.51	2053.62
472.882	2064.01
473.253	2081.87
473.625	2161.64
473.997	2201.86
474.369	2231.69
474.74	2305.14
475.112	2311.69
475.484	2377.68
475.855	2489.54
476.227	2479.6
476.598	2530.67
476.97	2592.14
477.341	2686.82
477.713	2737.22
478.084	2780.83
478.455	2920.26
478.827	2917.55
479.198	3043.87
479.569	3103.31
479.94	3213.14
480.311	3270.99
480.682	3345.11
481.053	3466.24
481.424	3569.28
481.795	3655.16
482.166	3735.61
482.537	3819
482.908	3913
483.279	4006.34
483.65	4105.77
484.021	4284.75
484.391	4314.35
484.762	4429.6
485.133	4483.61
485.503	4644.74
485.874	4768.35
486.244	4913.2
486.615	5023.94
486.985	5114.1
487.356	5281.33
487.726	5417.37
488.097	5603.58
488.467	5639.51
488.837	5786.63
489.207	5924.93
489.578	6057.35
489.948	6186.17
490.318	6337.57
490.688	6411.47
491.058	6590.45
491.428	6727.62
491.798	6858.46
492.168	7074.5
492.538	7100.27
492.908	7290.54
493.278	7384.33
493.648	7500.03
494.017	7728.05
494.387	7851.88
494.757	7966.01
495.126	8125.1
495.496	8223.4
495.866	8367.58
496.235	8488.03
496.605	8638.76
496.974	8748.81
497.344	8870.39
497.713	8995.36
498.082	9058.41
498.452	9198.06
498.821	9298.63
499.19	9373.2
499.559	9552.4
499.928	9650.03
500.298	9728.22
500.667	9812.96
501.036	9910.36
501.405	10062.45
501.774	10101.32
502.143	10173.4
502.512	10291.14
502.88	10452.27
503.249	10392.83
503.618	10612.26
503.987	10673.96
504.356	10718.02
504.724	10872.14
505.093	10920.28
505.462	10977
505.83	11038.47
506.199	11126.6
506.567	11369.31
506.936	11216.99
507.304	11428.74
507.672	11438.46
508.041	11525.91
508.409	11663.76
508.777	11797.54
509.145	11805.9
509.514	11806.13
509.882	11933.81
510.25	11904.43
510.618	12013.36
510.986	12077.31
511.354	12122.51
511.722	12218.32
512.09	12345.78
512.458	12358.43
512.826	12502.84
513.193	12459.9
513.561	12524.53
513.929	12614.02
514.297	12639.1
514.664	12773.11
515.032	12735.6
515.4	12853.79
515.767	12819.66
516.135	12837.06
516.502	12882.94
516.869	13004.29
517.237	13030.5
517.604	13035.25
517.972	12997.06
518.339	13191.18
518.706	13133.1
519.073	13189.6
519.44	13235.25
519.808	13355.92
520.175	13330.38
520.542	13412.19
520.909	13496.03
521.276	13374.45
521.643	13586.42
522.009	13545.07
522.376	13630.26
522.743	13560.89
523.11	13654.9
523.477	13761.11
523.843	13775.12
524.21	13875.23
524.577	13962.91
524.943	13985.51
525.31	13990.71
525.676	13973.08
526.043	14056.69
526.409	14093.08
526.776	14128.33
527.142	14117.26
527.508	14136.01
527.874	14208.1
528.241	14273.86
528.607	14234.09
528.973	14208.1
529.339	14132.85
529.705	14285.61
530.071	14335.78
530.437	14330.58
530.803	14396.8
531.169	14376.23
531.535	14326.74
531.901	14311.6
532.267	14416.23
532.632	14331.71
532.998	14384.59
533.364	14409.45
533.73	14290.58
534.095	14426.63
534.461	14293.75
534.826	14484.93
535.192	14380.75
535.557	14437.7
535.923	14259.4
536.288	14286.52
536.653	14326.97
537.019	14242.45
537.384	14274.09
537.749	14290.81
538.114	14279.74
538.479	14169.46
538.845	14194.09
539.21	14097.14
539.575	14159.51
539.94	14056.01
540.305	14129.68
540.67	14079.29
541.034	14021.21
541.399	13991.61
541.764	13964.04
542.129	14005.62
542.494	14002.46
542.858	14026.41
543.223	13936.7
543.587	13922.23
543.952	13888.56
544.316	13868.45
544.681	13867.32
545.045	13816.47
545.41	13877.49
545.774	13804.04
546.138	13623.94
546.503	13673.2
546.867	13632.3
547.231	13670.26
547.595	13640.88
547.959	13628.46
548.324	13536.93
548.688	13491.96
549.052	13520.66
549.416	13510.94
549.779	13371.96
550.143	13475.69
550.507	13503.49
550.871	13442.02
551.235	13278.63
551.599	13430.95
551.962	13308.24
552.326	13344.85
552.689	13339.2
553.053	13251.06
553.417	13295.13
553.78	13270.72
554.143	13345.3
554.507	13244.96
554.87	13197.05
555.234	13309.82
555.597	13163.38
555.96	13220.78
556.323	13252.19
556.686	13146.66
557.05	13156.6
557.413	13176.49
557.776	13016.95
558.139	13173.33
558.502	13180.11
558.865	13127
559.228	13170.39
559.59	13257.39
559.953	13181.24
560.316	13262.82
560.679	13296.03
561.041	13226.66
561.404	13188.01
561.767	13268.24
562.129	13212.19
562.492	13225.53
562.854	13221.46
563.217	13120.9
563.579	13197.73
563.941	13255.58
564.304	13242.48
564.666	13329.93
565.028	13294.23
565.39	13219.88
565.753	13336.71
566.115	13302.36
566.477	13406.31
566.839	13407.9
567.201	13421
567.563	13425.3
567.925	13497.16
568.287	13419.2
568.648	13442.25
569.01	13490.61
569.372	13515.01
569.734	13411.06
570.095	13530.6
570.457	13560.43
570.819	13553.88
571.18	13553.65
571.542	13607.66
571.903	13599.08
572.265	13717.27
572.626	13722.46
572.987	13695.35
573.349	13674.78
573.71	13650.83
574.071	13663.48
574.432	13725.18
574.794	13717.49
575.155	13759.98
575.516	13695.57
575.877	13770.37
576.238	13877.71
576.599	13739.19
576.96	13741.9
577.32	13755.23
577.681	13829.81
578.042	13862.57
578.403	13774.44
578.763	13714.1
579.124	13781.9
579.485	13877.04
579.845	13886.3
580.206	13788.23
580.566	13817.6
580.927	13877.26
581.287	13805.85
581.648	13735.12
582.008	13851.73
582.368	13886.53
582.728	13792.52
583.089	13792.07
583.449	13784.38
583.809	13793.65
584.169	13775.34
584.529	13819.18
584.889	13834.78
585.249	13682.92
585.609	13726.53
585.969	13748
586.329	13702.13
586.688	13754.33
587.048	13715.23
587.408	13661.67
587.768	13645.86
588.127	13711.39
588.487	13648.79
588.846	13832.52
589.206	13669.36
589.565	13580.09
589.925	13693.09
590.284	13665.97
590.643	13689.7
591.003	13703.71
591.362	13654.9
591.721	13642.47
592.08	13583.03
592.44	13690.6
592.799	13638.62
593.158	13622.13
593.517	13493.09
593.876	13639.53
594.235	13622.13
594.593	13593.2
594.952	13545.75
595.311	13505.07
595.67	13674.33
596.029	13618.06
596.387	13683.6
596.746	13626.87
597.104	13570.38
597.463	13617.38
597.822	13668.68
598.18	13567.44
598.538	13604.5
598.897	13626.2
599.255	13547.55
599.613	13701.67
599.972	13580.32
600.33	13635.91
600.688	13571.06
601.046	13605.86
601.404	13589.81
601.762	13588.91
602.12	13603.37
602.478	13643.82
602.836	13613.99
603.194	13561.34
603.552	13534.9
603.91	13493.54
604.268	13475.01
604.625	13582.13
604.983	13620.77
605.341	13467.1
605.698	13717.04
606.056	13630.26
606.413	13575.58
606.771	13554.11
607.128	13770.15
607.485	13561.79
607.843	13620.77
608.2	13652.86
608.557	13729.92
608.914	13628.46
609.272	13658.51
609.629	13759.07
609.986	13763.59
610.343	13702.58
610.7	13842.23
611.057	13745.29
611.414	13717.72
611.771	13812.86
612.127	13917.94
612.484	13817.38
612.841	13879.75
613.198	13854.44
613.554	13759.53
613.911	13875.91
614.267	13898.96
614.624	13819.18
614.98	13867.09
615.337	13938.05
615.693	13931.27
616.05	13897.83
616.406	13965.85
616.762	13871.39
617.118	13967.43
617.475	13903.7
617.831	13935.57
618.187	14022.57
618.543	13943.7
618.899	13960.2
619.255	13963.81
619.611	13964.49
619.967	14103.7
620.323	14079.52
620.678	14052.17
621.034	13930.82
621.39	13959.52
621.746	13974.66
622.101	14005.85
622.457	14011.04
622.812	13965.62
623.168	14074.09
623.523	14119.52
623.879	14114.09
624.234	14028.44
624.589	14064.15
624.945	14077.48
625.3	14036.58
625.655	14037.71
626.01	14094.66
626.365	14043.81
626.72	14002.23
627.075	14082
627.43	14086.52
627.785	13972.4
628.14	14081.1
628.495	14020.08
628.85	14066.86
629.205	13970.59
629.559	14103.92
629.914	14009.69
630.269	13954.1
630.623	13942.35
630.978	13844.72
631.332	13998.84
631.687	13986.41
632.041	13938.28
632.396	13870.26
632.75	13855.57
633.104	13929.69
633.459	13802.91
633.813	13856.92
634.167	13749.81
634.521	13798.39
634.875	13804.5
635.229	13805.17
635.583	13715.01
635.937	13737.15
636.291	13647.21
636.645	13681.11
636.999	13657.38
637.352	13744.16
637.706	13568.34
638.06	13643.37
638.413	13619.87
638.767	13610.6
639.121	13680.66
639.474	13521.34
639.828	13556.37
640.181	13497.84
640.534	13561.56
640.888	13539.19
641.241	13481.79
641.594	13516.14
641.947	13553.2
642.301	13537.38
642.654	13522.47
643.007	13548.01
643.36	13437.27
643.713	13404.96
644.066	13478.4
644.419	13404.51
644.771	13312.08
645.124	13234.34
645.477	13160.22
645.83	13090.39
646.182	13051.52
646.535	13000.22
646.888	13021.92
647.24	13003.61
647.593	12996.38
647.945	13002.93
648.298	12923.16
648.65	12854.46
649.002	12816.27
649.355	12914.35
649.707	13052.88
650.059	13008.58
650.411	13189.82
650.763	13159.77
651.115	13377.61
651.467	13249.48
651.819	13224.62
652.171	13294.9
652.523	13328.8
652.875	13240.89
653.227	13168.81
653.578	13337.39
653.93	13305.75
654.282	13289.26
654.633	13250.61
654.985	13160.44
655.337	13248.35
655.688	13222.82
656.039	13237.73
656.391	13105.76
656.742	13226.43
657.094	13215.36
657.445	13282.48
657.796	13204.06
658.147	13248.8
658.498	13171.07
658.849	13197.73
659.2	13231.86
659.551	13158.41
659.902	13300.55
660.253	13243.38
660.604	13282.02
660.955	13218.3
661.306	13220.56
661.656	13178.75
662.007	13193.21
662.358	13166.77
662.708	13213.55
663.059	13256.49
663.409	13168.81
663.76	13284.28
664.11	13283.15
664.461	13239.99
664.811	13225.75
665.161	13231.86
665.511	13282.25
665.862	13294.23
666.212	13253.32
666.562	13295.13
666.912	13182.82
667.262	13201.12
667.612	13231.63
667.962	13312.08
668.312	13283.61
668.662	13318.63
669.011	13318.86
669.361	13227.56
669.711	13200.44
670.06	13301.91
670.41	13213.78
670.76	13168.13
671.109	13163.38
671.459	13222.59
671.808	13149.6
672.157	13168.81
672.507	13092.88
672.856	13150.73
673.205	13099.2
673.554	13208.58
673.904	13099.2
674.253	13161.12
674.602	13152.99
674.951	12907.57
675.3	12923.84
675.649	13075.93
675.998	13063.95
676.346	13121.8
676.695	13076.38
677.044	12983.27
677.393	13030.05
677.741	13060.79
678.09	13059.88
678.438	12952.31
678.787	13063.95
679.135	13019.66
679.484	12902.37
679.832	12877.97
680.181	12868.48
680.529	12809.49
680.877	12819.66
681.225	12851.3
681.573	12881.13
681.922	12786.67
682.27	12780.79
682.618	12694.02
682.966	12716.61
683.314	12737.63
683.661	12716.61
684.009	12589.61
684.357	12534.02
684.705	12620.12
685.053	12565.21
685.4	12556.84
685.748	12517.52
686.095	12507.81
686.443	12495.6
686.79	12395.27
687.138	12459.67
687.485	12447.47
687.832	12358.43
688.18	12332.67
688.527	12261.49
688.874	12236.63
689.221	12249.51
689.568	12197.31
689.915	12189.62
690.262	12095.61
690.609	12096.52
690.956	12061.94
691.303	12113.69
691.65	11955.5
691.997	11885.22
692.344	11887.03
692.69	11875.51
693.037	11788.05
693.383	11802.29
693.73	11744.44
694.077	11691.78
694.423	11698.56
694.769	11712.57
695.116	11571.56
695.462	11609.53
695.808	11542.41
696.155	11625.8
696.501	11460.83
696.847	11487.72
697.193	11446.59
697.539	11441.17
697.885	11271.46
698.231	11324.56
698.577	11224.45
698.923	11264
699.269	11144.68
699.614	11079.14
699.96	11076.66
700.306	11024
700.651	11041.18
700.997	10993.5
701.342	10940.39
701.688	10904.69
702.033	10910.79
702.379	10888.19
702.724	10794.41
703.069	10873.95
703.415	10721.86
703.76	10732.94
704.105	10725.25
704.45	10702.66
704.795	10662.21
705.14	10602.09
705.485	10531.59
705.83	10488.88
706.175	10504.92
706.52	10525.26
706.865	10454.98
707.209	10396.45
707.554	10405.94
707.899	10397.13
708.243	10364.59
708.588	10314.87
708.932	10316.23
709.277	10234.42
709.621	10257.47
709.966	10105.84
710.31	10190.58
710.654	10079.62
710.998	10108.77
711.342	10067.64
711.687	10035.1
712.031	9987.87
712.375	9900.19
712.719	9972.51
713.063	9936.8
713.407	9936.8
713.75	9903.13
714.094	9880.53
714.438	9900.42
714.782	9857.03
715.125	9814.54
715.469	9836.24
715.812	9779.52
716.156	9822.91
716.499	9731.38
716.843	9770.25
717.186	9712.4
717.53	9741.55
717.873	9767.54
718.216	9778.61
718.559	9718.05
718.902	9597.15
719.246	9641.67
719.589	9558.51
719.932	9534.1
720.275	9597.37
720.617	9541.11
720.96	9506.3
721.303	9579.75
721.646	9570.71
721.989	9494.33
722.331	9518.05
722.674	9500.43
723.016	9476.47
723.359	9479.41
723.701	9517.83
724.044	9325.52
724.386	9432.86
724.729	9440.09
725.071	9446.42
725.413	9400.54
725.755	9461.33
726.097	9346.76
726.439	9272.19
726.782	9312.86
727.124	9349.92
727.465	9360.09
727.807	9338.62
728.149	9356.03
728.491	9388.57
728.833	9364.84
729.175	9342.47
729.516	9343.37
729.858	9346.99
730.199	9273.77
730.541	9274.67
730.882	9205.97
731.224	9295.01
731.565	9266.31
731.906	9335.01
732.248	9318.74
732.589	9251.17
732.93	9296.82
733.271	9255.46
733.612	9152.64
733.953	9265.86
734.294	9176.59
734.635	9233.32
734.976	9261.11
735.317	9209.81
735.658	9215.01
735.999	9243.26
736.339	9282.58
736.68	9297.04
737.021	9306.08
737.361	9219.08
737.702	9265.86
738.042	9302.92
738.383	9303.37
738.723	9357.16
739.063	9280.55
739.404	9330.72
739.744	9260.21
740.084	9290.49
740.424	9274.22
740.764	9350.38
741.104	9354.44
741.444	9358.74
741.784	9352.86
742.124	9411.62
742.464	9348.34
742.804	9372.3
743.143	9366.87
743.483	9407.1
743.823	9382.92
744.162	9394.44
744.502	9476.02
744.841	9462.24
745.181	9504.95
745.52	9514.89
745.86	9538.62
746.199	9574.1
746.538	9644.38
746.877	9651.16
747.216	9743.81
747.556	9724.15
747.895	9792.4
748.234	9807.54
748.573	9892.06
748.911	9961.43
749.25	9996.01
749.589	10015.44
749.928	10104.71
750.267	10126.4
750.605	10305.83
750.944	10210.47
751.283	10278.94
751.621	10455.88
751.96	10461.08
752.298	10552.38
752.636	10602.09
752.975	10751.92
753.313	10751.02
753.651	10887.96
753.989	10942.42
754.327	11006.38
754.666	11170.67
755.004	11285.92
755.342	11413.37
755.679	11591.67
756.017	11647.49
756.355	11799.58
756.693	11780.14
757.031	12039.57
757.368	12151.21
757.706	12311.88
758.044	12444.31
758.381	12638.88
758.719	12753
759.056	12848.14
759.394	13021.92
759.731	13118.41
760.068	13350.04
760.405	13479.76
760.743	13551.17
761.08	13774.89
761.417	13771.28
761.754	14094.21
762.091	14225.05
762.428	14318.83
762.765	14428.89
763.102	14627.75
763.438	14804.24
763.775	14880.4
764.112	15127.85
764.449	15378.01
764.785	15473.15
765.122	15580.49
765.458	15675.86
765.795	15855.06
766.131	15968.51
766.467	16030.2
766.804	16276.52
767.14	16292.79
767.476	16519.68
767.812	16605.33
768.148	16784.53
768.485	16833.57
768.821	16924.87
769.157	17124.41
769.492	17152.66
769.828	17372.54
770.164	17411.41
770.5	17461.35
770.836	17597.84
771.171	17642.59
771.507	17785.18
771.842	17651.85
772.178	17834.9
772.513	18009.81
772.849	18116.25
773.184	18002.35
773.519	18168.45
773.855	18192.63
774.19	18219.07
774.525	18338.39
774.86	18471.49
775.195	18510.13
775.53	18567.31
775.865	18475.79
776.2	18492.28
776.535	18410.93
776.87	18623.35
777.205	18631.71
777.539	18615.22
777.874	18683.01
778.209	18686.4
778.543	18784.93
778.878	18634.43
779.212	18751.03
779.547	18720.75
779.881	18912.16
780.215	18854.08
780.55	18888.43
780.884	18751.26
781.218	18808.21
781.552	18921.88
781.886	18894.98
782.22	18852.5
782.554	18871.03
782.888	18743.8
783.222	18719.85
783.556	18614.99
783.889	18726.85
784.223	18588.78
784.557	18613.18
784.89	18762.11
785.224	18663.58
785.557	18598.04
785.891	18603.69
786.224	18539.51
786.558	18556.01
786.891	18436.69
787.224	18420.19
787.557	18391.95
787.891	18560.08
788.224	18465.16
788.557	18549
788.89	18422.68
789.223	18440.31
789.556	18449.8
789.888	18360.99
790.221	18338.39
790.554	18231.72
790.887	18195.11
791.219	18122.8
791.552	18097.72
791.884	18044.84
792.217	18109.02
792.549	18040.54
792.882	18016.59
793.214	17898.17
793.546	17998.06
793.879	17857.72
794.211	17845.29
794.543	17821.11
794.875	17805.29
795.207	17847.33
795.539	17803.26
795.871	17775.24
796.203	17594.68
796.535	17598.75
796.867	17499.09
797.198	17477.85
797.53	17496.38
797.862	17320.11
798.193	17408.47
798.525	17360.56
798.856	17384.74
799.188	17127.12
799.519	17071.53
799.85	17037.63
800.182	17131.19
800.513	17073.79
800.844	17071.75
801.175	17077.4
801.506	17024.75
801.837	16948.59
802.168	16988.14
802.499	16835.15
802.83	16833.34
803.161	16828.82
803.491	16824.08
803.822	16792.21
804.153	16731.42
804.483	16534.14
804.814	16621.82
805.145	16458.44
805.475	16468.15
805.805	16472.67
806.136	16372.56
806.466	16449.62
806.796	16356.97
807.126	16252.34
807.457	16254.15
807.787	16238.33
808.117	16131.44
808.447	16185
808.777	16199.24
809.107	16155.39
809.436	16031.56
809.766	16041.95
810.096	16030.43
810.426	15937.1
810.755	15862.97
811.085	15940.48
811.414	15902.29
811.744	15695.29
812.073	15761.96
812.403	15761.05
812.732	15742.52
813.061	15692.81
813.39	15605.13
813.719	15540.5
814.049	15615.07
814.378	15616.43
814.707	15543.89
815.036	15538.91
815.365	15377.11
815.693	15350.67
816.022	15314.29
816.351	15393.61
816.68	15239.26
817.008	15331.69
817.337	15190
817.665	15098.02
817.994	15225.02
818.322	15175.76
818.651	15098.93
818.979	15090.79
819.307	15142.31
819.636	15041.3
819.964	14983.45
820.292	15047.4
820.62	15062.32
820.948	14947.52
821.276	15048.76
821.604	15009.44
821.932	15059.38
822.259	14978.93
822.587	14964.47
822.915	14928.76
823.243	14933.05
823.57	14927.86
823.898	14931.02
824.225	14872.72
824.553	14914.3
824.88	14914.75
825.207	15004.46
825.535	14842.43
825.862	14970.57
826.189	14801.08
826.516	14973.73
826.843	15048.53
827.17	15005.14
827.497	15061.86
827.824	15101.41
828.151	15029.55
828.478	14937.12
828.805	15004.01
829.131	14970.34
829.458	14929.66
829.785	14894.41
830.111	14928.53
830.438	14949.1
830.764	14980.51
831.09	14984.13
831.417	14829.33
831.743	14886.95
832.069	14921.3
832.395	14908.42
832.722	14961.08
833.048	14917.46
833.374	14885.6
833.7	14810.8
834.026	14846.5
834.351	14877.69
834.677	14884.24
835.003	14865.26
835.329	14852.6
835.654	14854.86
835.98	14726.28
836.306	14783
836.631	14738.03
836.956	14754.3
837.282	14730.8
837.607	14642.44
837.932	14598.37
838.258	14642.89
838.583	14627.07
838.908	14570.13
839.233	14599.5
839.558	14490.58
839.883	14425.04
840.208	14461.43
840.533	14399.96
840.858	14439.28
841.182	14468.43
841.507	14378.72
841.832	14283.35
842.156	14349.34
842.481	14281.09
842.805	14314.76
843.13	14268.44
843.454	14293.07
843.778	14117.03
844.103	14231.6
844.427	14081.78
844.751	14162.68
845.075	14026.41
845.399	14028.44
845.723	13978.5
846.047	14030.25
846.371	13886.75
846.695	13870.93
847.019	13701.9
847.343	13722.46
847.666	13562.92
847.99	13551.62
848.313	13598.17
848.637	13526.09
848.96	13463.26
849.284	13479.76
849.607	13391.85
849.931	13343.72
850.254	13235.02
850.577	13063.05
850.9	13063.05
851.223	13014.23
851.546	12986.66
851.869	12885.2
852.192	12964.29
852.515	12821.02
852.838	12813.11
853.161	12795.93
853.483	12738.54
853.806	12664.19
854.129	12591.19
854.451	12637.29
854.774	12551.87
855.096	12548.71
855.419	12530.86
855.741	12480.46
856.063	12370.64
856.385	12400.24
856.708	12360.92
857.03	12266.68
857.352	12318.21
857.674	12173.13
857.996	12152.11
858.318	12156.86
858.64	12092.9
858.961	12122.51
859.283	12087.7
859.605	11973.81
859.926	12043.86
860.248	11992.34
860.57	11878.9
860.891	11933.58
861.212	11879.57
861.534	11767.94
861.855	11737.43
862.176	11761.16
862.498	11726.13
862.819	11738.11
863.14	11741.73
863.461	11749.86
863.782	11634.38
864.103	11612.01
864.424	11634.84
864.745	11678.68
865.065	11539.47
865.386	11507.61
865.707	11490.66
866.027	11495.18
866.348	11460.6
866.668	11476.2
866.989	11433.48
867.309	11337.22
867.63	11409.53
867.95	11372.92
868.27	11343.77
868.59	11381.28
868.91	11299.25
869.23	11280.72
869.55	11227.16
869.87	11274.62
870.19	11221.96
870.51	11313.49
870.83	11257.44
871.15	11211.12
871.469	11135.41
871.789	11253.15
872.109	11166.6
872.428	11098.8
872.748	11109.88
873.067	11115.75
873.386	11080.95
873.706	11067.39
874.025	10998.92
874.344	11015.87
874.663	11073.04
874.982	11034.85
875.301	10954.63
875.62	10925.25
875.939	10895.19
876.258	10945.59
876.577	10941.29
876.896	10884.12
877.214	10832.37
877.533	10858.13
877.852	10839.6
878.17	10893.39
878.489	10780.39
878.807	10767.06
879.125	10778.36
879.444	10797.57
879.762	10697.68
880.08	10744.46
880.398	10679.83
880.716	10642.55
881.034	10586.28
881.352	10631.7
881.67	10579.04
881.988	10577.69
882.306	10576.78
882.624	10451.82
882.941	10450.91
883.259	10485.71
883.577	10429.44
883.894	10409.1
884.212	10428.09
884.529	10365.94
884.846	10389.67
885.164	10312.16
885.481	10331.59
885.798	10301.09
886.115	10234.65
886.432	10227.64
886.75	10218.83
887.067	10205.04
887.383	10179.96
887.7	10176.57
888.017	10123.69
888.334	10120.75
888.651	10096.34
888.967	10067.19
889.284	10006.4
889.6	10038.95
889.917	9909.68
890.233	9970.7
890.55	9818.39
890.866	9820.19
891.182	9873.53
891.498	9778.16
891.815	9712.85
892.131	9725.28
892.447	9737.26
892.763	9713.76
893.079	9642.12
893.395	9628.79
893.71	9648.22
894.026	9551.73
894.342	9515.57
894.657	9534.1
894.973	9480.54
895.289	9409.13
895.604	9442.35
895.92	9397.38
896.235	9285.29
896.55	9331.39
896.865	9290.49
897.181	9251.4
897.496	9257.72
897.811	9211.62
898.126	9164.17
898.441	9088.24
898.756	9135.47
899.071	9013.21
899.386	9010.72
899.7	8971.18
900.015	8905.19
900.33	8818.86
900.644	8887.11
900.959	8914.68
901.273	8876.49
901.588	8833.55
901.902	8737.74
902.216	8758.98
902.531	8716.27
902.845	8682.82
903.159	8605.54
903.473	8622.49
903.787	8586.78
904.101	8499.78
904.415	8510.17
904.729	8433.56
905.042	8419.33
905.356	8401.7
905.67	8408.71
905.984	8344.75
906.297	8356.73
906.611	8282.61
906.924	8210.07
907.237	8233.34
907.551	8214.13
907.864	8188.37
908.177	8174.14
908.491	8062.5
908.804	8058.43
909.117	8041.03
909.43	7971.2
909.743	7994.71
910.056	7948.6
910.368	7928.27
910.681	7890.75
910.994	7824.99
911.307	7804.43
911.619	7757.2
911.932	7733.24
912.244	7684.88
912.557	7717.42
912.869	7565.11
913.181	7621.83
913.494	7604.88
913.806	7486.47
914.118	7504.1
914.43	7462.74
914.742	7470.2
915.054	7371.22
915.366	7384.1
915.678	7294.16
915.99	7302.75
916.302	7253.71
916.613	7240.6
916.925	7268.4
917.236	7232.92
917.548	7176.42
917.859	7181.62
918.171	7102.75
918.482	7079.02
918.794	7010.55
919.105	7073.15
919.416	6993.38
919.727	6977.1
920.038	6933.04
920.349	6880.84
920.66	6861.4
920.971	6877.9
921.282	6823.21
921.593	6768.75
921.903	6729.43
922.214	6779.6
922.525	6742.76
922.835	6693.95
923.146	6629.32
923.456	6644.23
923.767	6628.64
924.077	6596.55
924.387	6579.38
924.697	6497.12
925.008	6497.12
925.318	6451.24
925.628	6525.82
925.938	6416.89
926.248	6378.02
926.558	6385.03
926.867	6362.88
927.177	6320.4
927.487	6299.61
927.796	6285.15
928.106	6208.99
928.416	6253.96
928.725	6217.58
929.034	6131.25
929.344	6216.22
929.653	6134.87
929.962	6105.49
930.271	6053.29
930.581	5997.92
930.89	6060.74
931.199	5965.38
931.508	5946.17
931.817	5938.49
932.125	5945.04
932.434	5952.72
932.743	5849.22
933.051	5899.17
933.36	5777.36
933.669	5719.51
933.977	5780.98
934.286	5789.34
934.594	5702.56
934.902	5706.4
935.21	5615.78
935.519	5683.81
935.827	5648.78
936.135	5617.82
936.443	5579.63
936.751	5511.38
937.059	5550.02
937.367	5502.34
937.674	5510.02
937.982	5502.57
938.29	5447.88
938.597	5449.69
938.905	5410.59
939.213	5370.59
939.52	5289.69
939.827	5348.45
940.135	5251.5
940.442	5253.31
940.749	5264.38
941.056	5283.82
941.363	5184.84
941.67	5225.74
941.977	5155.68
942.284	5100.77
942.591	5170.82
942.898	5134.67
943.205	5113.42
943.511	5085.63
943.818	5014.67
944.125	5029.59
944.431	5053.54
944.738	5005.18
945.044	4964.28
945.35	4887.89
945.657	4925.41
945.963	4880.44
946.269	4870.49
946.575	4864.84
946.881	4825.52
947.187	4824.62
947.493	4826.65
947.799	4778.97
948.105	4719.31
948.41	4718.41
948.716	4745.07
949.022	4714.11
949.327	4677.28
949.633	4623.49
949.938	4598.86
950.244	4639.31
950.549	4611.74
950.854	4530.39
951.16	4510.28
951.465	4482.26
951.77	4475.25
952.075	4482.48
952.38	4440
952.685	4458.98
952.99	4482.03
953.294	4418.08
953.599	4356.38
953.904	4362.71
954.209	4387.57
954.513	4363.39
954.818	4294.24
955.122	4304.86
955.426	4263.05
955.731	4261.47
956.035	4206.1
956.339	4214.69
956.643	4230.51
956.948	4165.43
957.252	4156.39
957.556	4191.42
957.86	4113.68
958.163	4154.81
958.467	4095.82
958.771	4095.15
959.075	4087.01
959.378	4044.3
959.682	4049.27
959.985	3996.17
960.289	3978.31
960.592	3987.8
960.896	3964.98
961.199	3964.98
961.502	3975.83
961.805	3935.38
962.108	3858.99
962.411	3908.94
962.714	3866.9
963.017	3829.62
963.32	3856.06
963.623	3803.4
963.926	3814.25
964.228	3772.44
964.531	3772.9
964.833	3784.19
965.136	3720.92
965.438	3717.98
965.741	3710.75
966.043	3728.38
966.345	3678.43
966.648	3676.85
966.95	3651.99
967.252	3601.37
967.554	3623.97
967.856	3565.89
968.158	3546.91
968.46	3533.81
968.761	3517.99
969.063	3517.76
969.365	3515.73
969.666	3514.6
969.968	3474.82
970.269	3464.2
970.571	3458.55
970.872	3450.42
971.174	3400.48
971.475	3376.97
971.776	3350.99
972.077	3365.22
972.378	3328.61
972.679	3364.32
972.98	3307.82
973.281	3311.21
973.582	3293.13
973.883	3301.95
974.183	3256.98
974.484	3267.15
974.785	3224.66
975.085	3236.41
975.386	3240.25
975.686	3204.32
975.986	3204.55
976.287	3215.17
976.587	3145.79
976.887	3147.6
977.187	3135.85
977.487	3110.99
977.787	3093.36
978.087	3075.96
978.387	3089.75
978.687	3062.18
978.987	3055.4
979.286	3059.24
979.586	3044.55
979.885	3024.44
980.185	3017.21
980.484	3018.34
980.784	2979.47
981.083	2957.1
981.382	2951.9
981.682	2974.27
981.981	2931.79
982.28	2912.58
982.579	2861.28
982.878	2882.07
983.177	2887.95
983.475	2860.6
983.774	2807.5
984.073	2833.94
984.372	2794.16
984.67	2806.14
984.969	2786.03
985.267	2788.74
985.566	2772.24
985.864	2743.32
986.162	2705.58
986.461	2747.84
986.759	2734.05
987.057	2718.23
987.355	2680.49
987.653	2710.1
987.951	2661.29
988.249	2673.72
988.547	2616.54
988.844	2605.24
989.142	2593.49
989.44	2595.3
989.737	2619.03
990.035	2592.81
990.332	2570.89
990.63	2586.03
990.927	2541.52
991.224	2501.29
991.521	2513.04
991.819	2516.21
992.116	2507.17
992.413	2494.74
992.71	2453.38
993.006	2455.64
993.303	2443.21
993.6	2447.51
993.897	2455.19
994.193	2456.55
994.49	2423.1
994.787	2446.6
995.083	2354.4
995.379	2370.22
995.676	2331.58
995.972	2354.85
996.268	2337.45
996.565	2337.45
996.861	2285.7
997.157	2300.17
997.453	2298.58
997.749	2286.61
998.044	2255.65
998.34	2240.51
998.636	2237.79
998.932	2213.16
999.227	2208.87
999.523	2238.7
999.818	2193.95
1000.114	2194.41
1000.409	2184.46
1000.704	2167.97
1001	2137.46
1001.295	2138.81
1001.59	2134.75
1001.885	2146.05
1002.18	2101.98
1002.475	2094.07
1002.77	2088.87
1003.065	2049.32
1003.359	2095.43
1003.654	2061.75
1003.949	2046.16
1004.243	2025.37
1004.538	2007.07
1004.832	2000.74
1005.127	2000.06
1005.421	1976.56
1005.715	1998.25
1006.009	1953.96
1006.304	1961.42
1006.598	1939.05
1006.892	1913.28
1007.186	1906.28
1007.48	1892.49
1007.773	1881.19
1008.067	1892.27
1008.361	1856.34
1008.655	1866.05
1008.948	1845.94
1009.242	1844.36
1009.535	1814.98
1009.829	1836.9
1010.122	1828.31
1010.415	1807.98
1010.708	1803
1011.001	1797.58
1011.295	1761.65
1011.588	1770.01
1011.881	1753.06
1012.173	1730.46
1012.466	1729.79
1012.759	1725.94
1013.052	1697.24
1013.344	1693.18
1013.637	1724.81
1013.93	1713.06
1014.222	1674.65
1014.514	1652.5
1014.807	1664.7
1015.099	1650.47
1015.391	1614.31
1015.683	1606.62
1015.976	1626.28
1016.268	1610.92
1016.56	1589.45
1016.851	1617.47
1017.143	1591.48
1017.435	1565.72
1017.727	1560.07
1018.018	1549
1018.31	1544.25
1018.602	1533.18
1018.893	1500.64
1019.185	1529.11
1019.476	1480.53
1019.767	1455.44
1020.058	1477.81
1020.35	1445.5
1020.641	1459.96
1020.932	1446.4
1021.223	1415.22
1021.514	1439.4
1021.804	1435.33
1022.095	1431.71
1022.386	1397.36
1022.677	1393.75
1022.967	1381.32
1023.258	1367.53
1023.548	1379.96
1023.839	1349.46
1024.129	1338.83
1024.419	1323.02
1024.709	1330.93
1025	1325.05
1025.29	1296.35
1025.58	1308.78
1025.87	1278.5
1026.16	1302.68
1026.449	1280.76
1026.739	1259.06
1027.029	1261.55
1027.319	1274.43
1027.608	1256.13
1027.898	1263.58
1028.187	1221.55
1028.477	1240.08
1028.766	1209.57
1029.055	1220.42
1029.344	1231.95
1029.634	1167.09
1029.923	1188.56
1030.212	1175
1030.501	1184.94
1030.79	1143.59
1031.078	1145.39
1031.367	1157.82
1031.656	1140.42
1031.945	1120.54
1032.233	1138.16
1032.522	1074.89
1032.81	1093.42
1033.099	1093.87
1033.387	1103.81
1033.675	1115.56
1033.963	1069.69
1034.251	1081.89
1034.54	1078.5
1034.828	1064.72
1035.116	1088.67
1035.403	1059.29
1035.691	1032.85
1035.979	1048.22
1036.267	1003.25
1036.554	1027.43
1036.842	1010.03
1037.129	1010.03
1037.417	1011.39
1037.704	993.08
1037.992	974.1
1038.279	972.29
1038.566	998.28
1038.853	998.28
1039.14	998.28
