Data from hue_36_FLMS001491_00039.txt Node
Date: Tue Feb 07 17:29:44 GMT 2017
User: dcchb
Spectrometer: FLMS00149
Trigger mode: 0
Integration Time (sec): 2.000000E-2
Scans to average: 10
Electric dark correction enabled: true
Nonlinearity correction enabled: false
Boxcar width: 0
XAxis mode: Wavelengths
Number of Pixels in Spectrum: 2048
>>>>>Begin Spectral Data<<<<<
341.393	-4.36
341.776	-4.36
342.16	-4.36
342.543	-47.53
342.927	-44.82
343.31	-83.01
343.693	-69
344.077	-38.49
344.46	-57.7
344.843	-52.27
345.226	-63.35
345.61	-13.18
345.993	-26.96
346.376	-29.22
346.759	-5.04
347.142	36.54
347.525	47.39
347.908	55.97
348.291	87.38
348.674	94.62
349.057	116.31
349.44	115.86
349.823	142.07
350.206	168.51
350.588	204.67
350.971	198.57
351.354	240.83
351.737	246.02
352.119	252.35
352.502	273.82
352.884	276.53
353.267	287.83
353.65	305.91
354.032	316.08
354.414	314.5
354.797	315.18
355.179	315.4
355.562	332.8
355.944	329.64
356.326	337.1
356.709	335.97
357.091	339.58
357.473	342.29
357.855	335.74
358.238	342.97
358.62	346.36
359.002	337.32
359.384	330.77
359.766	338.45
360.148	340.94
360.53	338.9
360.912	336.64
361.294	330.54
361.676	345.91
362.057	337.1
362.439	329.19
362.821	336.64
363.203	327.38
363.584	334.16
363.966	318.79
364.348	340.71
364.729	331.22
365.111	331.22
365.493	328.96
365.874	320.15
366.256	322.86
366.637	317.44
367.019	322.18
367.4	314.72
367.781	307.27
368.163	316.98
368.544	321.28
368.925	326.7
369.306	323.99
369.688	318.11
370.069	302.07
370.45	301.39
370.831	300.94
371.212	303.88
371.593	317.44
371.974	316.31
372.355	300.26
372.736	331.9
373.117	302.07
373.498	350.88
373.879	304.55
374.26	314.27
374.641	323.31
375.021	309.75
375.402	322.86
375.783	333.93
376.163	315.63
376.544	329.64
376.925	341.39
377.305	310.88
377.686	327.83
378.066	342.97
378.447	335.97
378.827	350.65
379.208	326.7
379.588	314.95
379.968	345.01
380.349	335.74
380.729	344.78
381.109	340.71
381.489	354.5
381.87	355.63
382.25	345.46
382.63	327.6
383.01	336.64
383.39	328.28
383.77	344.33
384.15	349.98
384.53	337.55
384.91	366.47
385.29	343.2
385.67	360.82
386.049	360.15
386.429	354.95
386.809	362.18
387.189	343.2
387.568	345.23
387.948	341.84
388.328	358.11
388.707	359.24
389.087	358.79
389.466	353.59
389.846	359.47
390.225	358.79
390.605	359.47
390.984	371.22
391.363	356.98
391.743	375.96
392.122	399.47
392.501	360.82
392.881	348.17
393.26	373.25
393.639	365.12
394.018	384.33
394.397	376.42
394.776	366.47
395.155	389.07
395.534	380.71
395.913	388.85
396.292	376.87
396.671	384.55
397.05	369.19
397.429	384.78
397.808	380.03
398.186	379.81
398.565	386.81
398.944	364.21
399.323	401.73
399.701	380.48
400.08	387.49
400.458	386.13
400.837	400.14
401.215	391.56
401.594	400.37
401.972	378.45
402.351	397.21
402.729	402.63
403.107	413.48
403.486	406.02
403.864	374.38
404.242	388.39
404.62	406.7
404.999	419.58
405.377	404.66
405.755	444.44
406.133	407.6
406.511	428.62
406.889	425
407.267	413.93
407.645	419.13
408.023	417.09
408.401	414.16
408.779	426.36
409.156	431.78
409.534	424.78
409.912	428.62
410.29	444.66
410.667	447.15
411.045	436.08
411.422	438.11
411.8	455.74
412.178	449.86
412.555	468.39
412.933	437.21
413.31	454.15
413.687	468.62
414.065	455.28
414.442	451.22
414.819	452.35
415.197	483.08
415.574	483.98
415.951	470.43
416.328	492.8
416.705	482.85
417.082	473.59
417.46	481.95
417.837	500.03
418.214	465
418.591	472.46
418.967	495.51
419.344	497.77
419.721	491.44
420.098	489.86
420.475	511.78
420.852	480.37
421.228	517.88
421.605	529.41
421.982	509.52
422.358	490.76
422.735	502.74
423.111	526.02
423.488	511.33
423.864	514.49
424.241	529.63
424.617	515.4
424.994	504.1
425.37	509.29
425.746	543.19
426.123	543.64
426.499	539.58
426.875	537.32
427.251	561.27
427.627	542.97
428.003	551.78
428.379	540.25
428.756	557.65
429.132	567.37
429.507	576.64
429.883	582.51
430.259	570.99
430.635	587.48
431.011	572.57
431.387	598.56
431.763	621.61
432.138	599.24
432.514	620.48
432.89	625
433.265	620.03
433.641	615.96
434.016	616.64
434.392	620.7
434.767	618.67
435.143	630.42
435.518	648.05
435.894	650.53
436.269	663.41
436.644	663.64
437.02	668.61
437.395	647.37
437.77	670.87
438.145	690.53
438.52	664.32
438.895	672
439.271	682.4
439.646	682.85
440.021	690.31
440.395	713.13
440.77	718.33
441.145	698.44
441.52	700.02
441.895	715.39
442.27	743.64
442.645	729.18
443.019	731.21
443.394	718.78
443.769	705.22
444.143	736.86
444.518	737.09
444.892	728.72
445.267	759.68
445.641	740.47
446.016	740.25
446.39	757.65
446.764	755.39
447.139	762.17
447.513	747.93
447.887	755.16
448.262	794.26
448.636	784.09
449.01	772.56
449.384	780.47
449.758	794.94
450.132	805.11
450.506	799.91
450.88	822.28
451.254	784.99
451.628	824.31
452.002	828.38
452.376	821.38
452.75	831.32
453.123	848.27
453.497	862.05
453.871	855.27
454.244	870.64
454.618	884.65
454.992	874.48
455.365	876.52
455.739	888.72
456.112	890.53
456.486	903.41
456.859	919.68
457.232	899.11
457.606	918.55
457.979	923.75
458.352	936.85
458.725	947.25
459.099	975.95
459.472	960.13
459.845	999.68
460.218	997.19
460.591	1010.75
460.964	1011.65
461.337	1020.47
461.71	1027.7
462.083	1039.9
462.456	1062.27
462.829	1057.53
463.201	1103.86
463.574	1074.25
463.947	1097.3
464.32	1149.96
464.692	1115.61
465.065	1158.99
465.438	1156.06
465.81	1137.3
466.183	1156.51
466.555	1171.2
466.928	1248.03
467.3	1234.02
467.672	1245.32
468.045	1258.2
468.417	1289.84
468.789	1288.48
469.161	1300.46
469.534	1337.52
469.906	1373.23
470.278	1380.46
470.65	1396.73
471.022	1416.39
471.394	1416.62
471.766	1469.95
472.138	1467.91
472.51	1512.21
472.882	1510.62
473.253	1573.45
473.625	1610.06
473.997	1618.42
474.369	1645.31
474.74	1689.15
475.112	1699.32
475.484	1765.08
475.855	1838.07
476.227	1834.68
476.598	1867.68
476.97	1927.79
477.341	1995.58
477.713	2008.69
478.084	2076.48
478.455	2140.44
478.827	2142.25
479.198	2230.15
479.569	2264.28
479.94	2357.38
480.311	2366.87
480.682	2413.2
481.053	2536.36
481.424	2587.66
481.795	2631.5
482.166	2719.63
482.537	2767.77
482.908	2835.56
483.279	2910.14
483.65	2971.15
484.021	3123.24
484.391	3129.11
484.762	3200.3
485.133	3314.42
485.503	3366.62
485.874	3476.45
486.244	3595.32
486.615	3611.81
486.985	3727.51
487.356	3802.77
487.726	3845.25
488.097	4010.67
488.467	4065.13
488.837	4189.88
489.207	4332.92
489.578	4379.7
489.948	4447.72
490.318	4540.6
490.688	4665.8
491.058	4773.36
491.428	4868.73
491.798	4964.32
492.168	5095.61
492.538	5157.99
492.908	5233.69
493.278	5384.19
493.648	5411.09
494.017	5570.86
494.387	5663.74
494.757	5779.44
495.126	5854.46
495.496	5905.76
495.866	6046.1
496.235	6102.59
496.605	6228.24
496.974	6314.11
497.344	6365.41
497.713	6438.63
498.082	6532.86
498.452	6672.52
498.821	6744.16
499.19	6763.82
499.559	6885.17
499.928	6995.68
500.298	7107.99
500.667	7184.83
501.036	7173.98
501.405	7295.33
501.774	7325.39
502.143	7380.53
502.512	7497.81
502.88	7608.77
503.249	7658.71
503.618	7715.66
503.987	7837.01
504.356	7892.15
504.724	7935.31
505.093	8039.49
505.462	8069.1
505.83	8175.31
506.199	8260.96
506.567	8358.81
506.936	8373.49
507.304	8528.52
507.672	8648.52
508.041	8610.55
508.409	8672.47
508.777	8789.3
509.145	8876.76
509.514	8930.54
509.882	8990.43
510.25	9058.67
510.618	9129.63
510.986	9181.61
511.354	9239.69
511.722	9294.15
512.09	9371.89
512.458	9311.55
512.826	9498.89
513.193	9534.59
513.561	9577.3
513.929	9639
514.297	9726.23
514.664	9801.71
515.032	9900.46
515.4	9988.82
515.767	9958.99
516.135	10096.61
516.502	10016.16
516.869	10219.1
517.237	10254.12
517.604	10158.31
517.972	10354.91
518.339	10402.59
518.706	10448.69
519.073	10479.65
519.44	10552.65
519.808	10668.58
520.175	10645.98
520.542	10793.32
520.909	10808.68
521.276	10895.91
521.643	10908.57
522.009	10964.61
522.376	11117.38
522.743	11170.48
523.11	11287.54
523.477	11407.09
523.843	11414.32
524.21	11477.59
524.577	11545.61
524.943	11689.79
525.31	11703.35
525.676	11760.3
526.043	11776.12
526.409	11938.82
526.776	12038.71
527.142	12195.31
527.508	12136.11
527.874	12224.01
528.241	12231.02
528.607	12274.63
528.973	12463.33
529.339	12471.92
529.705	12546.94
530.071	12638.69
530.437	12610.22
530.803	12801.17
531.169	12859.03
531.535	12842.98
531.901	12918.69
532.267	12980.15
532.632	13133.82
532.998	13160.94
533.364	13237.77
533.73	13239.36
534.095	13342.86
534.461	13435.06
534.826	13517.77
535.192	13493.59
535.557	13515.28
535.923	13580.59
536.288	13722.05
536.653	13729.96
537.019	13764.31
537.384	13789.85
537.749	13856.97
538.114	14021.26
538.479	13896.97
538.845	13980.35
539.21	13957.3
539.575	14113.46
539.94	14167.69
540.305	14256.28
540.67	14236.62
541.034	14373.34
541.399	14349.38
541.764	14379.89
542.129	14451.3
542.494	14538.98
542.858	14588.92
543.223	14649.71
543.587	14665.53
543.952	14663.5
544.316	14713.44
544.681	14827.56
545.045	14885.19
545.41	14988.01
545.774	15046.77
546.138	15068.23
546.503	15101.45
546.867	15138.51
547.231	15239.08
547.595	15294.44
547.959	15335.8
548.324	15226.42
548.688	15355.68
549.052	15522.23
549.416	15528.56
549.779	15536.24
550.143	15584.38
550.507	15740.76
550.871	15727.2
551.235	15729.69
551.599	15802.45
551.962	15903.69
552.326	15987.76
552.689	15976.68
553.053	15875.9
553.417	15996.57
553.78	16193.4
554.143	16226.4
554.507	16313.17
554.87	16408.54
555.234	16523.79
555.597	16387.75
555.96	16518.14
556.323	16601.07
556.686	16534.86
557.05	16615.76
557.413	16694.41
557.776	16803.78
558.139	16902.76
558.502	16855.31
558.865	16918.58
559.228	17119.71
559.59	17083.55
559.953	17123.77
560.316	17300.72
560.679	17318.57
561.041	17422.97
561.404	17493.48
561.767	17610.99
562.129	17515.63
562.492	17701.38
562.854	17705.68
563.217	17733.25
563.579	17771.67
563.941	17912.9
564.304	17962.39
564.666	18041.26
565.028	18093.01
565.39	18133.46
565.753	18280.58
566.115	18320.8
566.477	18419.78
566.839	18417.98
567.201	18612.32
567.563	18527.35
567.925	18714.47
568.287	18716.05
568.648	18742.49
569.01	18870.85
569.372	18937.51
569.734	18924.63
570.095	19015.47
570.457	19131.63
570.819	19214.57
571.18	19292.76
571.542	19367.33
571.903	19464.5
572.265	19581.34
572.626	19595.12
572.987	19571.62
573.349	19756.92
573.71	19823.36
574.071	19942.46
574.432	19935.9
574.794	20306.29
575.155	20241.21
575.516	20187.87
575.877	20413.4
576.238	20547.41
576.599	20603.23
576.96	20746.5
577.32	20796.22
577.681	20925.48
578.042	21060.17
578.403	21103.78
578.763	21270.1
579.124	21424.68
579.485	21568.85
579.845	21668.06
580.206	21736.98
580.566	22019.24
580.927	22117.77
581.287	22270.76
581.648	22382.62
582.008	22789.61
582.368	22669.16
582.728	22873.68
583.089	22942.15
583.449	23258.3
583.809	23399.09
584.169	23692.19
584.529	23739.87
584.889	24103.7
585.249	24125.62
585.609	24221.67
585.969	24470.7
586.329	24612.39
586.688	24938.71
587.048	25084.69
587.408	25234.97
587.768	25403.78
588.127	25621.85
588.487	25899.14
588.846	26163.76
589.206	26213.03
589.565	26560.59
589.925	26883.06
590.284	27003.29
590.643	27317.4
591.003	27551.07
591.362	27824.96
591.721	27912.64
592.08	28074.9
592.44	28434.21
592.799	28649.12
593.158	28776.12
593.517	29010.69
593.876	29260.18
594.235	29379.5
594.593	29560.06
594.952	29939.71
595.311	29982.64
595.67	30364.33
596.029	30746.47
596.387	30939.45
596.746	31203.4
597.104	31143.52
597.463	31266.23
597.822	31645.42
598.18	31738.08
598.538	32075.7
598.897	32243.15
599.255	32206.09
599.613	32867.31
599.972	32944.15
600.33	33160.64
600.688	33167.64
601.046	33399.05
601.404	33623.68
601.762	33717.91
602.12	34126.94
602.478	34274.51
602.836	34370.78
603.194	34368.52
603.552	34705.23
603.91	34686.47
604.268	34890.31
604.625	34978.22
604.983	35312.67
605.341	35371.2
605.698	35518.09
606.056	35748.82
606.413	35827.69
606.771	36068.81
607.128	36147.45
607.485	36141.13
607.843	36391.74
608.2	36756.48
608.557	36943.36
608.914	36784.27
609.272	37098.39
609.629	37184.26
609.986	37390.36
610.343	37386.07
610.7	37775.43
611.057	37819.73
611.414	37792.83
611.771	37989.21
612.127	38299.26
612.484	38326.15
612.841	38411.8
613.198	38560.72
613.554	38775.18
613.911	38830.55
614.267	38958.91
614.624	38995.74
614.98	39000.49
615.337	39282.74
615.693	39351.89
616.05	39227.15
616.406	39654.48
616.762	39632.11
617.118	39747.36
617.475	39741.26
617.831	39941.48
618.187	40100.8
618.543	40249.27
618.899	40351.41
619.255	40210.4
619.611	40337.85
619.967	40599.09
620.323	40603.61
620.678	40615.36
621.034	40576.72
621.39	40717.73
621.746	40632.31
622.101	41105.74
622.457	40917.27
622.812	40999.53
623.168	41074.33
623.523	41159.53
623.879	41319.75
624.234	41233.87
624.589	41410.82
624.945	41442
625.3	41460.99
625.655	41554.77
626.01	41559.06
626.365	41559.97
626.72	41490.36
627.075	41585.95
627.43	41592.51
627.785	41620.08
628.14	41625.95
628.495	41873.18
628.85	41777.59
629.205	41545.73
629.559	41839.96
629.914	41693.07
630.269	41858.49
630.623	41758.61
630.978	41858.49
631.332	41871.37
631.687	42034.3
632.041	41796.8
632.396	41846.06
632.75	41793.86
633.104	41766.29
633.459	41670.92
633.813	41749.34
634.167	41661.66
634.521	41860.3
634.875	41781.66
635.229	41792.28
635.583	41653.98
635.937	41752.73
636.291	41637.25
636.645	41706.63
636.999	41580.53
637.352	41834.08
637.706	41403.59
638.06	41668.89
638.413	41726.29
638.767	41560.87
639.121	41698.49
639.474	41462.34
639.828	41537.59
640.181	41620.53
640.534	41545.5
640.888	41346.86
641.241	41322.01
641.594	41279.97
641.947	41533.07
642.301	41436.13
642.654	41507.76
643.007	41526.52
643.36	41385.73
643.713	41254.44
644.066	41453.3
644.419	41159.75
644.771	41037.49
645.124	40583.95
645.477	40701.01
645.83	40365.65
646.182	40286.55
646.535	40211.3
646.888	40163.62
647.24	40003.4
647.593	40267.12
647.945	40194.35
648.298	39967.24
648.65	40050.4
649.002	39868.03
649.355	40108.93
649.707	40107.35
650.059	40239.1
650.411	40591.86
650.763	40583.95
651.115	41029.59
651.467	40907.1
651.819	41066.42
652.171	40694.45
652.523	40756.82
652.875	40689.71
653.227	40661.46
653.578	40893.09
653.93	40771.29
654.282	40634.57
654.633	40416.04
654.985	40606.55
655.337	40623.27
655.688	40688.58
656.039	40693.55
656.391	40278.87
656.742	40534.91
657.094	40602.48
657.445	40588.69
657.796	40467.57
658.147	40581.24
658.498	40534.68
658.849	40515.47
659.2	40572.2
659.551	40337.63
659.902	40577.62
660.253	40459.2
660.604	40568.58
660.955	40412.88
661.306	40515.7
661.656	40296.04
662.007	40342.6
662.358	40400
662.708	40376.04
663.059	40307.12
663.409	40216.73
663.76	40468.7
664.11	40294.92
664.461	40397.51
664.811	40435.7
665.161	40299.21
665.511	40362.26
665.862	40278.19
666.212	40266.67
666.562	40320.68
666.912	40404.74
667.262	40256.5
667.612	40263.5
667.962	40355.93
668.312	40245.2
668.662	40482.25
669.011	40197.29
669.361	40232.09
669.711	40191.64
670.06	40144.86
670.41	40091.98
670.76	40020.35
671.109	40361.58
671.459	40126.33
671.808	40015.15
672.157	40168.82
672.507	39822.61
672.856	39878.43
673.205	40037.29
673.554	40122.04
673.904	40023.28
674.253	40299.43
674.602	39926.11
674.951	39596.85
675.3	39436.41
675.649	39944.64
675.998	39917.98
676.346	39981.7
676.695	40073.9
677.044	39659.45
677.393	39949.16
677.741	39839.79
678.09	39808.6
678.438	39688.83
678.787	39731.54
679.135	39804.98
679.484	39566.57
679.832	39729.73
680.181	39409.51
680.529	39672.78
680.877	39411.77
681.225	39445.45
681.573	39523.64
681.922	39268.05
682.27	39251.55
682.618	39245.68
682.966	39190.99
683.314	39166.81
683.661	39107.38
684.009	38900.38
684.357	38818.8
684.705	38775.86
685.053	38923.65
685.4	38699.93
685.748	38620.83
686.095	38606.37
686.443	38596.2
686.79	38580.16
687.138	38552.81
687.485	38393.5
687.832	38414.29
688.18	38346.49
688.527	38202.54
688.874	38129.77
689.221	38100.62
689.568	38126.84
689.915	38061.75
690.262	37960.06
690.609	37921.42
690.956	37779.05
691.303	37649.11
691.65	37418.61
691.997	37500.41
692.344	37303.58
692.69	37370.47
693.037	37355.33
693.383	36955.79
693.73	37084.15
694.077	36880.99
694.423	36842.8
694.769	36742.24
695.116	36829.47
695.462	36723.94
695.808	36631.96
696.155	36685.74
696.501	36297.05
696.847	36274.23
697.193	36051.64
697.539	36196.27
697.885	35975.48
698.231	35912.43
698.577	35933.67
698.923	35909.95
699.269	35633.57
699.614	35561.25
699.96	35528.26
700.306	35405.78
700.651	35324.2
700.997	35205.11
701.342	35144.09
701.688	35155.84
702.033	35041.27
702.379	35013.92
702.724	34935.96
703.069	34922.85
703.415	34578.46
703.76	34660.26
704.105	34715.63
704.45	34586.36
704.795	34346.14
705.14	34383.21
705.485	34267.95
705.83	33985.48
706.175	34100.28
706.52	34043.33
706.865	33949.77
707.209	33935.76
707.554	33753.39
707.899	33787.52
708.243	33625.94
708.588	33633.85
708.932	33427.3
709.277	33478.6
709.621	33414.42
709.966	33179.62
710.31	33283.8
710.654	32984.37
710.998	33040.19
711.342	32991.6
711.687	32820.54
712.031	32803.36
712.375	32676.13
712.719	32734.21
713.063	32653.31
713.407	32706.41
713.75	32616.47
714.094	32580.32
714.438	32363.37
714.782	32432.97
715.125	32188.24
715.469	32407.21
715.812	32171.06
716.156	32017.84
716.499	32025.75
716.843	32014.45
717.186	31762.03
717.53	31933.1
717.873	31957.51
718.216	31786.44
718.559	31609.27
718.902	31467.35
719.246	31560
719.589	31529.5
719.932	31459.44
720.275	31350.97
720.617	31227.13
720.96	31105.55
721.303	31240.01
721.646	31250.86
721.989	31035.95
722.331	31136.74
722.674	30954.37
723.016	31093.8
723.359	31071.88
723.701	31053.12
724.044	30656.3
724.386	30591.89
724.729	30785.56
725.071	30773.81
725.413	30645.9
725.755	30610.2
726.097	30428.73
726.439	30327.95
726.782	30382.41
727.124	30556.19
727.465	30294.95
727.807	30264.22
728.149	30286.14
728.491	30231.9
728.833	30361.84
729.175	30049.08
729.516	29980.61
729.858	30068.97
730.199	29981.97
730.541	29915.53
730.882	29877.79
731.224	29940.61
731.565	29698.13
731.906	29851.35
732.248	29751.46
732.589	29709.88
732.93	29515.76
733.271	29604.57
733.612	29669.43
733.953	29673.05
734.294	29522.32
734.635	29421.98
734.976	29547.63
735.317	29233.29
735.658	29332.27
735.999	29292.04
736.339	29262.89
736.68	29279.39
737.021	29213.17
737.361	29137.24
737.702	29246.39
738.042	29142.67
738.383	29034.19
738.723	29061.99
739.063	29019.73
739.404	28968.89
739.744	28984.7
740.084	28823.58
740.424	28895.67
740.764	28666.29
741.104	28771.38
741.444	28641.44
741.784	28566.86
742.124	28595.11
742.464	28586.07
742.804	28624.49
743.143	28405.28
743.483	28466.75
743.823	28309.02
744.162	28288
744.502	28326.19
744.841	28265.85
745.181	28323.25
745.52	28104.5
745.86	28318.73
746.199	28205.29
746.538	28140.66
746.877	28236.7
747.216	28179.08
747.556	28022.7
747.895	28130.72
748.234	27996.71
748.573	27839.88
748.911	27760.78
749.25	27850.04
749.589	27704.96
749.928	27762.59
750.267	27770.72
750.605	27677.39
750.944	27491.18
751.283	27465.87
751.621	27612.99
751.96	27439.21
752.298	27309.27
752.636	27415.71
752.975	27286.67
753.313	27169.38
753.651	27236.73
753.989	27129.61
754.327	27062.49
754.666	26957.41
755.004	26982.27
755.342	26933.23
755.679	26984.3
756.017	26728.04
756.355	26851.43
756.693	26771.43
757.031	26729.4
757.368	26545.67
757.706	26689.17
758.044	26497.76
758.381	26507.93
758.719	26418.9
759.056	26311.78
759.394	26287.6
759.731	26224.55
760.068	26210.54
760.405	26034.27
760.743	25951.56
761.08	25985.69
761.417	25850.78
761.754	25860.72
762.091	25782.3
762.428	25615.53
762.765	25535.53
763.102	25474.29
763.438	25513.16
763.775	25232.71
764.112	25324.91
764.449	25326.27
764.785	25200.4
765.122	25034.3
765.458	24973.51
765.795	24904.36
766.131	24951.14
766.467	24689.22
766.804	24700.97
767.14	24622.11
767.476	24704.36
767.812	24517.02
768.148	24562.9
768.485	24257.14
768.821	24247.43
769.157	24259.63
769.492	24169.24
769.828	24132.4
770.164	23877.04
770.5	23837.27
770.836	23763.15
771.171	23690.15
771.507	23672.3
771.842	23471.63
772.178	23497.84
772.513	23351.63
772.849	23288.58
773.184	23072.32
773.519	23198.87
773.855	23022.6
774.19	22915.03
774.525	22991.42
774.86	22794.13
775.195	22854.02
775.53	22658.77
775.865	22588.04
776.2	22437.98
776.535	22319.34
776.87	22351.21
777.205	22376.06
777.539	22160.93
777.874	22207.48
778.209	22035.51
778.543	21915.51
778.878	21861.95
779.212	21827.15
779.547	21736.98
779.881	21708.96
780.215	21575.41
780.55	21645.69
780.884	21370.67
781.218	21366.37
781.552	21386.49
781.886	21239.14
782.22	21177.9
782.554	21039.38
782.888	20774.98
783.222	20819.72
783.556	20760.74
783.889	20616.79
784.223	20553.97
784.557	20528.2
784.89	20486.85
785.224	20484.36
785.557	20286.18
785.891	20290.92
786.224	20170.92
786.558	20273.75
786.891	19999.4
787.224	19883.93
787.557	19910.37
787.891	19827.2
788.224	19871.72
788.557	19810.71
788.89	19683.25
789.223	19682.58
789.556	19474.67
789.888	19552.41
790.221	19408.68
790.554	19373.21
790.887	19237.62
791.219	19233.32
791.552	19132.08
791.884	19095.7
792.217	18918.08
792.549	18893.9
792.882	18838.53
793.214	18754.01
793.546	18759.44
793.879	18580.46
794.211	18599.21
794.543	18563.96
794.875	18544.07
795.207	18596.5
795.539	18417.07
795.871	18286.68
796.203	18164.65
796.535	18175.5
796.867	18114.03
797.198	18124.42
797.53	18042.39
797.862	17981.15
798.193	17917.42
798.525	17744.55
798.856	17816.64
799.188	17663.19
799.519	17669.75
799.85	17506.81
800.182	17555.17
800.513	17542.52
800.844	17338.91
801.175	17482.41
801.506	17356.08
801.837	17295.07
802.168	17230.44
802.499	17291.23
802.83	17151.57
803.161	17077.67
803.491	17015.75
803.822	17085.81
804.153	16966.71
804.483	16776.44
804.814	16781.18
805.145	16832.03
805.475	16615.09
805.805	16514.75
806.136	16710.45
806.466	16593.17
806.796	16519.5
807.126	16453.06
807.457	16393.17
807.787	16420.06
808.117	16296.22
808.447	16282.44
808.777	16298.94
809.107	16184.81
809.436	16126.74
809.766	16139.39
810.096	16009.68
810.426	15971.03
810.755	15976.68
811.085	15924.26
811.414	15898.49
811.744	15776.46
812.073	15731.04
812.403	15744.15
812.732	15634.32
813.061	15685.62
813.39	15599.97
813.719	15592.51
814.049	15683.36
814.378	15536.92
814.707	15536.47
815.036	15505.51
815.365	15349.13
815.693	15330.15
816.022	15296.7
816.351	15255.35
816.68	15157.72
817.008	15255.12
817.337	15123.83
817.665	15008.57
817.994	15106.88
818.322	15150.27
818.651	15034.79
818.979	14919.31
819.307	14965.19
819.636	14933.1
819.964	14924.51
820.292	14891.06
820.62	14870.05
820.948	14825.53
821.276	14824.4
821.604	14724.29
821.932	14841.12
822.259	14822.36
822.587	14753.67
822.915	14753.67
823.243	14731.75
823.57	14703.5
823.898	14758.19
824.225	14751.63
824.553	14583.5
824.88	14677.06
825.207	14675.25
825.535	14675.48
825.862	14678.41
826.189	14648.58
826.516	14701.69
826.843	14732.65
827.17	14753.21
827.497	14743.5
827.824	14703.95
828.151	14740.33
828.478	14683.61
828.805	14714.8
829.131	14640.67
829.458	14745.98
829.785	14602.03
830.111	14573.33
830.438	14589.6
830.764	14719.09
831.09	14668.47
831.417	14547.8
831.743	14659.2
832.069	14586.89
832.395	14560
832.722	14651.52
833.048	14509.38
833.374	14457.85
833.7	14475.03
834.026	14530.17
834.351	14488.36
834.677	14515.03
835.003	14544.86
835.329	14538.98
835.654	14503.73
835.98	14398.65
836.306	14404.75
836.631	14347.57
836.956	14464.86
837.282	14377.4
837.607	14345.31
837.932	14333.56
838.258	14203.62
838.583	14310.74
838.908	14218.54
839.233	14280.46
839.558	14219.67
839.883	14095.38
840.208	14061.71
840.533	14061.93
840.858	14064.42
841.182	14149.16
841.507	14075.72
841.832	13898.1
842.156	14012.89
842.481	13948.94
842.805	13831.43
843.13	13878.66
843.454	13820.58
843.778	13837.53
844.103	13849.28
844.427	13703.75
844.751	13717.08
845.075	13683.86
845.399	13609.74
845.723	13566.35
846.047	13635.5
846.371	13547.14
846.695	13531.55
847.019	13366.13
847.343	13294.95
847.666	13214.95
847.99	13259.47
848.313	13241.39
848.637	13092.69
848.96	13067.16
849.284	13008.63
849.607	13021.73
849.931	12899.25
850.254	12873.72
850.577	12772.02
850.9	12689.54
851.223	12652.7
851.546	12627.17
851.869	12558.02
852.192	12583.1
852.515	12408.64
852.838	12503.33
853.161	12350.34
853.483	12390.34
853.806	12368.87
854.129	12262.21
854.451	12213.39
854.774	12164.36
855.096	12201.19
855.419	12032.38
855.741	12048.65
856.063	11976.79
856.385	12068.76
856.708	11906.96
857.03	11880.07
857.352	11906.28
857.674	11871.48
857.996	11778.6
858.318	11700.86
858.64	11686.18
858.961	11718.94
859.283	11681.43
859.605	11604.37
859.926	11569.34
860.248	11593.3
860.57	11520.76
860.891	11576.8
861.212	11458.16
861.534	11423.58
861.855	11349.91
862.176	11394.43
862.498	11377.03
862.819	11411.61
863.14	11352.63
863.461	11346.3
863.782	11266.75
864.103	11316.69
864.424	11287.09
864.745	11229.69
865.065	11227.88
865.386	11168.68
865.707	11101.11
866.027	11142.24
866.348	11131.84
866.668	11144.04
866.989	11083.48
867.309	11027.89
867.63	11059.53
867.95	11045.29
868.27	10994.44
868.59	11027.44
868.91	10970.94
869.23	10901.79
869.55	10816.82
869.87	10958.51
870.19	10956.25
870.51	10961
870.83	11009.13
871.15	10848.68
871.469	10825.86
871.789	10902.24
872.109	10809.81
872.428	10733.21
872.748	10697.28
873.067	10753.77
873.386	10734.79
873.706	10771.62
874.025	10617.05
874.344	10702.47
874.663	10676.71
874.982	10667.45
875.301	10676.71
875.62	10618.86
875.939	10573.89
876.258	10554.23
876.577	10478.3
876.896	10604.62
877.214	10561.23
877.533	10539.77
877.852	10506.32
878.17	10411.86
878.489	10513.1
878.807	10401.24
879.125	10400.11
879.444	10386.1
879.762	10393.55
880.08	10334.57
880.398	10324.4
880.716	10328.47
881.034	10292.31
881.352	10323.95
881.67	10272.65
881.988	10248.02
882.306	10224.75
882.624	10196.27
882.941	10105.43
883.259	10147.01
883.577	10061.59
883.894	10095.94
884.212	10019.78
884.529	10088.25
884.846	9996.73
885.164	10032.43
885.481	9914.24
885.798	10072.21
886.115	9866.79
886.432	9858.65
886.75	9852.33
887.067	9912.44
887.383	9902.27
887.7	9852.33
888.017	9737.3
888.334	9805.77
888.651	9671.31
888.967	9758.32
889.284	9747.24
889.6	9682.39
889.917	9518.55
890.233	9669.28
890.55	9543.18
890.866	9564.42
891.182	9598.55
891.498	9504.31
891.815	9397.42
892.131	9460.02
892.447	9427.93
892.763	9391.32
893.079	9406.01
893.395	9310.42
893.71	9253.7
894.026	9281.49
894.342	9260.48
894.657	9213.7
894.973	9159.69
895.289	9251.44
895.604	9138.45
895.92	9112.23
896.235	9091.44
896.55	9081.5
896.865	9012.8
897.181	8995.63
897.496	8994.04
897.811	8892.58
898.126	8853.26
898.441	8857.1
898.756	8874.5
899.071	8769.19
899.386	8826.36
899.7	8749.3
900.015	8712.24
900.33	8566.94
900.644	8590.66
900.959	8601.51
901.273	8645.35
901.588	8504.34
901.902	8461.4
902.216	8521.74
902.531	8397.67
902.845	8434.06
903.159	8406.94
903.473	8326.04
903.787	8333.27
904.101	8293.5
904.415	8309.99
904.729	8220.73
905.042	8212.14
905.356	8211.69
905.67	8167.4
905.984	8166.49
906.297	8131.69
906.611	8084.69
906.924	8028.19
907.237	7968.99
907.551	7990.23
907.864	7916.11
908.177	7929.44
908.491	7914.75
908.804	7862.77
909.117	7863.45
909.43	7799.05
909.743	7731.03
910.056	7726.73
910.368	7689.9
910.681	7663.91
910.994	7644.02
911.307	7552.5
911.619	7511.14
911.932	7546.85
912.244	7470.24
912.557	7420.75
912.869	7412.16
913.181	7413.07
913.494	7394.99
913.806	7331.26
914.118	7313.18
914.43	7210.59
914.742	7235.45
915.054	7255.11
915.366	7165.84
915.678	7183.02
915.99	7108.44
916.302	7107.09
916.613	7096.01
916.925	7036.81
917.236	7025.51
917.548	6928.79
917.859	6978.73
918.171	6923.59
918.482	6909.13
918.794	6868.45
919.105	6854.44
919.416	6774.89
919.727	6796.13
920.038	6801.33
920.349	6709.36
920.66	6692.18
920.971	6679.53
921.282	6685.4
921.593	6595.91
921.903	6577.16
922.214	6563.37
922.525	6486.99
922.835	6515.24
923.146	6415.58
923.456	6447.9
923.767	6419.42
924.077	6402.25
924.387	6329.71
924.697	6368.35
925.008	6337.62
925.318	6265.75
925.628	6263.72
925.938	6220.78
926.248	6198.18
926.558	6139.88
926.867	6170.84
927.177	6107.34
927.487	6141.24
927.796	6062.82
928.106	6030.96
928.416	6065.76
928.725	5999.09
929.034	6012.43
929.344	5946.89
929.653	5921.58
929.962	5917.06
930.271	5858.53
930.581	5849.27
930.89	5815.14
931.199	5761.81
931.508	5771.08
931.817	5770.17
932.125	5807.91
932.434	5667.35
932.743	5670.97
933.051	5678.2
933.36	5600.69
933.669	5629.39
933.977	5582.61
934.286	5578.99
934.594	5567.24
934.902	5509.39
935.21	5485.89
935.519	5456.51
935.827	5423.97
936.135	5471.88
936.443	5358.21
936.751	5322.28
937.059	5401.6
937.367	5299.23
937.674	5336.96
937.982	5296.97
938.29	5249.06
938.597	5257.42
938.905	5221.49
939.213	5206.35
939.52	5191.88
939.827	5122.05
940.135	5118.21
940.442	5060.14
940.749	5078.44
941.056	5081.38
941.363	5030.53
941.67	5028.5
941.977	4957.09
942.284	4911.44
942.591	4938.56
942.898	4901.5
943.205	4939.23
943.511	4871.21
943.818	4857.43
944.125	4831.21
944.431	4823.98
944.738	4843.42
945.044	4749.18
945.35	4767.71
945.657	4762.29
945.963	4736.75
946.269	4671.9
946.575	4653.37
946.881	4670.54
947.187	4640.03
947.493	4617.89
947.799	4562.75
948.105	4546.02
948.41	4560.94
948.716	4536.76
949.022	4510.77
949.327	4471.22
949.633	4454.95
949.938	4442.98
950.244	4490.21
950.549	4417.21
950.854	4392.13
951.16	4397.78
951.465	4355.07
951.77	4334.05
952.075	4368.4
952.38	4315.07
952.685	4294.73
952.99	4237.56
953.294	4257.9
953.599	4212.93
953.904	4226.03
954.209	4224.68
954.513	4184.9
954.818	4182.42
955.122	4133.61
955.426	4113.95
955.731	4085.25
956.035	4118.01
956.339	4085.7
956.643	4055.87
956.948	4063.1
957.252	4035.76
957.556	3992.37
957.86	3999.15
958.163	3997.34
958.467	3945.36
958.771	3927.96
959.075	3900.17
959.378	3896.78
959.682	3900.17
959.985	3900.62
960.289	3874.18
960.592	3825.59
960.896	3831.02
961.199	3821.75
961.502	3800.73
961.805	3749.66
962.108	3773.84
962.411	3767.06
962.714	3749.66
963.017	3654.3
963.32	3710.11
963.623	3633.05
963.926	3647.97
964.228	3629.89
964.531	3650.68
964.833	3644.58
965.136	3628.76
965.438	3589.21
965.741	3564.13
966.043	3549.44
966.345	3536.79
966.648	3518.48
966.95	3514.87
967.252	3514.41
967.554	3490.91
967.856	3466.96
968.158	3394.64
968.46	3416.79
968.761	3427.18
969.063	3413.4
969.365	3363.46
969.666	3321.2
969.968	3341.31
970.269	3312.84
970.571	3290.24
970.872	3284.14
971.174	3315.1
971.475	3298.15
971.776	3289.11
972.077	3198.04
972.378	3235.55
972.679	3231.71
972.98	3197.59
973.281	3174.08
973.582	3163.91
973.883	3157.59
974.183	3140.64
974.484	3154.2
974.785	3172.73
975.085	3105.84
975.386	3112.16
975.686	3079.4
975.986	3077.81
976.287	3043.24
976.587	3027.42
976.887	3025.84
977.187	3003.92
977.487	3027.87
977.787	2974.31
978.087	2996.23
978.387	2957.59
978.687	2934.99
978.987	2970.47
979.286	2906.07
979.586	2933.64
979.885	2906.07
980.185	2932.73
980.484	2904.03
980.784	2892.96
981.083	2885.05
981.382	2877.82
981.682	2826.52
981.981	2840.98
982.28	2793.3
982.579	2791.27
982.878	2764.38
983.177	2755.56
983.475	2746.52
983.774	2709.91
984.073	2702.23
984.372	2704.49
984.67	2699.97
984.969	2693.42
985.267	2698.62
985.566	2665.62
985.864	2682.8
986.162	2653.42
986.461	2629.69
986.759	2603.25
987.057	2601.22
987.355	2582.91
987.653	2586.75
987.951	2553.08
988.249	2540.43
988.547	2547.88
988.844	2551.73
989.142	2553.99
989.44	2531.16
989.737	2495.91
990.035	2506.98
990.332	2465.63
990.63	2488.9
990.927	2450.03
991.224	2437.83
991.521	2448.45
991.819	2407.55
992.116	2403.03
992.413	2394.22
992.71	2410.71
993.006	2376.59
993.303	2405.74
993.6	2364.39
993.897	2339.08
994.193	2340.43
994.49	2329.59
994.787	2338.4
995.083	2318.96
995.379	2262.02
995.676	2277.38
995.972	2229.93
996.268	2264.95
996.565	2214.56
996.861	2266.08
997.157	2217.95
997.453	2238.51
997.749	2211.62
998.044	2194.9
998.34	2183.37
998.636	2182.92
998.932	2158.52
999.227	2136.37
999.523	2129.82
999.818	2107.67
1000.114	2098.63
1000.409	2123.72
1000.704	2077.39
1001	2081.68
1001.295	2065.19
1001.59	2031.74
1001.885	2068.35
1002.18	2045.53
1002.475	2005.3
1002.77	2031.74
1003.065	1984.06
1003.359	2000.78
1003.654	1947.45
1003.949	1980.89
1004.243	1952.19
1004.538	1964.17
1004.832	1945.64
1005.127	1909.71
1005.421	1885.3
1005.715	1921.23
1006.009	1903.83
1006.304	1905.64
1006.598	1905.64
1006.892	1853.67
1007.186	1861.12
1007.48	1859.54
1007.773	1835.59
1008.067	1844.85
1008.361	1825.64
1008.655	1792.65
1008.948	1797.62
1009.242	1778.41
1009.535	1814.12
1009.829	1780.67
1010.122	1767.34
1010.415	1754.46
1010.708	1744.29
1011.001	1712.88
1011.295	1729.15
1011.588	1708.81
1011.881	1695.93
1012.173	1708.81
1012.466	1692.99
1012.759	1674.46
1013.052	1680.56
1013.344	1637.4
1013.637	1644.41
1013.93	1626.1
1014.222	1611.19
1014.514	1614.8
1014.807	1596.72
1015.099	1584.52
1015.391	1601.47
1015.683	1585.65
1015.976	1555.82
1016.268	1570.28
1016.56	1545.88
1016.851	1538.87
1017.143	1501.13
1017.435	1535.93
1017.727	1528.93
1018.018	1516.95
1018.31	1509.72
1018.602	1489.61
1018.893	1461.59
1019.185	1502.49
1019.476	1464.07
1019.767	1457.97
1020.058	1430.17
1020.35	1443.28
1020.641	1433.11
1020.932	1401.7
1021.223	1391.53
1021.514	1397.41
1021.804	1368.25
1022.095	1405.32
1022.386	1370.06
1022.677	1362.61
1022.967	1355.37
1023.258	1325.32
1023.548	1340.01
1023.839	1302.95
1024.129	1330.52
1024.419	1291.19
1024.709	1299.33
1025	1285.77
1025.29	1275.15
1025.58	1297.52
1025.87	1261.59
1026.16	1264.08
1026.449	1247.35
1026.739	1242.83
1027.029	1226.11
1027.319	1237.86
1027.608	1234.02
1027.898	1214.36
1028.187	1198.99
1028.477	1222.72
1028.766	1206
1029.055	1191.54
1029.344	1156.28
1029.634	1174.14
1029.923	1168.26
1030.212	1151.54
1030.501	1115.15
1030.79	1123.97
1031.078	1108.15
1031.367	1101.37
1031.656	1130.07
1031.945	1097.75
1032.233	1085.32
1032.522	1088.49
1032.81	1051.65
1033.099	1088.94
1033.387	1075.16
1033.675	1037.64
1033.963	1056.85
1034.251	1046.23
1034.54	1015.5
1034.828	1024.54
1035.116	1044.2
1035.403	1004.87
1035.691	1000.13
1035.979	1031.09
1036.267	1013.91
1036.554	1012.11
1036.842	961.94
1037.129	991.54
1037.417	958.1
1037.704	992.22
1037.992	982.28
1038.279	954.03
1038.566	961.49
1038.853	961.49
1039.14	961.49
