Data from hue_22_FLMS001491_00023.txt Node
Date: Tue Feb 07 17:09:52 GMT 2017
User: dcchb
Spectrometer: FLMS00149
Trigger mode: 0
Integration Time (sec): 2.000000E-2
Scans to average: 10
Electric dark correction enabled: true
Nonlinearity correction enabled: false
Boxcar width: 0
XAxis mode: Wavelengths
Number of Pixels in Spectrum: 2048
>>>>>Begin Spectral Data<<<<<
341.393	-21.13
341.776	-21.13
342.16	-21.13
342.543	-43.5
342.927	-65.87
343.31	-75.59
343.693	-58.87
344.077	-64.29
344.46	-73.78
344.843	-59.09
345.226	-8.7
345.61	-36.95
345.993	-47.8
346.376	-4.41
346.759	8.02
347.142	39.89
347.525	51.86
347.908	55.25
348.291	80.34
348.674	97.51
349.057	96.61
349.44	118.75
349.823	149.49
350.206	172.31
350.588	191.75
350.971	201.01
351.354	250.73
351.737	224.29
352.119	263.61
352.502	257.96
352.884	269.48
353.267	257.96
353.65	284.4
354.032	301.35
354.414	295.7
354.797	333.89
355.179	323.04
355.562	316.94
355.944	331.18
356.326	322.14
356.709	352.42
357.091	330.05
357.473	345.19
357.855	353.55
358.238	332.76
358.62	321.23
359.002	325.75
359.384	335.47
359.766	323.49
360.148	350.39
360.53	348.35
360.912	340.89
361.294	334.57
361.676	324.4
362.057	334.79
362.439	327.11
362.821	335.25
363.203	324.85
363.584	316.94
363.966	353.1
364.348	338.64
364.729	325.53
365.111	326.66
365.493	320.78
365.874	321.46
366.256	327.11
366.637	314.68
367.019	321.01
367.4	319.43
367.781	309.26
368.163	317.84
368.544	331.18
368.925	319.88
369.306	328.92
369.688	344.51
370.069	325.53
370.45	292.31
370.831	312.2
371.212	313.78
371.593	306.09
371.974	334.79
372.355	323.95
372.736	340.22
373.117	337.73
373.498	325.75
373.879	308.13
374.26	337.28
374.641	330.05
375.021	343.83
375.402	304.29
375.783	336.83
376.163	334.57
376.544	319.65
376.925	322.36
377.305	338.86
377.686	315.81
378.066	349.26
378.447	307.22
378.827	330.5
379.208	353.32
379.588	323.27
379.968	334.79
380.349	339.54
380.729	349.71
381.109	323.95
381.489	357.84
381.87	340.89
382.25	359.88
382.63	347.67
383.01	343.38
383.39	345.41
383.77	352.65
384.15	364.4
384.53	335.25
384.91	349.93
385.29	367.56
385.67	360.56
386.049	365.08
386.429	357.84
386.809	361.69
387.189	377.28
387.568	366.21
387.948	344.28
388.328	356.94
388.707	353.32
389.087	346.54
389.466	370.27
389.846	385.87
390.225	379.09
390.605	380.44
390.984	351.52
391.363	377.73
391.743	373.44
392.122	373.44
392.501	367.33
392.881	370.5
393.26	392.87
393.639	369.37
394.018	387.45
394.397	364.17
394.776	384.51
395.155	399.88
395.534	372.53
395.913	375.02
396.292	379.09
396.671	396.03
397.05	398.07
397.429	393.32
397.808	383.15
398.186	381.57
398.565	392.42
398.944	410.27
399.323	409.14
399.701	407.79
400.08	408.46
400.458	388.13
400.837	412.76
401.215	408.01
401.594	424.96
401.972	401.23
402.351	403.94
402.729	398.97
403.107	416.15
403.486	423.83
403.864	420.67
404.242	413.21
404.62	433.55
404.999	434
405.377	424.51
405.755	422.02
406.133	431.51
406.511	428.35
406.889	427.67
407.267	442.59
407.645	419.54
408.023	450.72
408.401	462.47
408.779	443.72
409.156	429.93
409.534	456.15
409.912	449.59
410.29	455.02
410.667	431.74
411.045	456.37
411.422	465.19
411.8	477.84
412.178	466.99
412.555	483.49
412.933	493.43
413.31	474.45
413.687	481.91
414.065	488.46
414.442	485.75
414.819	473.09
415.197	523.72
415.574	497.5
415.951	485.75
416.328	473.32
416.705	503.6
417.082	498.86
417.46	485.52
417.837	491.4
418.214	504.96
418.591	520.1
418.967	509.48
419.344	537.95
419.721	529.14
420.098	519.42
420.475	526.88
420.852	536.82
421.228	513.77
421.605	544.51
421.982	528.69
422.358	546.09
422.735	557.39
423.111	549.93
423.488	546.99
423.864	563.26
424.241	549.7
424.617	563.94
424.994	558.97
425.37	564.17
425.746	544.73
426.123	569.59
426.499	561.68
426.875	576.6
427.251	581.79
427.627	596.71
428.003	597.16
428.379	633.32
428.756	586.09
429.132	594.9
429.507	610.94
429.883	599.87
430.259	616.59
430.635	637.16
431.011	632.19
431.387	641
431.763	641.45
432.138	641.9
432.514	634.45
432.89	646.2
433.265	680.55
433.641	662.24
434.016	656.59
434.392	666.99
434.767	679.64
435.143	702.24
435.518	702.47
435.894	682.35
436.269	709.02
436.644	700.66
437.02	695.91
437.395	706.99
437.77	721.22
438.145	727.1
438.52	735.01
438.895	722.81
439.271	740.66
439.646	724.16
440.021	754.22
440.395	755.12
440.77	752.86
441.145	767.78
441.52	783.14
441.895	780.43
442.27	791.05
442.645	766.19
443.019	773.65
443.394	795.12
443.769	776.82
444.143	774.78
444.518	794.22
444.892	812.75
445.267	815.46
445.641	831.05
446.016	808.91
446.39	838.96
446.764	818.17
447.139	840.09
447.513	814.55
447.887	847.55
448.262	826.53
448.636	844.84
449.01	846.87
449.384	869.24
449.758	846.19
450.132	857.94
450.506	859.53
450.88	878.96
451.254	858.4
451.628	885.06
452.002	885.74
452.376	937.72
452.75	903.59
453.123	913.31
453.497	933.42
453.871	947.21
454.244	942.69
454.618	942.46
454.992	938.17
455.365	978.62
455.739	976.36
456.112	958.28
456.486	970.93
456.859	979.07
457.232	1007.77
457.606	1026.3
457.979	1006.19
458.352	1043.48
458.725	1072.4
459.099	1028.56
459.472	1070.37
459.845	1087.77
460.218	1074.44
460.591	1111.27
460.964	1116.02
461.337	1128.22
461.71	1128.44
462.083	1151.5
462.456	1154.88
462.829	1137.71
463.201	1182.91
463.574	1184.94
463.947	1177.48
464.32	1226.97
464.692	1214.09
465.065	1219.97
465.438	1254.54
465.81	1270.36
466.183	1294.09
466.555	1293.64
466.928	1307.2
467.3	1294.77
467.672	1349
468.045	1346.52
468.417	1377.93
468.789	1385.61
469.161	1383.81
469.534	1407.99
469.906	1450.47
470.278	1430.36
470.65	1467.65
471.022	1497.7
471.394	1539.73
471.766	1537.93
472.138	1566.17
472.51	1597.59
472.882	1603.91
473.253	1621.31
473.625	1634.87
473.997	1683.91
474.369	1688.66
474.74	1694.76
475.112	1775.21
475.484	1794.19
475.855	1835.32
476.227	1806.62
476.598	1882.55
476.97	1868.99
477.341	1936.56
477.713	1976.78
478.084	2008.87
478.455	2020.4
478.827	2065.6
479.198	2118.25
479.569	2071.47
479.94	2173.39
480.311	2198.25
480.682	2241.41
481.053	2310.56
481.424	2327.28
481.795	2367.73
482.166	2412.25
482.537	2454.74
482.908	2482.53
483.279	2537
483.65	2598.69
484.021	2637.33
484.391	2668.74
484.762	2725.69
485.133	2726.14
485.503	2790.77
485.874	2850.89
486.244	2891.11
486.615	2944.44
486.985	2979.7
487.356	3073.48
487.726	3093.36
488.097	3119.8
488.467	3149.41
488.837	3210.42
489.207	3267.6
489.578	3357.09
489.948	3372.45
490.318	3432.79
490.688	3430.08
491.058	3526.35
491.428	3540.81
491.798	3595.27
492.168	3693.35
492.538	3704.65
492.908	3794.36
493.278	3812.22
493.648	3810.63
494.017	3849.05
494.387	3831.88
494.757	3934.92
495.126	3976.96
495.496	3992.1
495.866	4027.8
496.235	4068.25
496.605	4116.16
496.974	4123.85
497.344	4183.05
497.713	4232.54
498.082	4247.91
498.452	4299.43
498.821	4332.43
499.19	4367.23
499.559	4373.78
499.928	4445.42
500.298	4496.49
500.667	4482.93
501.036	4504.63
501.405	4552.76
501.774	4531.29
502.143	4613.78
502.512	4600.44
502.88	4648.58
503.249	4665.75
503.618	4698.52
503.987	4730.61
504.356	4705.98
504.724	4747.33
505.093	4766.32
505.462	4801.79
505.83	4865.3
506.199	4914.56
506.567	4916.37
506.936	4932.41
507.304	5018.74
507.672	4998.63
508.041	5006.54
508.409	5063.03
508.777	5049.25
509.145	5104.16
509.514	5102.13
509.882	5137.61
510.25	5237.72
510.618	5166.76
510.986	5215.57
511.354	5295.79
511.722	5324.27
512.09	5300.54
512.458	5320.65
512.826	5381.67
513.193	5357.26
513.561	5396.13
513.929	5420.08
514.297	5474.32
514.664	5484.94
515.032	5497.6
515.4	5571.72
515.767	5542.11
516.135	5601.77
516.502	5586.41
516.869	5660.08
517.237	5713.86
517.604	5670.25
517.972	5694.2
518.339	5736.23
518.706	5717.93
519.073	5705.5
519.44	5755.22
519.808	5834.76
520.175	5855.78
520.542	5884.7
520.909	5899.17
521.276	5903.91
521.643	5930.8
522.009	5967.87
522.376	6032.95
522.743	5983.91
523.11	6091.03
523.477	6145.71
523.843	6134.87
524.21	6230.68
524.577	6183.23
524.943	6253.51
525.31	6291.47
525.676	6328.76
526.043	6369.44
526.409	6361.75
526.776	6455.31
527.142	6455.99
527.508	6528.75
527.874	6503.22
528.241	6549.32
528.607	6618.02
528.973	6652.82
529.339	6620.73
529.705	6672.03
530.071	6736.66
530.437	6781.63
530.803	6805.13
531.169	6868.41
531.535	6809.2
531.901	6891.23
532.267	6921.06
532.632	6930.1
532.998	6963.77
533.364	7027.05
533.73	7020.49
534.095	7128.29
534.461	7091.23
534.826	7198.57
535.192	7188.4
535.557	7264.78
535.923	7205.35
536.288	7263.42
536.653	7288.73
537.019	7337.77
537.384	7307.94
537.749	7342.52
538.114	7428.39
538.479	7424.1
538.845	7407.15
539.21	7437.43
539.575	7511.33
539.94	7501.16
540.305	7551.33
540.67	7587.03
541.034	7586.58
541.399	7627.26
541.764	7611.66
542.129	7709.74
542.494	7690.31
542.858	7794.71
543.223	7787.93
543.587	7847.59
543.952	7866.57
544.316	7896.85
544.681	7851.21
545.045	7878.32
545.41	7977.53
545.774	8003.97
546.138	8039
546.503	8090.75
546.867	8059.56
547.231	8158.09
547.595	8196.96
547.959	8171.65
548.324	8203.74
548.688	8258.65
549.052	8285.54
549.416	8229.05
549.779	8285.32
550.143	8350.85
550.507	8369.38
550.871	8437.86
551.235	8419.33
551.599	8413.45
551.962	8513.34
552.326	8480.79
552.689	8535.48
553.053	8519.66
553.417	8570.06
553.78	8635.37
554.143	8561.92
554.507	8774.8
554.87	8702.71
555.234	8810.95
555.597	8769.6
555.96	8778.19
556.323	8817.96
556.686	8815.02
557.05	8936.83
557.413	8903.38
557.776	8928.69
558.139	8981.35
558.502	8986.32
558.865	9032.42
559.228	9103.38
559.59	9077.16
559.953	9152.41
560.316	9203.03
560.679	9218.4
561.041	9226.99
561.404	9279.64
561.767	9284.84
562.129	9281
562.492	9349.02
562.854	9315.57
563.217	9402.35
563.579	9451.39
563.941	9476.02
564.304	9533.65
564.666	9517.38
565.028	9598.5
565.39	9598.96
565.753	9684.15
566.115	9698.62
566.477	9741.1
566.839	9793.08
567.201	9815.45
567.563	9856.13
567.925	9925.05
568.287	9930.02
568.648	9932.73
569.01	10073.52
569.372	10057.48
569.734	10072.62
570.095	10126.17
570.457	10207.53
570.819	10184.7
571.18	10220.18
571.542	10294.76
571.903	10277.81
572.265	10320.97
572.626	10400.29
572.987	10410.23
573.349	10479.61
573.71	10550.34
574.071	10565.48
574.432	10668.53
574.794	10774.07
575.155	10837.57
575.516	10821.75
575.877	10863.1
576.238	10976.77
576.599	11021.52
576.96	11070.33
577.32	11110.78
577.681	11264.68
578.042	11323.43
578.403	11500.38
578.763	11577.66
579.124	11701.95
579.485	11709.64
579.845	11803.19
580.206	11847.94
580.566	12023.07
580.927	12094.71
581.287	12322.05
581.648	12425.1
582.008	12498.09
582.368	12635.26
582.728	12782.6
583.089	12860.34
583.449	13056.94
583.809	13333.55
584.169	13434.34
584.529	13552.3
584.889	13813.31
585.249	13909.13
585.609	14017.37
585.969	14378.94
586.329	14579.62
586.688	14728.54
587.048	14952.26
587.408	15258.02
587.768	15413.94
588.127	15616.43
588.487	15909.98
588.846	16222.96
589.206	16350.87
589.565	16610.98
589.925	16856.84
590.284	17175.71
590.643	17470.39
591.003	17734.11
591.362	18071.95
591.721	18318.28
592.08	18560.53
592.44	18892.72
592.799	19208.87
593.158	19405.93
593.517	19765.02
593.876	20067.61
594.235	20294.95
594.593	20635.28
594.952	20960.69
595.311	21221.25
595.67	21610.62
596.029	21941.91
596.387	22340.99
596.746	22617.37
597.104	22851.49
597.463	23160.18
597.822	23640.4
598.18	23717.46
598.538	24138.01
598.897	24417.55
599.255	24695.51
599.613	25294.82
599.972	25506.11
600.33	25791.07
600.688	26001.46
601.046	26462.92
601.404	26689.58
601.762	27035.33
602.12	27476
602.478	27608.65
602.836	28097.45
603.194	28186.72
603.552	28514.17
603.91	28672.35
604.268	29125.9
604.625	29440.02
604.983	29763.62
605.341	29837.29
605.698	30324.97
606.056	30572.87
606.413	30790.04
606.771	31169.24
607.128	31437.93
607.485	31494.65
607.843	31801.54
608.2	32251.92
608.557	32517.9
608.914	32701.63
609.272	33069.98
609.629	33333.7
609.986	33602.17
610.343	33825.44
610.7	34013.23
611.057	34297.29
611.414	34391.3
611.771	34621.12
612.127	34937.05
612.484	35063.37
612.841	35393.76
613.198	35396.7
613.554	35675.56
613.911	36127.75
614.267	36206.62
614.624	36402.32
614.98	36565.48
615.337	36997.56
615.693	36941.06
616.05	37130.89
616.406	37548.5
616.762	37580.37
617.118	37679.57
617.475	37939.91
617.831	38069.39
618.187	38341.93
618.543	38509.61
618.899	38854.23
619.255	38895.36
619.611	38917.51
619.967	39128.8
620.323	39379.87
620.678	39332.64
621.034	39357.72
621.39	39335.35
621.746	39549.36
622.101	40213.29
622.457	39886.97
622.812	40255.55
623.168	40194.76
623.523	40253.97
623.879	40630.91
624.234	40458.26
624.589	40648.31
624.945	40706.84
625.3	40932.37
625.655	40971.69
626.01	41127.85
626.365	41210.1
626.72	41121.07
627.075	41252.14
627.43	41187.05
627.785	41198.35
628.14	41559.25
628.495	41480.38
628.85	41413.94
629.205	41375.97
629.559	41747.49
629.914	41574.16
630.269	41679.24
630.623	41718.56
630.978	41669.07
631.332	41763.99
631.687	42027.71
632.041	41811.44
632.396	42132.56
632.75	41956.52
633.104	42087.14
633.459	41893.02
633.813	41942.74
634.167	42057.09
634.521	42034.04
634.875	42293.69
635.229	42145.9
635.583	41978.67
635.937	42068.84
636.291	42078.55
636.645	42074.94
636.999	42113.13
637.352	42147.25
637.706	42016.41
638.06	42120.14
638.413	42065
638.767	41947.03
639.121	41964.89
639.474	41848.5
639.828	41993.13
640.181	42044.43
640.534	41987.94
640.888	41983.19
641.241	41778.9
641.594	41870.42
641.947	42020.03
642.301	41989.07
642.654	42054.83
643.007	41909.75
643.36	41860.48
643.713	41927.37
644.066	42070.87
644.419	41859.35
644.771	41639.7
645.124	41241.97
645.477	41248.52
645.83	40926.27
646.182	40830.23
646.535	40787.52
646.888	41011.24
647.24	40695.54
647.593	40932.37
647.945	40910.68
648.298	40593.17
648.65	40628.2
649.002	40634.3
649.355	40635.43
649.707	40715.2
650.059	40873.61
650.411	41306.15
650.763	41309.31
651.115	41676.98
651.467	41475.63
651.819	41621.84
652.171	41333.94
652.523	41452.36
652.875	41391.57
653.227	41382.75
653.578	41520.15
653.93	41491.9
654.282	41355.86
654.633	41304.34
654.985	41381.17
655.337	41456.88
655.688	41398.57
656.039	41567.16
656.391	41326.03
656.742	41306.82
657.094	41358.35
657.445	41524.22
657.796	41361.51
658.147	41272.7
658.498	41211.91
658.849	41468.18
659.2	41274.51
659.551	41293.26
659.902	41184.57
660.253	41244.45
660.604	41313.15
660.955	41141.63
661.306	41365.35
661.656	41254.17
662.007	41328.52
662.358	41295.98
662.708	41128.52
663.059	41169.88
663.409	41072.25
663.76	41301.4
664.11	41000.39
664.461	41327.39
664.811	41189.09
665.161	41200.61
665.511	41028.19
665.862	41046.49
666.212	41265.02
666.562	41272.25
666.912	41122.2
667.262	41026.38
667.612	41197.9
667.962	41156.32
668.312	41133.95
668.662	41265.92
669.011	41138.24
669.361	40945.7
669.711	41066.38
670.06	41162.19
670.41	40958.58
670.76	40923.33
671.109	41004.23
671.459	40901.41
671.808	40888.98
672.157	41042.42
672.507	40737.35
672.856	40751.58
673.205	40938.7
673.554	41025.25
673.904	40790.68
674.253	41088.3
674.602	40852.6
674.951	40324.93
675.3	40124.48
675.649	40724.24
675.998	40624.13
676.346	40785.71
676.695	40734.41
677.044	40626.16
677.393	40642.89
677.741	40753.39
678.09	40548.43
678.438	40578.26
678.787	40668.2
679.135	40596.79
679.484	40502.55
679.832	40602.66
680.181	40381.88
680.529	40437.47
680.877	40306.17
681.225	40213.29
681.573	40462.1
681.922	40100.75
682.27	40037.93
682.618	40016.46
682.966	40048.55
683.314	40056.46
683.661	39933.07
684.009	39882
684.357	39741.67
684.705	39659.41
685.053	39815.56
685.4	39679.52
685.748	39556.14
686.095	39373.99
686.443	39506.19
686.79	39303.49
687.138	39436.59
687.485	39449.92
687.832	39193.43
688.18	39225.3
688.527	39072.08
688.874	39149.37
689.221	38856.27
689.568	38882.48
689.915	38810.84
690.262	38796.38
690.609	38720.68
690.956	38579.89
691.303	38609.95
691.65	38485.2
691.997	38333.79
692.344	38174.7
692.69	38151.88
693.037	38200.46
693.383	37852.9
693.73	37929.96
694.077	37876.86
694.423	37792.11
694.769	37653.13
695.116	37634.15
695.462	37579.46
695.808	37488.17
696.155	37413.82
696.501	37207.04
696.847	37172.24
697.193	36864.91
697.539	37167.05
697.885	36915.07
698.231	36727.73
698.577	36773.38
698.923	36592.37
699.269	36532.49
699.614	36361.42
699.96	36299.72
700.306	36256.11
700.651	36000.52
700.997	36023.57
701.342	36004.14
701.688	36039.39
702.033	35806.4
702.379	35631.49
702.724	35672.85
703.069	35776.12
703.415	35374.1
703.76	35437.15
704.105	35432.85
704.45	35360.54
704.795	35187.66
705.14	35088.68
705.485	35068.12
705.83	34900.21
706.175	35051.39
706.52	34887.33
706.865	34726.88
707.209	34607.79
707.554	34484.86
707.899	34476.27
708.243	34320.34
708.588	34389.72
708.932	34259.78
709.277	34062.95
709.621	34065.88
709.966	33957.41
710.31	33977.07
710.654	33688.27
710.998	33739.11
711.342	33806.46
711.687	33590.87
712.031	33549.51
712.375	33350.65
712.719	33581.83
713.063	33432.91
713.407	33473.13
713.75	33241.05
714.094	33180.26
714.438	33182.74
714.782	33311.1
715.125	32973.94
715.469	33079.24
715.812	32825.46
716.156	32698.69
716.499	32790.66
716.843	32864.56
717.186	32631.8
717.53	32678.12
717.873	32803.32
718.216	32683.32
718.559	32543.44
718.902	32312.26
719.246	32397.23
719.589	32346.16
719.932	32190.68
720.275	32143.9
720.617	32173.73
720.96	32074.75
721.303	32068.87
721.646	32065.71
721.989	31769.9
722.331	31884.92
722.674	31804.25
723.016	31776.45
723.359	31801.08
723.701	31799.5
724.044	31595.44
724.386	31458.95
724.729	31494.88
725.071	31562.22
725.413	31428.21
725.755	31351.15
726.097	31157.71
726.439	31138.5
726.782	31056.47
727.124	31315.67
727.465	30966.98
727.807	31012.4
728.149	30949.13
728.491	30883.59
728.833	30870.26
729.175	30879.75
729.516	30818.51
729.858	30906.87
730.199	30768.34
730.541	30748.46
730.882	30752.52
731.224	30710.94
731.565	30487.22
731.906	30393.44
732.248	30447.67
732.589	30382.36
732.93	30341.46
733.271	30333.33
733.612	30319.77
733.953	30333.33
734.294	30312.99
734.635	30032.54
734.976	30230.05
735.317	30056.95
735.658	30070.73
735.999	30054.24
736.339	30028.93
736.68	29927.24
737.021	29866.45
737.361	29813.57
737.702	30021.7
738.042	29805.43
738.383	29764.53
738.723	29830.74
739.063	29742.16
739.404	29662.84
739.744	29581.03
740.084	29579.9
740.424	29659.9
740.764	29474.14
741.104	29566.12
741.444	29328.16
741.784	29223.3
742.124	29473.46
742.464	29284.54
742.804	29319.34
743.143	29281.38
743.483	29154.6
743.823	29120.25
744.162	28889.97
744.502	29070.76
744.841	28929.75
745.181	29145.11
745.52	28846.36
745.86	29054.49
746.199	28974.04
746.538	28892.91
746.877	28711.22
747.216	28980.37
747.556	28734.27
747.895	28706.93
748.234	28611.11
748.573	28673.94
748.911	28671
749.25	28656.53
749.589	28399.82
749.928	28487.73
750.267	28541.51
750.605	28474.39
750.944	28238.69
751.283	28152.37
751.621	28380.38
751.96	28125.25
752.298	28165.02
752.636	28127.96
752.975	27941.3
753.313	27937.91
753.651	28054.74
753.989	27808.65
754.327	27758.71
754.666	27732.72
755.004	27744.47
755.342	27627.64
755.679	27698.82
756.017	27393.07
756.355	27570.69
756.693	27446.85
757.031	27421.54
757.368	27203.69
757.706	27290.92
758.044	27212.96
758.381	27252.28
758.719	27085.5
759.056	27166.86
759.394	27020.42
759.731	26829.24
760.068	26865.62
760.405	26697.72
760.743	26722.35
761.08	26628.11
761.417	26607.55
761.754	26575.01
762.091	26434.9
762.428	26282.36
762.765	26201.46
763.102	26241.68
763.438	26163.27
763.775	25998.53
764.112	25910.62
764.449	26139.09
764.785	25979.99
765.122	25697.06
765.458	25557.63
765.795	25726.22
766.131	25536.39
766.467	25353.57
766.804	25425.89
767.14	25259.11
767.476	25273.8
767.812	25127.14
768.148	25161.71
768.485	24909.51
768.821	24776.18
769.157	24841.49
769.492	24721.95
769.828	24720.14
770.164	24531.67
770.5	24441.73
770.836	24510.88
771.171	24268.4
771.507	24171.45
771.842	24174.17
772.178	24146.37
772.513	23998.35
772.849	24068.41
773.184	23863.67
773.519	23884.91
773.855	23741.18
774.19	23611.02
774.525	23629.1
774.86	23474.52
775.195	23448.99
775.53	23331.7
775.865	23221.65
776.2	23037.93
776.535	22916.35
776.87	23039.96
777.205	22955.89
777.539	22783.92
777.874	22830.7
778.209	22595.23
778.543	22605.39
778.878	22379.19
779.212	22311.84
779.547	22297.38
779.881	22380.09
780.215	22176.71
780.55	22190.94
780.884	22039.31
781.218	21944.85
781.552	22082.7
781.886	21795.25
782.22	21731.97
782.554	21752.99
782.888	21456.72
783.222	21481.36
783.556	21269.38
783.889	21279.1
784.223	21114.13
784.557	21107.13
784.89	21094.25
785.224	20903.97
785.557	20837.08
785.891	20833.46
786.224	20809.96
786.558	20661.72
786.891	20564.32
787.224	20503.53
787.557	20415.4
787.891	20379.92
788.224	20361.16
788.557	20247.72
788.89	20299.01
789.223	20214.72
789.556	20026.71
789.888	20056.76
790.221	19953.03
790.554	19797.78
790.887	19870.78
791.219	19725.7
791.552	19675.3
791.884	19576.1
792.217	19531.8
792.549	19473.95
792.882	19284.8
793.214	19361.86
793.546	19366.38
793.879	19203.68
794.211	19073.74
794.543	19131.36
794.875	19024.7
795.207	19148.54
795.539	18869.67
795.871	18957.35
796.203	18754.87
796.535	18661.77
796.867	18673.97
797.198	18574.54
797.53	18538.83
797.862	18430.59
798.193	18493.86
798.525	18323.7
798.856	18365.73
799.188	18141.56
799.519	18085.06
799.85	17975.46
800.182	18056.36
800.513	18077.38
800.844	17901.11
801.175	17924.84
801.506	17967.32
801.837	17831.51
802.168	17733.88
802.499	17723.26
802.83	17597.39
803.161	17615.92
803.491	17590.61
803.822	17485.3
804.153	17365.98
804.483	17323.5
804.814	17294.12
805.145	17254.12
805.475	17096.39
805.805	17122.37
806.136	17217.06
806.466	17076.5
806.796	17066.33
807.126	16956.73
807.457	16955.37
807.787	16843.51
808.117	16712.22
808.447	16707.47
808.777	16682.39
809.107	16620.24
809.436	16547.25
809.766	16578.66
810.096	16599.9
810.426	16404.2
810.755	16492.11
811.085	16401.94
811.414	16402.39
811.744	16288.5
812.073	16161.04
812.403	16198.78
812.732	16068.17
813.061	16033.59
813.39	16103.19
813.719	15980.71
814.049	16009.64
814.378	16041.73
814.707	15855.97
815.036	16008.73
815.365	15816.19
815.693	15753.6
816.022	15695.75
816.351	15745.46
816.68	15617.56
817.008	15701.17
817.337	15432.48
817.665	15508.18
817.994	15531.68
818.322	15498.91
818.651	15480.38
818.979	15387.05
819.307	15380.5
819.636	15387.96
819.964	15308.86
820.292	15355.19
820.62	15214.85
820.948	15161.52
821.276	15289.65
821.604	15178.02
821.932	15242.2
822.259	15218.7
822.587	15197.91
822.915	15131.24
823.243	15190.45
823.57	15112.71
823.898	15250.33
824.225	15085.37
824.553	15196.32
824.88	15162.2
825.207	15093.05
825.535	15061.86
825.862	15146.16
826.189	15086.72
826.516	15206.04
826.843	15164.23
827.17	15196.55
827.497	15178.92
827.824	15088.08
828.151	15104.35
828.478	15135.08
828.805	15177.34
829.131	15131.24
829.458	15043.33
829.785	15069.1
830.111	15039.04
830.438	15137.57
830.764	15009.21
831.09	15075.2
831.417	15010.57
831.743	15077.68
832.069	15046.95
832.395	15021.19
832.722	15067.97
833.048	15002.43
833.374	14971.47
833.7	14859.84
834.026	14904.58
834.351	14918.14
834.677	14921.3
835.003	14938.7
835.329	14848.08
835.654	14896.9
835.98	14803.57
836.306	14854.64
836.631	14822.77
836.956	14805.37
837.282	14842.21
837.607	14677.02
837.932	14776.9
838.258	14693.51
838.583	14630.69
838.908	14652.16
839.233	14668.88
839.558	14589.79
839.883	14576.68
840.208	14554.98
840.533	14499.62
840.858	14513.86
841.182	14458.26
841.507	14440.86
841.832	14432.73
842.156	14376.46
842.481	14338.72
842.805	14263.24
843.13	14349.57
843.454	14270.25
843.778	14223.02
844.103	14204.49
844.427	14167.2
844.751	14119.29
845.075	14128.56
845.399	13976.24
845.723	13959.75
846.047	13996.58
846.371	13846.3
846.695	13805.17
847.019	13751.62
847.343	13746.64
847.666	13600.89
847.99	13529.25
848.313	13547.78
848.637	13481.34
848.96	13501.45
849.284	13378.29
849.607	13334.9
849.931	13301.91
850.254	13233.44
850.577	13200.44
850.9	13055.14
851.223	13011.75
851.546	12992.77
851.869	12853.33
852.192	12920.45
852.515	12804.52
852.838	12786.67
853.161	12802.49
853.483	12692.89
853.806	12669.16
854.129	12638.88
854.451	12530.18
854.774	12545.32
855.096	12523.17
855.419	12372.67
855.741	12369.73
856.063	12348.49
856.385	12341.94
856.708	12247.47
857.03	12244.99
857.352	12196.63
857.674	12197.98
857.996	12170.64
858.318	12164.99
858.64	12028.05
858.961	12011.77
859.283	12067.14
859.605	11976.52
859.926	11982.85
860.248	12001.15
860.57	11864.66
860.891	11856.98
861.212	11860.59
861.534	11755.74
861.855	11728.17
862.176	11713.7
862.498	11735.62
862.819	11741.95
863.14	11652.01
863.461	11706.02
863.782	11652.01
864.103	11592.58
864.424	11580.6
864.745	11634.84
865.065	11547.61
865.386	11460.6
865.707	11424.9
866.027	11540.37
866.348	11472.13
866.668	11443.88
866.989	11453.37
867.309	11331.79
867.63	11389.87
867.95	11305.8
868.27	11306.93
868.59	11348.52
868.91	11333.6
869.23	11220.16
869.55	11217.67
869.87	11209.54
870.19	11212.7
870.51	11228.07
870.83	11245.92
871.15	11142.19
871.469	11162.98
871.789	11146.03
872.109	11148.07
872.428	11028.75
872.748	11110.56
873.067	11059.71
873.386	11007.51
873.706	10991.46
874.025	10939.71
874.344	10911.24
874.663	10988.52
874.982	10909.43
875.301	10903.33
875.62	10873.27
875.939	10782.43
876.258	10890.67
876.577	10800.96
876.896	10874.63
877.214	10779.72
877.533	10769.1
877.852	10846.61
878.17	10774.52
878.489	10724.35
878.807	10789.43
879.125	10733.84
879.444	10741.07
879.762	10689.78
880.08	10688.42
880.398	10663.79
880.716	10659.95
881.034	10570.91
881.352	10585.15
881.67	10613.85
881.988	10555.77
882.306	10543.79
882.624	10440.52
882.941	10407.52
883.259	10402.55
883.577	10401.2
883.894	10396.68
884.212	10352.16
884.529	10365.26
884.846	10390.8
885.164	10297.92
885.481	10300.86
885.798	10220.64
886.115	10249.34
886.432	10262.44
886.75	10191.71
887.067	10201.2
887.383	10077.59
887.7	10167.08
888.017	10090.7
888.334	10024.26
888.651	10008.89
888.967	10044.82
889.284	9915.56
889.6	9970.25
889.917	9894.09
890.233	9862.23
890.55	9806.41
890.866	9870.14
891.182	9818.84
891.498	9811.15
891.815	9753.08
892.131	9744.04
892.447	9735.68
892.763	9670.59
893.079	9638.5
893.395	9546.08
893.71	9553.31
894.026	9516.92
894.342	9513.99
894.657	9456.81
894.973	9467.66
895.289	9431.73
895.604	9451.16
895.92	9332.97
896.235	9355.12
896.55	9271.06
896.865	9238.97
897.181	9277.61
897.496	9247.1
897.811	9196.26
898.126	9120.33
898.441	9088.01
898.756	9081.46
899.071	9095.69
899.386	9076.03
899.7	8962.36
900.015	8913.1
900.33	8825.42
900.644	8905.87
900.959	8861.35
901.273	8885.3
901.588	8810.5
901.902	8690.96
902.216	8744.29
902.531	8731.41
902.845	8631.3
903.159	8605.76
903.473	8560.57
903.787	8598.3
904.101	8509.04
904.415	8559.89
904.729	8521.7
905.042	8417.97
905.356	8438.31
905.67	8380.46
905.984	8478.31
906.297	8363.96
906.611	8303.85
906.924	8286
907.237	8260.91
907.551	8210.52
907.864	8192.67
908.177	8182.27
908.491	8122.39
908.804	8068.15
909.117	8013.01
909.43	8014.82
909.743	7979.11
910.056	7984.76
910.368	7918.55
910.681	7894.59
910.994	7813.24
911.307	7915.16
911.619	7782.73
911.932	7731.21
912.244	7674.94
912.557	7716.75
912.869	7629.52
913.181	7586.13
913.494	7544.1
913.806	7502.51
914.118	7526.24
914.43	7538.67
914.742	7532.34
915.054	7509.52
915.366	7428.17
915.678	7376.87
915.99	7370.09
916.302	7310.2
916.613	7219.81
916.925	7228.62
917.236	7248.28
917.548	7154.73
917.859	7159.47
918.171	7131.45
918.482	7107.04
918.794	7042.87
919.105	7075.41
919.416	7020.49
919.727	7035.86
920.038	6964.68
920.349	6873.15
920.66	6903.89
920.971	6899.14
921.282	6896.65
921.593	6815.75
921.903	6796.77
922.214	6800.16
922.525	6764.68
922.835	6702.08
923.146	6666.15
923.456	6660.05
923.767	6628.19
924.077	6566.27
924.387	6566.27
924.697	6539.15
925.008	6544.8
925.318	6487.85
925.628	6491.24
925.938	6428.87
926.248	6391.13
926.558	6321.08
926.867	6396.33
927.177	6363.34
927.487	6272.49
927.796	6217.8
928.106	6272.04
928.416	6214.64
928.725	6195.43
929.034	6149.33
929.344	6165.83
929.653	6092.38
929.962	6061.2
930.271	6039.05
930.581	6030.01
930.89	5999.05
931.199	5973.97
931.508	5974.19
931.817	5935.55
932.125	5914.31
932.434	5844.48
932.743	5824.37
933.051	5814.2
933.36	5765.61
933.669	5757.7
933.977	5738.95
934.286	5744.82
934.594	5753.63
934.902	5687.65
935.21	5652.39
935.519	5639.06
935.827	5620.98
936.135	5587.76
936.443	5542.11
936.751	5573.75
937.059	5519.74
937.367	5495.11
937.674	5461.44
937.982	5436.35
938.29	5446.07
938.597	5403.13
938.905	5363.14
939.213	5340.09
939.52	5315.68
939.827	5265.29
940.135	5285.17
940.442	5226.42
940.749	5213.76
941.056	5242.46
941.363	5169.69
941.67	5142.35
941.977	5146.42
942.284	5101.67
942.591	5064.16
942.898	5056.25
943.205	5043.82
943.511	4989.59
943.818	5001.34
944.125	4945.07
944.431	4901
944.738	4891.06
945.044	4914.56
945.35	4872.3
945.657	4856.48
945.963	4816.94
946.269	4816.03
946.575	4828.69
946.881	4769.48
947.187	4784.85
947.493	4746.2
947.799	4750.5
948.105	4731.97
948.41	4678.41
948.716	4707.11
949.022	4650.16
949.327	4647.67
949.633	4616.26
949.938	4633.21
950.244	4616.49
950.549	4586.89
950.854	4531.29
951.16	4503.05
951.465	4460.11
951.77	4457.62
952.075	4463.5
952.38	4430.96
952.685	4409.94
952.99	4376.27
953.294	4412.88
953.599	4373.33
953.904	4331.75
954.209	4292.66
954.513	4260.79
954.818	4290.62
955.122	4280.23
955.426	4258.53
955.731	4220.57
956.035	4213.79
956.339	4168.59
956.643	4209.95
956.948	4163.17
957.252	4114.81
957.556	4132.66
957.86	4111.64
958.163	4064.86
958.467	4065.99
958.771	4053.11
959.075	4045.43
959.378	4030.06
959.682	3982.38
959.985	3950.74
960.289	3948.94
960.592	3926.11
960.896	3892.89
961.199	3900.12
961.502	3913.68
961.805	3912.1
962.108	3875.72
962.411	3849.96
962.714	3797.53
963.017	3809.73
963.32	3785.1
963.623	3788.94
963.926	3767.25
964.228	3740.13
964.531	3720.24
964.833	3735.83
965.136	3650.86
965.438	3649.51
965.741	3672.33
966.043	3603.41
966.345	3644.54
966.648	3571.32
966.95	3612.9
967.252	3564.54
967.554	3537.2
967.856	3543.07
968.158	3525.22
968.46	3490.87
968.761	3531.77
969.063	3493.81
969.365	3496.74
969.666	3466.24
969.968	3423.98
970.269	3437.31
970.571	3426.46
970.872	3405.9
971.174	3358.67
971.475	3357.54
971.776	3339.91
972.077	3326.81
972.378	3321.38
972.679	3313.47
972.98	3289.97
973.281	3260.37
973.582	3275.96
973.883	3275.96
974.183	3221.05
974.484	3205.68
974.785	3212.68
975.085	3202.51
975.386	3220.37
975.686	3139.24
975.986	3188.28
976.287	3127.71
976.587	3126.58
976.887	3101.27
977.187	3123.19
977.487	3129.52
977.787	3083.87
978.087	3077.77
978.387	3073.93
978.687	3065.57
978.987	2978.57
979.286	2975.63
979.586	2961.17
979.885	3004.33
980.185	2975.4
980.484	2953.71
980.784	2986.7
981.083	2911.45
981.382	2895.86
981.682	2936.53
981.981	2887.49
982.28	2886.14
982.579	2839.59
982.878	2899.92
983.177	2858.79
983.475	2851.34
983.774	2845.69
984.073	2802.53
984.372	2788.06
984.67	2801.17
984.969	2800.49
985.267	2793.94
985.566	2760.94
985.864	2732.92
986.162	2738.57
986.461	2687.95
986.759	2686.82
987.057	2657.9
987.355	2668.97
987.653	2656.54
987.951	2652.7
988.249	2601.17
988.547	2676.65
988.844	2575.19
989.142	2596.43
989.44	2589.2
989.737	2572.47
990.035	2558.69
990.332	2552.36
990.63	2526.37
990.927	2519.37
991.224	2499.26
991.521	2516.88
991.819	2504
992.116	2488.18
992.413	2454.06
992.71	2434.63
993.006	2465.36
993.303	2410.45
993.6	2425.13
993.897	2415.42
994.193	2422.65
994.49	2380.84
994.787	2377.45
995.083	2367.28
995.379	2356.44
995.676	2327.51
995.972	2319.83
996.268	2341.75
996.565	2293.61
996.861	2292.26
997.157	2280.73
997.453	2273.95
997.749	2280.51
998.044	2255.87
998.34	2231.01
998.636	2258.81
998.932	2198.93
999.227	2252.03
999.523	2218.13
999.818	2233.95
1000.114	2179.94
1000.409	2187.4
1000.704	2149.66
1001	2157.8
1001.295	2185.37
1001.59	2106.95
1001.885	2098.14
1002.18	2116.89
1002.475	2059.72
1002.77	2068.08
1003.065	2044.8
1003.359	2057.91
1003.654	2048.87
1003.949	2025.14
1004.243	2064.69
1004.538	1988.31
1004.832	1997.8
1005.127	1991.47
1005.421	1952.6
1005.715	1954.64
1006.009	1956.67
1006.304	1933.4
1006.598	1932.94
1006.892	1901.53
1007.186	1913.51
1007.48	1945.82
1007.773	1903.57
1008.067	1885.94
1008.361	1873.06
1008.655	1861.08
1008.948	1857.92
1009.242	1836.22
1009.535	1853.4
1009.829	1836
1010.122	1814.98
1010.415	1813.62
1010.708	1829.67
1011.001	1814.3
1011.295	1751.71
1011.588	1756.45
1011.881	1735.66
1012.173	1738.15
1012.466	1723.01
1012.759	1697.02
1013.052	1704.47
1013.344	1713.06
1013.637	1685.04
1013.93	1678.94
1014.222	1677.13
1014.514	1644.36
1014.807	1626.28
1015.099	1644.36
1015.391	1635.78
1015.683	1617.92
1015.976	1624.48
1016.268	1595.33
1016.56	1588.77
1016.851	1590.58
1017.143	1585.16
1017.435	1565.95
1017.727	1553.07
1018.018	1520.98
1018.31	1518.27
1018.602	1529.56
1018.893	1514.65
1019.185	1526.17
1019.476	1483.69
1019.767	1492.96
1020.058	1452.5
1020.35	1476.91
1020.641	1476.01
1020.932	1442.33
1021.223	1432.62
1021.514	1429.45
1021.804	1398.04
1022.095	1404.6
1022.386	1394.88
1022.677	1410.02
1022.967	1389.68
1023.258	1369.12
1023.548	1372.51
1023.839	1377.93
1024.129	1351.04
1024.419	1351.94
1024.709	1348.1
1025	1295.9
1025.29	1304.03
1025.58	1317.82
1025.87	1278.95
1026.16	1262.9
1026.449	1268.78
1026.739	1261.55
1027.029	1247.31
1027.319	1227.43
1027.608	1237.59
1027.898	1230.36
1028.187	1239.4
1028.477	1206.41
1028.766	1229.23
1029.055	1171.83
1029.344	1188.78
1029.634	1191.95
1029.923	1179.29
1030.212	1184.26
1030.501	1168.9
1030.79	1174.55
1031.078	1156.69
1031.367	1144.94
1031.656	1152.63
1031.945	1146.3
1032.233	1136.13
1032.522	1124.15
1032.81	1076.47
1033.099	1082.8
1033.387	1050.25
1033.675	1076.92
1033.963	1073.08
1034.251	1085.51
1034.54	1057.03
1034.828	1045.96
1035.116	1057.03
1035.403	1038.05
1035.691	1018.39
1035.979	1054.77
1036.267	1030.82
1036.554	1026.53
1036.842	994.89
1037.129	981.1
1037.417	998.96
1037.704	975
1037.992	969.35
1038.279	968.68
1038.566	972.52
1038.853	972.52
1039.14	972.52
