Data from hue_32_FLMS001491_00024.txt Node
Date: Tue Feb 07 17:23:06 GMT 2017
User: dcchb
Spectrometer: FLMS00149
Trigger mode: 0
Integration Time (sec): 2.000000E-2
Scans to average: 10
Electric dark correction enabled: true
Nonlinearity correction enabled: false
Boxcar width: 0
XAxis mode: Wavelengths
Number of Pixels in Spectrum: 2048
>>>>>Begin Spectral Data<<<<<
341.393	-15.79
341.776	-15.79
342.16	-15.79
342.543	-43.59
342.927	-65.51
343.31	-89.01
343.693	-88.33
344.077	-71.83
344.46	-61.89
344.843	-48.33
345.226	-20.08
345.61	-32.29
345.993	-24.6
346.376	0.71
346.759	13.59
347.142	24.66
347.525	38.22
347.908	71.66
348.291	85
348.674	90.65
349.057	111.89
349.44	133.36
349.823	138.33
350.206	155.73
350.588	215.16
350.971	240.93
351.354	221.49
351.737	240.7
352.119	243.41
352.502	263.75
352.884	289.51
353.267	259
353.65	302.39
354.032	277.54
354.414	315.5
354.797	313.47
355.179	318.21
355.562	333.35
355.944	333.35
356.326	339.91
356.709	315.95
357.091	364.54
357.473	346.01
357.855	335.61
358.238	336.29
358.62	344.65
359.002	345.56
359.384	342.84
359.766	327.25
360.148	349.4
360.53	353.47
360.912	322.73
361.294	337.42
361.676	325.9
362.057	320.47
362.439	346.69
362.821	326.57
363.203	313.69
363.584	321.15
363.966	341.26
364.348	342.39
364.729	328.38
365.111	333.13
365.493	313.47
365.874	334.48
366.256	334.03
366.637	309.62
367.019	319.34
367.4	308.04
367.781	309.62
368.163	312.34
368.544	309.62
368.925	322.73
369.306	313.47
369.688	318.66
370.069	318.44
370.45	308.95
370.831	332.67
371.212	330.42
371.593	295.84
371.974	299.68
372.355	326.35
372.736	316.86
373.117	303.52
373.498	333.35
373.879	327.48
374.26	314.14
374.641	321.6
375.021	322.73
375.402	306.46
375.783	320.02
376.163	340.58
376.544	326.8
376.925	332.67
377.305	338.78
377.686	309.62
378.066	334.71
378.447	351.66
378.827	336.06
379.208	350.98
379.588	336.29
379.968	337.87
380.349	343.75
380.729	341.94
381.109	348.49
381.489	328.16
381.87	325.9
382.25	362.05
382.63	345.78
383.01	344.65
383.39	359.79
383.77	338.32
384.15	352.11
384.53	373.8
384.91	341.49
385.29	346.91
385.67	341.04
386.049	373.58
386.429	325.44
386.809	362.05
387.189	364.76
387.568	357.76
387.948	340.13
388.328	335.16
388.707	364.54
389.087	356.18
389.466	354.37
389.846	391.43
390.225	377.87
390.605	373.13
390.984	375.39
391.363	366.57
391.743	363.63
392.122	374.26
392.501	370.64
392.881	396.18
393.26	386.68
393.639	372.45
394.018	378.78
394.397	397.98
394.776	377.87
395.155	381.04
395.534	381.94
395.913	392.33
396.292	395.95
396.671	393.69
397.05	407.48
397.429	378.78
397.808	374.71
398.186	400.92
398.565	400.24
398.944	377.42
399.323	403.63
399.701	401.6
400.08	394.37
400.458	393.24
400.837	383.07
401.215	410.64
401.594	411.32
401.972	405.22
402.351	425.78
402.729	405.67
403.107	425.1
403.486	416.97
403.864	418.1
404.242	443.18
404.62	413.8
404.999	411.54
405.377	430.75
405.755	436.85
406.133	429.17
406.511	422.16
406.889	423.52
407.267	432.79
407.645	433.24
408.023	437.76
408.401	453.35
408.779	447.7
409.156	452.67
409.534	443.18
409.912	465.78
410.29	457.19
410.667	467.81
411.045	487.25
411.422	476.17
411.8	472.78
412.178	488.15
412.555	487.02
412.933	472.56
413.31	477.76
413.687	475.5
414.065	451.32
414.442	501.48
414.819	501.48
415.197	478.21
415.574	498.32
415.951	521.14
416.328	513.91
416.705	479.56
417.082	528.6
417.46	511.43
417.837	516.62
418.214	515.49
418.591	519.56
418.967	524.76
419.344	542.39
419.721	537.19
420.098	553.46
420.475	543.06
420.852	540.8
421.228	543.74
421.605	538.09
421.982	541.93
422.358	540.8
422.735	549.17
423.111	564.99
423.488	545.55
423.864	574.25
424.241	577.64
424.617	588.71
424.994	566.79
425.37	574.48
425.746	570.86
426.123	597.3
426.499	568.83
426.875	595.04
427.251	598.66
427.627	617.41
428.003	589.62
428.379	611.54
428.756	608.37
429.132	627.13
429.507	615.61
429.883	630.29
430.259	649.05
430.635	649.05
431.011	658.54
431.387	684.98
431.763	670.75
432.138	663.06
432.514	681.37
432.89	680.69
433.265	673.91
433.641	700.8
434.016	697.41
434.392	695.6
434.767	688.82
435.143	700.57
435.518	706.22
435.894	729.95
436.269	733.79
436.644	738.99
437.02	755.49
437.395	730.63
437.77	760.91
438.145	754.81
438.52	772.44
438.895	769.05
439.271	778.76
439.646	763.4
440.021	748.71
440.395	795.71
440.77	790.74
441.145	797.07
441.52	814.7
441.895	826
442.27	802.94
442.645	836.39
443.019	850.63
443.394	812.89
443.769	841.59
444.143	808.82
444.518	831.64
444.892	810.4
445.267	851.53
445.641	821.93
446.016	858.76
446.39	864.19
446.764	852.44
447.139	867.12
447.513	867.58
447.887	846.33
448.262	875.26
448.636	897.18
449.01	884.07
449.384	876.62
449.758	896.95
450.132	910.96
450.506	908.7
450.88	909.16
451.254	893.11
451.628	915.94
452.002	940.12
452.376	934.69
452.75	943.28
453.123	936.27
453.497	980.79
453.871	960.45
454.244	998.65
454.618	995.93
454.992	992.09
455.365	1015.14
455.739	1060.79
456.112	1025.54
456.486	1027.12
456.859	1037.74
457.232	1091.52
457.606	1079.1
457.979	1068.47
458.352	1114.12
458.725	1083.62
459.099	1123.84
459.472	1131.75
459.845	1118.87
460.218	1118.64
460.591	1141.92
460.964	1177.85
461.337	1211.75
461.71	1219.21
462.083	1229.6
462.456	1217.4
462.829	1237.06
463.201	1241.35
463.574	1251.07
463.947	1278.19
464.32	1291.97
464.692	1287.23
465.065	1326.77
465.438	1305.08
465.81	1352.08
466.183	1385.08
466.555	1405.87
466.928	1395.47
467.3	1383.95
467.672	1407.22
468.045	1458.75
468.417	1479.31
468.789	1482.93
469.161	1513.66
469.534	1530.61
469.906	1566.77
470.278	1585.98
470.65	1590.95
471.022	1610.38
471.394	1689.7
471.766	1657.84
472.138	1694.67
472.51	1721.79
472.882	1743.49
473.253	1807.44
473.625	1842.01
473.997	1878.85
474.369	1884.05
474.74	1898.51
475.112	1986.64
475.484	1980.54
475.855	2063.93
476.227	2038.17
476.598	2115.9
476.97	2162.23
477.341	2196.58
477.713	2239.97
478.084	2261.21
478.455	2327.88
478.827	2398.16
479.198	2461.43
479.569	2491.26
479.94	2567.87
480.311	2586.63
480.682	2673.63
481.053	2704.14
481.424	2818.03
481.795	2856.68
482.166	2907.52
482.537	2969.44
482.908	3046.95
483.279	3131.7
483.65	3223.45
484.021	3246.72
484.391	3334.86
484.762	3361.3
485.133	3462.54
485.503	3500.05
485.874	3647.39
486.244	3671.12
486.615	3809.65
486.985	3848.29
487.356	4011.45
487.726	3986.82
488.097	4158.56
488.467	4147.94
488.837	4292.34
489.207	4368.27
489.578	4429.06
489.948	4526.24
490.318	4611.21
490.688	4678.55
491.058	4747.25
491.428	4809.17
491.798	4937.98
492.168	5064.98
492.538	5132.55
492.908	5203.73
493.278	5304.75
493.648	5335.03
494.017	5438.76
494.387	5528.47
494.757	5592.88
495.126	5749.03
495.496	5711.74
495.866	5801.68
496.235	5870.16
496.605	5972.98
496.974	6026.76
497.344	6141.56
497.713	6210.71
498.082	6177.04
498.452	6349.69
498.821	6376.58
499.19	6469.69
499.559	6511.72
499.928	6584.04
500.298	6612.06
500.667	6699.51
501.036	6753.07
501.405	6878.04
501.774	6891.82
502.143	6966.85
502.512	6995.78
502.88	7106.73
503.249	7105.38
503.618	7211.59
503.987	7260.63
504.356	7292.27
504.724	7336.11
505.093	7431.47
505.462	7405.94
505.83	7567.06
506.199	7614.29
506.567	7740.84
506.936	7708.98
507.304	7754.85
507.672	7844.34
508.041	7883.89
508.409	7973.38
508.777	8027.84
509.145	8114.84
509.514	8136.76
509.882	8253.82
510.25	8167.72
510.618	8221.28
510.986	8289.53
511.354	8370.88
511.722	8447.72
512.09	8546.7
512.458	8568.39
512.826	8628.05
513.193	8605.23
513.561	8662.4
513.929	8790.53
514.297	8804.32
514.664	8860.59
515.032	8969.51
515.4	8963.18
515.767	8973.13
516.135	8991.66
516.502	9042.05
516.869	9153.01
517.237	9171.54
517.604	9112.11
517.972	9220.35
518.339	9277.3
518.706	9331.53
519.073	9335.15
519.44	9471.87
519.808	9548.03
520.175	9511.87
520.542	9593.22
520.909	9698.53
521.276	9679.77
521.643	9813.33
522.009	9790.51
522.376	9834.35
522.743	9955.92
523.11	10008.58
523.477	10129.93
523.843	10117.05
524.21	10239.08
524.577	10270.94
524.943	10316.37
525.31	10377.83
525.676	10465.52
526.043	10531.95
526.409	10575.34
526.776	10691.72
527.142	10672.97
527.508	10694.44
527.874	10865.05
528.241	10896.69
528.607	10880.19
528.973	11040.42
529.339	11028.89
529.705	11086.06
530.071	11212.39
530.437	11195.89
530.803	11314.98
531.169	11409.45
531.535	11382.55
531.901	11372.38
532.267	11519.5
532.632	11561.53
532.998	11507.75
533.364	11702.09
533.73	11677.46
534.095	11763.11
534.461	11830.45
534.826	11859.15
535.192	11981.41
535.557	12003.33
535.923	12021.41
536.288	12027.96
536.653	12060.95
537.019	12123.33
537.384	12179.14
537.749	12309.76
538.114	12260.5
538.479	12236.54
538.845	12385.24
539.21	12399.02
539.575	12427.05
539.94	12467.27
540.305	12621.17
540.67	12534.61
541.034	12679.47
541.399	12654.84
541.764	12783.42
542.129	12738.45
542.494	12795.85
542.858	12880.37
543.223	12808.51
543.587	13003.53
543.952	13006.92
544.316	13039.46
544.681	13037.88
545.045	13138.67
545.41	13224.99
545.774	13250.75
546.138	13281.49
546.503	13335.95
546.867	13356.74
547.231	13561.71
547.595	13584.3
547.959	13629.05
548.324	13627.24
548.688	13617.98
549.052	13704.53
549.416	13777.75
549.779	13729.38
550.143	13709.05
550.507	13853.9
550.871	13917.4
551.235	13916.27
551.599	14035.82
551.962	14118.3
552.326	14078.98
552.689	14234.46
553.053	14236.04
553.417	14238.75
553.78	14380.89
554.143	14409.37
554.507	14392.42
554.87	14404.17
555.234	14552.19
555.597	14497.73
555.96	14543.37
556.323	14650.72
556.686	14705.63
557.05	14691.39
557.413	14810.26
557.776	14780.2
558.139	14899.75
558.502	14958.73
558.865	14892.07
559.228	15088.45
559.59	15121.44
559.953	15161.21
560.316	15257.71
560.679	15236.24
561.041	15380.41
561.404	15438.72
561.767	15466.51
562.129	15429.23
562.492	15579.51
562.854	15587.87
563.217	15596.68
563.579	15668.09
563.941	15741.76
564.304	15830.8
564.666	15890.46
565.028	15948.08
565.39	15979.5
565.753	16065.82
566.115	16113.28
566.477	16254.52
566.839	16165.03
567.201	16274.4
567.563	16396.66
567.925	16540.61
568.287	16479.14
568.648	16490.67
569.01	16621.74
569.372	16806.82
569.734	16677.56
570.095	16826.03
570.457	16906.25
570.819	16800.94
571.18	16918.45
571.542	17039.81
571.903	16986.25
572.265	17114.83
572.626	17293.81
572.987	17182.4
573.349	17396.86
573.71	17551.43
574.071	17553.92
574.432	17610.86
574.794	17835.49
575.155	17815.61
575.516	17847.69
575.877	18042.27
576.238	18126.33
576.599	18171.98
576.96	18293.33
577.32	18425.53
577.681	18562.7
578.042	18674.57
578.403	18882.02
578.763	18908.23
579.124	19030.94
579.485	19187.32
579.845	19447.88
580.206	19450.82
580.566	19685.16
580.927	19757.47
581.287	20110.01
581.648	20148.88
582.008	20364.46
582.368	20418.47
582.728	20638.58
583.089	20839.93
583.449	21011.68
583.809	21183.65
584.169	21380.71
584.529	21567.37
584.889	22015.27
585.249	21942.28
585.609	22220.46
585.969	22450.51
586.329	22669.04
586.688	22888.01
587.048	23154.22
587.408	23348.57
587.768	23562.12
588.127	23779.97
588.487	24020.64
588.846	24363
589.206	24491.14
589.565	24670.34
589.925	25144.9
590.284	25259.48
590.643	25465.12
591.003	25793.93
591.362	26083.41
591.721	26418.09
592.08	26620.35
592.44	26907.8
592.799	27199.09
593.158	27298.75
593.517	27708.45
593.876	28033.87
594.235	28122
594.593	28429.79
594.952	28752.94
595.311	28886.05
595.67	29294.17
596.029	29706.82
596.387	29896.42
596.746	30145.45
597.104	30306.58
597.463	30568.72
597.822	30953.11
598.18	30982.49
598.538	31269.26
598.897	31635.58
599.255	31637.84
599.613	32330.03
599.972	32347.65
600.33	32663.35
600.688	32734.31
601.046	33059.27
601.404	33265.14
601.762	33481.41
602.12	33901.51
602.478	34063.99
602.836	34196.87
603.194	34248.62
603.552	34463.75
603.91	34606.12
604.268	35092.44
604.625	35108.26
604.983	35371.98
605.341	35454.46
605.698	35838.86
606.056	36020.78
606.413	36100.1
606.771	36496.47
607.128	36638.39
607.485	36638.84
607.843	36786.86
608.2	37213.74
608.557	37315.21
608.914	37456.67
609.272	37775.31
609.629	37942.31
609.986	38126.94
610.343	38115.64
610.7	38683.08
611.057	38639.69
611.414	38802.62
611.771	38998.32
612.127	39115.61
612.484	39168.94
612.841	39432.66
613.198	39483.51
613.554	39629.72
613.911	39886.44
614.267	40064.96
614.624	40014.12
614.98	40230.83
615.337	40369.81
615.693	40471.28
616.05	40511.73
616.406	40901.55
616.762	40752.63
617.118	40832.85
617.475	41090.47
617.831	41106.07
618.187	41375.89
618.543	41383.57
618.899	41711.47
619.255	41688.65
619.611	41701.08
619.967	41827.4
620.323	42139.94
620.678	42102.2
621.034	42063.78
621.39	42112.37
621.746	42118.02
622.101	42698.11
622.457	42477.1
622.812	42631.45
623.168	42727.49
623.523	42743.76
623.879	43003.64
624.234	42821.95
624.589	42896.08
624.945	43095.39
625.3	43019.24
625.655	43135.84
626.01	43226.91
626.365	43224.2
626.72	43210.64
627.075	43266.46
627.43	43318.21
627.785	43174.49
628.14	43369.74
628.495	43486.79
628.85	43497.42
629.205	43383.07
629.559	43710.74
629.914	43386.46
630.269	43467.13
630.623	43431.43
630.978	43487.47
631.332	43673.68
631.687	43719.56
632.041	43503.29
632.396	43522.73
632.75	43525.44
633.104	43610.18
633.459	43409.06
633.813	43508.71
634.167	43684.3
634.521	43550.52
634.875	43665.32
635.229	43573.8
635.583	43477.98
635.937	43569.96
636.291	43557.08
636.645	43569.96
636.999	43409.51
637.352	43706.9
637.706	43449.28
638.06	43631.2
638.413	43513.23
638.767	43374.71
639.121	43571.99
639.474	43186.24
639.828	43396.18
640.181	43414.71
640.534	43451.99
640.888	43292
641.241	43124.32
641.594	43200.93
641.947	43336.52
642.301	43313.01
642.654	43258.55
643.007	43315.5
643.36	43198.89
643.713	43113.7
644.066	43389.4
644.419	42997.77
644.771	42808.62
645.124	42582.86
645.477	42471.91
645.83	42290.44
646.182	42046.83
646.535	42022.2
646.888	42160.05
647.24	41857.91
647.593	42089.32
647.945	41896.1
648.298	41883.45
648.65	41824.01
649.002	41764.35
649.355	41800.51
649.707	41848.87
650.059	41980.39
650.411	42569.3
650.763	42500.15
651.115	42758.68
651.467	42680.49
651.819	42679.58
652.171	42638.23
652.523	42667.61
652.875	42586.93
653.227	42486.14
653.578	42765.01
653.93	42697.44
654.282	42442.98
654.633	42429.2
654.985	42665.8
655.337	42600.49
655.688	42551.9
656.039	42665.12
656.391	42439.82
656.742	42442.75
657.094	42494.73
657.445	42621.05
657.796	42514.39
658.147	42364.34
658.498	42472.81
658.849	42330.89
659.2	42389.2
659.551	42220.61
659.902	42379.93
660.253	42365.02
660.604	42356.2
660.955	42069.88
661.306	42267.84
661.656	42349.65
662.007	42219.48
662.358	42304.68
662.708	42264.91
663.059	42250.22
663.409	41979.94
663.76	42347.39
664.11	42285.02
664.461	42366.37
664.811	42306.94
665.161	42194.85
665.511	42200.5
665.862	42132.25
666.212	42404.56
666.562	42237.79
666.912	42197.56
667.262	42245.02
667.612	42156.21
667.962	42260.61
668.312	42083.22
668.662	42336.77
669.011	42108.07
669.361	42296.32
669.711	42187.17
670.06	42113.27
670.41	42037.79
670.76	42024.91
671.109	42185.13
671.459	42123.67
671.808	41998.25
672.157	42110.33
672.507	41772.49
672.856	41843
673.205	41860.85
673.554	42107.85
673.904	41935.87
674.253	42101.97
674.602	41935.2
674.951	41394.87
675.3	41258.15
675.649	41970.9
675.998	41776.78
676.346	41787.4
676.695	42066.27
677.044	41660.85
677.393	41789.89
677.741	41837.57
678.09	41592.38
678.438	41724.35
678.787	41649.33
679.135	41657.46
679.484	41356.91
679.832	41444.81
680.181	41387.19
680.529	41458.83
680.877	41258.38
681.225	41365.95
681.573	41555.09
681.922	41216.12
682.27	41220.87
682.618	41184.71
682.966	40984.49
683.314	41125.5
683.661	41005.73
684.009	40815
684.357	40823.59
684.705	40685.96
685.053	40810.71
685.4	40626.08
685.748	40421.11
686.095	40597.15
686.443	40418.85
686.79	40389.7
687.138	40457.5
687.485	40370.94
687.832	40322.81
688.18	40258.86
688.527	40075.81
688.874	40078.75
689.221	39849.6
689.568	39876.04
689.915	39861.8
690.262	39717.85
690.609	39528.03
690.956	39427.47
691.303	39450.52
691.65	39216.85
691.997	39296.4
692.344	39092.33
692.69	39057.08
693.037	39109.73
693.383	38841.72
693.73	38947.7
694.077	38647.6
694.423	38855.5
694.769	38566.47
695.116	38494.16
695.462	38532.57
695.808	38452.8
696.155	38498.68
696.501	38114.05
696.847	38144.11
697.193	37870.44
697.539	38092.36
697.885	37947.51
698.231	37692.37
698.577	37714.97
698.923	37708.87
699.269	37500.51
699.614	37391.36
699.96	37243.79
700.306	37208.09
700.651	37216.9
700.997	37085.15
701.342	36913.63
701.688	36911.6
702.033	36785.95
702.379	36750.7
702.724	36716.8
703.069	36656.69
703.415	36217.38
703.76	36331.95
704.105	36218.06
704.45	36284.95
704.795	36023.71
705.14	35951.4
705.485	35790.95
705.83	35761.57
706.175	35744.85
706.52	35650.84
706.865	35587.34
707.209	35420.34
707.554	35400.45
707.899	35359.32
708.243	35157.3
708.588	35242.72
708.932	34979.9
709.277	34989.84
709.621	35098.99
709.966	34800.47
710.31	34942.61
710.654	34606.8
710.998	34651.55
711.342	34670.3
711.687	34644.54
712.031	34564.09
712.375	34330.2
712.719	34413.81
713.063	34278.22
713.407	34420.59
713.75	34115.06
714.094	34092.47
714.438	34084.1
714.782	34093.37
715.125	33856.99
715.469	33949.42
715.812	33740.84
716.156	33702.42
716.499	33653.83
716.843	33578.35
717.186	33322.32
717.53	33550.56
717.873	33606.83
718.216	33397.79
718.559	33145.82
718.902	33072.15
719.246	33215.88
719.589	33068.54
719.932	32886.85
720.275	32913.51
720.617	32871.03
720.96	32856.79
721.303	32857.7
721.646	32853.18
721.989	32643.24
722.331	32706.74
722.674	32614.09
723.016	32618.15
723.359	32653.86
723.701	32587.87
724.044	32413.41
724.386	32184.94
724.729	32474.88
725.071	32289.35
725.413	32194.66
725.755	32130.93
726.097	32057.49
726.439	31891.85
726.782	32031.28
727.124	32172.06
727.465	31835.35
727.807	31815.91
728.149	31729.59
728.491	31835.12
728.833	31777.27
729.175	31621.8
729.516	31619.99
729.858	31471.52
730.199	31516.71
730.541	31489.37
730.882	31473.32
731.224	31550.16
731.565	31263.61
731.906	31406.66
732.248	31357.62
732.589	31132.77
732.93	31106.55
733.271	31156.95
733.612	31067.91
733.953	31087.8
734.294	31046.44
734.635	30962.38
734.976	30987.91
735.317	30870.18
735.658	30814.81
735.999	30877.86
736.339	30700.69
736.68	30752.21
737.021	30620.92
737.361	30588.15
737.702	30706.11
738.042	30587.47
738.383	30562.61
738.723	30448.72
739.063	30508.6
739.404	30523.07
739.744	30430.19
740.084	30361.26
740.424	30290.08
740.764	30258.89
741.104	30356.74
741.444	30108.16
741.784	29957.21
742.124	30109.52
742.464	30080.37
742.804	30120.14
743.143	29987.04
743.483	29912.46
743.823	29698.91
744.162	29775.97
744.502	29803.09
744.841	29699.81
745.181	29733.71
745.52	29641.06
745.86	29691
746.199	29661.62
746.538	29598.8
746.877	29549.99
747.216	29511.34
747.556	29546.14
747.895	29570.78
748.234	29414.17
748.573	29278.13
748.911	29353.38
749.25	29338.92
749.589	29146.61
749.928	29223.67
750.267	29291.91
750.605	29064.35
750.944	29060.51
751.283	28942.77
751.621	29061.19
751.96	28855.09
752.298	28801.3
752.636	28929.89
752.975	28649.22
753.313	28656.9
753.651	28676.79
753.989	28499.62
754.327	28489
754.666	28284.03
755.004	28439.96
755.342	28305.95
755.679	28317.25
756.017	28199.29
756.355	28314.54
756.693	28165.62
757.031	28097.14
757.368	28037.94
757.706	27902.35
758.044	27837.26
758.381	27900.99
758.719	27757.94
759.056	27886.07
759.394	27743.93
759.731	27564.28
760.068	27557.27
760.405	27509.36
760.743	27223.72
761.08	27405.64
761.417	27292.19
761.754	27149.6
762.091	27141.24
762.428	27040.9
762.765	26774.69
763.102	26945.31
763.438	26764.97
763.775	26654.02
764.112	26787.57
764.449	26704.18
764.785	26459.67
765.122	26425.1
765.458	26262.16
765.795	26222.39
766.131	26243.41
766.467	26125.22
766.804	26016.07
767.14	25849.29
767.476	25952.79
767.812	25807.94
768.148	25805.45
768.485	25688.84
768.821	25582.63
769.157	25522.3
769.492	25337.44
769.828	25360.04
770.164	25225.13
770.5	25126.15
770.836	25017.68
771.171	25047.73
771.507	24963.21
771.842	24718.02
772.178	24886.83
772.513	24736.78
772.849	24600.29
773.184	24385.15
773.519	24531.13
773.855	24420.86
774.19	24194.19
774.525	24160.52
774.86	24155.33
775.195	23978.15
775.53	23965.27
775.865	23848.67
776.2	23683.02
776.535	23609.8
776.87	23543.36
777.205	23466.08
777.539	23413.2
777.874	23417.72
778.209	23084.17
778.543	23103.15
778.878	23090.49
779.212	23008.46
779.547	22799.2
779.881	22890.95
780.215	22734.8
780.55	22721.01
780.884	22672.2
781.218	22450.74
781.552	22430.17
781.886	22413.22
782.22	22289.61
782.554	22214.36
782.888	21973.46
783.222	21941.15
783.556	21805.33
783.889	21880.58
784.223	21757.65
784.557	21652.11
784.89	21741.6
785.224	21477.2
785.557	21442.85
785.891	21339.35
786.224	21273.82
786.558	21185.01
786.891	21136.65
787.224	21007.39
787.557	21067.04
787.891	20897.33
788.224	21016.65
788.557	20897.56
788.89	20733.04
789.223	20716.55
789.556	20611.01
789.888	20487.17
790.221	20477
790.554	20273.17
790.887	20269.1
791.219	20171.7
791.552	20244.24
791.884	20081.08
792.217	20019.39
792.549	19850.81
792.882	19774.2
793.214	19677.93
793.546	19772.39
793.879	19633.41
794.211	19518.16
794.543	19583.24
794.875	19448.33
795.207	19468.44
795.539	19363.13
795.871	19382.8
796.203	19171.5
796.535	19181.22
796.867	19105.74
797.198	19126.53
797.53	19018.06
797.862	18965.86
798.193	18913.43
798.525	18814.9
798.856	18751.4
799.188	18691.74
799.519	18532.65
799.85	18483.61
800.182	18474.34
800.513	18528.81
800.844	18296.5
801.175	18379.66
801.506	18435.25
801.837	18315.48
802.168	18222.37
802.499	18150.74
802.83	18031.42
803.161	18100.12
803.491	17950.06
803.822	17995.04
804.153	17799.56
804.483	17711.2
804.814	17714.59
805.145	17713.01
805.475	17613.58
805.805	17584.65
806.136	17539.91
806.466	17509.62
806.796	17484.77
807.126	17352.79
807.457	17223.76
807.787	17236.64
808.117	17190.31
808.447	17139.01
808.777	17214.26
809.107	17086.36
809.436	16975.63
809.766	16928.85
810.096	16919.81
810.426	16899.02
810.755	16908.74
811.085	16926.14
811.414	16774.95
811.744	16631.46
812.073	16687.05
812.403	16663.09
812.732	16478.01
813.061	16542.42
813.39	16412.03
813.719	16459.03
814.049	16504.68
814.378	16293.16
814.707	16291.13
815.036	16282.31
815.365	16197.57
815.693	16118.47
816.022	16131.13
816.351	16095.2
816.68	15989.66
817.008	16070.57
817.337	15878.93
817.665	15829.22
817.994	15886.62
818.322	15854.3
818.651	15780.4
818.979	15801.65
819.307	15739.5
819.636	15690.46
819.964	15566.62
820.292	15640.07
820.62	15624.02
820.948	15513.07
821.276	15663.35
821.604	15572.27
821.932	15619.5
822.259	15544.7
822.587	15626.74
822.915	15510.35
823.243	15556.68
823.57	15503.8
823.898	15475.55
824.225	15433.07
824.553	15421.54
824.88	15562.78
825.207	15603.01
825.535	15436.01
825.862	15536.57
826.189	15489.56
826.516	15537.92
826.843	15510.35
827.17	15500.86
827.497	15584.93
827.824	15501.32
828.151	15481.66
828.478	15496.57
828.805	15578.38
829.131	15418.83
829.458	15525.5
829.785	15498.38
830.111	15456.35
830.438	15473.52
830.764	15539.28
831.09	15489.11
831.417	15343.81
831.743	15432.62
832.069	15421.32
832.395	15335.9
832.722	15421.32
833.048	15348.1
833.374	15405.5
833.7	15296.35
834.026	15310.59
834.351	15326.4
834.677	15296.12
835.003	15313.75
835.329	15230.81
835.654	15252.51
835.98	15195.11
836.306	15264.94
836.631	15153.3
836.956	15204.37
837.282	15183.13
837.607	15094.09
837.932	15069.46
838.258	15051.84
838.583	15023.59
838.908	15034.44
839.233	14993.31
839.558	14998.5
839.883	14832.86
840.208	14881.67
840.533	14898.85
840.858	14794.67
841.182	14851.84
841.507	14825.63
841.832	14744.95
842.156	14628.57
842.481	14750.37
842.805	14640.55
843.13	14577.27
843.454	14594.9
843.778	14543.83
844.103	14486.88
844.427	14474
844.751	14533.66
845.075	14465.64
845.399	14443.49
845.723	14225.42
846.047	14269.48
846.371	14223.38
846.695	14159.2
847.019	14146.32
847.343	14025.2
847.666	13927.35
847.99	13924.18
848.313	13954.69
848.637	13791.98
848.96	13759.44
849.284	13696.62
849.607	13645.32
849.931	13570.07
850.254	13468.15
850.577	13506.34
850.9	13378.43
851.223	13354.03
851.546	13323.52
851.869	13320.36
852.192	13256.85
852.515	13183.41
852.838	13122.17
853.161	13125.33
853.483	12955.85
853.806	12940.25
854.129	12983.64
854.451	12866.13
854.774	12841.95
855.096	12778.45
855.419	12833.36
855.741	12760.82
856.063	12655.97
856.385	12709.52
856.708	12603.99
857.03	12549.98
857.352	12486.48
857.674	12450.77
857.996	12405.35
858.318	12408.29
858.64	12357.67
858.961	12399.7
859.283	12357.9
859.605	12244.9
859.926	12373.94
860.248	12259.37
860.57	12202.65
860.891	12220.27
861.212	12072.48
861.534	12020.05
861.855	12080.61
862.176	12018.92
862.498	12063.89
862.819	11992.93
863.14	11933.95
863.461	11920.39
863.782	11872.03
864.103	11883.11
864.424	11933.73
864.745	11910
865.065	11841.75
865.386	11843.11
865.707	11778.48
866.027	11766.5
866.348	11782.77
866.668	11677.91
866.989	11682.21
867.309	11573.74
867.63	11671.59
867.95	11553.4
868.27	11492.61
868.59	11508.65
868.91	11501.87
869.23	11507.07
869.55	11448.99
869.87	11524.47
870.19	11483.79
870.51	11455.09
870.83	11503
871.15	11353.85
871.469	11449.67
871.789	11417.81
872.109	11419.84
872.428	11335.32
872.748	11425.94
873.067	11353.85
873.386	11302.33
873.706	11281.09
874.025	11209.68
874.344	11212.39
874.663	11236.57
874.982	11238.38
875.301	11155.89
875.62	11191.15
875.939	11144.82
876.258	11155.67
876.577	11083.35
876.896	11166.51
877.214	11065.05
877.533	11104.37
877.852	11043.81
878.17	11038.83
878.489	11042.68
878.807	11065.05
879.125	10926.97
879.444	10991.15
879.762	10950.93
880.08	10992.06
880.398	10837.94
880.716	10901.89
881.034	10846.07
881.352	10845.62
881.67	10740.08
881.988	10811.04
882.306	10772.85
882.624	10713.87
882.941	10710.48
883.259	10633.87
883.577	10660.99
883.894	10635.45
884.212	10557.49
884.529	10603.59
884.846	10466.19
885.164	10461.9
885.481	10411.51
885.798	10497.15
886.115	10431.39
886.432	10464.16
886.75	10450.83
887.067	10381.9
887.383	10360.66
887.7	10391.62
888.017	10281.11
888.334	10362.02
888.651	10281.57
888.967	10285.41
889.284	10192.98
889.6	10148.69
889.917	10107.79
890.233	10069.82
890.55	10040.67
890.866	10119.76
891.182	10037.96
891.498	10006.77
891.815	9966.77
892.131	9915.25
892.447	9941.69
892.763	9834.8
893.079	9839.32
893.395	9811.3
893.71	9752.99
894.026	9737.17
894.342	9758.64
894.657	9625.76
894.973	9674.12
895.289	9625.31
895.604	9656.72
895.92	9607.46
896.235	9495.6
896.55	9576.5
896.865	9548.48
897.181	9497.18
897.496	9441.81
897.811	9372.89
898.126	9371.53
898.441	9320.69
898.756	9320.01
899.071	9287.02
899.386	9248.37
899.7	9156.17
900.015	9154.36
900.33	9084.54
900.644	9134.93
900.959	9122.27
901.273	8999.57
901.588	8990.98
901.902	8921.38
902.216	8961.83
902.531	8940.81
902.845	8871.66
903.159	8828.5
903.473	8848.16
903.787	8707.14
904.101	8720.7
904.415	8726.8
904.729	8693.58
905.042	8642.29
905.356	8669.86
905.67	8622.4
905.984	8532.01
906.297	8524.78
906.611	8479.81
906.924	8433.7
907.237	8412.01
907.551	8372.92
907.864	8321.39
908.177	8339.92
908.491	8277.78
908.804	8223.09
909.117	8218.12
909.43	8205.24
909.743	8182.64
910.056	8083.21
910.368	8075.52
910.681	8097.22
910.994	8070.78
911.307	8038.69
911.619	7925.92
911.932	8013.38
912.244	7898.35
912.557	7828.97
912.869	7793.04
913.181	7805.25
913.494	7803.21
913.806	7716.89
914.118	7723.22
914.43	7623.78
914.742	7673.05
915.054	7588.53
915.366	7544.24
915.678	7533.39
915.99	7494.07
916.302	7509.44
916.613	7450.68
916.925	7419.49
917.236	7346.5
917.548	7348.31
917.859	7275.77
918.171	7256.79
918.482	7331.59
918.794	7227.63
919.105	7182.66
919.416	7189.9
919.727	7116.23
920.038	7137.24
920.349	7064.48
920.66	7108.09
920.971	7053.85
921.282	7019.28
921.593	6991.26
921.903	6958.72
922.214	6938.38
922.525	6871.03
922.835	6839.4
923.146	6750.36
923.456	6891.82
923.767	6811.83
924.077	6766.4
924.387	6706.74
924.697	6654.99
925.008	6644.37
925.318	6595.34
925.628	6531.83
925.938	6516.69
926.248	6532.29
926.558	6473.98
926.867	6474.89
927.177	6446.41
927.487	6457.03
927.796	6346.08
928.106	6307.88
928.416	6299.07
928.725	6283.25
929.034	6294.33
929.344	6274.44
929.653	6216.59
929.962	6203.03
930.271	6184.05
930.581	6146.53
930.89	6134.56
931.199	6084.39
931.508	6062.02
931.817	6030.38
932.125	6024.73
932.434	6006.2
932.743	5917.61
933.051	5929.82
933.36	5908.8
933.669	5884.17
933.977	5909.25
934.286	5800.55
934.594	5835.58
934.902	5811.85
935.21	5710.16
935.519	5753.32
935.827	5723.49
936.135	5655.47
936.443	5672.65
936.751	5618.64
937.059	5634.91
937.367	5578.41
937.674	5572.76
937.982	5569.6
938.29	5518.75
938.597	5536.15
938.905	5451.86
939.213	5450.73
939.52	5444.86
939.827	5387.68
940.135	5354.46
940.442	5339.77
940.749	5297.06
941.056	5318.31
941.363	5244.64
941.67	5236.05
941.977	5251.19
942.284	5197.86
942.591	5192.21
942.898	5193.79
943.205	5176.39
943.511	5162.15
943.818	5122.15
944.125	5076.96
944.431	5061.59
944.738	5084.64
945.044	4976.85
945.35	5015.26
945.657	4998.31
945.963	4990.18
946.269	4932.55
946.575	4947.02
946.881	4868.83
947.187	4871.76
947.493	4814.82
947.799	4836.74
948.105	4813.91
948.41	4776.63
948.716	4766.46
949.022	4751.09
949.327	4737.76
949.633	4701.15
949.938	4644.43
950.244	4678.78
950.549	4656.18
950.854	4610.75
951.16	4620.92
951.465	4572.79
951.77	4578.89
952.075	4531.89
952.38	4473.36
952.685	4524.2
952.99	4492.79
953.294	4435.62
953.599	4443.3
953.904	4422.06
954.209	4327.15
954.513	4395.62
954.818	4370.31
955.122	4341.61
955.426	4339.8
955.731	4326.92
956.035	4238.79
956.339	4270.65
956.643	4269.07
956.948	4192.91
957.252	4171.67
957.556	4174.83
957.86	4193.59
958.163	4170.31
958.467	4126.47
958.771	4124.89
959.075	4138.9
959.378	4088.28
959.682	4050.54
959.985	4070.88
960.289	4051.67
960.592	4055.51
960.896	4043.99
961.199	3973.26
961.502	3953.37
961.805	3970.32
962.108	3918.12
962.411	3944.11
962.714	3923.54
963.017	3868.63
963.32	3866.37
963.623	3867.05
963.926	3848.29
964.228	3813.26
964.531	3813.26
964.833	3816.2
965.136	3746.14
965.438	3739.36
965.741	3745.47
966.043	3726.48
966.345	3708.41
966.648	3715.18
966.95	3700.04
967.252	3667.95
967.554	3596.77
967.856	3595.87
968.158	3626.37
968.46	3609.2
968.761	3587.05
969.063	3558.8
969.365	3525.36
969.666	3533.49
969.968	3522.42
970.269	3538.69
970.571	3473.61
970.872	3461.63
971.174	3447.4
971.475	3406.72
971.776	3424.57
972.077	3400.16
972.378	3372.59
972.679	3346.83
972.98	3395.19
973.281	3385.48
973.582	3326.95
973.883	3328.3
974.183	3295.53
974.484	3306.61
974.785	3261.64
975.085	3288.53
975.386	3258.7
975.686	3192.71
975.986	3244.69
976.287	3204.92
976.587	3151.13
976.887	3175.54
977.187	3172.83
977.487	3144.8
977.787	3131.02
978.087	3105.26
978.387	3147.29
978.687	3091.02
978.987	3092.38
979.286	3061.87
979.586	3013.51
979.885	3040.4
980.185	3006.28
980.484	3016.67
980.784	3003.57
981.083	2967.41
981.382	2928.31
981.682	2951.82
981.981	2919.5
982.28	2901.19
982.579	2875.21
982.878	2917.69
983.177	2896.45
983.475	2876.56
983.774	2853.51
984.073	2877.01
984.372	2845.15
984.67	2851.03
984.969	2833.85
985.267	2805.38
985.566	2777.81
985.864	2790.69
986.162	2799.05
986.461	2741.88
986.759	2742.78
987.057	2717.47
987.355	2688.77
987.653	2741.88
987.951	2705.95
988.249	2713.18
988.547	2681.77
988.844	2679.96
989.142	2657.13
989.44	2648.32
989.737	2610.13
990.035	2604.03
990.332	2570.58
990.63	2623.01
990.927	2562.67
991.224	2528.32
991.521	2569.9
991.819	2519.06
992.116	2552.5
992.413	2493.52
992.71	2505.95
993.006	2458.72
993.303	2505.05
993.6	2483.13
993.897	2464.14
994.193	2477.48
994.49	2489.45
994.787	2416.46
995.083	2396.12
995.379	2418.04
995.676	2400.19
995.972	2376.24
996.268	2345.73
996.565	2340.31
996.861	2309.35
997.157	2322.68
997.453	2304.6
997.749	2296.92
998.044	2298.72
998.34	2247.65
998.636	2244.94
998.932	2233.42
999.227	2240.65
999.523	2204.26
999.818	2178.95
1000.114	2218.28
1000.409	2209.46
1000.704	2172.4
1001	2159.75
1001.295	2168.56
1001.59	2153.87
1001.885	2147.54
1002.18	2125.4
1002.475	2122.23
1002.77	2136.7
1003.065	2079.07
1003.359	2131.72
1003.654	2071.16
1003.949	2068
1004.243	2049.24
1004.538	2005.63
1004.832	2039.07
1005.127	2024.16
1005.421	2031.61
1005.715	1980.54
1006.009	1966.76
1006.304	1975.12
1006.598	1963.37
1006.892	1973.31
1007.186	1919.98
1007.48	1944.84
1007.773	1905.06
1008.067	1919.75
1008.361	1910.71
1008.655	1894.22
1008.948	1868.68
1009.242	1877.27
1009.535	1820.09
1009.829	1834.78
1010.122	1827.1
1010.415	1821.9
1010.708	1821
1011.001	1820.77
1011.295	1780.55
1011.588	1772.19
1011.881	1769.02
1012.173	1777.16
1012.466	1741.68
1012.759	1733.99
1013.052	1726.76
1013.344	1734.22
1013.637	1692.87
1013.93	1706.42
1014.222	1683.37
1014.514	1680.89
1014.807	1667.78
1015.099	1654.9
1015.391	1666.2
1015.683	1639.53
1015.976	1624.62
1016.268	1643.15
1016.56	1606.09
1016.851	1591.17
1017.143	1600.89
1017.435	1596.6
1017.727	1569.25
1018.018	1537.39
1018.31	1529.03
1018.602	1553.43
1018.893	1538.97
1019.185	1552.08
1019.476	1530.38
1019.767	1509.59
1020.058	1489.03
1020.35	1468.69
1020.641	1482.02
1020.932	1468.92
1021.223	1438.63
1021.514	1445.19
1021.804	1417.84
1022.095	1443.15
1022.386	1406.32
1022.677	1393.21
1022.967	1403.61
1023.258	1383.72
1023.548	1369.48
1023.839	1400.9
1024.129	1367.22
1024.419	1361.35
1024.709	1326.1
1025	1338.98
1025.29	1327.45
1025.58	1306.89
1025.87	1291.97
1026.16	1287
1026.449	1299.43
1026.739	1300.79
1027.029	1272.99
1027.319	1273.67
1027.608	1258.3
1027.898	1255.14
1028.187	1247.23
1028.477	1257.17
1028.766	1225.98
1029.055	1214.91
1029.344	1204.97
1029.634	1210.17
1029.923	1191.86
1030.212	1195.7
1030.501	1158.87
1030.79	1201.58
1031.078	1157.96
1031.367	1127.68
1031.656	1156.38
1031.945	1131.75
1032.233	1142.82
1032.522	1139.43
1032.81	1100.56
1033.099	1105.54
1033.387	1125.65
1033.675	1083.62
1033.963	1066.44
1034.251	1093.33
1034.54	1064.86
1034.828	1067.12
1035.116	1056.72
1035.403	1043.16
1035.691	1044.97
1035.979	1061.47
1036.267	1044.75
1036.554	1009.72
1036.842	1008.82
1037.129	1016.5
1037.417	1025.99
1037.704	1000.45
1037.992	978.76
1038.279	995.03
1038.566	984.41
1038.853	984.41
1039.14	984.41
