Data from hue_28_FLMS001491_00086.txt Node
Date: Tue Feb 07 17:17:56 GMT 2017
User: dcchb
Spectrometer: FLMS00149
Trigger mode: 0
Integration Time (sec): 2.000000E-2
Scans to average: 10
Electric dark correction enabled: true
Nonlinearity correction enabled: false
Boxcar width: 0
XAxis mode: Wavelengths
Number of Pixels in Spectrum: 2048
>>>>>Begin Spectral Data<<<<<
341.393	-11.03
341.776	-11.03
342.16	-11.03
342.543	-75.89
342.927	-60.3
343.31	-74.76
343.693	-62.55
344.077	-84.02
344.46	-52.16
344.843	-46.74
345.226	-65.49
345.61	-21.43
345.993	-25.49
346.376	-11.71
346.759	21.74
347.142	42.08
347.525	36.2
347.908	63.09
348.291	74.16
348.674	93.83
349.057	113.26
349.44	115.29
349.823	142.19
350.206	160.72
350.588	202.3
350.971	236.42
351.354	223.09
351.737	260.15
352.119	248.62
352.502	264.89
352.884	280.94
353.267	288.17
353.65	295.85
354.032	337.43
354.414	280.04
354.797	310.77
355.179	322.75
355.562	333.14
355.944	344.21
356.326	339.92
356.709	337.43
357.091	331.79
357.473	333.82
357.855	344.21
358.238	372.24
358.62	335.17
359.002	349.41
359.384	344.44
359.766	336.53
360.148	330.66
360.53	346.93
360.912	334.04
361.294	341.05
361.676	334.04
362.057	315.51
362.439	341.95
362.821	326.14
363.203	328.85
363.584	345.8
363.966	323.2
364.348	330.2
364.729	325.68
365.111	301.05
365.493	336.3
365.874	320.03
366.256	326.14
366.637	305.57
367.019	326.14
367.4	320.49
367.781	315.06
368.163	319.36
368.544	314.61
368.925	306.47
369.306	315.97
369.688	313.03
370.069	312.8
370.45	312.12
370.831	316.19
371.212	337.66
371.593	290.66
371.974	318.23
372.355	315.51
372.736	323.88
373.117	307.38
373.498	325.23
373.879	332.24
374.26	326.36
374.641	319.58
375.021	311.67
375.402	333.59
375.783	313.71
376.163	328.85
376.544	317.1
376.925	322.97
377.305	328.85
377.686	358
378.066	335.4
378.447	309.86
378.827	322.75
379.208	314.38
379.588	319.81
379.968	336.76
380.349	345.34
380.729	330.66
381.109	327.27
381.489	351.45
381.87	350.77
382.25	347.15
382.63	354.16
383.01	332.24
383.39	340.37
383.77	354.61
384.15	349.19
384.53	354.16
384.91	363.87
385.29	348.51
385.67	356.87
386.049	349.86
386.429	346.25
386.809	353.71
387.189	366.36
387.568	366.13
387.948	334.72
388.328	368.17
388.707	358.9
389.087	349.19
389.466	373.59
389.846	371.56
390.225	368.85
390.605	383.99
390.984	379.02
391.363	379.02
391.743	362.29
392.122	352.35
392.501	389.64
392.881	383.76
393.26	382.41
393.639	372.91
394.018	388.51
394.397	388.05
394.776	399.81
395.155	388.05
395.534	366.59
395.913	375.85
396.292	382.63
396.671	373.14
397.05	380.37
397.429	411.56
397.808	396.19
398.186	385.34
398.565	378.79
398.944	397.09
399.323	382.41
399.701	415.85
400.08	394.38
400.458	394.38
400.837	402.74
401.215	411.33
401.594	404.1
401.972	414.72
402.351	411.33
402.729	441.16
403.107	404.55
403.486	398
403.864	423.08
404.242	412.46
404.62	404.78
404.999	423.53
405.377	426.02
405.755	425.57
406.133	441.84
406.511	422.4
406.889	428.51
407.267	437.32
407.645	448.84
408.023	424.66
408.401	431.9
408.779	449.75
409.156	440.48
409.534	460.14
409.912	448.84
410.29	470.99
410.667	466.24
411.045	448.17
411.422	466.47
411.8	474.61
412.178	472.12
412.555	458.79
412.933	466.24
413.31	462.18
413.687	457.66
414.065	503.31
414.442	478.22
414.819	480.26
415.197	464.66
415.574	497.88
415.951	483.19
416.328	480.48
416.705	489.3
417.082	501.5
417.46	485.23
417.837	508.05
418.214	489.75
418.591	501.27
418.967	514.38
419.344	501.72
419.721	533.14
420.098	499.01
420.475	527.26
420.852	527.26
421.228	539.24
421.605	538.56
421.982	551.44
422.358	517.77
422.735	521.61
423.111	544.89
423.488	546.47
423.864	542.85
424.241	551.89
424.617	561.16
424.994	557.99
425.37	573.59
425.746	553.25
426.123	569.52
426.499	554.83
426.875	569.52
427.251	581.5
427.627	574.49
428.003	589.41
428.379	620.37
428.756	597.54
429.132	601.38
429.507	589.18
429.883	592.8
430.259	622.4
430.635	596.18
431.011	625.56
431.387	638.22
431.763	647.26
432.138	646.58
432.514	656.75
432.89	682.51
433.265	652.23
433.641	657.43
434.016	672.12
434.392	654.04
434.767	687.03
435.143	695.84
435.518	668.5
435.894	705.11
436.269	695.84
436.644	703.98
437.02	724.77
437.395	704.66
437.77	727.48
438.145	724.54
438.52	740.36
438.895	739.01
439.271	745.79
439.646	742.4
440.021	737.42
440.395	732.23
440.77	746.01
441.145	775.39
441.52	781.49
441.895	776.97
442.27	777.65
442.645	770.87
443.019	790.53
443.394	767.48
443.769	776.29
444.143	788.95
444.518	793.92
444.892	814.48
445.267	802.28
445.641	824.88
446.016	835.05
446.39	821.72
446.764	816.97
447.139	823.98
447.513	816.07
447.887	843.41
448.262	830.75
448.636	838.66
449.01	864.43
449.384	869.4
449.758	846.35
450.132	881.38
450.506	867.59
450.88	901.26
451.254	882.96
451.628	890.41
452.002	899.68
452.376	908.04
452.75	899
453.123	902.62
453.497	933.35
453.871	936.51
454.244	944.2
454.618	956.18
454.992	962.73
455.365	960.02
455.739	965.89
456.112	968.6
456.486	981.49
456.859	1008.15
457.232	1000.24
457.606	1026
457.979	1020.81
458.352	1046.34
458.725	1055.16
459.099	1069.39
459.472	1055.38
459.845	1065.33
460.218	1061.26
460.591	1120.01
460.964	1087.7
461.337	1136.28
461.71	1144.65
462.083	1137.87
462.456	1145.1
462.829	1159.79
463.201	1144.19
463.574	1189.39
463.947	1179.67
464.32	1217.41
464.692	1229.84
465.065	1253.79
465.438	1271.65
465.81	1271.87
466.183	1282.95
466.555	1319.56
466.928	1299.9
467.3	1311.65
467.672	1318.2
468.045	1379.89
468.417	1358.42
468.789	1384.64
469.161	1385.77
469.534	1425.32
469.906	1441.36
470.278	1439.33
470.65	1465.31
471.022	1473
471.394	1550.96
471.766	1542.83
472.138	1572.2
472.51	1608.36
472.882	1624.41
473.253	1654.46
473.625	1668.47
473.997	1693.33
474.369	1738.75
474.74	1723.61
475.112	1788.7
475.484	1788.02
475.855	1813.55
476.227	1840.22
476.598	1909.6
476.97	1894
477.341	1944.17
477.713	1992.53
478.084	1978.3
478.455	2066.88
478.827	2079.99
479.198	2139.42
479.569	2176.93
479.94	2210.15
480.311	2223.26
480.682	2303.48
481.053	2372.86
481.424	2402.47
481.795	2454.44
482.166	2463.25
482.537	2527.89
482.908	2591.39
483.279	2588.22
483.65	2673.64
484.021	2716.58
484.391	2801.55
484.762	2792.51
485.133	2845.84
485.503	2888.33
485.874	2947.31
486.244	3016.46
486.615	3072.96
486.985	3136.68
487.356	3206.74
487.726	3193.18
488.097	3263.91
488.467	3278.15
488.837	3355.66
489.207	3424.36
489.578	3489.22
489.948	3553.17
490.318	3593.85
490.688	3637.46
491.058	3664.8
491.428	3710.68
491.798	3776.67
492.168	3846.04
492.538	3917.91
492.908	3982.99
493.278	3978.47
493.648	4040.39
494.017	4107.5
494.387	4173.94
494.757	4177.56
495.126	4211.68
495.496	4276.77
495.866	4318.8
496.235	4353.37
496.605	4393.83
496.974	4499.81
497.344	4508.62
497.713	4538.91
498.082	4637.89
498.452	4614.38
498.821	4632.46
499.19	4682.18
499.559	4709.98
499.928	4718.79
500.298	4768.96
500.667	4866.36
501.036	4846.92
501.405	4898.67
501.774	4950.65
502.143	4971.66
502.512	4972.57
502.88	5061.6
503.249	5065.22
503.618	5089.17
503.987	5105.9
504.356	5123.07
504.724	5183.86
505.093	5208.49
505.462	5218.89
505.83	5255.27
506.199	5316.06
506.567	5336.17
506.936	5375.04
507.304	5379.11
507.672	5421.37
508.041	5506.11
508.409	5522.84
508.777	5535.04
509.145	5616.62
509.514	5570.74
509.882	5634.7
510.25	5684.64
510.618	5678.54
510.986	5732.32
511.354	5737.52
511.722	5740.23
512.09	5818.87
512.458	5792.21
512.826	5858.42
513.193	5877.18
513.561	5914.24
513.929	5960.79
514.297	5971.64
514.664	5997.62
515.032	6063.39
515.4	6082.14
515.767	6077.17
516.135	6155.13
516.502	6074.68
516.869	6166.21
517.237	6184.74
517.604	6258.63
517.972	6270.16
518.339	6246.66
518.706	6324.4
519.073	6297.05
519.44	6370.27
519.808	6382.7
520.175	6362.81
520.542	6434.9
520.909	6489.36
521.276	6512.19
521.643	6563.26
522.009	6574.33
522.376	6625.63
522.743	6638.51
523.11	6692.97
523.477	6745.63
523.843	6808.68
524.21	6839.41
524.577	6831.05
524.943	6857.49
525.31	6928.22
525.676	7001.21
526.043	6965.51
526.409	7073.98
526.776	7034.89
527.142	7085.51
527.508	7134.77
527.874	7146.3
528.241	7258.61
528.607	7229.46
528.973	7262
529.339	7331.83
529.705	7396.68
530.071	7450.92
530.437	7399.85
530.803	7501.77
531.169	7574.08
531.535	7561.88
531.901	7521.65
532.267	7590.58
532.632	7651.59
532.998	7671.48
533.364	7716.45
533.73	7722.33
534.095	7819.27
534.461	7859.27
534.826	7863.34
535.192	7889.1
535.557	7965.48
535.923	7992.6
536.288	7977.91
536.653	8057.23
537.019	7965.71
537.384	8071.47
537.749	8103.56
538.114	8051.58
538.479	8168.87
538.845	8177.45
539.21	8196.44
539.575	8219.49
539.94	8310.56
540.305	8322.08
540.67	8341.07
541.034	8379.48
541.399	8395.75
541.764	8455.41
542.129	8510.78
542.494	8510.33
542.858	8517.11
543.223	8568.4
543.587	8662.19
543.952	8642.75
544.316	8686.37
544.681	8706.93
545.045	8728.4
545.41	8768.4
545.774	8805.23
546.138	8789.19
546.503	8818.79
546.867	8820.6
547.231	8875.74
547.595	8989.41
547.959	8921.84
548.324	9040.48
548.688	9014.72
549.052	9104.89
549.416	9084.78
549.779	9130.42
550.143	9196.64
550.507	9182.17
550.871	9253.13
551.235	9216.98
551.599	9282.74
551.962	9293.13
552.326	9280.48
552.689	9397.54
553.053	9432.56
553.417	9378.33
553.78	9544.2
554.143	9458.78
554.507	9555.95
554.87	9520.47
555.234	9705.55
555.597	9656.29
555.96	9693.12
556.323	9675.72
556.686	9700.8
557.05	9729.73
557.413	9769.95
557.776	9815.6
558.139	9821.03
558.502	9855.6
558.865	9881.82
559.228	9929.05
559.59	9957.29
559.953	9955.03
560.316	10126.33
560.679	10098.53
561.041	10188.7
561.404	10157.52
561.767	10193.22
562.129	10190.28
562.492	10297.85
562.854	10301.69
563.217	10281.13
563.579	10392.76
563.941	10395.02
564.304	10450.16
564.666	10472.08
565.028	10484.06
565.39	10532.19
565.753	10545.53
566.115	10702.36
566.477	10684.06
566.839	10764.05
567.201	10802.7
567.563	10752.53
567.925	10850.6
568.287	10840.89
568.648	10916.37
569.01	11010.6
569.372	11080.2
569.734	11035.68
570.095	11043.82
570.457	11129.24
570.819	11167.88
571.18	11213.98
571.542	11308.45
571.903	11296.02
572.265	11352.29
572.626	11416.24
572.987	11418.73
573.349	11473.19
573.71	11588.89
574.071	11679.06
574.432	11745.95
574.794	11722.67
575.155	11799.73
575.516	11846.51
575.877	11974.87
576.238	12016.9
576.599	12083.79
576.96	12143.68
577.32	12255.99
577.681	12325.37
578.042	12430.45
578.403	12506.83
578.763	12616.66
579.124	12734.17
579.485	12802.87
579.845	12929.42
580.206	13022.3
580.566	13255.74
580.927	13289.18
581.287	13515.17
581.648	13554.26
582.008	13726.91
582.368	13803.97
582.728	14006.23
583.089	14122.83
583.449	14346.33
583.809	14491.64
584.169	14675.81
584.529	14774.57
584.889	15074.9
585.249	15231.96
585.609	15226.76
585.969	15662.46
586.329	15740.42
586.688	16050.69
587.048	16233.51
587.408	16422.89
587.768	16667.85
588.127	16949.2
588.487	17131.12
588.846	17536.53
589.206	17628.96
589.565	17956.63
589.925	18240.01
590.284	18534.02
590.643	18720.68
591.003	19018.98
591.362	19306.88
591.721	19566.31
592.08	19848.56
592.44	20169.91
592.799	20402.22
593.158	20669.78
593.517	20967.17
593.876	21309.54
594.235	21559.02
594.593	21876.3
594.952	22332.56
595.311	22453.01
595.67	22843.74
596.029	23225.19
596.387	23416.15
596.746	23863.14
597.104	23861.34
597.463	24233.53
597.822	24598.27
598.18	24847.75
598.538	25147.4
598.897	25532.48
599.255	25562.08
599.613	26228.73
599.972	26272.8
600.33	26658.32
600.688	26829.62
601.046	27268.25
601.404	27619.88
601.762	27840.21
602.12	28162.01
602.478	28536.24
602.836	28802
603.194	28807.19
603.552	29166.28
603.91	29308.88
604.268	29778.92
604.625	29972.59
604.983	30240.6
605.341	30442.63
605.698	30832.23
606.056	31127.36
606.413	31262.27
606.771	31545.2
607.128	31880.79
607.485	31930.95
607.843	32132.76
608.2	32476.93
608.557	32828.56
608.914	32901.32
609.272	33293.18
609.629	33484.59
609.986	33786.27
610.343	33735.2
610.7	34320.72
611.057	34450.66
611.414	34490.66
611.771	34672.13
612.127	35063.75
612.484	35211.09
612.841	35427.36
613.198	35521.37
613.554	35669.84
613.911	36023.73
614.267	36199.32
614.624	36369.71
614.98	36428.69
615.337	36857.38
615.693	36881.56
616.05	36939.41
616.406	37344.37
616.762	37397.93
617.118	37535.1
617.475	37607.19
617.831	37852.83
618.187	38109.55
618.543	38203.56
618.899	38491.01
619.255	38475.41
619.611	38596.99
619.967	38722.19
620.323	38896.87
620.678	38847.16
621.034	38958.11
621.39	39081.27
621.746	39193.14
622.101	39631.32
622.457	39368.95
622.812	39674.25
623.168	39881.71
623.523	39948.37
623.879	40083.73
624.234	39778.43
624.589	40132.32
624.945	40080.12
625.3	40405.31
625.655	40288.25
626.01	40262.26
626.365	40600.56
626.72	40545.64
627.075	40569.37
627.43	40567.56
627.785	40652.08
628.14	40829.25
628.495	40832.42
628.85	40775.69
629.205	40680.78
629.559	41046.19
629.914	40818.86
630.269	41076.48
630.623	40906.09
630.978	41061.34
631.332	41136.81
631.687	41346.53
632.041	41250.94
632.396	41257.94
632.75	41159.41
633.104	41305.85
633.459	41165.74
633.813	41026.99
634.167	41196.02
634.521	41148.79
634.875	41427.65
635.229	41210.48
635.583	41104.05
635.937	41259.75
636.291	41198.73
636.645	41296.13
636.999	41226.98
637.352	41289.13
637.706	41156.93
638.06	41192.63
638.413	41213.65
638.767	41158.28
639.121	41244.61
639.474	41015.91
639.828	41052.07
640.181	41195.57
640.534	41258.84
640.888	41125.74
641.241	41048.68
641.594	41164.84
641.947	41083.03
642.301	41098.62
642.654	41019.53
643.007	40986.31
643.36	41088.45
643.713	41248.22
644.066	41124.61
644.419	40835.8
644.771	40761.46
645.124	40284.41
645.477	40365.76
645.83	40029.5
646.182	39948.14
646.535	39812.55
646.888	39990.18
647.24	39724.65
647.593	39969.84
647.945	40031.98
648.298	39779.34
648.65	39708.6
649.002	39676.97
649.355	39835.61
649.707	39811.88
650.059	39935.72
650.411	40465.87
650.763	40322.82
651.115	40893.43
651.467	40825.86
651.819	40711.51
652.171	40575.02
652.523	40561.01
652.875	40513.55
653.227	40389.71
653.578	40775.92
653.93	40793.77
654.282	40418.19
654.633	40455.7
654.985	40515.59
655.337	40375.25
655.688	40589.26
656.039	40704.73
656.391	40372.09
656.742	40307.68
657.094	40497.51
657.445	40449.15
657.796	40379.09
658.147	40419.77
658.498	40218.19
658.849	40387
659.2	40325.31
659.551	40354.91
659.902	40561.24
660.253	40475.14
660.604	40355.37
660.955	40122.15
661.306	40471.29
661.656	40255.48
662.007	40511.29
662.358	40310.85
662.708	40390.84
663.059	40213.45
663.409	40139.1
663.76	40456.38
664.11	40305.2
664.461	40394.23
664.811	40351.98
665.161	40303.16
665.511	40273.11
665.862	40436.27
666.212	40482.82
666.562	40464.52
666.912	40233.79
667.262	40247.57
667.612	40216.84
667.962	40258.87
668.312	40198.99
668.662	40448.24
669.011	40359.21
669.361	40106.78
669.711	40271.3
670.06	40209.83
670.41	40042.83
670.76	40003.74
671.109	40107.24
671.459	39975.26
671.808	39964.87
672.157	40203.73
672.507	39855.04
672.856	39866.11
673.205	39980.69
673.554	40108.82
673.904	39985.88
674.253	40148.59
674.602	39942.72
674.951	39569.62
675.3	39306.35
675.649	39907.69
675.998	39883.74
676.346	39791.31
676.695	39949.05
677.044	39593.35
677.393	39796.96
677.741	39837.19
678.09	39736.85
678.438	39660.24
678.787	39635.38
679.135	39683.52
679.484	39503.41
679.832	39636.51
680.181	39359.69
680.529	39517.65
680.877	39258.67
681.225	39470.19
681.573	39604.2
681.922	39195.4
682.27	39255.51
682.618	39200.59
682.966	39155.17
683.314	39192.68
683.661	39137.32
684.009	38934.84
684.357	38931.45
684.705	38923.31
685.053	38816.65
685.4	38817.1
685.748	38681.51
686.095	38560.38
686.443	38546.83
686.79	38546.6
687.138	38566.94
687.485	38560.84
687.832	38300.05
688.18	38267.51
688.527	38107.29
688.874	38118.36
689.221	38131.47
689.568	38100.06
689.915	37927.86
690.262	37988.87
690.609	37790.91
690.956	37630.47
691.303	37661.65
691.65	37534.42
691.997	37463.69
692.344	37316.58
692.69	37260.53
693.037	37258.05
693.383	37010.82
693.73	37037.49
694.077	36825.51
694.423	36973.08
694.769	36831.16
695.116	36689.02
695.462	36627.33
695.808	36481.34
696.155	36616.03
696.501	36334.68
696.847	36197.73
697.193	36064.86
697.539	36229.15
697.885	35921.81
698.231	35743.51
698.577	35884.97
698.923	35781.47
699.269	35724.3
699.614	35506.23
699.96	35397.98
700.306	35423.97
700.651	35329.51
700.997	35209.06
701.342	35060.82
701.688	35062.85
702.033	34995.28
702.379	34931.55
702.724	34843.19
703.069	34830.54
703.415	34619.92
703.76	34549.19
704.105	34528.85
704.45	34564.11
704.795	34259.03
705.14	34250.44
705.485	34069.2
705.83	34015.19
706.175	34066.04
706.52	33907.4
706.865	33750.57
707.209	33814.97
707.554	33644.81
707.899	33708.99
708.243	33530.23
708.588	33475.55
708.932	33299.05
709.277	33256.8
709.621	33366.62
709.966	32992.4
710.31	33171.37
710.654	32778.39
710.998	32878.73
711.342	32931.15
711.687	32811.38
712.031	32629.69
712.375	32508.79
712.719	32694.55
713.063	32592.41
713.407	32629.69
713.75	32370.04
714.094	32406.65
714.438	32142.02
714.782	32288.46
715.125	32128.69
715.469	32050.5
715.812	32028.8
716.156	31992.87
716.499	31825.42
716.843	31918.53
717.186	31837.62
717.53	31916.94
717.873	31942.48
718.216	31766.44
718.559	31627.69
718.902	31530.96
719.246	31722.82
719.589	31362.61
719.932	31210.52
720.275	31294.59
720.617	31341.59
720.96	31229.96
721.303	31146.57
721.646	31184.99
721.989	30907.03
722.331	30852.11
722.674	30947.7
723.016	30952.45
723.359	30835.39
723.701	30922.62
724.044	30784.09
724.386	30587.03
724.729	30801.49
725.071	30705.68
725.413	30591.1
725.755	30691.66
726.097	30470.88
726.439	30295.74
726.782	30366.7
727.124	30472.01
727.465	30217.78
727.807	30382.97
728.149	30185.46
728.491	30239.02
728.833	30205.35
729.175	30052.13
729.516	30051.68
729.858	29976.2
730.199	30154.96
730.541	29983.89
730.882	29900.5
731.224	29997.9
731.565	29734.4
731.906	29874.96
732.248	29879.26
732.589	29639.94
732.93	29563.78
733.271	29560.62
733.612	29587.51
733.953	29580.73
734.294	29594.52
734.635	29482.66
734.976	29526.05
735.317	29406.05
735.658	29274.98
735.999	29275.88
736.339	29311.59
736.68	29350.46
737.021	29260.29
737.361	29138.49
737.702	29144.59
738.042	29015.55
738.383	29123.8
738.723	29103.91
739.063	29049.9
739.404	28850.36
739.744	28901.43
740.084	28832.96
740.424	28923.12
740.764	28727.65
741.104	28780.98
741.444	28665.5
741.784	28662.11
742.124	28568.56
742.464	28553.64
742.804	28473.19
743.143	28439.97
743.483	28472.97
743.823	28357.49
744.162	28272.97
744.502	28303.03
744.841	28238.62
745.181	28346.87
745.52	28263.25
745.86	28286.3
746.199	28237.27
746.538	28056.48
746.877	28215.12
747.216	28081.79
747.556	28107.55
747.895	28109.81
748.234	28001.57
748.573	27975.13
748.911	27897.84
749.25	27896.94
749.589	27832.76
749.928	27878.63
750.267	27776.71
750.605	27736.71
750.944	27724.51
751.283	27636.6
751.621	27695.59
751.96	27566.1
752.298	27583.72
752.636	27445.2
752.975	27440.45
753.313	27304.64
753.651	27619.66
753.989	27260.79
754.327	27226.45
754.666	27122.72
755.004	27234.81
755.342	27228.93
755.679	27200.68
756.017	26989.39
756.355	26993
756.693	26988.26
757.031	26924.31
757.368	26873.46
757.706	26849.73
758.044	26808.38
758.381	26689.28
758.719	26691.54
759.056	26721.37
759.394	26647.03
759.731	26396.41
760.068	26432.12
760.405	26346.69
760.743	26172.46
761.08	26281.61
761.417	26033.26
761.754	25972.01
762.091	26002.97
762.428	25908.97
762.765	25813.15
763.102	25806.82
763.438	25708.07
763.775	25604.11
764.112	25566.15
764.449	25517.34
764.785	25483.67
765.122	25230.57
765.458	25246.84
765.795	25173.62
766.131	25224.46
766.467	25159.15
766.804	25072.38
767.14	25048.2
767.476	24956
767.812	24661.09
768.148	24791.71
768.485	24591.26
768.821	24433.75
769.157	24493.86
769.492	24370.48
769.828	24412.73
770.164	24106.53
770.5	24132.06
770.836	24083.48
771.171	23960.09
771.507	23927.55
771.842	23789.02
772.178	23837.16
772.513	23682.58
772.849	23621.12
773.184	23530.5
773.519	23578.63
773.855	23374.57
774.19	23231.75
774.525	23181.58
774.86	23148.36
775.195	23092.54
775.53	22977.07
775.865	22895.49
776.2	22705.21
776.535	22571.43
776.87	22662.05
777.205	22429.74
777.539	22501.37
777.874	22371.43
778.209	22269.29
778.543	22282.62
778.878	22179.8
779.212	22080.37
779.547	21956.75
779.881	21990.65
780.215	21806.02
780.55	21938.9
780.884	21714.95
781.218	21647.38
781.552	21676.53
781.886	21567.38
782.22	21393.38
782.554	21339.82
782.888	21196.77
783.222	21117.68
783.556	20961.53
783.889	20911.13
784.223	20860.51
784.557	20822.09
784.89	20736.45
785.224	20606.73
785.557	20498.26
785.891	20464.82
786.224	20548.43
786.558	20387.53
786.891	20206.74
787.224	20299.62
787.557	20091.94
787.891	20092.17
788.224	20033.64
788.557	20061.66
788.89	20032.06
789.223	19870.25
789.556	19856.02
789.888	19724.04
790.221	19688.34
790.554	19512.07
790.887	19597.49
791.219	19462.81
791.552	19462.36
791.884	19366.31
792.217	19359.99
792.549	19204.06
792.882	19034.12
793.214	18995.48
793.546	19032.99
793.879	18922.26
794.211	18814.24
794.543	18843.39
794.875	18749.61
795.207	18713.22
795.539	18647.24
795.871	18603.17
796.203	18498.31
796.535	18420.35
796.867	18436.85
797.198	18280.24
797.53	18313.23
797.862	18221.71
798.193	18185.55
798.525	18091.09
798.856	18062.17
799.188	17882.51
799.519	17830.99
799.85	17721.16
800.182	17776.98
800.513	17714.83
800.844	17636.19
801.175	17605.91
801.506	17627.38
801.837	17610.88
802.168	17477.77
802.499	17517.77
802.83	17335.41
803.161	17337.67
803.491	17351.9
803.822	17377.89
804.153	17187.61
804.483	17029.2
804.814	16982.87
805.145	16998.24
805.475	16893.16
805.805	16909.43
806.136	16884.8
806.466	16871.92
806.796	16752.6
807.126	16728.19
807.457	16646.38
807.787	16667.85
808.117	16511.92
808.447	16619.27
808.777	16499.95
809.107	16416.11
809.436	16344.47
809.766	16344.92
810.096	16268.09
810.426	16272.38
810.755	16231.71
811.085	16183.8
811.414	16153.06
811.744	16065.38
812.073	16094.31
812.403	15984.03
812.732	15866.52
813.061	15886.18
813.39	15809.57
813.719	15816.35
814.049	15905.84
814.378	15781.77
814.707	15687.09
815.036	15655.68
815.365	15636.24
815.693	15538.84
816.022	15473.08
816.351	15437.15
816.68	15330.49
817.008	15423.14
817.337	15236.25
817.665	15314.44
817.994	15330.26
818.322	15242.58
818.651	15145.63
818.979	15163.26
819.307	15194.45
819.636	15108.12
819.964	15033.55
820.292	15079.42
820.62	15147.44
820.948	14981.57
821.276	15021.12
821.604	14942.47
821.932	15054.34
822.259	15012.53
822.587	15015.01
822.915	14921.01
823.243	15017.73
823.57	15044.17
823.898	14907.45
824.225	14864.74
824.553	14909.03
824.88	14970.95
825.207	15029.7
825.535	14870.84
825.862	14932.53
826.189	14908.58
826.516	14988.12
826.843	14972.53
827.17	15021.79
827.497	14952.42
827.824	14971.63
828.151	14972.08
828.478	14911.97
828.805	14990.38
829.131	14948.12
829.458	14911.97
829.785	14886.43
830.111	14798.07
830.438	14805.98
830.764	14872.87
831.09	14845.53
831.417	14835.36
831.743	14852.31
832.069	14850.73
832.395	14728.92
832.722	14754.91
833.048	14713.55
833.374	14794
833.7	14697.96
834.026	14736.83
834.351	14692.09
834.677	14701.35
835.003	14736.6
835.329	14717.62
835.654	14634.69
835.98	14656.38
836.306	14703.16
836.631	14628.58
836.956	14632.2
837.282	14630.39
837.607	14543.84
837.932	14478.53
838.258	14451.87
838.583	14500.23
838.908	14394.69
839.233	14356.28
839.558	14408.25
839.883	14320.57
840.208	14264.98
840.533	14337.07
840.858	14253.45
841.182	14358.08
841.507	14266.79
841.832	14136.17
842.156	14192.21
842.481	14148.37
842.805	14084.64
843.13	14059.33
843.454	14107.02
843.778	14064.31
844.103	13950.41
844.427	13979.56
844.751	13985.21
845.075	13887.36
845.399	13829.06
845.723	13763.75
846.047	13835.16
846.371	13622.74
846.695	13717.65
847.019	13475.62
847.343	13453.02
847.666	13414.38
847.99	13391.33
848.313	13359.47
848.637	13254.84
848.96	13286.47
849.284	13183.2
849.607	13108.17
849.931	13082.86
850.254	13025.01
850.577	12909.08
850.9	12801.74
851.223	12819.37
851.546	12807.16
851.869	12732.14
852.192	12801.06
852.515	12699.6
852.838	12630.44
853.161	12632.03
853.483	12461.18
853.806	12448.75
854.129	12509.09
854.451	12396.1
854.774	12336.67
855.096	12278.59
855.419	12252.15
855.741	12265.71
856.063	12228.2
856.385	12149.1
856.708	12152.04
857.03	12065.71
857.352	12037.47
857.674	11976.68
857.996	11968.32
858.318	11924.93
858.64	11917.92
858.961	11888.32
859.283	11814.42
859.605	11802.44
859.926	11870.24
860.248	11783.46
860.57	11727.64
860.891	11705.27
861.212	11628.44
861.534	11623.01
861.855	11613.97
862.176	11627.99
862.498	11575.33
862.819	11582.79
863.14	11517.48
863.461	11519.06
863.782	11498.95
864.103	11509.8
864.424	11413.75
864.745	11428.22
865.065	11355.68
865.386	11246.98
865.707	11274.1
866.027	11315.23
866.348	11216.02
866.668	11255.34
866.989	11228
867.309	11204.27
867.63	11142.35
867.95	11224.83
868.27	11133.08
868.59	11216.02
868.91	11106.42
869.23	11082.46
869.55	11021.67
869.87	11038.17
870.19	11063.25
870.51	11053.76
870.83	11104.38
871.15	10940.09
871.469	11002.01
871.789	10987.32
872.109	10991.62
872.428	10886.76
872.748	10907.55
873.067	10939.87
873.386	10960.66
873.706	10877.5
874.025	10851.51
874.344	10793.2
874.663	10849.25
874.982	10783.71
875.301	10747.33
875.62	10693.32
875.939	10721.79
876.258	10737.16
876.577	10736.26
876.896	10658.97
877.214	10672.3
877.533	10577.62
877.852	10669.14
878.17	10598.18
878.489	10617.16
878.807	10578.52
879.125	10604.28
879.444	10602.93
879.762	10482.48
880.08	10491.07
880.398	10465.3
880.716	10455.81
881.034	10421.46
881.352	10416.04
881.67	10393.89
881.988	10480.9
882.306	10401.58
882.624	10352.54
882.941	10275.25
883.259	10283.16
883.577	10200.68
883.894	10250.39
884.212	10127.23
884.529	10260.79
884.846	10148.48
885.164	10157.74
885.481	10134.92
885.798	10148.02
886.115	10075.71
886.432	10058.53
886.75	9987.58
887.067	10026.9
887.383	10016.05
887.7	9987.8
888.017	9909.16
888.334	9932.21
888.651	9898.31
888.967	9832.1
889.284	9818.77
889.6	9780.58
889.917	9753.23
890.233	9755.94
890.55	9685.44
890.866	9764.53
891.182	9662.39
891.498	9607.7
891.815	9596.63
892.131	9522.96
892.447	9568.15
892.763	9482.05
893.079	9481.37
893.395	9496.97
893.71	9485.22
894.026	9350.98
894.342	9383.98
894.657	9296.52
894.973	9314.6
895.289	9290.65
895.604	9267.37
895.92	9177.2
896.235	9118.67
896.55	9179.91
896.865	9108.96
897.181	9058.56
897.496	9089.52
897.811	9044.55
898.126	9043.19
898.441	8959.13
898.756	8981.05
899.071	8922.75
899.386	8875.74
899.7	8884.33
900.015	8874.61
900.33	8781.73
900.644	8717.78
900.959	8716.2
901.273	8735.86
901.588	8664.67
901.902	8563.43
902.216	8573.83
902.531	8533.6
902.845	8560.04
903.159	8478.01
903.473	8478.01
903.787	8428.97
904.101	8348.52
904.415	8408.18
904.729	8339.26
905.042	8328.18
905.356	8266.94
905.67	8257.45
905.984	8298.13
906.297	8226.27
906.611	8089.1
906.924	8184.23
907.237	8131.58
907.551	8122.31
907.864	8116.44
908.177	8088.87
908.491	8003.9
908.804	7986.5
909.117	7871.02
909.43	7850.01
909.743	7808.65
910.056	7821.53
910.368	7771.82
910.681	7745.15
910.994	7740.86
911.307	7663.57
911.619	7662.21
911.932	7680.07
912.244	7603.91
912.557	7576.11
912.869	7531.14
913.181	7522.78
913.494	7537.02
913.806	7405.27
914.118	7484.59
914.43	7399.17
914.742	7368.21
915.054	7303.81
915.366	7290.47
915.678	7335.89
915.99	7226.29
916.302	7220.64
916.613	7164.15
916.925	7121.21
917.236	7135.9
917.548	7176.35
917.859	7146.07
918.171	7083.25
918.482	7011.38
918.794	6967.99
919.105	6938.84
919.416	6865.4
919.727	6935.91
920.038	6841.44
920.349	6811.61
920.66	6796.7
920.971	6770.49
921.282	6705.63
921.593	6731.84
921.903	6658.62
922.214	6623.6
922.525	6635.35
922.835	6598.74
923.146	6533.66
923.456	6523.94
923.767	6494.79
924.077	6452.75
924.387	6463.38
924.697	6438.07
925.008	6449.59
925.318	6397.39
925.628	6355.36
925.938	6321.23
926.248	6244.62
926.558	6206.66
926.867	6189.71
927.177	6235.13
927.487	6229.26
927.796	6142.93
928.106	6160.78
928.416	6077.17
928.725	6127.79
929.034	6071.3
929.344	6042.82
929.653	6036.49
929.962	5947.23
930.271	5911.75
930.581	5916.5
930.89	5924.18
931.199	5861.36
931.508	5842.6
931.817	5882.6
932.125	5837.85
932.434	5798.08
932.743	5694.13
933.051	5761.02
933.36	5717.63
933.669	5671.08
933.977	5586.11
934.286	5620.01
934.594	5614.81
934.902	5575.49
935.21	5528.48
935.519	5561.03
935.827	5519.67
936.135	5494.81
936.443	5437.87
936.751	5426.34
937.059	5416.62
937.367	5403.74
937.674	5366.91
937.982	5363.52
938.29	5318.77
938.597	5291.88
938.905	5302.28
939.213	5281.26
939.52	5285.55
939.827	5239.9
940.135	5204.2
940.442	5212.79
940.749	5135.5
941.056	5171.66
941.363	5121.26
941.67	5111.32
941.977	5058.44
942.284	5038.78
942.591	5057.08
942.898	4951.78
943.205	4992.91
943.511	4959.91
943.818	4949.74
944.125	4954.04
944.431	4893.47
944.738	4877.65
945.044	4849.86
945.35	4846.69
945.657	4818.9
945.963	4766.24
946.269	4791.1
946.575	4765.79
946.881	4706.81
947.187	4742.29
947.493	4689.86
947.799	4688.96
948.105	4675.17
948.41	4619.13
948.716	4593.82
949.022	4607.83
949.327	4597.21
949.633	4511.79
949.938	4490.32
950.244	4514.95
950.549	4479.92
950.854	4472.92
951.16	4420.49
951.465	4418.01
951.77	4398.57
952.075	4398.12
952.38	4347.72
952.685	4362.64
952.99	4260.95
953.294	4315.41
953.599	4249.87
953.904	4227.5
954.209	4237.9
954.513	4260.72
954.818	4192.93
955.122	4176.66
955.426	4218.24
955.731	4165.13
956.035	4168.52
956.339	4115.64
956.643	4083.78
956.948	4089.65
957.252	4056.88
957.556	4085.81
957.86	4031.8
958.163	4055.75
958.467	4004.91
958.771	3992.71
959.075	4014.85
959.378	3932.14
959.682	3929.43
959.985	3886.95
960.289	3910.45
960.592	3851.92
960.896	3871.13
961.199	3850.56
961.502	3850.79
961.805	3827.29
962.108	3784.12
962.411	3825.93
962.714	3772.37
963.017	3778.25
963.32	3797.68
963.623	3702.09
963.926	3726.72
964.228	3684.47
964.531	3618.7
964.833	3636.56
965.136	3622.77
965.438	3595.88
965.741	3593.62
966.043	3612.83
966.345	3572.15
966.648	3571.7
966.95	3543.68
967.252	3490.12
967.554	3521.98
967.856	3477.92
968.158	3477.01
968.46	3484.02
968.761	3474.53
969.063	3427.52
969.365	3383.46
969.666	3420.74
969.968	3443.12
970.269	3389.78
970.571	3366.96
970.872	3357.24
971.174	3289.45
971.475	3322.44
971.776	3303.46
972.077	3311.14
972.378	3259.84
972.679	3244.48
972.98	3249.22
973.281	3236.57
973.582	3207.42
973.883	3234.76
974.183	3184.37
974.484	3199.05
974.785	3150.02
975.085	3138.26
975.386	3101.43
975.686	3143.91
975.986	3083.8
976.287	3104.37
976.587	3105.5
976.887	3062.33
977.187	3047.42
977.487	3073.63
977.787	3025.27
978.087	3021.43
978.387	3018.49
978.687	3003.13
978.987	2979.4
979.286	2953.19
979.586	2938.04
979.885	2935.11
980.185	2934.43
980.484	2927.2
980.784	2917.48
981.083	2888.1
981.382	2880.42
981.682	2852.62
981.981	2870.25
982.28	2831.61
982.579	2823.02
982.878	2818.5
983.177	2807.88
983.475	2791.38
983.774	2733.76
984.073	2778.73
984.372	2742.34
984.67	2743.47
984.969	2748.22
985.267	2691.27
985.566	2711.16
985.864	2707.32
986.162	2690.82
986.461	2675
986.759	2658.96
987.057	2627.09
987.355	2601.78
987.653	2604.72
987.951	2615.11
988.249	2583.03
988.547	2594.32
988.844	2560.65
989.142	2581.22
989.44	2570.82
989.737	2538.73
990.035	2515.91
990.332	2547.32
990.63	2498.96
990.927	2508
991.224	2475.91
991.521	2461.9
991.819	2464.38
992.116	2456.47
992.413	2430.71
992.71	2407.89
993.006	2452.63
993.303	2427.78
993.6	2369.02
993.897	2390.26
994.193	2361.79
994.49	2364.73
994.787	2349.36
995.083	2306.2
995.379	2297.84
995.676	2327.44
995.972	2298.06
996.268	2298.29
996.565	2243.6
996.861	2243.37
997.157	2292.19
997.453	2274.78
997.749	2260.55
998.044	2206.76
998.34	2190.27
998.636	2195.92
998.932	2206.31
999.227	2178.29
999.523	2140.1
999.818	2143.26
1000.114	2142.58
1000.409	2130.83
1000.704	2087.9
1001	2133.77
1001.295	2104.85
1001.59	2098.29
1001.885	2081.57
1002.18	2064.17
1002.475	2056.26
1002.77	2079.76
1003.065	2015.36
1003.359	2029.59
1003.654	2029.82
1003.949	1999.31
1004.243	1990.72
1004.538	1972.19
1004.832	1972.65
1005.127	1971.74
1005.421	1914.34
1005.715	1937.17
1006.009	1912.76
1006.304	1913.21
1006.598	1924.29
1006.892	1909.14
1007.186	1910.5
1007.48	1879.77
1007.773	1855.36
1008.067	1853.33
1008.361	1831.86
1008.655	1821.24
1008.948	1814.46
1009.242	1791.86
1009.535	1793.67
1009.829	1777.4
1010.122	1775.81
1010.415	1790.28
1010.708	1762.48
1011.001	1732.43
1011.295	1757.06
1011.588	1745.76
1011.881	1723.61
1012.173	1710.73
1012.466	1682.26
1012.759	1678.19
1013.052	1690.85
1013.344	1650.39
1013.637	1680.68
1013.93	1648.36
1014.222	1646.78
1014.514	1630.73
1014.807	1615.14
1015.099	1628.02
1015.391	1594.35
1015.683	1603.16
1015.976	1584.86
1016.268	1586.67
1016.56	1588.25
1016.851	1542.15
1017.143	1523.84
1017.435	1530.62
1017.727	1540.79
1018.018	1519.32
1018.31	1480.23
1018.602	1472.55
1018.893	1498.31
1019.185	1501.92
1019.476	1460.57
1019.767	1455.82
1020.058	1437.74
1020.35	1435.71
1020.641	1404.53
1020.932	1411.53
1021.223	1408.37
1021.514	1378.09
1021.804	1389.84
1022.095	1409.72
1022.386	1397.97
1022.677	1389.61
1022.967	1353.45
1023.258	1353.68
1023.548	1358.42
1023.839	1337.41
1024.129	1316.39
1024.419	1318.2
1024.709	1294.47
1025	1308.26
1025.29	1279.1
1025.58	1293.34
1025.87	1261.93
1026.16	1263.06
1026.449	1249.05
1026.739	1226.9
1027.029	1254.7
1027.319	1232.33
1027.608	1223.51
1027.898	1228.03
1028.187	1209.28
1028.477	1203.4
1028.766	1197.98
1029.055	1186.45
1029.344	1174.25
1029.634	1199.78
1029.923	1169.96
1030.212	1153.46
1030.501	1127.7
1030.79	1173.57
1031.078	1146
1031.367	1129.73
1031.656	1099.67
1031.945	1105.1
1032.233	1127.24
1032.522	1094.7
1032.81	1113.01
1033.099	1067.58
1033.387	1090.18
1033.675	1071.43
1033.963	1070.3
1034.251	1067.36
1034.54	1062.39
1034.828	1090.18
1035.116	1040.92
1035.403	1025.55
1035.691	1040.92
1035.979	1015.38
1036.267	999.79
1036.554	1021.71
1036.842	993.01
1037.129	991.43
1037.417	986.68
1037.704	1021.48
1037.992	959.57
1038.279	968.15
1038.566	965.44
1038.853	965.44
1039.14	965.44
