Data from hue_250_FLMS001491_00008.txt Node
Date: Tue Feb 07 16:00:28 GMT 2017
User: dcchb
Spectrometer: FLMS00149
Trigger mode: 0
Integration Time (sec): 2.000000E-2
Scans to average: 10
Electric dark correction enabled: true
Nonlinearity correction enabled: false
Boxcar width: 0
XAxis mode: Wavelengths
Number of Pixels in Spectrum: 2048
>>>>>Begin Spectral Data<<<<<
341.393	-4.65
341.776	-4.65
342.16	-4.65
342.543	-63.4
342.927	-53.91
343.31	-66.11
343.693	-89.16
344.077	-60.24
344.46	-69.28
344.843	-36.74
345.226	-17.08
345.61	-36.06
345.993	-26.34
346.376	5.75
346.759	18.63
347.142	28.12
347.525	13.88
347.908	75.58
348.291	50.49
348.674	100.21
349.057	108.34
349.44	114.9
349.823	129.81
350.206	136.14
350.588	197.83
350.971	203.26
351.354	205.07
351.737	225.86
352.119	240.32
352.502	239.41
352.884	246.65
353.267	264.72
353.65	293.42
354.032	304.27
354.414	278.74
354.797	297.94
355.179	289.13
355.562	301.56
355.944	327.1
356.326	321.22
356.709	316.02
357.091	320.77
357.473	328.23
357.855	321.45
358.238	323.71
358.62	327.32
359.002	342.24
359.384	320.09
359.766	314.67
360.148	323.48
360.53	313.99
360.912	351.5
361.294	329.81
361.676	330.26
362.057	328.68
362.439	312.41
362.821	304.95
363.203	316.7
363.584	289.81
363.966	320.54
364.348	309.24
364.729	297.72
365.111	313.99
365.493	314.89
365.874	316.47
366.256	298.17
366.637	320.99
367.019	305.4
367.4	331.16
367.781	295.01
368.163	310.37
368.544	313.76
368.925	292.07
369.306	310.6
369.688	308.11
370.069	308.11
370.45	298.4
370.831	297.49
371.212	307.66
371.593	315.57
371.974	295.91
372.355	329.13
372.736	302.46
373.117	301.56
373.498	296.59
373.879	297.49
374.26	281.67
374.641	293.65
375.021	305.18
375.402	319.64
375.783	320.77
376.163	296.14
376.544	301.79
376.925	322.35
377.305	331.84
377.686	308.34
378.066	310.15
378.447	336.81
378.827	307.21
379.208	314.67
379.588	323.03
379.968	301.33
380.349	328.23
380.729	324.61
381.109	317.15
381.489	312.86
381.87	345.17
382.25	327.1
382.63	328
383.01	328.23
383.39	328
383.77	339.75
384.15	344.27
384.53	334.33
384.91	327.32
385.29	329.13
385.67	346.98
386.049	343.59
386.429	356.93
386.809	345.17
387.189	335.91
387.568	353.31
387.948	355.34
388.328	356.02
388.707	352.86
389.087	349.02
389.466	360.54
389.846	332.52
390.225	349.92
390.605	332.97
390.984	353.54
391.363	360.77
391.743	369.58
392.122	382.24
392.501	375.68
392.881	369.13
393.26	347.21
393.639	372.52
394.018	374.1
394.397	377.72
394.776	385.63
395.155	367.77
395.534	368.22
395.913	385.85
396.292	393.31
396.671	370.71
397.05	387.66
397.429	390.37
397.808	388.56
398.186	389.92
398.565	384.5
398.944	377.26
399.323	413.2
399.701	406.64
400.08	412.52
400.458	400.99
400.837	411.61
401.215	417.49
401.594	395.12
401.972	413.87
402.351	409.35
402.729	424.04
403.107	410.71
403.486	408.9
403.864	423.36
404.242	407.32
404.62	424.49
404.999	428.11
405.377	422.01
405.755	438.96
406.133	457.94
406.511	421.56
406.889	438.73
407.267	471.27
407.645	462.46
408.023	483.48
408.401	459.97
408.779	463.59
409.156	469.47
409.534	487.54
409.912	471.27
410.29	479.41
410.667	483.48
411.045	511.05
411.422	496.13
411.8	528.67
412.178	523.02
412.555	552.85
412.933	523.93
413.31	546.98
413.687	538.84
414.065	547.2
414.442	533.19
414.819	567.54
415.197	553.76
415.574	560.54
415.951	579.52
416.328	595.11
416.705	584.72
417.082	603.47
417.46	605.51
417.837	626.3
418.214	613.64
418.591	605.51
418.967	625.85
419.344	638.05
419.721	640.76
420.098	630.82
420.475	644.15
420.852	645.96
421.228	663.13
421.605	670.14
421.982	647.99
422.358	696.13
422.735	697.93
423.111	686.63
423.488	729.12
423.864	729.12
424.241	746.29
424.617	729.57
424.994	755.79
425.37	770.02
425.746	752.4
426.123	771.38
426.499	777.03
426.875	779.06
427.251	816.12
427.627	833.3
428.003	843.24
428.379	817.03
428.756	823.13
429.132	835.78
429.507	836.24
429.883	842.56
430.259	893.18
430.635	886.63
431.011	891.37
431.387	928.44
431.763	933.18
432.138	922.79
432.514	949
432.89	948.1
433.265	978.38
433.641	980.86
434.016	992.16
434.392	1012.05
434.767	1054.08
435.143	1044.82
435.518	1035.78
435.894	1069.45
436.269	1084.59
436.644	1136.11
437.02	1111.48
437.395	1120.97
437.77	1148.09
438.145	1178.6
438.52	1176.34
438.895	1153.97
439.271	1231.03
439.646	1217.92
440.021	1236
440.395	1245.26
440.77	1224.93
441.145	1259.5
441.52	1314.19
441.895	1261.53
442.27	1305.83
442.645	1311.7
443.019	1341.31
443.394	1333.4
443.769	1344.24
444.143	1368.88
444.518	1332.27
444.892	1364.36
445.267	1381.53
445.641	1394.86
446.016	1414.75
446.39	1425.6
446.764	1424.69
447.139	1401.87
447.513	1461.53
447.887	1455.65
448.262	1435.54
448.636	1467.63
449.01	1464.92
449.384	1515.31
449.758	1465.37
450.132	1513.51
450.506	1522.32
450.88	1512.38
451.254	1530.45
451.628	1578.59
452.002	1578.59
452.376	1568.65
452.75	1622.66
453.123	1581.53
453.497	1628.3
453.871	1649.77
454.244	1654.29
454.618	1679.6
454.992	1688.87
455.365	1691.81
455.739	1756.89
456.112	1743.78
456.486	1721.18
456.859	1756.89
457.232	1798.92
457.606	1825.59
457.979	1819.03
458.352	1882.08
458.725	1875.3
459.099	1869.2
459.472	1936.32
459.845	1928.18
460.218	1950.78
460.591	1940.39
460.964	1958.47
461.337	2009.09
461.71	2001.63
462.083	2043.66
462.456	2045.47
462.829	2060.16
463.201	2080.5
463.574	2142.19
463.947	2106.48
464.32	2188.97
464.692	2219.02
465.065	2221.74
465.438	2209.98
465.81	2275.07
466.183	2282.98
466.555	2328.85
466.928	2307.16
467.3	2332.47
467.672	2361.39
468.045	2425.12
468.417	2408.17
468.789	2436.87
469.161	2476.64
469.534	2510.09
469.906	2554.61
470.278	2544.21
470.65	2563.65
471.022	2634.61
471.394	2640.93
471.766	2698.11
472.138	2720.03
472.51	2781.27
472.882	2795.73
473.253	2822.85
473.625	2844.32
473.997	2946.24
474.369	2910.76
474.74	2949.85
475.112	2983.3
475.484	3028.27
475.855	3052.9
476.227	3088.61
476.598	3198.66
476.97	3212.44
477.341	3231.88
477.713	3284.98
478.084	3321.14
478.455	3411.53
478.827	3419.67
479.198	3501.25
479.569	3491.76
479.94	3576.5
480.311	3580.34
480.682	3656.95
481.053	3742.6
481.424	3766.78
481.795	3832.77
482.166	3888.13
482.537	3875.7
482.908	3986.43
483.279	4018.75
483.65	4079.77
484.021	4144.4
484.391	4117.73
484.762	4189.14
485.133	4210.38
485.503	4279.08
485.874	4366.76
486.244	4372.87
486.615	4433.88
486.985	4508.68
487.356	4573.99
487.726	4577.15
488.097	4658.73
488.467	4738.28
488.837	4767.88
489.207	4831.16
489.578	4927.88
489.948	4913.19
490.318	4922.68
490.688	4962.91
491.058	5009.91
491.428	5073.64
491.798	5101.89
492.168	5245.16
492.538	5211.04
492.908	5296
493.278	5300.07
493.648	5312.28
494.017	5374.65
494.387	5371.71
494.757	5446.74
495.126	5487.19
495.496	5484.02
495.866	5526.51
496.235	5623.68
496.605	5639.27
496.974	5655.77
497.344	5730.57
497.713	5691.7
498.082	5759.04
498.452	5822.77
498.821	5792.49
499.19	5836.1
499.559	5883.11
499.928	5897.8
500.298	5934.41
500.667	5999.26
501.036	5940.28
501.405	5999.94
501.774	6020.51
502.143	6029.09
502.512	6052.37
502.88	6099.83
503.249	6054.85
503.618	6150.9
503.987	6098.47
504.356	6196.77
504.724	6194.29
505.093	6210.78
505.462	6224.57
505.83	6205.81
506.199	6313.15
506.567	6327.84
506.936	6315.64
507.304	6321.29
507.672	6362.42
508.041	6451.68
508.409	6416.2
508.777	6459.82
509.145	6477.89
509.514	6455.3
509.882	6559.7
510.25	6507.5
510.618	6544.33
510.986	6535.07
511.354	6559.25
511.722	6618.46
512.09	6628.85
512.458	6618.46
512.826	6705.23
513.193	6725.35
513.561	6714.05
513.929	6767.38
514.297	6746.14
514.664	6750.2
515.032	6769.41
515.4	6811.45
515.767	6809.41
516.135	6758.11
516.502	6790.2
516.869	6921.95
517.237	6891.9
517.604	6826.13
517.972	6924.44
518.339	6942.74
518.706	6901.84
519.073	6888.96
519.44	6977.54
519.808	6963.31
520.175	6998.78
520.542	7027.03
520.909	7024.32
521.276	7053.02
521.643	7025
522.009	7128.5
522.376	7085.34
522.743	7087.6
523.11	7124.43
523.477	7150.19
523.843	7130.98
524.21	7251.66
524.577	7224.54
524.943	7242.17
525.31	7272.45
525.676	7349.51
526.043	7297.99
526.409	7317.42
526.776	7321.49
527.142	7362.62
527.508	7412.56
527.874	7394.03
528.241	7426.57
528.607	7453.01
528.973	7458.21
529.339	7417.53
529.705	7436.29
530.071	7504.08
530.437	7443.97
530.803	7512.67
531.169	7545.44
531.535	7507.25
531.901	7455.95
532.267	7474.7
532.632	7503.18
532.998	7539.56
533.364	7559.45
533.73	7562.84
534.095	7516.74
534.461	7562.39
534.826	7548.15
535.192	7571.2
535.557	7559.22
535.923	7591.76
536.288	7564.65
536.653	7500.47
537.019	7503.4
537.384	7539.11
537.749	7565.78
538.114	7452.56
538.479	7501.82
538.845	7549.5
539.21	7461.6
539.575	7505.21
539.94	7504.53
540.305	7574.59
540.67	7534.59
541.034	7530.52
541.399	7556.06
541.764	7470.86
542.129	7492.33
542.494	7495.95
542.858	7509.96
543.223	7504.99
543.587	7546.79
543.952	7435.84
544.316	7477.87
544.681	7457.3
545.045	7432.67
545.41	7484.65
545.774	7458.43
546.138	7447.13
546.503	7492.78
546.867	7442.39
547.231	7406.68
547.595	7426.8
547.959	7459.79
548.324	7496.17
548.688	7447.81
549.052	7395.16
549.416	7418.43
549.779	7435.61
550.143	7388.83
550.507	7355.16
550.871	7399.23
551.235	7418.43
551.599	7425.89
551.962	7393.12
552.326	7401.26
552.689	7351.09
553.053	7344.31
553.417	7376.85
553.78	7472.44
554.143	7337.53
554.507	7394.48
554.87	7425.44
555.234	7407.36
555.597	7397.64
555.96	7381.15
556.323	7396.29
556.686	7401.49
557.05	7408.49
557.413	7404.88
557.776	7427.47
558.139	7419.34
558.502	7440.58
558.865	7385.22
559.228	7483.74
559.59	7466.57
559.953	7467.02
560.316	7518.32
560.679	7498.66
561.041	7609.16
561.404	7571.2
561.767	7629.28
562.129	7534.14
562.492	7638.09
562.854	7603.29
563.217	7630.63
563.579	7555.38
563.941	7610.97
564.304	7698.43
564.666	7690.29
565.028	7679.9
565.39	7717.18
565.753	7691.2
566.115	7728.94
566.477	7735.26
566.839	7726.9
567.201	7744.53
567.563	7819.55
567.925	7848.71
568.287	7864.75
568.648	7831.98
569.01	7855.71
569.372	7889.38
569.734	7881.7
570.095	7892.09
570.457	7953.56
570.819	7956.05
571.18	7905.43
571.542	8024.97
571.903	7979.78
572.265	8027.23
572.626	8062.26
572.987	8050.96
573.349	8078.08
573.71	8086.89
574.071	8154.46
574.432	8156.95
574.794	8164.63
575.155	8188.36
575.516	8150.39
575.877	8204.63
576.238	8231.52
576.599	8254.35
576.96	8279.66
577.32	8262.03
577.681	8297.51
578.042	8371.4
578.403	8321.46
578.763	8337.96
579.124	8351.97
579.485	8370.73
579.845	8433.32
580.206	8399.88
580.566	8431.52
580.927	8418.41
581.287	8490.72
581.648	8422.93
582.008	8502.7
582.368	8521.91
582.728	8541.57
583.089	8551.06
583.449	8508.35
583.809	8528.24
584.169	8661.57
584.529	8550.16
584.889	8682.13
585.249	8645.75
585.609	8608.69
585.969	8640.55
586.329	8635.8
586.688	8690.94
587.048	8674.9
587.408	8593.09
587.768	8654.56
588.127	8664.05
588.487	8709.47
588.846	8718.74
589.206	8713.32
589.565	8711.96
589.925	8727.1
590.284	8772.07
590.643	8793.09
591.003	8796.93
591.362	8795.57
591.721	8834.67
592.08	8823.82
592.44	8828.34
592.799	8849.13
593.158	8815.91
593.517	8839.19
593.876	8854.33
594.235	8899.98
594.593	8824.05
594.952	8918.96
595.311	8866.76
595.67	8871.28
596.029	8958.28
596.387	8913.76
596.746	8961.45
597.104	8891.39
597.463	8903.37
597.822	8936.36
598.18	8948.34
598.538	8847.78
598.897	8991.05
599.255	8922.58
599.613	9039.64
599.972	8967.09
600.33	8985.17
600.688	8993.53
601.046	8968.45
601.404	9062.69
601.762	9034.89
602.12	9061.78
602.478	9018.62
602.836	9071.27
603.194	9028.56
603.552	9062.01
603.91	8940.65
604.268	9078.5
604.625	8950.82
604.983	8994.89
605.341	9026.53
605.698	9032.63
606.056	9145.4
606.413	9099.29
606.771	9094.32
607.128	9100.2
607.485	9029.92
607.843	9078.96
608.2	9149.69
608.557	9147.65
608.914	9132.74
609.272	9119.41
609.629	9181.33
609.986	9221.1
610.343	9150.14
610.7	9194.43
611.057	9218.84
611.414	9166.64
611.771	9150.82
612.127	9195.79
612.484	9254.77
612.841	9336.12
613.198	9264.26
613.554	9224.94
613.911	9284.6
614.267	9289.57
614.624	9242.34
614.98	9283.7
615.337	9317.37
615.693	9281.44
616.05	9282.11
616.406	9374.77
616.762	9296.8
617.118	9275.11
617.475	9246.86
617.831	9366.18
618.187	9346.97
618.543	9344.26
618.899	9426.97
619.255	9394.2
619.611	9466.97
619.967	9434.65
620.323	9416.12
620.678	9396.24
621.034	9375.67
621.39	9357.37
621.746	9450.02
622.101	9477.14
622.457	9372.06
622.812	9425.16
623.168	9480.98
623.523	9420.87
623.879	9457.93
624.234	9376.35
624.589	9389.46
624.945	9384.26
625.3	9358.27
625.655	9413.18
626.01	9504.71
626.365	9466.06
626.72	9363.47
627.075	9335.9
627.43	9384.26
627.785	9379.06
628.14	9361.21
628.495	9336.8
628.85	9357.59
629.205	9333.86
629.559	9377.71
629.914	9258.61
630.269	9380.19
630.623	9280.08
630.978	9244.6
631.332	9315.33
631.687	9340.42
632.041	9320.98
632.396	9388.78
632.75	9239.4
633.104	9214.09
633.459	9220.2
633.813	9188.56
634.167	9247.77
634.521	9208.22
634.875	9210.7
635.229	9196.02
635.583	9159.18
635.937	9157.6
636.291	9170.25
636.645	9119.41
636.999	9155.11
637.352	9114.44
637.706	9135.45
638.06	9081.89
638.413	9052.29
638.767	9087.09
639.121	9097.71
639.474	8989.24
639.828	8986.3
640.181	9039.86
640.534	8978.39
640.888	9051.61
641.241	8935.68
641.594	8990.6
641.947	9029.92
642.301	8966.64
642.654	9040.99
643.007	8998.73
643.36	9010.03
643.713	8925.97
644.066	9008.45
644.419	8942.91
644.771	8870.37
645.124	8777.27
645.477	8742.47
645.83	8692.07
646.182	8694.56
646.535	8673.09
646.888	8660.89
647.24	8584.28
647.593	8660.44
647.945	8615.69
648.298	8611.17
648.65	8588.8
649.002	8628.12
649.355	8577.27
649.707	8603.94
650.059	8649.81
650.411	8725.29
650.763	8755.35
651.115	8836.7
651.467	8802.13
651.819	8763.26
652.171	8788.57
652.523	8797.83
652.875	8743.37
653.227	8808
653.578	8785.86
653.93	8794.67
654.282	8698.18
654.633	8721
654.985	8738.17
655.337	8735.01
655.688	8790.6
656.039	8761.9
656.391	8680.55
656.742	8717.16
657.094	8730.04
657.445	8793.09
657.796	8752.64
658.147	8805.74
658.498	8743.6
658.849	8772.75
659.2	8784.27
659.551	8673.32
659.902	8786.31
660.253	8778.63
660.604	8748.57
660.955	8706.54
661.306	8770.49
661.656	8704.95
662.007	8722.81
662.358	8681
662.708	8748.12
663.059	8747.44
663.409	8700.21
663.76	8775.01
664.11	8763.26
664.461	8779.53
664.811	8800.32
665.161	8737.27
665.511	8750.6
665.862	8818.4
666.212	8761.45
666.562	8860.88
666.912	8741.56
667.262	8719.42
667.612	8736.37
667.962	8788.57
668.312	8812.07
668.662	8818.85
669.011	8767.1
669.361	8751.96
669.711	8739.08
670.06	8751.73
670.41	8716.25
670.76	8715.35
671.109	8741.11
671.459	8712.19
671.808	8689.36
672.157	8752.86
672.507	8613.88
672.856	8707.21
673.205	8711.96
673.554	8679.42
673.904	8657.95
674.253	8736.82
674.602	8645.07
674.951	8567.33
675.3	8495.24
675.649	8587.67
675.998	8651.85
676.346	8629.93
676.695	8645.75
677.044	8611.17
677.393	8597.84
677.741	8589.93
678.09	8589.48
678.438	8542.25
678.787	8622.25
679.135	8515.36
679.484	8469.48
679.832	8557.84
680.181	8439.2
680.529	8482.59
680.877	8507.9
681.225	8501.34
681.573	8571.4
681.922	8475.13
682.27	8435.36
682.618	8424.74
682.966	8452.31
683.314	8419.09
683.661	8358.07
684.009	8371.63
684.357	8297.28
684.705	8307
685.053	8341.8
685.4	8290.5
685.748	8204.4
686.095	8243.72
686.443	8213.22
686.79	8142.48
687.138	8203.95
687.485	8151.75
687.832	8124.63
688.18	8127.12
688.527	8100.22
688.874	8125.53
689.221	8018.87
689.568	8042.83
689.915	8012.32
690.262	8047.8
690.609	7945.65
690.956	7909.72
691.303	7949.27
691.65	7956.05
691.997	7921.25
692.344	7848.25
692.69	7878.99
693.037	7804.87
693.383	7751.99
693.73	7779.1
694.077	7726.68
694.423	7736.62
694.769	7685.09
695.116	7677.41
695.462	7659.56
695.808	7671.54
696.155	7612.78
696.501	7596.96
696.847	7613.01
697.193	7583.85
697.539	7589.96
697.885	7539.11
698.231	7535.95
698.577	7439.68
698.923	7450.07
699.269	7357.87
699.614	7339.57
699.96	7350.41
700.306	7361.71
700.651	7321.94
700.997	7296.4
701.342	7258.89
701.688	7210.98
702.033	7197.88
702.379	7199.23
702.724	7163.53
703.069	7223.86
703.415	7126.92
703.76	7088.5
704.105	7091.89
704.45	7060.25
704.795	6975.96
705.14	6970.31
705.485	6987.49
705.83	6933.02
706.175	6980.25
706.52	6895.96
706.865	6926.24
707.209	6884.89
707.554	6883.99
707.899	6855.06
708.243	6877.88
708.588	6836.08
708.932	6791.33
709.277	6748.4
709.621	6802.86
709.966	6690.77
710.31	6788.39
710.654	6713.59
710.998	6675.4
711.342	6690.77
711.687	6648.74
712.031	6593.82
712.375	6662.3
712.719	6627.95
713.063	6664.1
713.407	6638.79
713.75	6581.39
714.094	6584.78
714.438	6550.66
714.782	6592.69
715.125	6554.95
715.469	6524.22
715.812	6517.44
716.156	6458.46
716.499	6508.18
716.843	6474.96
717.186	6457.33
717.53	6502.53
717.873	6481.74
718.216	6407.61
718.559	6373.94
718.902	6432.7
719.246	6424.79
719.589	6406.71
719.932	6313.38
720.275	6407.39
720.617	6317.67
720.96	6352.25
721.303	6405.13
721.646	6346.15
721.989	6322.87
722.331	6293.49
722.674	6288.07
723.016	6324.45
723.359	6250.78
723.701	6300.95
724.044	6260.27
724.386	6268.18
724.729	6324.9
725.071	6263.44
725.413	6286.71
725.755	6289.43
726.097	6236.77
726.439	6209.2
726.782	6251.91
727.124	6295.98
727.465	6208.07
727.807	6199.26
728.149	6263.66
728.491	6191.8
728.833	6215.75
729.175	6185.47
729.516	6216.21
729.858	6232.48
730.199	6199.71
730.541	6187.51
730.882	6157.23
731.224	6249.88
731.565	6192.7
731.906	6145.47
732.248	6143.44
732.589	6121.29
732.93	6133.5
733.271	6140.05
733.612	6128.98
733.953	6150.45
734.294	6159.26
734.635	6157.45
734.976	6135.53
735.317	6149.99
735.658	6173.5
735.999	6161.52
736.339	6162.2
736.68	6150.22
737.021	6158.81
737.361	6079.26
737.702	6225.47
738.042	6171.24
738.383	6136.89
738.723	6151.58
739.063	6147.28
739.404	6170.11
739.744	6169.88
740.084	6163.33
740.424	6221.86
740.764	6187.51
741.104	6175.53
741.444	6193.83
741.784	6174.4
742.124	6230.22
742.464	6165.13
742.804	6226.38
743.143	6241.29
743.483	6216.43
743.823	6222.53
744.162	6211.01
744.502	6219.37
744.841	6286.94
745.181	6304.11
745.52	6278.8
745.86	6327.16
746.199	6373.26
746.538	6378.91
746.877	6387.28
747.216	6433.38
747.556	6487.61
747.895	6442.42
748.234	6505.92
748.573	6542.98
748.911	6583.65
749.25	6594.5
749.589	6575.97
749.928	6638.12
750.267	6803.31
750.605	6760.15
750.944	6867.71
751.283	6813.48
751.621	6898.67
751.96	6963.53
752.298	7006.47
752.636	7134.15
752.975	7164.66
753.313	7212.79
753.651	7261.15
753.989	7281.72
754.327	7401.26
754.666	7409.85
755.004	7480.13
755.342	7649.84
755.679	7740.01
756.017	7747.24
756.355	7853
756.693	7889.38
757.031	8040.79
757.368	8164.4
757.706	8256.83
758.044	8328.47
758.381	8445.75
758.719	8489.82
759.056	8661.11
759.394	8741.34
759.731	8859.3
760.068	8885.51
760.405	9028.79
760.743	9096.81
761.08	9209.57
761.417	9237.14
761.754	9408.44
762.091	9518.27
762.428	9606.4
762.765	9667.87
763.102	9814.98
763.438	9892.95
763.775	9988.99
764.112	10089.33
764.449	10211.36
764.785	10314.18
765.122	10298.36
765.458	10395.76
765.795	10558.01
766.131	10643.89
766.467	10729.08
766.804	10725.01
767.14	10841.4
767.476	10934.05
767.812	11014.27
768.148	11118
768.485	11172.01
768.821	11196.41
769.157	11326.35
769.492	11350.08
769.828	11480.25
770.164	11401.61
770.5	11608.38
770.836	11717.53
771.171	11693.8
771.507	11778.55
771.842	11753.46
772.178	11867.36
772.513	11835.27
772.849	11975.6
773.184	11948.71
773.519	12041.82
773.855	12109.61
774.19	12084.75
774.525	12083.17
774.86	12165.65
775.195	12261.25
775.53	12281.58
775.865	12291.3
776.2	12112.1
776.535	12201.13
776.87	12342.15
777.205	12253.11
777.539	12280
777.874	12374.01
778.209	12256.27
778.543	12318.42
778.878	12297.63
779.212	12390.73
779.547	12328.59
779.881	12376.72
780.215	12358.64
780.55	12316.84
780.884	12345.31
781.218	12324.75
781.552	12442.94
781.886	12402.48
782.22	12301.47
782.554	12293.11
782.888	12288.82
783.222	12240.91
783.556	12321.36
783.889	12220.12
784.223	12194.13
784.557	12245.88
784.89	12247.91
785.224	12237.07
785.557	12250.85
785.891	12237.29
786.224	12215.14
786.558	12225.31
786.891	12085.66
787.224	12061.48
787.557	12021.25
787.891	12078.65
788.224	12118.65
788.557	12042.49
788.89	12084.53
789.223	12091.53
789.556	11996.17
789.888	12026.9
790.221	11979.9
790.554	11836.4
790.887	11860.58
791.219	11830.97
791.552	11876.85
791.884	11836.4
792.217	11749.85
792.549	11787.13
792.882	11766.8
793.214	11624.2
793.546	11704.2
793.879	11659.91
794.211	11608.83
794.543	11644.76
794.875	11625.1
795.207	11631.88
795.539	11553.24
795.871	11600.92
796.203	11501.49
796.535	11396.18
796.867	11409.06
797.198	11387.82
797.53	11388.95
797.862	11263.53
798.193	11346.02
798.525	11249.07
798.856	11303.3
799.188	11147.38
799.519	11194.83
799.85	11144.21
800.182	11122.74
800.513	11087.04
800.844	11034.84
801.175	11094.95
801.506	11081.62
801.837	11058.79
802.168	10997.1
802.499	10988.96
802.83	10976.53
803.161	10960.26
803.491	10839.59
803.822	10913.71
804.153	10801.62
804.483	10733.83
804.814	10738.57
805.145	10827.16
805.475	10731.57
805.805	10774.5
806.136	10743.55
806.466	10763.21
806.796	10702.87
807.126	10611.12
807.457	10605.02
807.787	10617.67
808.117	10552.82
808.447	10537.22
808.777	10554.62
809.107	10514.85
809.436	10467.17
809.766	10461.07
810.096	10429.88
810.426	10355.53
810.755	10377.23
811.085	10325.93
811.414	10372.03
811.744	10253.61
812.073	10306.72
812.403	10232.6
812.732	10245.03
813.061	10204.12
813.39	10170.9
813.719	10157.8
814.049	10201.86
814.378	10197.12
814.707	10165.03
815.036	10125.48
815.365	10103.56
815.693	9969.78
816.022	10069.89
816.351	10007.75
816.68	9918.71
817.008	10014.52
817.337	9870.35
817.665	9845.04
817.994	9883.68
818.322	9923.68
818.651	9833.06
818.979	9792.84
819.307	9849.78
819.636	9843.91
819.964	9753.74
820.292	9771.82
820.62	9789.22
820.948	9804.81
821.276	9709.45
821.604	9673.29
821.932	9799.84
822.259	9795.77
822.587	9727.53
822.915	9658.38
823.243	9731.14
823.57	9762.33
823.898	9759.62
824.225	9666.74
824.553	9704.93
824.88	9771.37
825.207	9720.97
825.535	9788.09
825.862	9755.32
826.189	9691.37
826.516	9755.32
826.843	9773.18
827.17	9763.91
827.497	9770.69
827.824	9777.24
828.151	9799.39
828.478	9786.28
828.805	9848.88
829.131	9799.84
829.458	9749.22
829.785	9709
830.111	9772.27
830.438	9743.35
830.764	9727.07
831.09	9772.27
831.417	9760.29
831.743	9718.94
832.069	9702.22
832.395	9666.96
832.722	9737.47
833.048	9636
833.374	9686.17
833.7	9625.16
834.026	9622.9
834.351	9725.94
834.677	9708.54
835.003	9775.89
835.329	9685.27
835.654	9685.72
835.98	9599.85
836.306	9651.6
836.631	9623.57
836.956	9627.42
837.282	9579.73
837.607	9587.42
837.932	9585.61
838.258	9554.42
838.583	9575.89
838.908	9563.01
839.233	9512.84
839.558	9453.86
839.883	9463.58
840.208	9426.74
840.533	9381.1
840.858	9394.65
841.182	9446.86
841.507	9392.17
841.832	9346.29
842.156	9386.07
842.481	9367.76
842.805	9282.11
843.13	9299.74
843.454	9249.57
843.778	9273.08
844.103	9197.37
844.427	9219.52
844.751	9182.46
845.075	9170.48
845.399	9191.04
845.723	9132.06
846.047	9106.53
846.371	9050.93
846.695	9023.36
847.019	8968.22
847.343	8911.95
847.666	8859.75
847.99	8871.73
848.313	8826.99
848.637	8800.32
848.96	8788.79
849.284	8815.69
849.607	8703.82
849.931	8697.05
850.254	8578.63
850.577	8550.83
850.9	8509.93
851.223	8548.57
851.546	8482.14
851.869	8422.93
852.192	8501.57
852.515	8424.06
852.838	8385.42
853.161	8429.71
853.483	8382.93
853.806	8276.04
854.129	8323.72
854.451	8265.64
854.774	8192.65
855.096	8185.65
855.419	8177.28
855.741	8201.47
856.063	8138.64
856.385	8100.45
856.708	8096.16
857.03	8074.69
857.352	8031.07
857.674	8085.31
857.996	7957.63
858.318	7968.25
858.64	8009.15
858.961	7862.94
859.283	7883.96
859.605	7880.57
859.926	7835.6
860.248	7842.83
860.57	7809.39
860.891	7789.95
861.212	7762.15
861.534	7730.07
861.855	7793.79
862.176	7693.91
862.498	7781.59
862.819	7693.91
863.14	7692.78
863.461	7660.69
863.782	7635.83
864.103	7626.11
864.424	7642.38
864.745	7677.86
865.065	7614.59
865.386	7576.17
865.707	7631.99
866.027	7636.06
866.348	7547.02
866.668	7604.87
866.989	7535.27
867.309	7436.06
867.63	7474.7
867.95	7443.29
868.27	7453.91
868.59	7401.94
868.91	7416.85
869.23	7427.02
869.55	7368.27
869.87	7409.85
870.19	7428.15
870.51	7408.72
870.83	7397.87
871.15	7379.34
871.469	7366.23
871.789	7384.54
872.109	7354.93
872.428	7267.25
872.748	7359.45
873.067	7286.69
873.386	7286.69
873.706	7292.34
874.025	7208.72
874.344	7245.56
874.663	7211.89
874.982	7184.99
875.301	7232
875.62	7148.61
875.939	7184.99
876.258	7189.97
876.577	7145.67
876.896	7191.32
877.214	7131.66
877.533	7147.48
877.852	7113.58
878.17	7118.78
878.489	7121.95
878.807	7056.18
879.125	7065
879.444	7063.19
879.762	7048.5
880.08	7053.7
880.398	7021.61
880.716	7048.95
881.034	7045.34
881.352	7010.31
881.67	6974.15
881.988	6988.84
882.306	6987.71
882.624	6970.54
882.941	6938.9
883.259	6949.75
883.577	6909.3
883.894	6882.86
884.212	6875.17
884.529	6838.11
884.846	6808.73
885.164	6786.81
885.481	6807.6
885.798	6817.77
886.115	6753.14
886.432	6810.99
886.75	6732.35
887.067	6718.34
887.383	6698.91
887.7	6674.95
888.017	6681.05
888.334	6711.56
888.651	6697.32
888.967	6636.53
889.284	6532.58
889.6	6639.25
889.917	6533.26
890.233	6602.64
890.55	6559.47
890.866	6551.11
891.182	6509.08
891.498	6467.73
891.815	6434.51
892.131	6410.78
892.447	6417.11
892.763	6391.57
893.079	6436.54
893.395	6373.72
893.71	6356.32
894.026	6309.31
894.342	6266.83
894.657	6254.62
894.973	6294.62
895.289	6275.41
895.604	6232.7
895.92	6197.45
896.235	6134.85
896.55	6124.23
896.865	6137.79
897.181	6125.36
897.496	6113.38
897.811	6060.96
898.126	6068.87
898.441	6077
898.756	6040.39
899.071	6008.53
899.386	6009.21
899.7	5964.46
900.015	5935.54
900.33	5959.49
900.644	5915.65
900.959	5879.72
901.273	5855.31
901.588	5815.31
901.902	5791.59
902.216	5813.05
902.531	5805.6
902.845	5751.59
903.159	5719.5
903.473	5684.7
903.787	5744.35
904.101	5672.94
904.415	5681.53
904.729	5663
905.042	5600.18
905.356	5537.58
905.67	5543.91
905.984	5546.62
906.297	5551.37
906.611	5532.38
906.924	5507.75
907.237	5514.3
907.551	5484.93
907.864	5428.2
908.177	5433.63
908.491	5407.64
908.804	5356.12
909.117	5400.18
909.43	5306.17
909.743	5277.25
910.056	5228.21
910.368	5282.22
910.681	5212.84
910.994	5193.86
911.307	5229.11
911.619	5185.73
911.932	5147.31
912.244	5126.29
912.557	5122.22
912.869	5105.05
913.181	5099.63
913.494	5034.54
913.806	5037.48
914.118	5033.86
914.43	4990.02
914.742	4976.47
915.054	4953.19
915.366	4939.86
915.678	4968.1
915.99	4940.31
916.302	4889.91
916.613	4877.26
916.925	4846.53
917.236	4858.05
917.548	4813.08
917.859	4799.29
918.171	4785.96
918.482	4775.34
918.794	4770.37
919.105	4702.35
919.416	4684.72
919.727	4663.03
920.038	4679.98
920.349	4605.85
920.66	4644.04
920.971	4644.04
921.282	4645.85
921.593	4548
921.903	4548.23
922.214	4557.49
922.525	4540.09
922.835	4484.95
923.146	4492.64
923.456	4467.1
923.767	4460.09
924.077	4468.68
924.387	4445.86
924.697	4403.15
925.008	4364.73
925.318	4361.57
925.628	4357.72
925.938	4336.03
926.248	4295.58
926.558	4274.34
926.867	4297.39
927.177	4265.3
927.487	4239.31
927.796	4231.85
928.106	4184.85
928.416	4169.03
928.725	4205.86
929.034	4142.36
929.344	4113.89
929.653	4145.75
929.962	4089.48
930.271	4045.64
930.581	4072.08
930.89	4064.4
931.199	4007.9
931.508	4033.67
931.817	3971.75
932.125	3954.35
932.434	3975.14
932.743	3968.81
933.051	3925.65
933.36	3929.49
933.669	3922.71
933.977	3921.58
934.286	3844.07
934.594	3851.07
934.902	3853.78
935.21	3818.3
935.519	3819.21
935.827	3827.12
936.135	3765.65
936.443	3748.02
936.751	3755.25
937.059	3804.97
937.367	3726.33
937.674	3760.45
937.982	3698.08
938.29	3688.36
938.597	3724.97
938.905	3653.34
939.213	3626.22
939.52	3637.97
939.827	3641.13
940.135	3556.84
940.442	3582.15
940.749	3546.9
941.056	3574.02
941.363	3546.67
941.67	3480.46
941.977	3529.27
942.284	3504.64
942.591	3488.14
942.898	3450.86
943.205	3476.62
943.511	3449.73
943.818	3401.37
944.125	3421.25
944.431	3377.64
944.738	3342.38
945.044	3387.81
945.35	3330.63
945.657	3332.67
945.963	3306.23
946.269	3299.9
946.575	3311.88
946.881	3279.56
947.187	3239.34
947.493	3243.4
947.799	3280.24
948.105	3238.88
948.41	3230.52
948.716	3207.47
949.022	3217.42
949.327	3176.74
949.633	3133.58
949.938	3138.32
950.244	3151.43
950.549	3137.19
950.854	3113.69
951.16	3114.59
951.465	3056.29
951.77	3069.17
952.075	3076.85
952.38	3069.85
952.685	3030.53
952.99	3024.88
953.294	3033.01
953.599	2956.18
953.904	2984.65
954.209	2949.17
954.513	2948.72
954.818	2934.94
955.122	2950.98
955.426	2903.3
955.731	2932.45
956.035	2896.52
956.339	2896.29
956.643	2915.95
956.948	2910.08
957.252	2861.72
957.556	2824.43
957.86	2819.46
958.163	2827.82
958.467	2812.23
958.771	2782.4
959.075	2775.39
959.378	2768.84
959.682	2783.98
959.985	2751.21
960.289	2732.68
960.592	2722.06
960.896	2704.66
961.199	2691.55
961.502	2708.5
961.805	2679.12
962.108	2622.4
962.411	2620.14
962.714	2647.26
963.017	2604.78
963.32	2676.19
963.623	2619.92
963.926	2628.28
964.228	2617.88
964.531	2570.43
964.833	2599.13
965.136	2543.99
965.438	2548.96
965.741	2516.42
966.043	2532.69
966.345	2536.53
966.648	2519.35
966.95	2522.29
967.252	2471.22
967.554	2475.29
967.856	2496.98
968.158	2447.72
968.46	2436.64
968.761	2442.75
969.063	2433.48
969.365	2401.39
969.666	2402.07
969.968	2372.24
970.269	2388.74
970.571	2410.2
970.872	2340.15
971.174	2359.36
971.475	2333.6
971.776	2357.1
972.077	2338.12
972.378	2297.67
972.679	2330.66
972.98	2315.07
973.281	2281.17
973.582	2311.22
973.883	2280.72
974.183	2233.26
974.484	2246.14
974.785	2239.81
975.085	2259.47
975.386	2220.83
975.686	2221.96
975.986	2215.86
976.287	2209.08
976.587	2166.82
976.887	2191
977.187	2192.81
977.487	2200.94
977.787	2153.04
978.087	2140.16
978.387	2187.61
978.687	2125.47
978.987	2111.23
979.286	2087.73
979.586	2112.36
979.885	2102.64
980.185	2082.08
980.484	2079.82
980.784	2086.6
981.083	2040.95
981.382	2035.3
981.682	2065.81
981.981	2031.91
982.28	2015.87
982.579	2013.15
982.878	2003.44
983.177	2006.6
983.475	2003.89
983.774	1947.39
984.073	1966.15
984.372	1968.18
984.67	1968.41
984.969	1964.79
985.267	1925.25
985.566	1938.8
985.864	1895.42
986.162	1937.9
986.461	1911.69
986.759	1904.68
987.057	1890.9
987.355	1886.6
987.653	1907.62
987.951	1861.74
988.249	1869.2
988.547	1864.23
988.844	1849.77
989.142	1845.93
989.44	1839.37
989.737	1777.68
990.035	1806.61
990.332	1802.31
990.63	1795.31
990.927	1795.53
991.224	1776.32
991.521	1764.35
991.819	1775.65
992.116	1753.27
992.413	1772.26
992.71	1764.8
993.006	1738.58
993.303	1726.16
993.6	1728.64
993.897	1705.36
994.193	1737.91
994.49	1698.59
994.787	1696.33
995.083	1695.2
995.379	1688.64
995.676	1672.82
995.972	1631.92
996.268	1669.66
996.565	1644.58
996.861	1641.86
997.157	1643.22
997.453	1625.82
997.749	1603.67
998.044	1602.77
998.34	1603.9
998.636	1593.05
998.932	1587.85
999.227	1564.13
999.523	1567.97
999.818	1589.89
1000.114	1519.83
1000.409	1543.56
1000.704	1523.9
1001	1517.35
1001.295	1510.34
1001.59	1548.08
1001.885	1494.07
1002.18	1501.3
1002.475	1503.56
1002.77	1494.07
1003.065	1465.37
1003.359	1475.09
1003.654	1464.92
1003.949	1470.79
1004.243	1465.37
1004.538	1436.45
1004.832	1429.67
1005.127	1413.85
1005.421	1422.21
1005.715	1412.27
1006.009	1405.71
1006.304	1414.75
1006.598	1377.92
1006.892	1374.75
1007.186	1350.8
1007.48	1347.86
1007.773	1355.09
1008.067	1330.23
1008.361	1343.34
1008.655	1319.16
1008.948	1358.26
1009.242	1330.46
1009.535	1326.17
1009.829	1314.19
1010.122	1278.71
1010.415	1296.11
1010.708	1289.1
1011.001	1251.37
1011.295	1265.83
1011.588	1256.34
1011.881	1265.6
1012.173	1259.27
1012.466	1261.76
1012.759	1232.16
1013.052	1222.44
1013.344	1218.15
1013.637	1222.21
1013.93	1221.31
1014.222	1212.27
1014.514	1177.02
1014.807	1212.5
1015.099	1182.44
1015.391	1156
1015.683	1179.28
1015.976	1173.4
1016.268	1161.65
1016.56	1185.6
1016.851	1147.64
1017.143	1158.03
1017.435	1160.29
1017.727	1137.47
1018.018	1120.97
1018.31	1109.22
1018.602	1138.15
1018.893	1108.09
1019.185	1116.68
1019.476	1106.51
1019.767	1086.62
1020.058	1082.78
1020.35	1063.57
1020.641	1071.94
1020.932	1061.09
1021.223	1030.13
1021.514	1046.63
1021.804	1026.06
1022.095	1037.81
1022.386	1029
1022.677	1042.78
1022.967	1015.89
1023.258	1010.92
1023.548	1018.15
1023.839	1011.82
1024.129	989
1024.419	989.23
1024.709	984.71
1025	956.01
1025.29	976.34
1025.58	981.32
1025.87	956.68
1026.16	962.33
1026.449	960.3
1026.739	950.36
1027.029	962.79
1027.319	931.83
1027.608	943.58
1027.898	916.91
1028.187	932.05
1028.477	922.79
1028.766	915.56
1029.055	907.87
1029.344	898.15
1029.634	871.26
1029.923	884.6
1030.212	887.53
1030.501	875.56
1030.79	862.22
1031.078	862.22
1031.367	861.77
1031.656	839.4
1031.945	861.09
1032.233	836.69
1032.522	848.66
1032.81	837.14
1033.099	864.48
1033.387	834.65
1033.675	798.04
1033.963	811.15
1034.251	829
1034.54	797.37
1034.828	818.83
1035.116	806.63
1035.403	778.84
1035.691	777.93
1035.979	795.33
1036.267	790.59
1036.554	785.16
1036.842	775.22
1037.129	771.6
1037.417	756.92
1037.704	767.54
1037.992	772.51
1038.279	757.14
1038.566	749.46
1038.853	749.46
1039.14	749.46
