Data from hue_40_FLMS001491_43.txt Node
Date: Mon Feb 06 15:07:57 GMT 2017
User: dcchb
Spectrometer: FLMS00149
Trigger mode: 0
Integration Time (sec): 2.000000E-2
Scans to average: 10
Electric dark correction enabled: true
Nonlinearity correction enabled: false
Boxcar width: 0
XAxis mode: Wavelengths
Number of Pixels in Spectrum: 2048
>>>>>Begin Spectral Data<<<<<
341.393	-4.25
341.776	-4.25
342.16	-4.25
342.543	-52.84
342.927	-74.98
343.31	-55.32
343.693	-74.08
344.077	-74.98
344.46	-63.68
344.843	-57.58
345.226	-22.1
345.61	-19.62
345.993	-39.28
346.376	-12.16
346.759	-0.64
347.142	37.56
347.525	33.26
347.908	43.43
348.291	79.36
348.674	112.36
349.057	113.49
349.44	112.36
349.823	138.12
350.206	158
350.588	192.81
350.971	220.38
351.354	227.38
351.737	220.38
352.119	248.62
352.502	266.25
352.884	278.23
353.267	299.47
353.65	319.58
354.032	319.81
354.414	312.12
354.797	343.08
355.179	307.83
355.562	310.09
355.944	323.42
356.326	324.33
356.709	348.73
357.091	342.18
357.473	355.74
357.855	337.21
358.238	371.11
358.62	346.02
359.002	312.8
359.384	353.93
359.766	348.28
360.148	342.18
360.53	360.94
360.912	344.89
361.294	366.59
361.676	328.4
362.057	343.99
362.439	336.3
362.821	335.4
363.203	343.54
363.584	346.02
363.966	336.53
364.348	341.05
364.729	315.74
365.111	337.43
365.493	335.63
365.874	326.59
366.256	329.75
366.637	314.16
367.019	331.11
367.4	318.68
367.781	315.51
368.163	297.89
368.544	324.55
368.925	319.36
369.306	315.29
369.688	295.63
370.069	335.4
370.45	333.14
370.831	335.4
371.212	336.53
371.593	305.57
371.974	309.41
372.355	326.59
372.736	328.85
373.117	331.33
373.498	317.77
373.879	320.03
374.26	331.33
374.641	314.16
375.021	318.9
375.402	340.37
375.783	327.49
376.163	347.15
376.544	357.32
376.925	345.8
377.305	334.72
377.686	343.31
378.066	334.5
378.447	338.79
378.827	323.42
379.208	332.69
379.588	333.37
379.968	331.33
380.349	332.91
380.729	334.04
381.109	337.89
381.489	347.83
381.87	334.27
382.25	347.38
382.63	348.51
383.01	341.73
383.39	342.86
383.77	353.48
384.15	340.15
384.53	359.58
384.91	342.41
385.29	355.97
385.67	358.23
386.049	360.26
386.429	366.13
386.809	388.73
387.189	362.07
387.568	339.92
387.948	342.63
388.328	359.13
388.707	349.19
389.087	341.05
389.466	354.61
389.846	378.34
390.225	378.11
390.605	362.52
390.984	373.14
391.363	370.43
391.743	391.9
392.122	368.85
392.501	374.95
392.881	400.48
393.26	376.76
393.639	388.28
394.018	376.08
394.397	375.4
394.776	386.7
395.155	375.85
395.534	373.82
395.913	385.57
396.292	357.55
396.671	380.37
397.05	405.68
397.429	395.29
397.808	376.98
398.186	397.09
398.565	389.18
398.944	375.85
399.323	390.77
399.701	403.65
400.08	426.25
400.458	403.87
400.837	405
401.215	411.33
401.594	397.09
401.972	393.48
402.351	414.95
402.729	413.59
403.107	411.56
403.486	411.56
403.864	410.2
404.242	409.75
404.62	425.57
404.999	421.95
405.377	414.72
405.755	434.16
406.133	406.13
406.511	420.82
406.889	434.16
407.267	423.76
407.645	430.31
408.023	458.79
408.401	444.1
408.779	460.14
409.156	445.68
409.534	425.34
409.912	436.19
410.29	454.04
410.667	464.21
411.045	441.39
411.422	447.04
411.8	464.89
412.178	468.96
412.555	465.57
412.933	448.39
413.31	454.27
413.687	454.72
414.065	469.63
414.442	464.21
414.819	477.09
415.197	495.4
415.574	510.31
415.951	499.92
416.328	480.26
416.705	472.35
417.082	500.82
417.46	522.97
417.837	512.35
418.214	510.76
418.591	497.43
418.967	522.06
419.344	491.55
419.721	502.4
420.098	505.57
420.475	532.01
420.852	495.85
421.228	518.22
421.605	535.85
421.982	541.5
422.358	553.25
422.735	538.33
423.111	514.15
423.488	549.18
423.864	543.3
424.241	559.35
424.617	573.36
424.994	548.73
425.37	539.24
425.746	568.84
426.123	576.98
426.499	582.63
426.875	564.77
427.251	582.85
427.627	616.75
428.003	580.82
428.379	577.88
428.756	590.99
429.132	623.08
429.507	598.9
429.883	607.26
430.259	612.91
430.635	603.19
431.011	619.01
431.387	628.5
431.763	617.43
432.138	658.56
432.514	639.57
432.89	632.57
433.265	652.23
433.641	643.87
434.016	651.32
434.392	683.64
434.767	673.02
435.143	696.97
435.518	698.78
435.894	678.67
436.269	688.16
436.644	672.57
437.02	710.08
437.395	686.35
437.77	703.07
438.145	699.68
438.52	717.54
438.895	721.15
439.271	742.62
439.646	773.13
440.021	728.38
440.395	772.68
440.77	741.49
441.145	746.01
441.52	762.96
441.895	758.67
442.27	761.38
442.645	767.25
443.019	754.15
443.394	767.03
443.769	739.68
444.143	781.26
444.518	790.76
444.892	792.34
445.267	788.04
445.641	801.38
446.016	812
446.39	833.01
446.764	812.22
447.139	794.6
447.513	820.36
447.887	789.17
448.262	813.13
448.636	832.34
449.01	841.15
449.384	831.21
449.758	832.34
450.132	869.62
450.506	835.73
450.88	865.33
451.254	852
451.628	858.1
452.002	855.16
452.376	882.28
452.75	881.15
453.123	884.31
453.497	905.78
453.871	935.39
454.244	943.97
454.618	953.01
454.992	953.24
455.365	914.59
455.739	980.81
456.112	960.02
456.486	963.63
456.859	999.56
457.232	1017.42
457.606	1000.69
457.979	1010.64
458.352	1031.43
458.725	1019.22
459.099	1029.62
459.472	1050.86
459.845	1044.31
460.218	1066.46
460.591	1070.3
460.964	1079.79
461.337	1086.79
461.71	1118.21
462.083	1124.98
462.456	1157.07
462.829	1159.11
463.201	1194.81
463.574	1164.31
463.947	1168.15
464.32	1209.95
464.692	1201.59
465.065	1246.34
465.438	1275.94
465.81	1267.35
466.183	1277.97
466.555	1309.39
466.928	1326.56
467.3	1325.66
467.672	1335.15
468.045	1360.68
468.417	1383.73
468.789	1395.71
469.161	1429.84
469.534	1458.54
469.906	1472.55
470.278	1483.85
470.65	1493.11
471.022	1555.48
471.394	1590.74
471.766	1609.04
472.138	1605.88
472.51	1633.22
472.882	1688.36
473.253	1693.11
473.625	1732.88
473.997	1773.33
474.369	1798.41
474.74	1801.12
475.112	1860.33
475.484	1916.6
475.855	1938.52
476.227	1983.95
476.598	2021.91
476.97	2052.42
477.341	2134.68
477.713	2180.55
478.084	2234.11
478.455	2289.47
478.827	2358.62
479.198	2398.4
479.569	2457.15
479.94	2539.41
480.311	2577.38
480.682	2675.23
481.053	2730.59
481.424	2794.09
481.795	2833.64
482.166	2918.38
482.537	2991.15
482.908	3075.22
483.279	3148.66
483.65	3263.46
484.021	3350.01
484.391	3422.55
484.762	3480.63
485.133	3555.2
485.503	3676.56
485.874	3777.12
486.244	3808.3
486.615	3927.4
486.985	4006.72
487.356	4157
487.726	4230.44
488.097	4348.85
488.467	4433.82
488.837	4545.23
489.207	4626.36
489.578	4782.52
489.948	4874.26
490.318	4990.42
490.688	5056.63
491.058	5141.38
491.428	5234.03
491.798	5397.19
492.168	5514.93
492.538	5613.45
492.908	5736.16
493.278	5848.02
493.648	5883.73
494.017	6056.83
494.387	6182.93
494.757	6228.58
495.126	6378.63
495.496	6423.15
495.866	6558.29
496.235	6674.22
496.605	6731.39
496.974	6879.64
497.344	6942.68
497.713	7022
498.082	7157.37
498.452	7264.71
498.821	7355.56
499.19	7369.79
499.559	7567.3
499.928	7703.57
500.298	7730.23
500.667	7872.15
501.036	7926.16
501.405	8097
501.774	8075.76
502.143	8200.28
502.512	8225.81
502.88	8328.86
503.249	8407.5
503.618	8540.61
503.987	8577.67
504.356	8702.64
504.724	8719.81
505.093	8760.04
505.462	8823.77
505.83	9043.42
506.199	9077.09
506.567	9230.76
506.936	9170.87
507.304	9368.38
507.672	9412.45
508.041	9486.8
508.409	9597.3
508.777	9660.58
509.145	9792.55
509.514	9847.69
509.882	9851.76
510.25	9968.82
510.618	10054.02
510.986	10124.52
511.354	10197.97
511.722	10314.12
512.09	10411.29
512.458	10415.14
512.826	10508.92
513.193	10507.56
513.561	10596.37
513.929	10685.41
514.297	10819.42
514.664	10909.36
515.032	10869.36
515.4	11013.76
515.767	11032.97
516.135	11059.64
516.502	11120.88
516.869	11305.96
517.237	11256.02
517.604	11377.82
517.972	11482.68
518.339	11597.03
518.706	11620.3
519.073	11672.28
519.44	11776
519.808	11839.96
520.175	11849.9
520.542	12028.88
520.909	12053.06
521.276	12063
521.643	12219.38
522.009	12272.94
522.376	12415.54
522.743	12483.1
523.11	12514.52
523.477	12646.94
523.843	12654.85
524.21	12844
524.577	13013.94
524.943	12937.1
525.31	12995.18
525.676	13138.45
526.043	13237.21
526.409	13302.97
526.776	13519.91
527.142	13512.68
527.508	13599.68
527.874	13710.42
528.241	13784.99
528.607	13792.45
528.973	13959.68
529.339	13874.71
529.705	14051.88
530.071	14180.69
530.437	14196.28
530.803	14313.56
531.169	14397.63
531.535	14371.64
531.901	14493.67
532.267	14604.4
532.632	14641.47
532.998	14714.46
533.364	14827.45
533.73	14786.77
534.095	14928.92
534.461	15026.99
534.826	15073.54
535.192	15183.15
535.557	15273.09
535.923	15331.39
536.288	15292.07
536.653	15381.56
537.019	15386.08
537.384	15450.26
537.749	15547.2
538.114	15580.65
538.479	15642.79
538.845	15739.29
539.21	15738.84
539.575	15781.77
539.94	15800.08
540.305	15960.53
540.67	15883.01
541.034	16114.65
541.399	16155.32
541.764	16158.04
542.129	16203.68
542.494	16374.98
542.858	16316.22
543.223	16385.83
543.587	16506.05
543.952	16463.56
544.316	16517.12
544.681	16565.93
545.045	16636.89
545.41	16753.5
545.774	16845.48
546.138	16837.79
546.503	16968.18
546.867	16896.32
547.231	17090.21
547.595	17124.79
547.959	17178.12
548.324	17254.5
548.688	17225.8
549.052	17293.6
549.416	17427.83
549.779	17387.83
550.143	17495.18
550.507	17526.36
550.871	17611.78
551.235	17605.46
551.599	17778.56
551.962	17755.51
552.326	17809.07
552.689	17937.88
553.053	17820.36
553.417	18023.52
553.78	18173.8
554.143	18193.24
554.507	18256.29
554.87	18320.69
555.234	18460.35
555.597	18416.06
555.96	18468.48
556.323	18476.17
556.686	18558.42
557.05	18782.6
557.413	18770.85
557.776	18764.07
558.139	18923.39
558.502	19006.1
558.865	19032.99
559.228	19192.76
559.59	19172.42
559.953	19158.86
560.316	19397.27
560.679	19379.19
561.041	19518.4
561.404	19606.53
561.767	19675.46
562.129	19573.31
562.492	19773.99
562.854	19750.94
563.217	19883.81
563.579	20001.55
563.941	20056.01
564.304	20113.41
564.666	20231.83
565.028	20233.63
565.39	20394.08
565.753	20465.49
566.115	20501.42
566.477	20575.55
566.839	20526.06
567.201	20742.55
567.563	20837.46
567.925	20929.89
568.287	20893.28
568.648	20992.26
569.01	21126.04
569.372	21283.55
569.734	21202.87
570.095	21435.18
570.457	21536.43
570.819	21472.47
571.18	21606.71
571.542	21791.33
571.903	21740.04
572.265	21905.46
572.626	21944.1
572.987	21970.09
573.349	21923.08
573.71	22209.63
574.071	22348.16
574.432	22357.19
574.794	22644.42
575.155	22637.41
575.516	22493.69
575.877	22747.69
576.238	22881.93
576.599	22994.47
576.96	22980.23
577.32	23163.5
577.681	23312.42
578.042	23480.1
578.403	23535.47
578.763	23648.46
579.124	23836.03
579.485	23960.09
579.845	24118.73
580.206	24083.02
580.566	24249.8
580.927	24433.75
581.287	24690.47
581.648	24791.03
582.008	24865.6
582.368	25025.6
582.728	25129.33
583.089	25202.54
583.449	25451.12
583.809	25602.76
584.169	25849.76
584.529	25928.4
584.889	26316.86
585.249	26332.01
585.609	26393.7
585.969	26660.13
586.329	26728.38
586.688	26999.78
587.048	27256.05
587.408	27235.26
587.768	27518.64
588.127	27741.91
588.487	27828.01
588.846	28116.37
589.206	28157.04
589.565	28421.67
589.925	28725.84
590.284	28742.11
590.643	29020.97
591.003	29284.47
591.362	29506.39
591.721	29769.43
592.08	29867.28
592.44	30115.41
592.799	30344.1
593.158	30467.04
593.517	30641.72
593.876	30774.6
594.235	30952.9
594.593	31142.73
594.952	31350.86
595.311	31396.05
595.67	31736.61
596.029	32007.34
596.387	32112.87
596.746	32380.89
597.104	32553.99
597.463	32545.85
597.822	32957.14
598.18	32954.43
598.538	33048.66
598.897	33419.28
599.255	33290.92
599.613	33886.16
599.972	33759.83
600.33	34055.42
600.688	34057.23
601.046	34397.33
601.404	34468.06
601.762	34651.56
602.12	34852.91
602.478	35023.08
602.836	35177.42
603.194	35250.87
603.552	35368.15
603.91	35491.76
604.268	35828.7
604.625	35662.16
604.983	35949.15
605.341	35952.54
605.698	36334.91
606.056	36396.37
606.413	36499.2
606.771	36643.37
607.128	36845.4
607.485	36747.55
607.843	37004.95
608.2	37217.82
608.557	37389.57
608.914	37460.53
609.272	37620.75
609.629	37780.74
609.986	37963.34
610.343	37852.61
610.7	38185.48
611.057	38228.87
611.414	38331.46
611.771	38486.49
612.127	38657.33
612.484	38731.45
612.841	38801.73
613.198	38795.86
613.554	38953.37
613.911	39246.69
614.267	39222.29
614.624	39116.53
614.98	39432.45
615.337	39637.64
615.693	39624.31
616.05	39654.14
616.406	39869.95
616.762	39803.74
617.118	39847.36
617.475	39921.48
617.831	40179.55
618.187	40041.93
618.543	40282.6
618.899	40521.24
619.255	40503.16
619.611	40575.7
619.967	40661.57
620.323	40658.86
620.678	40582.25
621.034	40675.36
621.39	40681.01
621.746	40759.87
622.101	41259.3
622.457	41019.98
622.812	41051.62
623.168	41227.88
623.523	41129.13
623.879	41381.78
624.234	41137.04
624.589	41328.22
624.945	41313.98
625.3	41452.96
625.655	41459.07
626.01	41657.48
626.365	41550.14
626.72	41496.8
627.075	41606.41
627.43	41529.57
627.785	41573.86
628.14	41603.69
628.495	41602.79
628.85	41704.03
629.205	41545.16
629.559	41758.94
629.914	41685.73
630.269	41772.5
630.623	41667.87
630.978	41613.64
631.332	41864.93
631.687	41878.94
632.041	41560.08
632.396	41825.16
632.75	41580.87
633.104	41817.7
633.459	41651.15
633.813	41600.76
634.167	41623.35
634.521	41541.77
634.875	41683.47
635.229	41556.24
635.583	41315.79
635.937	41516.69
636.291	41469.23
636.645	41441.21
636.999	41313.08
637.352	41407.99
637.706	41318.96
638.06	41510.36
638.413	41368.67
638.767	41255.68
639.121	41309.46
639.474	41177.26
639.828	41151.73
640.181	41270.37
640.534	41389.91
640.888	41230.14
641.241	40954.45
641.594	41092.3
641.947	41268.11
642.301	41165.51
642.654	41251.39
643.007	41128.68
643.36	41098.62
643.713	41020.88
644.066	41173.88
644.419	40983.15
644.771	40682.14
645.124	40312.43
645.477	40235.14
645.83	40146.56
646.182	39990.86
646.535	39754.93
646.888	39845.1
647.24	39701.37
647.593	39822.72
647.945	39816.62
648.298	39592.9
648.65	39525.1
649.002	39491.43
649.355	39617.76
649.707	39634.25
650.059	39639.23
650.411	40231.75
650.763	40327.34
651.115	40606.88
651.467	40441.92
651.819	40403.5
652.171	40294.35
652.523	40422.71
652.875	40257.51
653.227	40234.92
653.578	40308.59
653.93	40325.54
654.282	40113.11
654.633	40081.7
654.985	40173.22
655.337	40229.49
655.688	40351.98
656.039	40331.19
656.391	39873.57
656.742	40045.77
657.094	40160.34
657.445	40052.55
657.796	40037.86
658.147	40078.31
658.498	39917.41
658.849	40051.87
659.2	40085.32
659.551	39905.66
659.902	40210.74
660.253	39942.27
660.604	39930.29
660.955	39817.98
661.306	40028.59
661.656	39910.18
662.007	39919.22
662.358	39881.03
662.708	39935.72
663.059	39989.73
663.409	39554.71
663.76	39907.02
664.11	39818.43
664.461	39971.65
664.811	39876.96
665.161	39852.1
665.511	39699.11
665.862	39840.12
666.212	39883.74
666.562	40014.81
666.912	39768.71
667.262	39799.22
667.612	39696.4
667.962	39727.59
668.312	39545.44
668.662	39916.28
669.011	39868.82
669.361	39646.68
669.711	39634.25
670.06	39630.86
670.41	39518.33
670.76	39483.3
671.109	39618.44
671.459	39520.13
671.808	39393.36
672.157	39582.5
672.507	39444.65
672.856	39313.13
673.205	39449.85
673.554	39497.08
673.904	39241.95
674.253	39682.84
674.602	39458.44
674.951	38815.29
675.3	38640.16
675.649	39254.6
675.998	39281.04
676.346	39304.09
676.695	39522.84
677.044	39117.21
677.393	39277.2
677.741	39237.2
678.09	39133.02
678.438	38988.4
678.787	39295.51
679.135	39185
679.484	38879.47
679.832	39079.01
680.181	38865.46
680.529	38970.09
680.877	38767.61
681.225	38785.46
681.573	39048.28
681.922	38679.03
682.27	38644.68
682.618	38688.29
682.966	38463.21
683.314	38597.9
683.661	38551.57
684.009	38400.84
684.357	38278.58
684.705	38215.31
685.053	38323.78
685.4	38232.71
685.748	37965.6
686.095	38004.92
686.443	37859.39
686.79	37861.65
687.138	37971.47
687.485	37857.13
687.832	37799.27
688.18	37824.36
688.527	37616.23
688.874	37463.46
689.221	37598.6
689.568	37372.17
689.915	37310.47
690.262	37272.51
690.609	37129.69
690.956	37100.76
691.303	37030.26
691.65	36835.68
691.997	36948.45
692.344	36753.88
692.69	36665.52
693.037	36648.8
693.383	36347.79
693.73	36549.82
694.077	36263.5
694.423	36127.91
694.769	36226.43
695.116	36054.24
695.462	36026.21
695.808	35917.06
696.155	36027.57
696.501	35754.13
696.847	35655.38
697.193	35518.2
697.539	35565.43
697.885	35303.75
698.231	35248.16
698.577	35278.66
698.923	35163.41
699.269	35146.46
699.614	34856.08
699.96	34937.2
700.306	34856.3
700.651	34630.09
700.997	34710.32
701.342	34469.19
701.688	34431.91
702.033	34440.94
702.379	34318.01
702.724	34242.76
703.069	34327.28
703.415	33834.41
703.76	33951.24
704.105	33961.64
704.45	33740.62
704.795	33628.99
705.14	33530.69
705.485	33392.16
705.83	33254.54
706.175	33530.23
706.52	33364.81
706.865	33289.11
707.209	33062.68
707.554	33101.32
707.899	33142.67
708.243	32925.28
708.588	32941.1
708.932	32791.27
709.277	32699.97
709.621	32697.04
709.966	32465.86
710.31	32477.15
710.654	32379.08
710.998	32308.8
711.342	32332.3
711.687	32210.27
712.031	32096.6
712.375	32048.01
712.719	32143.15
713.063	32024.06
713.407	32031.97
713.75	31835.59
714.094	31773.44
714.438	31679.44
714.782	31867.45
715.125	31667.91
715.469	31633.11
715.812	31485.77
716.156	31331.42
716.499	31370.74
716.843	31337.3
717.186	31202.84
717.53	31258.88
717.873	31255.27
718.216	31258.2
718.559	31016.85
718.902	30836.97
719.246	30991.54
719.589	30776.41
719.932	30734.15
720.275	30766.01
720.617	30736.18
720.96	30700.03
721.303	30562.63
721.646	30580.26
721.989	30539.8
722.331	30472.69
722.674	30405.8
723.016	30400.37
723.359	30353.37
723.701	30330.32
724.044	30134.62
724.386	30065.47
724.729	30085.8
725.071	30104.79
725.413	29992.25
725.755	30066.82
726.097	29895.08
726.439	29732.82
726.782	29775.98
727.124	29924.23
727.465	29641.07
727.807	29622.77
728.149	29591.58
728.491	29616.66
728.833	29694.63
729.175	29464.58
729.516	29440.4
729.858	29347.97
730.199	29426.61
730.541	29340.06
730.882	29300.06
731.224	29312.27
731.565	29104.81
731.906	29090.35
732.248	29198.37
732.589	29033.4
732.93	28838.61
733.271	28889.23
733.612	28852.17
733.953	28939.39
734.294	28838.38
734.635	28684.71
734.976	28915.89
735.317	28642
735.658	28567.88
735.999	28610.82
736.339	28443.59
736.68	28697.59
737.021	28513.19
737.361	28264.16
737.702	28537.6
738.042	28335.57
738.383	28308.9
738.723	28373.53
739.063	28205.18
739.404	28218.06
739.744	28146.65
740.084	28182.8
740.424	28140.32
740.764	27967.22
741.104	28180.09
741.444	27955.01
741.784	27863.49
742.124	27938.06
742.464	27818.52
742.804	27718.41
743.143	27814.68
743.483	27826.2
743.823	27688.81
744.162	27578.98
744.502	27679.31
744.841	27489.94
745.181	27758.86
745.52	27390.51
745.86	27597.06
746.199	27385.54
746.538	27479.77
746.877	27385.99
747.216	27420.34
747.556	27256.05
747.895	27282.94
748.234	27189.84
748.573	27113
748.911	27125.66
749.25	27040.91
749.589	26953.23
749.928	26887.92
750.267	26974.25
750.605	26837.75
750.944	26772.22
751.283	26754.82
751.621	26713.24
751.96	26549.4
752.298	26549.85
752.636	26593.69
752.975	26421.95
753.313	26328.84
753.651	26405.68
753.989	26305.57
754.327	26240.71
754.666	26093.82
755.004	26189.64
755.342	26237.09
755.679	26100.15
756.017	25958.46
756.355	26105.12
756.693	25871.68
757.031	25911
757.368	25768.4
757.706	25811.57
758.044	25664.68
758.381	25664.45
758.719	25553.49
759.056	25589.2
759.394	25457.9
759.731	25215.42
760.068	25294.07
760.405	25127.07
760.743	25203.45
761.08	25111.7
761.417	24993.06
761.754	24953.06
762.091	24826.96
762.428	24828.09
762.765	24784.93
763.102	24784.93
763.438	24668.09
763.775	24486.63
764.112	24632.84
764.449	24520.08
764.785	24387.65
765.122	24158.96
765.458	24142.68
765.795	24236.24
766.131	24049.58
766.467	23875.57
766.804	23818.63
767.14	23752.64
767.476	23790.15
767.812	23546.09
768.148	23610.5
768.485	23523.72
768.821	23483.94
769.157	23368.47
769.492	23359.43
769.828	23265.87
770.164	23061.58
770.5	23057.06
770.836	23007.35
771.171	22822.04
771.507	22855.71
771.842	22691.65
772.178	22570.3
772.513	22608.49
772.849	22531.43
773.184	22413.46
773.519	22374.14
773.855	22289.17
774.19	22217.76
774.525	22116.07
774.86	22176.63
775.195	22091.66
775.53	21933.25
775.865	21754.72
776.2	21681.05
776.535	21577.1
776.87	21513.83
777.205	21480.83
777.539	21305.7
777.874	21349.09
778.209	21173.72
778.543	21184.12
778.878	21060.96
779.212	21065.48
779.547	20842.88
779.881	20983.9
780.215	20834.52
780.55	20758.37
780.884	20731.47
781.218	20610.12
781.552	20588.88
781.886	20442.44
782.22	20411.26
782.554	20312.28
782.888	20207.65
783.222	20054.43
783.556	20044.04
783.889	19928.56
784.223	19803.82
784.557	19740.09
784.89	19823.02
785.224	19625.52
785.557	19517.04
785.891	19470.26
786.224	19555.01
786.558	19376.93
786.891	19278.18
787.224	19138.75
787.557	19110.5
787.891	19166.54
788.224	19168.58
788.557	19065.98
788.89	19012.88
789.223	19039.32
789.556	18803.16
789.888	18808.59
790.221	18731.53
790.554	18569.27
790.887	18551.19
791.219	18450.4
791.552	18466.22
791.884	18317.53
792.217	18331.99
792.549	18247.92
792.882	18212.22
793.214	18072.11
793.546	18118.89
793.879	18026.69
794.211	17853.13
794.543	18058.78
794.875	17828.95
795.207	17939.46
795.539	17862.17
795.871	17715.51
796.203	17557.55
796.535	17507.38
796.867	17447.49
797.198	17430.54
797.53	17502.41
797.862	17233.71
798.193	17320.94
798.525	17179.25
798.856	17211.79
799.188	16993.04
799.519	16981.74
799.85	16894.06
800.182	16876.89
800.513	16917.56
800.844	16710.34
801.175	16926.38
801.506	16670.11
801.837	16631.02
802.168	16645.71
802.499	16630.11
802.83	16398.71
803.161	16436.67
803.491	16393.74
803.822	16428.99
804.153	16350.35
804.483	16158.26
804.814	16115.32
805.145	16170.46
805.475	16153.97
805.805	16057.47
806.136	15986.29
806.466	16087.98
806.796	16003.24
807.126	15755.56
807.457	15806.18
807.787	15827.87
808.117	15666.3
808.447	15677.14
808.777	15664.49
809.107	15671.72
809.436	15625.39
809.766	15542.01
810.096	15482.12
810.426	15422.24
810.755	15431.95
811.085	15340.66
811.414	15365.51
811.744	15245.29
812.073	15133.66
812.403	15121.9
812.732	15075.13
813.061	15101.57
813.39	15032.19
813.719	14996.26
814.049	15038.74
814.378	14972.08
814.707	14858.63
815.036	14893.21
815.365	14877.62
815.693	14682.82
816.022	14704.06
816.351	14598.53
816.68	14552.65
817.008	14627.91
817.337	14467.68
817.665	14419.78
817.994	14498.42
818.322	14469.72
818.651	14422.04
818.979	14370.29
819.307	14426.78
819.636	14350.4
819.964	14236.73
820.292	14402.38
820.62	14220.46
820.948	14278.31
821.276	14208.03
821.604	14230.18
821.932	14276.05
822.259	14179.1
822.587	14200.8
822.915	14126.22
823.243	14207.8
823.57	14153.57
823.898	14208.93
824.225	14137.3
824.553	14141.37
824.88	14127.13
825.207	14187.01
825.535	14117.41
825.862	14110.86
826.189	14061.37
826.516	14152.89
826.843	14192.89
827.17	14269.72
827.497	14176.84
827.824	14151.76
828.151	14193.12
828.478	14178.65
828.805	14240.35
829.131	14062.95
829.458	14063.85
829.785	14011.88
830.111	14051.88
830.438	14062.27
830.764	14144.98
831.09	14043.06
831.417	14090.52
831.743	14085.55
832.069	14115.38
832.395	13973.91
832.722	14046.23
833.048	14025.89
833.374	13966.23
833.7	13927.13
834.026	13977.75
834.351	14030.86
834.677	13975.27
835.003	14037.64
835.329	13917.64
835.654	13931.88
835.98	13884.88
836.306	13828.38
836.631	13775.05
836.956	13870.64
837.282	13891.88
837.607	13801.04
837.932	13759
838.258	13774.37
838.583	13731.88
838.908	13702.96
839.233	13746.57
839.558	13674.26
839.883	13531.89
840.208	13556.3
840.533	13525.56
840.858	13534.38
841.182	13528.95
841.507	13512.46
841.832	13367.6
842.156	13360.82
842.481	13450.76
842.805	13401.27
843.13	13366.92
843.454	13431.33
843.778	13264.33
844.103	13291.67
844.427	13209.41
844.751	13259.13
845.075	13177.55
845.399	13139.13
845.723	13029.76
846.047	13113.37
846.371	12959.93
846.695	13041.73
847.019	12900.72
847.343	12771.23
847.666	12814.17
847.99	12797.22
848.313	12688.3
848.637	12627.05
848.96	12599.94
849.284	12606.72
849.607	12480.84
849.931	12394.07
850.254	12296.89
850.577	12367.63
850.9	12227.97
851.223	12206.5
851.546	12122.21
851.869	12108.42
852.192	12111.14
852.515	12023.46
852.838	11866.17
853.161	11955.89
853.483	11834.99
853.806	11824.14
854.129	11774.87
854.451	11723.8
854.774	11714.31
855.096	11689.23
855.419	11635.22
855.741	11675.67
856.063	11504.15
856.385	11519.97
856.708	11499.63
857.03	11400.19
857.352	11405.62
857.674	11333.3
857.996	11447.2
858.318	11329.01
858.64	11362.91
858.961	11320.65
859.283	11262.12
859.605	11163.82
859.926	11192.52
860.248	11163.36
860.57	11099.86
860.891	11162.69
861.212	11072.07
861.534	11018.06
861.855	11065.51
862.176	11067.55
862.498	10982.8
862.819	11001.11
863.14	10951.39
863.461	10897.83
863.782	10763.83
864.103	10895.58
864.424	10880.66
864.745	10852.64
865.065	10787.1
865.386	10750.72
865.707	10746.2
866.027	10755.92
866.348	10740.1
866.668	10686.09
866.989	10649.48
867.309	10540.56
867.63	10620.55
867.95	10617.62
868.27	10530.39
868.59	10587.33
868.91	10515.02
869.23	10456.26
869.55	10527.68
869.87	10523.38
870.19	10473.89
870.51	10512.31
870.83	10510.95
871.15	10409.94
871.469	10407.9
871.789	10478.18
872.109	10399.32
872.428	10352.09
872.748	10420.79
873.067	10359.54
873.386	10364.74
873.706	10345.53
874.025	10306.89
874.344	10287.91
874.663	10262.37
874.982	10220.56
875.301	10222.37
875.62	10174.46
875.939	10141.24
876.258	10179.66
876.577	10134.92
876.896	10170.4
877.214	10071.64
877.533	10178.31
877.852	10079.1
878.17	10124.75
878.489	10029.16
878.807	10045.2
879.125	9982.38
879.444	9980.12
879.762	9950.06
880.08	9954.58
880.398	9837.07
880.716	9943.96
881.034	9858.54
881.352	9879.1
881.67	9838.88
881.988	9901.25
882.306	9800.46
882.624	9823.29
882.941	9736.06
883.259	9684.99
883.577	9717.53
883.894	9755.04
884.212	9763.85
884.529	9653.57
884.846	9627.36
885.164	9583.75
885.481	9543.75
885.798	9554.59
886.115	9525.67
886.432	9500.58
886.75	9524.54
887.067	9486.12
887.383	9397.99
887.7	9428.27
888.017	9429.62
888.334	9423.98
888.651	9373.58
888.967	9402.06
889.284	9331.77
889.6	9283.19
889.917	9220.82
890.233	9167.03
890.55	9232.34
890.866	9165
891.182	9114.6
891.498	9139.01
891.815	9114.15
892.131	9103.76
892.447	9098.56
892.763	9028.05
893.079	8974.5
893.395	9030.09
893.71	8975.85
894.026	8961.84
894.342	8896.53
894.657	8836.87
894.973	8819.7
895.289	8777.89
895.604	8798.91
895.92	8714.84
896.235	8697.67
896.55	8702.64
896.865	8663.77
897.181	8610.21
897.496	8632.81
897.811	8617.44
898.126	8542.64
898.441	8493.15
898.756	8512.13
899.071	8478.01
899.386	8432.59
899.7	8346.26
900.015	8413.83
900.33	8297.45
900.644	8353.95
900.959	8331.12
901.273	8211.13
901.588	8254.06
901.902	8173.61
902.216	8188.08
902.531	8201.86
902.845	8121.41
903.159	8097.68
903.473	8022.88
903.787	7974.52
904.101	7963
904.415	8004.13
904.729	7950.79
905.042	7904.69
905.356	7866.5
905.67	7858.82
905.984	7857.91
906.297	7782.44
906.611	7744.47
906.924	7696.11
907.237	7739.5
907.551	7617.92
907.864	7638.71
908.177	7630.58
908.491	7567.3
908.804	7518.71
909.117	7454.76
909.43	7453.18
909.743	7369.57
910.056	7417.25
910.368	7389.68
910.681	7342.67
910.994	7347.65
911.307	7282.34
911.619	7221.32
911.932	7234.65
912.244	7183.81
912.557	7181.1
912.869	7147.65
913.181	7152.85
913.494	7071.95
913.806	7062.46
914.118	6994.66
914.43	7024.94
914.742	6982.46
915.054	6932.74
915.366	6856.36
915.678	6841.67
915.99	6834.21
916.302	6864.72
916.613	6814.33
916.925	6760.09
917.236	6778.85
917.548	6703.82
917.859	6714.44
918.171	6723.71
918.482	6693.43
918.794	6651.17
919.105	6597.83
919.416	6525.97
919.727	6547.44
920.038	6504.96
920.349	6445.75
920.66	6404.62
920.971	6449.14
921.282	6401.68
921.593	6350.16
921.903	6314.9
922.214	6349.71
922.525	6292.98
922.835	6262.93
923.146	6244.17
923.456	6266.32
923.767	6176.15
924.077	6183.83
924.387	6107.68
924.697	6136.83
925.008	6083.5
925.318	6033.33
925.628	6036.49
925.938	6047.12
926.248	5985.65
926.558	5962.6
926.867	5926.44
927.177	5914.24
927.487	5848.93
927.796	5802.15
928.106	5825.2
928.416	5775.94
928.725	5807.8
929.034	5735.94
929.344	5746.56
929.653	5725.54
929.962	5686.45
930.271	5676.28
930.581	5622.95
930.89	5587.01
931.199	5561.48
931.508	5602.15
931.817	5568.26
932.125	5548.6
932.434	5524.42
932.743	5447.81
933.051	5406.23
933.36	5403.52
933.669	5410.52
933.977	5344.99
934.286	5343.4
934.594	5347.25
934.902	5259.11
935.21	5257.98
935.519	5271.09
935.827	5233.13
936.135	5249.62
936.443	5193.58
936.751	5178.44
937.059	5126.01
937.367	5109.06
937.674	5117.65
937.982	5080.59
938.29	5078.33
938.597	5070.87
938.905	4967.82
939.213	4996.97
939.52	4961.95
939.827	4993.36
940.135	4950.19
940.442	4898.22
940.749	4948.84
941.056	4890.31
941.363	4880.37
941.67	4840.59
941.977	4800.82
942.284	4804.21
942.591	4754.49
942.898	4768.96
943.205	4740.48
943.511	4716.75
943.818	4671.33
944.125	4654.84
944.431	4644.21
944.738	4650.09
945.044	4619.13
945.35	4602.18
945.657	4549.75
945.963	4539.58
946.269	4503.43
946.575	4526.7
946.881	4473.37
947.187	4441.06
947.493	4424.11
947.799	4439.02
948.105	4422.3
948.41	4420.94
948.716	4415.75
949.022	4340.95
949.327	4355.86
949.633	4342.3
949.938	4313.6
950.244	4298.01
950.549	4246.26
950.854	4213.94
951.16	4232.93
951.465	4234.51
951.77	4196.54
952.075	4162.19
952.38	4152.25
952.685	4152.7
952.99	4081.97
953.294	4120.16
953.599	4071.12
953.904	4030.67
954.209	4053.72
954.513	3996.77
954.818	4027.28
955.122	4007.17
955.426	3962.2
955.731	3929.43
956.035	3964.68
956.339	3943.22
956.643	3878.58
956.948	3890.11
957.252	3882.2
957.556	3889.88
957.86	3871.58
958.163	3858.92
958.467	3869.55
958.771	3802.2
959.075	3829.09
959.378	3782.99
959.682	3726.72
959.985	3740.06
960.289	3730.34
960.592	3691.02
960.896	3713.84
961.199	3661.19
961.502	3644.01
961.805	3635.65
962.108	3654.41
962.411	3643.56
962.714	3600.85
963.017	3568.31
963.32	3547.75
963.623	3577.35
963.926	3539.84
964.228	3508.65
964.531	3490.57
964.833	3521.08
965.136	3488.76
965.438	3451.03
965.741	3396.56
966.043	3441.08
966.345	3384.81
966.648	3419.16
966.95	3361.99
967.252	3353.63
967.554	3359.05
967.856	3360.41
968.158	3278.6
968.46	3312.05
968.761	3260.52
969.063	3289.9
969.365	3287.64
969.666	3242.67
969.968	3205.38
970.269	3226.62
970.571	3200.86
970.872	3184.82
971.174	3184.14
971.475	3129.68
971.776	3115.44
972.077	3170.35
972.378	3147.76
972.679	3094.88
972.98	3108.89
973.281	3056.69
973.582	3058.49
973.883	3079.28
974.183	3058.04
974.484	3046.52
974.785	2997.48
975.085	2968.55
975.386	2998.83
975.686	2985.27
975.986	2926.07
976.287	2974.2
976.587	2913.41
976.887	2924.71
977.187	2937.59
977.487	2883.36
977.787	2877.71
978.087	2912.28
978.387	2834.09
978.687	2855.33
978.987	2841.1
979.286	2790.7
979.586	2799.06
979.885	2826.41
980.185	2798.84
980.484	2780.76
980.784	2764.26
981.083	2764.49
981.382	2743.47
981.682	2724.04
981.981	2720.2
982.28	2721.33
982.579	2670.71
982.878	2665.06
983.177	2676.13
983.475	2634.1
983.774	2646.3
984.073	2638.39
984.372	2600.65
984.67	2621.44
984.969	2600.65
985.267	2608.11
985.566	2613.08
985.864	2536.92
986.162	2557.04
986.461	2548.9
986.759	2549.13
987.057	2487.89
987.355	2514.1
987.653	2490.82
987.951	2503.25
988.249	2452.41
988.547	2507.55
988.844	2446.53
989.142	2453.76
989.44	2411.28
989.737	2437.04
990.035	2390.04
990.332	2416.48
990.63	2378.51
990.927	2360.21
991.224	2373.77
991.521	2344.61
991.819	2331.96
992.116	2338.29
992.413	2329.02
992.71	2293.77
993.006	2339.87
993.303	2296.48
993.6	2279.76
993.897	2267.1
994.193	2266.2
994.49	2278.4
994.787	2262.36
995.083	2209.25
995.379	2218.06
995.676	2211.51
995.972	2191.62
996.268	2182.58
996.565	2172.64
996.861	2172.87
997.157	2159.31
997.453	2148.69
997.749	2123.6
998.044	2095.35
998.34	2124.96
998.636	2080.67
998.932	2078.86
999.227	2077.05
999.523	2035.02
999.818	2059.2
1000.114	2038.86
1000.409	2001.8
1000.704	2032.98
1001	2004.96
1001.295	2014.68
1001.59	2014
1001.885	2008.35
1002.18	1986.66
1002.475	1943.49
1002.77	1931.07
1003.065	1915.92
1003.359	1938.3
1003.654	1908.47
1003.949	1912.31
1004.243	1894.23
1004.538	1891.29
1004.832	1858.75
1005.127	1864.85
1005.421	1858.75
1005.715	1839.54
1006.009	1851.29
1006.304	1805.87
1006.598	1824.85
1006.892	1809.03
1007.186	1801.58
1007.48	1782.14
1007.773	1796.83
1008.067	1785.76
1008.361	1771.52
1008.655	1755.02
1008.948	1723.39
1009.242	1734.23
1009.535	1706.89
1009.829	1713.67
1010.122	1706.66
1010.415	1720.22
1010.708	1671.64
1011.001	1662.37
1011.295	1685.2
1011.588	1656.95
1011.881	1652.88
1012.173	1644.97
1012.466	1610.4
1012.759	1621.24
1013.052	1609.72
1013.344	1613.33
1013.637	1592.99
1013.93	1580.34
1014.222	1573.33
1014.514	1604.52
1014.807	1560
1015.099	1560.45
1015.391	1543.5
1015.683	1554.13
1015.976	1500.79
1016.268	1506.67
1016.56	1510.06
1016.851	1489.95
1017.143	1461.7
1017.435	1459.44
1017.727	1460.57
1018.018	1456.5
1018.31	1448.59
1018.602	1450.4
1018.893	1409.27
1019.185	1416.05
1019.476	1414.69
1019.767	1402.27
1020.058	1421.25
1020.35	1404.75
1020.641	1378.76
1020.932	1379.67
1021.223	1356.39
1021.514	1321.36
1021.804	1333.79
1022.095	1355.94
1022.386	1302.16
1022.677	1341.7
1022.967	1287.01
1023.258	1303.51
1023.548	1296.96
1023.839	1286.34
1024.129	1271.87
1024.419	1256.73
1024.709	1235.72
1025	1260.35
1025.29	1245.89
1025.58	1222.61
1025.87	1234.36
1026.16	1211.99
1026.449	1219.22
1026.739	1187.36
1027.029	1194.14
1027.319	1204.53
1027.608	1160.24
1027.898	1170.63
1028.187	1179.9
1028.477	1151.2
1028.766	1141.48
1029.055	1140.13
1029.344	1135.15
1029.634	1126.34
1029.923	1125.44
1030.212	1098.09
1030.501	1096.96
1030.79	1113.69
1031.078	1098.32
1031.367	1078.66
1031.656	1075.27
1031.945	1075.72
1032.233	1075.04
1032.522	1064.87
1032.81	1041.6
1033.099	1044.53
1033.387	1036.63
1033.675	1034.37
1033.963	1045.89
1034.251	1043.18
1034.54	1011.32
1034.828	1006.57
1035.116	1001.82
1035.403	988.04
1035.691	982.39
1035.979	985.55
1036.267	968.38
1036.554	947.81
1036.842	945.55
1037.129	976.74
1037.417	953.46
1037.704	954.37
1037.992	927.02
1038.279	936.06
1038.566	913.01
1038.853	913.01
1039.14	913.01
