Data from hue_310_FLMS001491_9.txt Node
Date: Mon Feb 06 15:48:23 GMT 2017
User: dcchb
Spectrometer: FLMS00149
Trigger mode: 0
Integration Time (sec): 2.000000E-2
Scans to average: 10
Electric dark correction enabled: true
Nonlinearity correction enabled: false
Boxcar width: 0
XAxis mode: Wavelengths
Number of Pixels in Spectrum: 2048
>>>>>Begin Spectral Data<<<<<
341.393	0.76
341.776	0.76
342.16	0.76
342.543	-79.91
342.927	-61.61
343.31	-78.11
343.693	-52.34
344.077	-57.09
344.46	-57.77
344.843	-43.3
345.226	-37.2
345.61	-40.82
345.993	-13.7
346.376	10.03
346.759	9.35
347.142	21.1
347.525	40.99
347.908	60.2
348.291	53.64
348.674	85.51
349.057	99.52
349.44	118.05
349.823	122.12
350.206	179.29
350.588	195.33
350.971	211.6
351.354	212.06
351.737	235.56
352.119	252.06
352.502	259.29
352.884	268.33
353.267	272.85
353.65	278.72
354.032	306.52
354.414	310.13
354.797	318.72
355.179	336.12
355.562	333.86
355.944	337.7
356.326	334.54
356.709	307.2
357.091	353.07
357.473	334.31
357.855	356.69
358.238	331.15
358.62	316.46
359.002	338.83
359.384	363.24
359.766	323.69
360.148	337.48
360.53	335.9
360.912	343.13
361.294	308.78
361.676	334.31
362.057	348.78
362.439	317.82
362.821	329.12
363.203	329.57
363.584	316.91
363.966	337.25
364.348	310.81
364.729	334.54
365.111	333.41
365.493	343.8
365.874	308.78
366.256	315.56
366.637	313.75
367.019	302.45
367.4	312.84
367.781	297.25
368.163	294.99
368.544	307.2
368.925	305.16
369.306	327.99
369.688	304.71
370.069	311.49
370.45	309.23
370.831	308.55
371.212	316.46
371.593	305.16
371.974	332.05
372.355	301.77
372.736	317.82
373.117	321.66
373.498	319.17
373.879	278.27
374.26	301.32
374.641	316.01
375.021	310.13
375.402	319.4
375.783	302.22
376.163	309.68
376.544	321.43
376.925	336.8
377.305	324.6
377.686	323.01
378.066	335.9
378.447	327.53
378.827	324.14
379.208	325.5
379.588	323.01
379.968	330.25
380.349	327.99
380.729	337.7
381.109	333.86
381.489	339.28
381.87	328.66
382.25	355.33
382.63	301.32
383.01	334.77
383.39	340.87
383.77	353.3
384.15	331.38
384.53	341.09
384.91	352.62
385.29	340.41
385.67	334.77
386.049	368.44
386.429	336.57
386.809	362.11
387.189	334.09
387.568	351.49
387.948	354.65
388.328	356.23
388.707	344.93
389.087	356.23
389.466	344.26
389.846	363.24
390.225	363.24
390.605	354.43
390.984	370.47
391.363	371.6
391.743	381.77
392.122	368.21
392.501	380.19
392.881	375.22
393.26	386.97
393.639	377.7
394.018	369.57
394.397	376.35
394.776	354.88
395.155	378.38
395.534	394.88
395.913	395.33
396.292	373.86
396.671	396.23
397.05	395.1
397.429	408.66
397.808	386.97
398.186	375.67
398.565	408.66
398.944	414.99
399.323	397.59
399.701	400.07
400.08	382.45
400.458	382.67
400.837	399.85
401.215	430.36
401.594	424.48
401.972	395.55
402.351	411.37
402.729	411.83
403.107	405.95
403.486	431.71
403.864	444.14
404.242	437.14
404.62	431.03
404.999	421.54
405.377	455.21
405.755	453.63
406.133	437.14
406.511	447.3
406.889	454.99
407.267	451.82
407.645	440.75
408.023	458.15
408.401	470.81
408.779	456.34
409.156	459.73
409.534	502.9
409.912	515.33
410.29	516.68
410.667	475.78
411.045	513.29
411.422	514.2
411.8	511.94
412.178	532.5
412.555	514.65
412.933	536.12
413.31	535.44
413.687	552.61
414.065	535.89
414.442	566.4
414.819	584.48
415.197	579.73
415.574	593.06
415.951	591.71
416.328	609.11
416.705	623.57
417.082	629.67
417.46	624.25
417.837	633.51
418.214	650.46
418.591	654.76
418.967	648.43
419.344	651.82
419.721	672.16
420.098	694.98
420.475	695.66
420.852	677.36
421.228	709.67
421.605	716.45
421.982	727.98
422.358	730.91
422.735	717.35
423.111	734.53
423.488	761.42
423.864	745.6
424.241	767.3
424.617	758.26
424.994	782.44
425.37	791.7
425.746	775.21
426.123	795.32
426.499	811.14
426.875	819.95
427.251	826.05
427.627	850.91
428.003	882.32
428.379	854.53
428.756	864.47
429.132	879.16
429.507	883.23
429.883	891.59
430.259	914.19
430.635	916.9
431.011	919.16
431.387	970
431.763	967.74
432.138	962.77
432.514	1005.71
432.89	975.65
433.265	980.85
433.641	1022.2
434.016	1006.61
434.392	1040.96
434.767	1044.35
435.143	1061.98
435.518	1068.76
435.894	1076.89
436.269	1077.8
436.644	1080.96
437.02	1133.84
437.395	1108.08
437.77	1114.18
438.145	1133.39
438.52	1159.83
438.895	1155.76
439.271	1181.75
439.646	1186.04
440.021	1219.04
440.395	1208.64
440.77	1191.69
441.145	1197.34
441.52	1229.66
441.895	1212.26
442.27	1195.99
442.645	1199.83
443.019	1285.25
443.394	1232.59
443.769	1227.62
444.143	1248.64
444.518	1253.61
444.892	1281.18
445.267	1286.15
445.641	1267.17
446.016	1285.93
446.39	1274.4
446.764	1284.12
447.139	1284.34
447.513	1306.49
447.887	1316.89
448.262	1303.33
448.636	1304.91
449.01	1313.5
449.384	1343.1
449.758	1313.5
450.132	1343.33
450.506	1345.36
450.88	1345.81
451.254	1344.23
451.628	1359.37
452.002	1365.02
452.376	1378.35
452.75	1385.81
453.123	1391.69
453.497	1401.4
453.871	1390.1
454.244	1433.72
454.618	1437.56
454.992	1434.62
455.365	1478.46
455.739	1482.31
456.112	1487.96
456.486	1465.13
456.859	1469.88
457.232	1506.94
457.606	1520.27
457.979	1519.37
458.352	1544.22
458.725	1520.72
459.099	1558.46
459.472	1574.96
459.845	1584.45
460.218	1602.75
460.591	1605.47
460.964	1582.42
461.337	1631.91
461.71	1665.8
462.083	1696.76
462.456	1666.26
462.829	1655.86
463.201	1704.9
463.574	1677.55
463.947	1691.57
464.32	1739.47
464.692	1706.25
465.065	1734.73
465.438	1758
465.81	1805.91
466.183	1794.84
466.555	1795.29
466.928	1827.61
467.3	1802.07
467.672	1831.22
468.045	1872.35
468.417	1859.24
468.789	1896.98
469.161	1878.45
469.534	1904.22
469.906	1940.37
470.278	1960.03
470.65	1944.67
471.022	2013.37
471.394	2027.83
471.766	2042.29
472.138	2022.86
472.51	2071.44
472.882	2091.78
473.253	2097.66
473.625	2125
473.997	2158.22
474.369	2123.64
474.74	2174.04
475.112	2212.23
475.484	2254.71
475.855	2256.75
476.227	2240.7
476.598	2308.72
476.97	2330.87
477.341	2367.93
477.713	2381.04
478.084	2415.16
478.455	2422.17
478.827	2402.73
479.198	2501.71
479.569	2509.17
479.94	2542.16
480.311	2527.25
480.682	2635.95
481.053	2640.02
481.424	2672.1
481.795	2679.79
482.166	2714.82
482.537	2753.46
482.908	2761.14
483.279	2809.95
483.65	2830.97
484.021	2865.77
484.391	2850.41
484.762	2915.71
485.133	2915.49
485.503	2963.17
485.874	2985.54
486.244	3025.54
486.615	2998.65
486.985	3057.41
487.356	3115.03
487.726	3119.1
488.097	3175.59
488.467	3130.85
488.837	3226.67
489.207	3227.57
489.578	3283.61
489.948	3263.05
490.318	3323.39
490.688	3320.9
491.058	3365.65
491.428	3411.97
491.798	3456.27
492.168	3520.9
492.538	3510.05
492.908	3489.71
493.278	3523.83
493.648	3543.95
494.017	3622.59
494.387	3595.92
494.757	3609.48
495.126	3669.37
495.496	3671.63
495.866	3698.52
496.235	3700.78
496.605	3726.77
496.974	3761.12
497.344	3803.6
497.713	3758.4
498.082	3815.58
498.452	3826.2
498.821	3858.06
499.19	3844.28
499.559	3890.83
499.928	3891.51
500.298	3885.18
500.667	3921.56
501.036	3953.2
501.405	3947.55
501.774	3970.83
502.143	4006.08
502.512	3961.56
502.88	4023.71
503.249	4037.94
503.618	4035.23
503.987	4044.05
504.356	4033.43
504.724	4114.55
505.093	4108
505.462	4098.96
505.83	4143.48
506.199	4145.06
506.567	4148
506.936	4165.85
507.304	4198.39
507.672	4222.12
508.041	4226.19
508.409	4229.58
508.777	4248.33
509.145	4328.56
509.514	4246.53
509.882	4334.66
510.25	4268.22
510.618	4283.59
510.986	4285.85
511.354	4337.15
511.722	4375.79
512.09	4418.27
512.458	4355.9
512.826	4437.48
513.193	4463.7
513.561	4411.49
513.929	4451.27
514.297	4480.64
514.664	4494.43
515.032	4497.14
515.4	4514.99
515.767	4490.59
516.135	4569.46
516.502	4528.55
516.869	4538.95
517.237	4603.81
517.604	4563.58
517.972	4615.78
518.339	4594.31
518.706	4641.54
519.073	4655.56
519.44	4644.93
519.808	4645.16
520.175	4663.69
520.542	4703.69
520.909	4747.08
521.276	4714.09
521.643	4766.29
522.009	4727.19
522.376	4789.56
522.743	4741.2
523.11	4870.92
523.477	4847.64
523.843	4840.18
524.21	4897.36
524.577	4900.97
524.943	4932.61
525.31	4912.27
525.676	5003.79
526.043	5060.97
526.409	5001.76
526.776	5055.77
527.142	5049.67
527.508	5097.58
527.874	5113.4
528.241	5138.25
528.607	5126.96
528.973	5217.57
529.339	5219.83
529.705	5217.12
530.071	5227.29
530.437	5242.66
530.803	5344.13
531.169	5336.67
531.535	5317.46
531.901	5334.86
532.267	5386.16
532.632	5387.29
532.998	5431.81
533.364	5451.47
533.73	5486.95
534.095	5525.59
534.461	5510.22
534.826	5500.28
535.192	5539.15
535.557	5649.43
535.923	5645.59
536.288	5641.74
536.653	5612.82
537.019	5607.62
537.384	5721.06
537.749	5682.2
538.114	5750.89
538.479	5724.23
538.845	5789.54
539.21	5747.5
539.575	5818.24
539.94	5826.82
540.305	5846.71
540.67	5835.41
541.034	5906.37
541.399	5945.24
541.764	5964.67
542.129	5972.81
542.494	5979.36
542.858	6002.19
543.223	6072.02
543.587	6076.99
543.952	6120.15
544.316	6106.82
544.681	6094.61
545.045	6135.74
545.41	6173.93
545.774	6215.51
546.138	6261.84
546.503	6246.93
546.867	6282.86
547.231	6294.16
547.595	6317.88
547.959	6322.63
548.324	6367.83
548.688	6382.97
549.052	6371.22
549.416	6429.52
549.779	6438.56
550.143	6468.84
550.507	6501.16
550.871	6534.38
551.235	6534.6
551.599	6513.59
551.962	6543.87
552.326	6653.7
552.689	6572.79
553.053	6590.65
553.417	6629.51
553.78	6726.24
554.143	6696.63
554.507	6739.79
554.87	6735.5
555.234	6834.71
555.597	6744.54
555.96	6805.56
556.323	6824.09
556.686	6860.24
557.05	6854.14
557.413	6867.25
557.776	6883.75
558.139	6918.55
558.502	6900.69
558.865	6967.36
559.228	6918.32
559.59	7008.26
559.953	7073.57
560.316	7117.19
560.679	7065.44
561.041	7104.08
561.404	7126.23
561.767	7200.8
562.129	7118.54
562.492	7182.49
562.854	7203.96
563.217	7194.92
563.579	7195.83
563.941	7300.46
564.304	7255.04
564.666	7332.1
565.028	7345.88
565.39	7344.98
565.753	7386.78
566.115	7407.35
566.477	7445.99
566.839	7512.43
567.201	7437.63
567.563	7513.79
567.925	7573.44
568.287	7557.17
568.648	7567.34
569.01	7644.63
569.372	7661.58
569.734	7655.93
570.095	7683.72
570.457	7753.1
570.819	7761.46
571.18	7780.9
571.542	7856.6
571.903	7884.62
572.265	8004.62
572.626	7994.9
572.987	7976.82
573.349	8076.03
573.71	8087.78
574.071	8168.23
574.432	8174.33
574.794	8332.3
575.155	8367.55
575.516	8297.95
575.877	8449.35
576.238	8519.63
576.599	8542.23
576.96	8596.92
577.32	8661.33
577.681	8796.01
578.042	8858.16
578.403	8935.44
578.763	8939.06
579.124	9090.69
579.485	9204.59
579.845	9331.82
580.206	9435.09
580.566	9597.8
580.927	9710.34
581.287	9828.75
581.648	9860.62
582.008	10026.94
582.368	10186.94
582.728	10330.89
583.089	10414.05
583.449	10628.05
583.809	10822.17
584.169	11059.23
584.529	11136.52
584.889	11399.56
585.249	11615.6
585.609	11664.86
585.969	11926.32
586.329	12148.01
586.688	12420.1
587.048	12684.5
587.408	12815.57
587.768	13147.08
588.127	13279.06
588.487	13592.27
588.846	13885.37
589.206	14019.83
589.565	14311.12
589.925	14668.17
590.284	14824.55
590.643	15181.61
591.003	15487.59
591.362	15823.17
591.721	16126.89
592.08	16290.28
592.44	16694.11
592.799	17001.22
593.158	17304.26
593.517	17559.62
593.876	17838.26
594.235	18142.21
594.593	18501.52
594.952	18723.21
595.311	19072.8
595.67	19407.48
596.029	19920.92
596.387	20144.64
596.746	20470.96
597.104	20582.82
597.463	20963.6
597.822	21381.44
598.18	21496.47
598.538	21933.75
598.897	22322.44
599.255	22506.16
599.613	23041.29
599.972	23187.95
600.33	23565.79
600.688	23792.45
601.046	24102.05
601.404	24604.41
601.762	24696.61
602.12	25231.29
602.478	25405.74
602.836	25742.91
603.194	25773.64
603.552	26145.39
603.91	26436.68
604.268	26841.41
604.625	27049.09
604.983	27429.87
605.341	27566.14
605.698	27948.73
606.056	28209.06
606.413	28465.32
606.771	28792.32
607.128	28999.32
607.485	29091.75
607.843	29496.03
608.2	29709.13
608.557	29991.39
608.914	30190.03
609.272	30599.28
609.629	30813.74
609.986	31184.8
610.343	31204.46
610.7	31591.34
611.057	31705.24
611.414	31809.87
611.771	32154.04
612.127	32386.13
612.484	32655.05
612.841	32723.29
613.198	32926.68
613.554	33151.76
613.911	33479.2
614.267	33666.09
614.624	33671.06
614.98	33932.3
615.337	34332.97
615.693	34375
616.05	34471.49
616.406	34827.19
616.762	34777.48
617.118	34976.79
617.475	35125.04
617.831	35320.96
618.187	35446.61
618.543	35591.01
618.899	36014.05
619.255	36079.14
619.611	36148.06
619.967	36302.41
620.323	36568.84
620.678	36546.47
621.034	36554.38
621.39	36692.68
621.746	36641.38
622.101	37374.24
622.457	37001.37
622.812	37199.56
623.168	37394.81
623.523	37472.55
623.879	37748.47
624.234	37685.42
624.589	37784.4
624.945	37856.49
625.3	37833.44
625.655	38037.95
626.01	38176.26
626.365	38247.89
626.72	38307.78
627.075	38305.97
627.43	38561.33
627.785	38422.8
628.14	38526.53
628.495	38583.48
628.85	38583.03
629.205	38549.81
629.559	38903.69
629.914	38736.47
630.269	38866.63
630.623	38707.99
630.978	38813.98
631.332	38897.59
631.687	39057.59
632.041	38956.12
632.396	39109.79
632.75	38979.62
633.104	39045.39
633.459	39082.22
633.813	38991.15
634.167	38898.72
634.521	39006.74
634.875	39044.26
635.229	38989.79
635.583	38927.87
635.937	39060.53
636.291	39097.59
636.645	39098.72
636.999	38948.21
637.352	39095.55
637.706	38967.65
638.06	39136
638.413	39115.67
638.767	39037.7
639.121	39274.53
639.474	38983.92
639.828	39063.46
640.181	39011.49
640.534	39041.32
640.888	39071.6
641.241	38954.31
641.594	39120.41
641.947	39289.9
642.301	38929.46
642.654	39016.46
643.007	39106.85
643.36	38969.91
643.713	38987.31
644.066	39049.45
644.419	38920.42
644.771	38740.76
645.124	38291.96
645.477	38249.25
645.83	38045.19
646.182	37881.12
646.535	37866.89
646.888	38013.1
647.24	37746.89
647.593	37905.3
647.945	37918.86
648.298	37698.3
648.65	37710.51
649.002	37520
649.355	37826.66
649.707	37650.39
650.059	37870.05
650.411	38253.77
650.763	38376.25
651.115	38645.85
651.467	38729.46
651.819	38669.12
652.171	38521.11
652.523	38459.64
652.875	38708.9
653.227	38440.43
653.578	38697.15
653.93	38524.04
654.282	38442.24
654.633	38233.88
654.985	38472.97
655.337	38482.91
655.688	38468.23
656.039	38615.57
656.391	38251.51
656.742	38273.88
657.094	38345.97
657.445	38497.83
657.796	38301.9
658.147	38322.01
658.498	38312.07
658.849	38403.14
659.2	38357.04
659.551	38206.76
659.902	38174.22
660.253	38256.93
660.604	38360.43
660.955	38105.75
661.306	38158.63
661.656	38174.67
662.007	38123.6
662.358	38159.76
662.708	38254.67
663.059	38227.1
663.409	38079.99
663.76	38286.08
664.11	38226.65
664.461	38283.15
664.811	38117.05
665.161	38103.26
665.511	38159.31
665.862	38166.54
666.212	38323.82
666.562	38245.63
666.912	38133.77
667.262	38198.18
667.612	38243.15
667.962	38170.83
668.312	38006.54
668.662	38321.34
669.011	38238.18
669.361	38101.91
669.711	38187.56
670.06	38138.29
670.41	37983.04
670.76	38024.17
671.109	38094
671.459	38034.79
671.808	37962.7
672.157	37983.27
672.507	37861.46
672.856	37887.22
673.205	38093.77
673.554	37952.99
673.904	37805.87
674.253	38039.08
674.602	37910.5
674.951	37500.79
675.3	37067.13
675.649	37725.87
675.998	37853.33
676.346	37711.86
676.695	37859.65
677.044	37621.92
677.393	37628.7
677.741	37752.99
678.09	37631.41
678.438	37510.51
678.787	37629.6
679.135	37741.01
679.484	37375.15
679.832	37545.99
680.181	37423.28
680.529	37396.39
680.877	37341.93
681.225	37421.93
681.573	37537.85
681.922	37298.77
682.27	37131.99
682.618	37128.83
682.966	37139.45
683.314	37120.01
683.661	37052.9
684.009	36975.84
684.357	36872.56
684.705	36827.37
685.053	36871.21
685.4	36677.76
685.748	36649.29
686.095	36562.74
686.443	36417.43
686.79	36482.74
687.138	36707.82
687.485	36415.62
687.832	36398
688.18	36469.41
688.527	36139.7
688.874	36137.21
689.221	36139.02
689.568	35969.31
689.915	35891.57
690.262	35927.95
690.609	35844.57
690.956	35706.72
691.303	35673.05
691.65	35506.72
691.997	35680.95
692.344	35366.61
692.69	35257.01
693.037	35343.56
693.383	34975.66
693.73	35246.62
694.077	34992.39
694.423	34920.75
694.769	34771.83
695.116	34751.49
695.462	34683.92
695.808	34445.28
696.155	34647.76
696.501	34529.57
696.847	34302.69
697.193	34245.29
697.539	34338.62
697.885	33986.76
698.231	33996.7
698.577	34063.14
698.923	33961
699.269	33722.14
699.614	33711.06
699.96	33493.67
700.306	33638.97
700.651	33483.95
700.997	33379.77
701.342	33300.68
701.688	33134.81
702.033	33073.11
702.379	33159.44
702.724	32996.05
703.069	33146.11
703.415	32731.43
703.76	32734.59
704.105	32702.5
704.45	32727.36
704.795	32513.58
705.14	32431.77
705.485	32396.3
705.83	32253.47
706.175	32335.51
706.52	32241.72
706.865	32040.37
707.209	32072.24
707.554	31887.83
707.899	32023.42
708.243	31738.46
708.588	31828.63
708.932	31577.11
709.277	31560.38
709.621	31624.11
709.966	31480.39
710.31	31347.74
710.654	31220.05
710.998	31178.7
711.342	31182.09
711.687	31113.84
712.031	31026.39
712.375	30947.75
712.719	30957.69
713.063	30899.61
713.407	31021.19
713.75	30728.99
714.094	30656.68
714.438	30496.01
714.782	30721.08
715.125	30459.17
715.469	30403.35
715.812	30315.22
716.156	30211.95
716.499	30258.72
716.843	30329.46
717.186	30143.47
717.53	30225.96
717.873	30210.82
718.216	30096.69
718.559	29923.82
718.902	29807.21
719.246	29869.36
719.589	29884.72
719.932	29648.57
720.275	29630.49
720.617	29611.51
720.96	29591.17
721.303	29544.39
721.646	29568.57
721.989	29402.48
722.331	29480.44
722.674	29375.36
723.016	29557.5
723.359	29302.14
723.701	29292.2
724.044	29160.22
724.386	29001.81
724.729	29134.23
725.071	28965.2
725.413	28948.02
725.755	29061.02
726.097	28844.52
726.439	28655.83
726.782	28622.83
727.124	28827.35
727.465	28553.68
727.807	28561.59
728.149	28483.86
728.491	28462.39
728.833	28637.52
729.175	28400.02
729.516	28456.74
729.858	28428.72
730.199	28338.32
730.541	28309.62
730.882	28208.61
731.224	28325.44
731.565	28120.7
731.906	28159.8
732.248	28110.53
732.589	27973.13
732.93	27903.76
733.271	27950.31
733.612	28015.39
733.953	27885
734.294	27847.49
734.635	27718.45
734.976	27761.39
735.317	27615.18
735.658	27640.26
735.999	27681.39
736.339	27521.4
736.68	27583.99
737.021	27588.06
737.361	27403.88
737.702	27538.34
738.042	27495.86
738.383	27385.81
738.723	27375.64
739.063	27249.31
739.404	27360.04
739.744	27284.34
740.084	27101.29
740.424	27194.85
740.764	27124.34
741.104	27240.95
741.444	27018.58
741.784	26906.95
742.124	27016.1
742.464	26849.55
742.804	26900.39
743.143	26830.34
743.483	26884.12
743.823	26798.93
744.162	26668.31
744.502	26675.54
744.841	26548.31
745.181	26665.37
745.52	26488.2
745.86	26542.89
746.199	26490.01
746.538	26426.96
746.877	26445.72
747.216	26375.66
747.556	26349.22
747.895	26310.35
748.234	26221.09
748.573	26268.09
748.911	26179.06
749.25	26078.72
749.589	26021.55
749.928	26051.15
750.267	26128.21
750.605	25986.97
750.944	25950.59
751.283	25931.61
751.621	25820.42
751.96	25739.97
752.298	25799.18
752.636	25708.34
752.975	25497.72
753.313	25502.01
753.651	25499.75
753.989	25429.92
754.327	25492.97
754.666	25266.54
755.004	25367.33
755.342	25337.72
755.679	25188.35
756.017	25065.19
756.355	25170.5
756.693	25041.01
757.031	25033.1
757.368	24956.04
757.706	24845.53
758.044	24812.99
758.381	24783.61
758.719	24645.99
759.056	24657.06
759.394	24558.76
759.731	24424.08
760.068	24474.24
760.405	24412.78
760.743	24342.95
761.08	24355.6
761.417	24248.26
761.754	24130.75
762.091	24085.55
762.428	23893.24
762.765	23847.59
763.102	23882.17
763.438	23665
763.775	23709.07
764.112	23711.33
764.449	23645.34
764.785	23556.08
765.122	23390.66
765.458	23313.14
765.795	23288.51
766.131	23317.89
766.467	23104.79
766.804	23065.69
767.14	22934.4
767.476	22910.67
767.812	22793.38
768.148	22784.12
768.485	22608.3
768.821	22514.52
769.157	22526.05
769.492	22560.4
769.828	22602.43
770.164	22265.71
770.5	22135.32
770.836	22238.37
771.171	22068.66
771.507	21982.11
771.842	21931.71
772.178	21843.13
772.513	21799.74
772.849	21677.93
773.184	21672.06
773.519	21620.53
773.855	21610.14
774.19	21481.78
774.525	21412.4
774.86	21301.22
775.195	21293.08
775.53	21235.68
775.865	21117.04
776.2	20832.31
776.535	20864.39
776.87	20905.52
777.205	20720.9
777.539	20636.6
777.874	20781.46
778.209	20574.46
778.543	20421.02
778.878	20319.78
779.212	20384.63
779.547	20176.96
779.881	20231.87
780.215	20131.08
780.55	20047.47
780.884	19870.75
781.218	19890.86
781.552	19859.68
781.886	19734.26
782.22	19658.32
782.554	19636.18
782.888	19393.7
783.222	19386.69
783.556	19291.33
783.889	19246.58
784.223	19128.4
784.557	19109.64
784.89	19206.13
785.224	19064.89
785.557	18805.69
785.891	18895.18
786.224	18880.94
786.558	18851.79
786.891	18677.33
787.224	18591.23
787.557	18718.91
787.891	18630.1
788.224	18549.88
788.557	18472.37
788.89	18303.78
789.223	18289.55
789.556	18259.94
789.888	18095.43
790.221	18058.82
790.554	17918.48
790.887	17859.73
791.219	17884.81
791.552	17852.72
791.884	17742.22
792.217	17843.23
792.549	17589.68
792.882	17461.77
793.214	17416.8
793.546	17407.31
793.879	17346.3
794.211	17261.33
794.543	17234.21
794.875	17241.89
795.207	17261.1
795.539	17102.01
795.871	17147.2
796.203	17029.47
796.535	16947.66
796.867	16804.84
797.198	16756.93
797.53	16770.72
797.862	16689.36
798.193	16612.08
798.525	16540.44
798.856	16599.42
799.188	16365.98
799.519	16380.45
799.85	16343.38
800.182	16279.88
800.513	16262.71
800.844	16159.66
801.175	16222.48
801.506	16168.93
801.837	16063.17
802.168	15994.92
802.499	15974.35
802.83	15936.84
803.161	15835.6
803.491	15877.18
803.822	15837.86
804.153	15701.82
804.483	15561.94
804.814	15582.05
805.145	15582.5
805.475	15539.11
805.805	15460.02
806.136	15478.32
806.466	15506.57
806.796	15404.65
807.126	15264.32
807.457	15243.98
807.787	15264.77
808.117	15190.19
808.447	15175.96
808.777	15200.14
809.107	15137.77
809.436	15109.74
809.766	15062.29
810.096	14975.51
810.426	14956.98
810.755	14944.1
811.085	14898.45
811.414	14728.96
811.744	14679.92
812.073	14737.1
812.403	14707.27
812.732	14581.85
813.061	14587.95
813.39	14451.23
813.719	14440.16
814.049	14478.8
814.378	14498.23
814.707	14418.01
815.036	14368.97
815.365	14352.02
815.693	14218.02
816.022	14257.56
816.351	14196.1
816.68	14080.62
817.008	14121.97
817.337	13961.07
817.665	14003.11
817.994	14033.61
818.322	14058.02
818.651	13879.04
818.979	13912.94
819.307	13995.87
819.636	13832.26
819.964	13745.49
820.292	13869.32
820.62	13825.71
820.948	13826.61
821.276	13750.23
821.604	13784.81
821.932	13756.79
822.259	13707.52
822.587	13671.14
822.915	13663.45
823.243	13766.05
823.57	13715.66
823.898	13683.57
824.225	13683.57
824.553	13615.77
824.88	13644.02
825.207	13700.52
825.535	13617.35
825.862	13729.44
826.189	13677.24
826.516	13742.1
826.843	13759.27
827.17	13652.61
827.497	13772.6
827.824	13700.06
828.151	13678.82
828.478	13682.44
828.805	13625.49
829.131	13552.27
829.458	13551.37
829.785	13595.66
830.111	13545.04
830.438	13686.5
830.764	13670.69
831.09	13661.19
831.417	13573.06
831.743	13611.25
832.069	13588.88
832.395	13498.49
832.722	13555.43
833.048	13547.07
833.374	13535.55
833.7	13474.76
834.026	13599.05
834.351	13548.66
834.677	13498.03
835.003	13473.85
835.329	13521.76
835.654	13459.62
835.98	13345.95
836.306	13386.63
836.631	13470.24
836.956	13425.04
837.282	13369.9
837.607	13322.45
837.932	13265.5
838.258	13318.83
838.583	13209.45
838.908	13234.99
839.233	13277.7
839.558	13273.18
839.883	13147.76
840.208	13117.93
840.533	13127.2
840.858	13163.58
841.182	12990.7
841.507	13027.76
841.832	12996.35
842.156	13005.62
842.481	12926.3
842.805	12933.3
843.13	12924.72
843.454	12868.67
843.778	12934.43
844.103	12821.67
844.427	12728.56
844.751	12877.26
845.075	12708.68
845.399	12651.73
845.723	12604.73
846.047	12625.74
846.371	12543.26
846.695	12509.36
847.019	12411.74
847.343	12403.83
847.666	12319.08
847.99	12254.9
848.313	12328.35
848.637	12198.41
848.96	12198.86
849.284	12218.29
849.607	12051.75
849.931	12049.49
850.254	11952.09
850.577	11792.77
850.9	11838.87
851.223	11764.97
851.546	11788.93
851.869	11673
852.192	11651.98
852.515	11608.59
852.838	11508.71
853.161	11582.61
853.483	11461.25
853.806	11449.95
854.129	11417.19
854.451	11346.68
854.774	11294.48
855.096	11263.74
855.419	11254.7
855.741	11263.74
856.063	11202.28
856.385	11168.15
856.708	11056.52
857.03	11053.81
857.352	11073.01
857.674	11063.07
857.996	10993.02
858.318	10967.25
858.64	10942.17
858.961	10937.42
859.283	10921.61
859.605	10817.65
859.926	10887.03
860.248	10775.85
860.57	10714.61
860.891	10750.76
861.212	10670.76
861.534	10702.18
861.855	10710.54
862.176	10609.07
862.498	10585.57
862.819	10593.48
863.14	10488.62
863.461	10524.55
863.782	10537.21
864.103	10478.91
864.424	10511.45
864.745	10547.6
865.065	10384.9
865.386	10413.14
865.707	10389.42
866.027	10409.98
866.348	10415.4
866.668	10371.34
866.989	10312.58
867.309	10241.17
867.63	10295.63
867.95	10280.49
868.27	10163.89
868.59	10204.11
868.91	10190.33
869.23	10200.49
869.55	10155.52
869.87	10226.48
870.19	10142.64
870.51	10165.92
870.83	10158.46
871.15	10099.25
871.469	10059.26
871.789	10094.96
872.109	10094.96
872.428	10042.31
872.748	10037.11
873.067	10029.2
873.386	10036.21
873.706	10014.96
874.025	9965.02
874.344	9894.06
874.663	9950.56
874.982	9906.94
875.301	9900.62
875.62	9831.24
875.939	9839.37
876.258	9824.69
876.577	9804.57
876.896	9790.79
877.214	9781.3
877.533	9751.92
877.852	9817.23
878.17	9736.55
878.489	9787.17
878.807	9744.01
879.125	9704.69
879.444	9713.28
879.762	9680.06
880.08	9630.57
880.398	9590.79
880.716	9578.36
881.034	9561.64
881.352	9563.68
881.67	9581.75
881.988	9538.82
882.306	9547.86
882.624	9528.65
882.941	9483.23
883.259	9411.59
883.577	9374.53
883.894	9321.42
884.212	9285.94
884.529	9391.02
884.846	9313.74
885.164	9308.99
885.481	9232.61
885.798	9291.82
886.115	9233.29
886.432	9221.54
886.75	9223.35
887.067	9230.8
887.383	9182.89
887.7	9152.61
888.017	9052.5
888.334	9100.64
888.651	9082.33
888.967	9058.38
889.284	9006.18
889.6	8985.61
889.917	8872.39
890.233	8967.98
890.55	8907.2
890.866	8891.83
891.182	8824.94
891.498	8822.9
891.815	8828.55
892.131	8811.83
892.447	8750.14
892.763	8713.53
893.079	8705.39
893.395	8675.56
893.71	8633.53
894.026	8654.32
894.342	8655.22
894.657	8595.56
894.973	8576.58
895.289	8529.8
895.604	8520.99
895.92	8470.14
896.235	8429.47
896.55	8387.89
896.865	8420.2
897.181	8316.25
897.496	8323.48
897.811	8316.02
898.126	8304.5
898.441	8272.41
898.756	8226.54
899.071	8110.38
899.386	8200.32
899.7	8070.38
900.015	8085.3
900.33	8077.84
900.644	7997.84
900.959	8027.67
901.273	7962.14
901.588	7947.67
901.902	7877.62
902.216	7915.36
902.531	7918.75
902.845	7842.14
903.159	7814.34
903.473	7736.83
903.787	7726.89
904.101	7694.8
904.415	7677.62
904.729	7661.8
905.042	7659.32
905.356	7564.86
905.67	7582.94
905.984	7570.51
906.297	7528.02
906.611	7526.67
906.924	7516.72
907.237	7476.27
907.551	7432.66
907.864	7369.38
908.177	7362.83
908.491	7335.26
908.804	7279.67
909.117	7274.92
909.43	7210.97
909.743	7219.78
910.056	7240.57
910.368	7177.75
910.681	7107.02
910.994	7078.32
911.307	7048.26
911.619	7022.95
911.932	7028.15
912.244	6944.08
912.557	6971.65
912.869	6933.69
913.181	6891.2
913.494	6919.22
913.806	6797.87
914.118	6820.7
914.43	6750.42
914.742	6780.25
915.054	6675.84
915.366	6733.47
915.678	6662.51
915.99	6601.04
916.302	6588.16
916.613	6564.43
916.925	6610.31
917.236	6512
917.548	6476.3
917.859	6479.69
918.171	6429.29
918.482	6425.9
918.794	6317.88
919.105	6375.06
919.416	6358.34
919.727	6306.59
920.038	6303.42
920.349	6254.16
920.66	6244.89
920.971	6249.19
921.282	6196.98
921.593	6171.9
921.903	6149.53
922.214	6071.34
922.525	6079.02
922.835	6082.18
923.146	6020.27
923.456	5994.28
923.767	6023.43
924.077	5975.07
924.387	5957.67
924.697	5886.26
925.008	5886.26
925.318	5864.34
925.628	5845.13
925.938	5789.99
926.248	5785.24
926.558	5766.94
926.867	5734.17
927.177	5688.97
927.487	5675.42
927.796	5669.77
928.106	5651.91
928.416	5634.74
928.725	5613.04
929.034	5597.9
929.344	5553.84
929.653	5515.65
929.962	5538.24
930.271	5469.77
930.581	5426.61
930.89	5405.37
931.199	5342.54
931.508	5386.61
931.817	5369.44
932.125	5369.44
932.434	5313.62
932.743	5232.72
933.051	5184.36
933.36	5212.83
933.669	5174.64
933.977	5231.81
934.286	5184.13
934.594	5179.61
934.902	5073.62
935.21	5049.67
935.519	5067.52
935.827	5069.78
936.135	5040.63
936.443	4978.94
936.751	4997.24
937.059	5053.74
937.367	4947.07
937.674	4956.56
937.982	4917.92
938.29	4853.29
938.597	4880.86
938.905	4832.95
939.213	4843.8
939.52	4772.84
939.827	4835.21
940.135	4771.26
940.442	4740.3
940.749	4732.39
941.056	4743.01
941.363	4675.89
941.67	4658.72
941.977	4623.24
942.284	4579.17
942.591	4618.72
942.898	4602.68
943.205	4569.68
943.511	4509.34
943.818	4552.96
944.125	4512.96
944.431	4515.9
944.738	4510.7
945.044	4414.43
945.35	4437.48
945.657	4383.47
945.963	4441.32
946.269	4356.35
946.575	4353.64
946.881	4346.19
947.187	4320.65
947.493	4280.65
947.799	4272.97
948.105	4300.54
948.41	4218.05
948.716	4212.63
949.022	4245.17
949.327	4201.56
949.633	4191.16
949.938	4165.17
950.244	4137.6
950.549	4105.97
950.854	4081.79
951.16	4087.21
951.465	4075.91
951.77	4038.17
952.075	4022.58
952.38	3999.98
952.685	4022.58
952.99	4015.8
953.294	3971.28
953.599	3989.58
953.904	3907.55
954.209	3867.1
954.513	3950.94
954.818	3901.45
955.122	3888.8
955.426	3853.99
955.731	3889.7
956.035	3793.88
956.339	3874.79
956.643	3778.29
956.948	3773.09
957.252	3792.08
957.556	3736.03
957.86	3742.81
958.163	3786.65
958.467	3680.44
958.771	3682.02
959.075	3644.96
959.378	3636.15
959.682	3636.83
959.985	3634.79
960.289	3563.15
960.592	3603.15
960.896	3575.58
961.199	3552.99
961.502	3568.35
961.805	3538.3
962.108	3540.33
962.411	3472.31
962.714	3465.53
963.017	3437.96
963.32	3480.22
963.623	3420.33
963.926	3437.96
964.228	3416.49
964.531	3382.37
964.833	3361.13
965.136	3362.48
965.438	3321.58
965.741	3312.09
966.043	3318.64
966.345	3300.11
966.648	3298.98
966.95	3312.09
967.252	3285.42
967.554	3258.98
967.856	3234.8
968.158	3208.36
968.46	3214.92
968.761	3204.29
969.063	3176.5
969.365	3172.2
969.666	3162.49
969.968	3100.12
970.269	3109.38
970.571	3125.2
970.872	3069.61
971.174	3081.81
971.475	3057.86
971.776	3061.7
972.077	3029.61
972.378	3007.01
972.679	3004.53
972.98	3008.37
973.281	2958.43
973.582	2982.15
973.883	2953.23
974.183	2917.97
974.484	2960.68
974.785	2874.13
975.085	2937.41
975.386	2927.92
975.686	2903.06
975.986	2859.67
976.287	2849.28
976.587	2848.15
976.887	2797.98
977.187	2804.08
977.487	2807.69
977.787	2774.48
978.087	2789.84
978.387	2782.38
978.687	2747.13
978.987	2751.65
979.286	2729.05
979.586	2744.19
979.885	2695.16
980.185	2684.76
980.484	2659.22
980.784	2694.7
981.083	2653.12
981.382	2593.24
981.682	2650.18
981.981	2607.93
982.28	2621.26
982.579	2566.12
982.878	2593.69
983.177	2573.58
983.475	2571.32
983.774	2579.68
984.073	2559.11
984.372	2533.13
984.67	2512.56
984.969	2526.35
985.267	2481.38
985.566	2473.69
985.864	2490.19
986.162	2489.06
986.461	2428.72
986.759	2419.23
987.057	2395.28
987.355	2429.17
987.653	2412
987.951	2371.77
988.249	2387.82
988.547	2402.96
988.844	2334.71
989.142	2328.39
989.44	2338.1
989.737	2312.34
990.035	2336.75
990.332	2314.37
990.63	2294.94
990.927	2296.07
991.224	2299.23
991.521	2285.22
991.819	2263.98
992.116	2255.62
992.413	2253.36
992.71	2241.61
993.006	2234.6
993.303	2232.12
993.6	2232.34
993.897	2190.08
994.193	2198.22
994.49	2181.95
994.787	2167.26
995.083	2133.59
995.379	2152.57
995.676	2122.51
995.972	2108.96
996.268	2121.16
996.565	2090.88
996.861	2092.69
997.157	2111.67
997.453	2085.23
997.749	2096.75
998.044	2072.35
998.34	2055.4
998.636	2042.97
998.932	2043.87
999.227	2019.01
999.523	1987.38
999.818	2006.59
1000.114	1989.64
1000.409	1960.71
1000.704	1937.89
1001	1939.47
1001.295	1910.54
1001.59	1927.94
1001.885	1943.31
1002.18	1899.47
1002.475	1896.53
1002.77	1905.57
1003.065	1861.5
1003.359	1878.68
1003.654	1875.06
1003.949	1818.79
1004.243	1816.76
1004.538	1855.18
1004.832	1806.36
1005.127	1827.61
1005.421	1809.98
1005.715	1787.16
1006.009	1778.34
1006.304	1828.29
1006.598	1787.38
1006.892	1732.24
1007.186	1739.02
1007.48	1731.79
1007.773	1696.99
1008.067	1705.58
1008.361	1727.04
1008.655	1660.15
1008.948	1684.11
1009.242	1688.18
1009.535	1670.78
1009.829	1661.06
1010.122	1636.2
1010.415	1628.06
1010.708	1606.14
1011.001	1605.24
1011.295	1601.85
1011.588	1608.86
1011.881	1600.72
1012.173	1606.37
1012.466	1589.87
1012.759	1559.82
1013.052	1558.91
1013.344	1557.33
1013.637	1545.35
1013.93	1520.72
1014.222	1534.28
1014.514	1521.17
1014.807	1524.56
1015.099	1492.47
1015.391	1505.13
1015.683	1468.29
1015.976	1490.22
1016.268	1463.78
1016.56	1435.75
1016.851	1482.08
1017.143	1460.84
1017.435	1434.17
1017.727	1420.84
1018.018	1428.97
1018.31	1413.15
1018.602	1369.31
1018.893	1370.22
1019.185	1373.61
1019.476	1377.45
1019.767	1374.74
1020.058	1371.57
1020.35	1334.29
1020.641	1344.46
1020.932	1291.35
1021.223	1313.5
1021.514	1304.46
1021.804	1304.91
1022.095	1277.79
1022.386	1288.41
1022.677	1261.97
1022.967	1273.5
1023.258	1278.02
1023.548	1257.9
1023.839	1257.45
1024.129	1244.35
1024.419	1229.43
1024.709	1217.23
1025	1205.7
1025.29	1203.89
1025.58	1206.83
1025.87	1214.74
1026.16	1183.1
1026.449	1182.88
1026.739	1155.76
1027.029	1164.12
1027.319	1161.64
1027.608	1142.43
1027.898	1119.6
1028.187	1125.25
1028.477	1098.13
1028.766	1113.73
1029.055	1109.43
1029.344	1094.75
1029.634	1102.2
1029.923	1098.59
1030.212	1089.32
1030.501	1084.35
1030.79	1081.86
1031.078	1066.05
1031.367	1049.55
1031.656	1039.15
1031.945	1041.19
1032.233	1030.79
1032.522	1043.9
1032.81	1038.93
1033.099	997.57
1033.387	1010.91
1033.675	1013.17
1033.963	1001.64
1034.251	985.37
1034.54	962.77
1034.828	991.92
1035.116	964.35
1035.403	948.08
1035.691	979.04
1035.979	947.86
1036.267	930.91
1036.554	947.63
1036.842	918.93
1037.129	933.17
1037.417	933.85
1037.704	953.96
1037.992	933.39
1038.279	905.15
1038.566	872.38
1038.853	872.38
1039.14	872.38
