Data from hue_330_FLMS001491_67.txt Node
Date: Mon Feb 06 15:45:44 GMT 2017
User: dcchb
Spectrometer: FLMS00149
Trigger mode: 0
Integration Time (sec): 2.000000E-2
Scans to average: 10
Electric dark correction enabled: true
Nonlinearity correction enabled: false
Boxcar width: 0
XAxis mode: Wavelengths
Number of Pixels in Spectrum: 2048
>>>>>Begin Spectral Data<<<<<
341.393	3.38
341.776	3.38
342.16	3.38
342.543	-59.67
342.927	-77.3
343.31	-62.61
343.693	-70.97
344.077	-60.8
344.46	-47.02
344.843	-58.09
345.226	-33.01
345.61	-31.88
345.993	-22.39
346.376	-1.37
346.759	19.65
347.142	21.91
347.525	43.6
347.908	39.76
348.291	59.42
348.674	100.1
349.057	103.71
349.44	117.72
349.823	138.51
350.206	153.88
350.588	202.24
350.971	206.31
351.354	221.22
351.737	240.43
352.119	244.5
352.502	241.56
352.884	271.84
353.267	273.2
353.65	291.73
354.032	296.25
354.414	306.87
354.797	307.32
355.179	329.92
355.562	318.62
355.944	324.27
356.326	322.92
356.709	340.32
357.091	335.34
357.473	320.66
357.855	334.44
358.238	341.22
358.62	339.41
359.002	321.33
359.384	341.22
359.766	329.02
360.148	342.35
360.53	342.35
360.912	340.77
361.294	335.12
361.676	334.21
362.057	333.99
362.439	329.92
362.821	333.31
363.203	312.52
363.584	330.15
363.966	316.36
364.348	335.12
364.729	308
365.111	327.21
365.493	319.75
365.874	315.46
366.256	303.25
366.637	319.07
367.019	316.14
367.4	302.35
367.781	325.4
368.163	292.86
368.544	304.84
368.925	319.3
369.306	334.89
369.688	293.31
370.069	300.99
370.45	306.87
370.831	305.74
371.212	324.95
371.593	317.94
371.974	319.3
372.355	316.14
372.736	308.68
373.117	320.43
373.498	311.39
373.879	319.98
374.26	315.68
374.641	307.77
375.021	313.42
375.402	317.94
375.783	316.81
376.163	342.58
376.544	324.27
376.925	317.94
377.305	308.9
377.686	309.13
378.066	321.11
378.447	342.8
378.827	331.28
379.208	318.85
379.588	304.16
379.968	321.56
380.349	355.23
380.729	309.81
381.109	316.14
381.489	334.67
381.87	322.01
382.25	325.4
382.63	314.33
383.01	323.14
383.39	344.61
383.77	338.51
384.15	333.08
384.53	323.82
384.91	327.21
385.29	344.61
385.67	354.55
386.049	346.87
386.429	348.45
386.809	343.03
387.189	344.38
387.568	349.81
387.948	357.72
388.328	343.25
388.707	350.49
389.087	353.65
389.466	350.26
389.846	355
390.225	363.37
390.605	364.04
390.984	365.63
391.363	354.55
391.743	356.81
392.122	355
392.501	362.46
392.881	376.47
393.26	385.06
393.639	344.61
394.018	374.67
394.397	367.66
394.776	388
395.155	379.41
395.534	358.17
395.913	358.39
396.292	366.76
396.671	366.76
397.05	383.93
397.429	378.73
397.808	364.5
398.186	362.46
398.565	389.81
398.944	391.61
399.323	381.67
399.701	389.81
400.08	384.16
400.458	406.08
400.837	394.78
401.215	391.16
401.594	404.72
401.972	406.08
402.351	397.72
402.729	394.33
403.107	386.87
403.486	417.83
403.864	401.33
404.242	396.13
404.62	392.29
404.999	419.41
405.377	430.03
405.755	416.47
406.133	430.71
406.511	420.09
406.889	435.45
407.267	428.9
407.645	413.76
408.023	437.94
408.401	455.34
408.779	452.4
409.156	446.53
409.534	443.59
409.912	436.58
410.29	464.15
410.667	455.79
411.045	466.41
411.422	466.64
411.8	456.7
412.178	458.96
412.555	463.02
412.933	492.4
413.31	495.34
413.687	508.9
414.065	510.03
414.442	512.51
414.819	521.55
415.197	528.33
415.574	517.03
415.951	525.17
416.328	531.72
416.705	543.02
417.082	554.32
417.46	546.86
417.837	572.17
418.214	573.53
418.591	550.03
418.967	590.7
419.344	579.86
419.721	615.79
420.098	585.73
420.475	594.09
420.852	590.25
421.228	580.76
421.605	587.77
421.982	605.39
422.358	616.01
422.735	576.24
423.111	636.81
423.488	627.54
423.864	621.44
424.241	655.34
424.617	659.18
424.994	658.73
425.37	646.52
425.746	660.53
426.123	665.05
426.499	642.45
426.875	684.26
427.251	701.44
427.627	706.41
428.003	711.61
428.379	704.6
428.756	723.36
429.132	734.66
429.507	729.01
429.883	733.98
430.259	745.05
430.635	742.57
431.011	771.27
431.387	758.61
431.763	773.98
432.138	776.46
432.514	787.31
432.89	809.91
433.265	788.89
433.641	799.74
434.016	826.18
434.392	839.29
434.767	866.4
435.143	829.57
435.518	855.33
435.894	858.49
436.269	876.12
436.644	850.58
437.02	891.94
437.395	870.92
437.77	890.81
438.145	915.89
438.52	924.26
438.895	923.8
439.271	936.23
439.646	938.27
440.021	968.32
440.395	943.92
440.77	932.16
441.145	947.53
441.52	980.07
441.895	938.49
442.27	974.42
442.645	960.64
443.019	975.55
443.394	983.69
443.769	978.27
444.143	993.18
444.518	1013.29
444.892	992.28
445.267	1011.03
445.641	997.25
446.016	1014.65
446.39	999.73
446.764	1043.12
447.139	1023.24
447.513	1026.4
447.887	1033.18
448.262	1053.74
448.636	1039.05
449.01	1061.88
449.384	1058.04
449.758	1063.01
450.132	1058.04
450.506	1048.77
450.88	1068.88
451.254	1078.83
451.628	1064.14
452.002	1091.03
452.376	1082.44
452.75	1082.67
453.123	1097.81
453.497	1129.22
453.871	1130.13
454.244	1127.87
454.618	1139.84
454.992	1140.07
455.365	1161.09
455.739	1154.31
456.112	1165.6
456.486	1185.72
456.859	1181.42
457.232	1192.5
457.606	1195.21
457.979	1216.23
458.352	1234.08
458.725	1239.5
459.099	1229.78
459.472	1256.45
459.845	1293.96
460.218	1267.3
460.591	1302.1
460.964	1286.73
461.337	1296.67
461.71	1292.83
462.083	1324.24
462.456	1336.67
462.829	1318.6
463.201	1368.99
463.574	1335.77
463.947	1354.98
464.32	1377.8
464.692	1405.82
465.065	1384.36
465.438	1427.07
465.81	1434.52
466.183	1441.76
466.555	1458.93
466.928	1460.29
467.3	1456.22
467.672	1488.08
468.045	1495.77
468.417	1518.59
468.789	1530.34
469.161	1524.47
469.534	1560.17
469.906	1544.13
470.278	1564.69
470.65	1584.8
471.022	1602.2
471.394	1629.32
471.766	1639.26
472.138	1672.03
472.51	1672.48
472.882	1730.11
473.253	1711.58
473.625	1789.32
473.997	1772.37
474.369	1766.72
474.74	1790.45
475.112	1823.67
475.484	1842.2
475.855	1861.86
476.227	1865.02
476.598	1911.8
476.97	1903.44
477.341	1973.49
477.713	1972.82
478.084	1984.79
478.455	2010.78
478.827	2029.09
479.198	2091
479.569	2084.9
479.94	2125.35
480.311	2143.43
480.682	2189.08
481.053	2230.89
481.424	2270.43
481.795	2241.96
482.166	2284.45
482.537	2287.84
482.908	2328.74
483.279	2356.76
483.65	2386.36
484.021	2417.1
484.391	2449.41
484.762	2465.91
485.133	2495.74
485.503	2509.75
485.874	2547.72
486.244	2563.53
486.615	2615.28
486.985	2599.47
487.356	2634.04
487.726	2707.26
488.097	2709.52
488.467	2741.61
488.837	2759.91
489.207	2808.27
489.578	2849.18
489.948	2836.97
490.318	2873.81
490.688	2907.25
491.058	2905.22
491.428	2988.83
491.798	3001.49
492.168	3021.15
492.538	3046.23
492.908	3053.01
493.278	3103.18
493.648	3116.06
494.017	3130.3
494.387	3167.36
494.757	3206.91
495.126	3190.64
495.496	3198.09
495.866	3256.62
496.235	3279.22
496.605	3278.54
496.974	3306.34
497.344	3295.94
497.713	3315.6
498.082	3344.76
498.452	3424.08
498.821	3370.52
499.19	3403.29
499.559	3462.72
499.928	3454.58
500.298	3430.63
500.667	3453.45
501.036	3472.89
501.405	3464.53
501.774	3510.18
502.143	3547.92
502.512	3523.06
502.88	3560.12
503.249	3610.06
503.618	3601.7
503.987	3562.38
504.356	3646.44
504.724	3622.49
505.093	3618.87
505.462	3643.73
505.83	3642.83
506.199	3718.76
506.567	3712.2
506.936	3719.44
507.304	3716.27
507.672	3709.49
508.041	3766.67
508.409	3770.51
508.777	3810.73
509.145	3827
509.514	3794.24
509.882	3794.91
510.25	3858.87
510.618	3822.48
510.986	3812.09
511.354	3873.1
511.722	3913.56
512.09	3927.11
512.458	3907.45
512.826	3962.82
513.193	3944.29
513.561	3947.45
513.929	3945.64
514.297	3993.1
514.664	3992.42
515.032	4002.37
515.4	4015.02
515.767	4023.38
516.135	4033.55
516.502	3994.46
516.869	4057.28
517.237	4087.79
517.604	4034.91
517.972	4089.37
518.339	4116.26
518.706	4104.06
519.073	4080.33
519.44	4095.47
519.808	4147
520.175	4120.33
520.542	4201.46
520.909	4192.42
521.276	4176.6
521.643	4222.02
522.009	4226.77
522.376	4231.29
522.743	4250.5
523.11	4262.25
523.477	4289.82
523.843	4310.16
524.21	4293.21
524.577	4349.48
524.943	4394.45
525.31	4376.37
525.676	4433.99
526.043	4427.89
526.409	4451.39
526.776	4448.23
527.142	4491.62
527.508	4549.92
527.874	4507.44
528.241	4539.75
528.607	4570.49
528.973	4545.63
529.339	4617.49
529.705	4641.45
530.071	4630.82
530.437	4669.69
530.803	4716.7
531.169	4714.21
531.535	4690.71
531.901	4774.55
532.267	4760.76
532.632	4782.23
532.998	4807.32
533.364	4822.01
533.73	4826.07
534.095	4892.96
534.461	4910.14
534.826	4892.29
535.192	4878.95
535.557	4972.51
535.923	4974.32
536.288	5002.11
536.653	5024.26
537.019	5054.99
537.384	4988.78
537.749	5053.41
538.114	5061.32
538.479	5054.54
538.845	5149
539.21	5097.03
539.575	5134.54
539.94	5191.26
540.305	5203.46
540.67	5224.93
541.034	5202.33
541.399	5281.43
541.764	5222
542.129	5272.84
542.494	5284.37
542.858	5313.97
543.223	5292.95
543.587	5378.38
543.952	5368.66
544.316	5397.58
544.681	5412.05
545.045	5437.81
545.41	5474.87
545.774	5509.22
546.138	5519.84
546.503	5534.53
546.867	5543.57
547.231	5582.66
547.595	5625.6
547.959	5596.9
548.324	5607.75
548.688	5655.88
549.052	5660.63
549.416	5659.72
549.779	5659.27
550.143	5720.06
550.507	5739.72
550.871	5790.79
551.235	5763.68
551.599	5879.15
551.962	5876.44
552.326	5827.4
552.689	5880.28
553.053	5847.97
553.417	5847.97
553.78	5918.47
554.143	5905.59
554.507	5944.24
554.87	5930.68
555.234	5996.21
555.597	5936.78
555.96	6024.69
556.323	5975.65
556.686	6009.77
557.05	6077.57
557.413	6116.44
557.776	6084.57
558.139	6169.09
558.502	6090.22
558.865	6147.17
559.228	6206.15
559.59	6170.9
559.953	6173.61
560.316	6273.72
560.679	6257.22
561.041	6261.06
561.404	6304.23
561.767	6306.49
562.129	6314.62
562.492	6433.26
562.854	6355.07
563.217	6386.03
563.579	6388.74
563.941	6436.43
564.304	6489.53
564.666	6476.88
565.028	6493.37
565.39	6480.95
565.753	6557.33
566.115	6506.26
566.477	6592.35
566.839	6542.41
567.201	6668.29
567.563	6650.88
567.925	6701.05
568.287	6692.47
568.648	6698.11
569.01	6687.49
569.372	6756.19
569.734	6746.48
570.095	6820.82
570.457	6844.78
570.819	6881.84
571.18	6970.2
571.542	6961.84
571.903	6928.62
572.265	7002.74
572.626	7012.23
572.987	7054.26
573.349	7137.88
573.71	7110.31
574.071	7211.77
574.432	7235.73
574.794	7290.19
575.155	7302.17
575.516	7368.15
575.877	7449.28
576.238	7495.61
576.599	7567.47
576.96	7652.21
577.32	7637.3
577.681	7758.43
578.042	7831.64
578.403	7883.62
578.763	7995.93
579.124	8101.24
579.485	8144.86
579.845	8284.29
580.206	8353.21
580.566	8458.75
580.927	8546.65
581.287	8728.34
581.648	8809.7
582.008	8976.25
582.368	9134.43
582.728	9219.63
583.089	9383.24
583.449	9503.92
583.809	9653.97
584.169	9843.34
584.529	9969.44
584.889	10228.42
585.249	10335.31
585.609	10437
585.969	10756.77
586.329	10907.27
586.688	11091.9
587.048	11305.68
587.408	11490.76
587.768	11619.57
588.127	11846.23
588.487	12105.2
588.846	12411.64
589.206	12613.44
589.565	12866.31
589.925	13153.31
590.284	13374.78
590.643	13581.55
591.003	13943.35
591.362	14176.11
591.721	14381.98
592.08	14675.31
592.44	15062.19
592.799	15282.3
593.158	15564.1
593.517	15782.85
593.876	16169.05
594.235	16354.58
594.593	16671.64
594.952	17004.96
595.311	17226.65
595.67	17508.9
596.029	17899.63
596.387	18123.13
596.746	18527.18
597.104	18814.18
597.463	18954.97
597.822	19395.18
598.18	19532.81
598.538	19735.74
598.897	20217.76
599.255	20348.83
599.613	20950.4
599.972	20917.18
600.33	21368.24
600.688	21559.64
601.046	21812.07
601.404	22227.88
601.762	22496.12
602.12	22798.48
602.478	23054.52
602.836	23366.38
603.194	23463.1
603.552	23781.73
603.91	23959.36
604.268	24339.46
604.625	24548.94
604.983	24876.85
605.341	24910.29
605.698	25311.18
606.056	25469.15
606.413	25782.13
606.771	26139.86
607.128	26387.77
607.485	26368.33
607.843	26651.26
608.2	26993.4
608.557	27418.93
608.914	27469.09
609.272	27693.72
609.629	28005.58
609.986	28233.14
610.343	28197.66
610.7	28769.62
611.057	28744.31
611.414	28941.6
611.771	29193.79
612.127	29404.41
612.484	29625.65
612.841	29849.6
613.198	30027.67
613.554	30045.98
613.911	30422.46
614.267	30560.54
614.624	30699.07
614.98	30971.6
615.337	31152.16
615.693	31344.02
616.05	31318.03
616.406	31780.62
616.762	31614.3
617.118	31837.57
617.475	31890.67
617.831	32246.6
618.187	32387.83
618.543	32368.17
618.899	32775.17
619.255	32806.81
619.611	32916.41
619.967	33032.11
620.323	33206.57
620.678	33204.99
621.034	33396.62
621.39	33373.12
621.746	33568.14
622.101	33894.24
622.457	33725.2
622.812	33902.82
623.168	33973.78
623.523	34197.05
623.879	34305.75
624.234	33959.54
624.589	34431.62
624.945	34426.88
625.3	34620.77
625.655	34517.95
626.01	34697.6
626.365	34843.14
626.72	34783.03
627.075	34791.39
627.43	34953.64
627.785	34903.7
628.14	35036.58
628.495	35227.31
628.85	35221.43
629.205	35050.59
629.559	35459.17
629.914	35302.56
630.269	35359.96
630.623	35420.75
630.978	35211.26
631.332	35416
631.687	35603.8
632.041	35449.68
632.396	35557.92
632.75	35533.51
633.104	35570.58
633.459	35481.99
633.813	35562.44
634.167	35604.47
634.521	35679.73
634.875	35709.56
635.229	35618.26
635.583	35470.24
635.937	35479.05
636.291	35588.43
636.645	35624.81
636.999	35612.16
637.352	35576.45
637.706	35614.64
638.06	35791.36
638.413	35642.89
638.767	35509.56
639.121	35686.28
639.474	35509.11
639.828	35587.07
640.181	35648.77
640.534	35619.16
640.888	35511.14
641.241	35433.18
641.594	35627.52
641.947	35689.89
642.301	35461.43
642.654	35573.97
643.007	35652.16
643.36	35575.32
643.713	35433.63
644.066	35625.26
644.419	35326.51
644.771	35234.09
645.124	34826.41
645.477	34906.41
645.83	34732.41
646.182	34616.02
646.535	34538.06
646.888	34604.5
647.24	34407.67
647.593	34574.22
647.945	34490.83
648.298	34387.56
648.65	34461.45
649.002	34256.26
649.355	34465.75
649.707	34371.29
650.059	34533.09
650.411	34889.24
650.763	34900.54
651.115	35324.71
651.467	35133.75
651.819	35201.09
652.171	35189.8
652.523	35105.73
652.875	35115.22
653.227	34965.17
653.578	35217.14
653.93	35079.52
654.282	35002.46
654.633	34982.57
654.985	34888.56
655.337	35108.67
655.688	35060.98
656.039	35070.02
656.391	34774.89
656.742	34737.6
657.094	34931.04
657.445	35071.38
657.796	34982.79
658.147	34862.8
658.498	34793.2
658.849	34956.13
659.2	34928.78
659.551	34787.32
659.902	35004.94
660.253	34885.85
660.604	35011.49
660.955	34861.89
661.306	34950.71
661.656	34929.24
662.007	34790.71
662.358	34788.22
662.708	34841.33
663.059	34799.07
663.409	34602.69
663.76	34816.92
664.11	34760.88
664.461	34883.81
664.811	34804.27
665.161	34813.53
665.511	34740.54
665.862	34769.24
666.212	34897.83
666.562	34875.91
666.912	34838.84
667.262	34764.27
667.612	34682.46
667.962	34751.61
668.312	34683.82
668.662	34939.86
669.011	34758.62
669.361	34729.47
669.711	34674.1
670.06	34636.14
670.41	34644.27
670.76	34640.2
671.109	34624.39
671.459	34606.53
671.808	34700.77
672.157	34691.05
672.507	34395.01
672.856	34459.42
673.205	34576.7
673.554	34602.24
673.904	34429.59
674.253	34654.67
674.602	34467.33
674.951	34015.14
675.3	33868.02
675.649	34433.88
675.998	34276.15
676.346	34275.02
676.695	34486.99
677.044	34249.48
677.393	34204.28
677.741	34349.37
678.09	34336.48
678.438	34139.65
678.787	34338.52
679.135	34272.76
679.484	34046.1
679.832	34135.36
680.181	33995.02
680.529	34121.12
680.877	34087.23
681.225	34078.86
681.573	34169.03
681.922	33860.56
682.27	33751.19
682.618	33727.46
682.966	33779.66
683.314	33792.54
683.661	33770.62
684.009	33555.04
684.357	33606.56
684.705	33438.2
685.053	33434.36
685.4	33414.93
685.748	33276.63
686.095	33237.08
686.443	33105.1
686.79	33065.33
687.138	33332.89
687.485	33235.95
687.832	33016.29
688.18	33046.35
688.527	32905.11
688.874	32876.64
689.221	32896.75
689.568	32734.27
689.915	32733.59
690.262	32666.7
690.609	32589.86
690.956	32516.42
691.303	32549.86
691.65	32346.25
691.997	32236.2
692.344	32170.67
692.69	32239.59
693.037	32237.33
693.383	31841.18
693.73	32129.99
694.077	31914.4
694.423	31823.1
694.769	31746.95
695.116	31727.29
695.462	31595.77
695.808	31549.44
696.155	31514.64
696.501	31421.53
696.847	31334.3
697.193	31031.94
697.539	31343.12
697.885	31036.46
698.231	30941.32
698.577	30908.33
698.923	30834.2
699.269	30662.68
699.614	30496.81
699.96	30623.81
700.306	30602.12
700.651	30503.36
700.997	30366.65
701.342	30454.1
701.688	30251.62
702.033	30118.97
702.379	30078.97
702.724	30022.25
703.069	30026.77
703.415	29740.22
703.76	29657.29
704.105	29707.45
704.45	29808.02
704.795	29508.81
705.14	29535.71
705.485	29434.24
705.83	29363.06
706.175	29354.24
706.52	29266.79
706.865	29218.43
707.209	29177.3
707.554	29058.43
707.899	29148.15
708.243	28843.3
708.588	28960.13
708.932	28672
709.277	28786.12
709.621	28767.59
709.966	28505.45
710.31	28601.04
710.654	28255.51
710.998	28344.78
711.342	28446.47
711.687	28251.22
712.031	28201.28
712.375	28153.14
712.719	28135.74
713.063	28055.75
713.407	28207.38
713.75	28089.87
714.094	27950.21
714.438	27873.6
714.782	27920.38
715.125	27670.67
715.469	27685.81
715.812	27595.19
716.156	27492.82
716.499	27509.09
716.843	27563.33
717.186	27414.86
717.53	27487.4
717.873	27559.26
718.216	27390
718.559	27394.29
718.902	27126.05
719.246	27133.51
719.589	27075.21
719.932	27064.13
720.275	27063.46
720.617	26955.66
720.96	26766.29
721.303	26892.16
721.646	26842.44
721.989	26823.01
722.331	26867.98
722.674	26716.8
723.016	26849.22
723.359	26630.02
723.701	26669.34
724.044	26389.8
724.386	26375.11
724.729	26487.65
725.071	26340.99
725.413	26348.22
725.755	26320.65
726.097	26179.64
726.439	26159.52
726.782	26148.68
727.124	26301.22
727.465	26078.85
727.807	26135.8
728.149	26075.01
728.491	26034.56
728.833	26084.27
729.175	25915.46
729.516	25897.38
729.858	25750.95
730.199	25859.64
730.541	25768.35
730.882	25765.41
731.224	25801.79
731.565	25678.18
731.906	25757.05
732.248	25676.15
732.589	25547.34
732.93	25394.35
733.271	25476.15
733.612	25533.33
733.953	25406.1
734.294	25356.38
734.635	25338.53
734.976	25432.76
735.317	25298.08
735.658	25176.05
735.999	25235.93
736.339	25110.74
736.68	25259.89
737.021	25089.27
737.361	25028.71
737.702	25073
738.042	25019.22
738.383	24835.94
738.723	24928.14
739.063	24855.15
739.404	24878.2
739.744	24861.71
740.084	24698.77
740.424	24793.68
740.764	24663.07
741.104	24835.94
741.444	24654.25
741.784	24601.82
742.124	24547.14
742.464	24628.49
742.804	24563.86
743.143	24402.73
743.483	24443.41
743.823	24354.83
744.162	24322.74
744.502	24329.06
744.841	24202.06
745.181	24400.02
745.52	24201.38
745.86	24263.53
746.199	24162.29
746.538	24158.45
746.877	24211.1
747.216	24159.8
747.556	24021.05
747.895	24191.44
748.234	23947.15
748.573	23787.16
748.911	23883.88
749.25	23885.23
749.589	23673.04
749.928	23794.16
750.267	23837.1
750.605	23768.63
750.944	23595.98
751.283	23516.88
751.621	23615.64
751.96	23490.44
752.298	23470.1
752.636	23522.53
752.975	23285.02
753.313	23159.6
753.651	23409.54
753.989	23266.72
754.327	23178.59
754.666	23027.85
755.004	23005.48
755.342	23096.55
755.679	22991.25
756.017	22850.23
756.355	22955.99
756.693	22829.67
757.031	22873.73
757.368	22779.27
757.706	22776.11
758.044	22607.98
758.381	22625.61
758.719	22519.85
759.056	22463.35
759.394	22461.99
759.731	22353.97
760.068	22281.89
760.405	22203.92
760.743	22137.71
761.08	22200.53
761.417	22025.4
761.754	21936.13
762.091	21950.37
762.428	21993.08
762.765	21762.8
763.102	21783.82
763.438	21703.14
763.775	21496.37
764.112	21619.08
764.449	21589.02
764.785	21384.28
765.122	21350.16
765.458	21284.4
765.795	21334.57
766.131	21166.89
766.467	21036.27
766.804	20967.12
767.14	20885.76
767.476	20955.59
767.812	20895.71
768.148	20818.2
768.485	20581.59
768.821	20534.14
769.157	20539.11
769.492	20476.51
769.828	20407.81
770.164	20275.84
770.5	20306.12
770.836	20302.05
771.171	20123.07
771.507	20128.5
771.842	19977.99
772.178	20027.48
772.513	19956.52
772.849	19946.58
773.184	19754.49
773.519	19788.62
773.855	19705.23
774.19	19499.13
774.525	19582.75
774.86	19501.62
775.195	19527.61
775.53	19282.42
775.865	19244.45
776.2	19204.45
776.535	19060.95
776.87	18984.12
777.205	18917.23
777.539	18875.2
777.874	18837.91
778.209	18775.09
778.543	18668.87
778.878	18504.36
779.212	18561.76
779.547	18444.92
779.881	18535.32
780.215	18373.06
780.55	18360.18
780.884	18163.35
781.218	18183.01
781.552	18226.85
781.886	17982.11
782.22	17921.55
782.554	17993.19
782.888	17843.36
783.222	17691.72
783.556	17599.98
783.889	17620.31
784.223	17500.54
784.557	17414.9
784.89	17398.4
785.224	17392.3
785.557	17243.15
785.891	17271.62
786.224	17186.43
786.558	17119.08
786.891	17061.91
787.224	16905.08
787.557	16891.07
787.891	16855.81
788.224	16884.51
788.557	16812.43
788.89	16751.18
789.223	16722.26
789.556	16553.45
789.888	16595.26
790.221	16468.71
790.554	16416.05
790.887	16421.7
791.219	16291.31
791.552	16350.29
791.884	16186.9
792.217	16211.54
792.549	16040.92
792.882	15977.87
793.214	15889.96
793.546	15984.42
793.879	15882.28
794.211	15837.31
794.543	15792.79
794.875	15649.52
795.207	15686.35
795.539	15661.72
795.871	15619.91
796.203	15417.66
796.535	15467.15
796.867	15407.49
797.198	15398
797.53	15332.92
797.862	15251.56
798.193	15253.37
798.525	15203.88
798.856	15212.47
799.188	14981.06
799.519	14947.16
799.85	14858.13
800.182	14934.51
800.513	14913.27
800.844	14842.99
801.175	14875.75
801.506	14770.44
801.837	14690.67
802.168	14778.35
802.499	14576.78
802.83	14529.32
803.161	14493.39
803.491	14542.2
803.822	14517.34
804.153	14407.74
804.483	14332.94
804.814	14267.18
805.145	14192.16
805.475	14148.77
805.805	14128.65
806.136	14199.16
806.466	14102.89
806.796	14176.79
807.126	14026.74
807.457	13959.84
807.787	13981.09
808.117	13920.75
808.447	13875.78
808.777	13859.51
809.107	13832.84
809.436	13816.35
809.766	13767.53
810.096	13666.07
810.426	13678.04
810.755	13684.82
811.085	13585.39
811.414	13608.44
811.744	13438.73
812.073	13461.55
812.403	13449.58
812.732	13363.93
813.061	13376.13
813.39	13322.35
813.719	13275.34
814.049	13279.86
814.378	13336.81
814.707	13177.72
815.036	13190.15
815.365	13112.18
815.693	12981.34
816.022	13005.75
816.351	12941.34
816.68	12919.19
817.008	12972.53
817.337	12795.58
817.665	12735.47
817.994	12847.56
818.322	12780.44
818.651	12635.59
818.979	12680.56
819.307	12733.66
819.636	12699.09
819.964	12664.74
820.292	12626.09
820.62	12589.71
820.948	12575.47
821.276	12631.52
821.604	12586.77
821.932	12546.1
822.259	12614.57
822.587	12598.07
822.915	12521.92
823.243	12540.22
823.57	12545.64
823.898	12547.68
824.225	12573.89
824.553	12480.34
824.88	12502.93
825.207	12504.29
825.535	12500.67
825.862	12593.1
826.189	12539.54
826.516	12604.63
826.843	12547.68
827.17	12556.94
827.497	12563.27
827.824	12502.71
828.151	12555.36
828.478	12523.05
828.805	12529.15
829.131	12419.09
829.458	12423.84
829.785	12429.04
830.111	12396.27
830.438	12552.2
830.764	12408.7
831.09	12455.7
831.417	12374.58
831.743	12519.2
832.069	12355.82
832.395	12320.57
832.722	12367.57
833.048	12364.63
833.374	12377.06
833.7	12351.3
834.026	12316.27
834.351	12406.21
834.677	12287.35
835.003	12353.33
835.329	12331.19
835.654	12330.96
835.98	12301.81
836.306	12260.23
836.631	12213.22
836.956	12325.76
837.282	12220.46
837.607	12180
837.932	12135.71
838.258	12154.02
838.583	12151.53
838.908	12098.88
839.233	12116.28
839.558	12073.11
839.883	12083.06
840.208	11932.1
840.533	11997.41
840.858	12047.13
841.182	12017.3
841.507	11943.85
841.832	11895.49
842.156	11889.84
842.481	11865.44
842.805	11816.4
843.13	11808.04
843.454	11818.88
843.778	11705.67
844.103	11648.95
844.427	11756.96
844.751	11657.31
845.075	11562.85
845.399	11594.71
845.723	11558.1
846.047	11592.22
846.371	11480.59
846.695	11482.85
847.019	11408.5
847.343	11302.06
847.666	11279.01
847.99	11228.84
848.313	11177.32
848.637	11125.8
848.96	11128.96
849.284	11063.2
849.607	11010.09
849.931	10999.92
850.254	10915.41
850.577	10893.26
850.9	10797.89
851.223	10755.41
851.546	10729.2
851.869	10687.16
852.192	10722.64
852.515	10637.45
852.838	10584.79
853.161	10530.33
853.483	10545.02
853.806	10515.64
854.129	10484
854.451	10378.02
854.774	10314.74
855.096	10264.35
855.419	10295.31
855.741	10294.4
856.063	10205.82
856.385	10149.55
856.708	10135.31
857.03	10097.12
857.352	10153.39
857.674	10041.53
857.996	10051.25
858.318	9966.73
858.64	10050.34
858.961	10000.17
859.283	9961.53
859.605	9868.2
859.926	9926.28
860.248	9881.08
860.57	9800.63
860.891	9859.16
861.212	9835.43
861.534	9759.05
861.855	9764.02
862.176	9778.71
862.498	9722.67
862.819	9710.01
863.14	9691.71
863.461	9669.56
863.782	9583.91
864.103	9593.18
864.424	9532.16
864.745	9619.39
865.065	9536.68
865.386	9526.97
865.707	9467.99
866.027	9504.37
866.348	9517.7
866.668	9491.71
866.989	9428.66
867.309	9361.1
867.63	9360.87
867.95	9390.7
868.27	9372.85
868.59	9392.28
868.91	9335.56
869.23	9336.92
869.55	9344.15
869.87	9325.16
870.19	9299.85
870.51	9274.09
870.83	9322.68
871.15	9183.02
871.469	9157.71
871.789	9237.94
872.109	9213.3
872.428	9180.08
872.748	9182.12
873.067	9150.25
873.386	9104.61
873.706	9108.67
874.025	9057.6
874.344	9048.56
874.663	9176.47
874.982	9060.54
875.301	9059.63
875.62	9036.36
875.939	9059.63
876.258	9060.76
876.577	9000.65
876.896	8977.38
877.214	8901.9
877.533	8952.52
877.852	8960.88
878.17	8915.23
878.489	8913.88
878.807	8928.34
879.125	8858.06
879.444	8899.41
879.762	8833.88
880.08	8819.87
880.398	8802.01
880.716	8832.97
881.034	8773.54
881.352	8754.56
881.67	8743.71
881.988	8785.52
882.306	8698.74
882.624	8681.34
882.941	8690.38
883.259	8587.56
883.577	8608.12
883.894	8594.11
884.212	8516.15
884.529	8471.4
884.846	8497.62
885.164	8475.92
885.481	8513.89
885.798	8479.31
886.115	8462.36
886.432	8454.45
886.75	8432.31
887.067	8462.81
887.383	8398.18
887.7	8397.96
888.017	8349.37
888.334	8307.56
888.651	8348.47
888.967	8263.95
889.284	8192.54
889.6	8263.72
889.917	8162.71
890.233	8192.76
890.55	8157.06
890.866	8147.57
891.182	8177.85
891.498	8036.61
891.815	8033.45
892.131	7988.02
892.447	8027.35
892.763	7975.14
893.079	7997.06
893.395	7943.05
893.71	7927.01
894.026	7841.14
894.342	7848.59
894.657	7781.48
894.973	7819.89
895.289	7841.81
895.604	7817.41
895.92	7721.36
896.235	7703.06
896.55	7698.54
896.865	7668.03
897.181	7664.19
897.496	7687.92
897.811	7635.72
898.126	7676.62
898.441	7509.62
898.756	7522.27
899.071	7417.64
899.386	7504.2
899.7	7382.84
900.015	7435.72
900.33	7396.18
900.644	7356.4
900.959	7415.84
901.273	7378.32
901.588	7342.17
901.902	7244.09
902.216	7230.53
902.531	7275.05
902.845	7193.92
903.159	7117.54
903.473	7048.84
903.787	7018.56
904.101	7034.38
904.415	7073.02
904.729	7064.88
905.042	6993.93
905.356	6951.44
905.67	6985.11
905.984	6910.09
906.297	6916.41
906.611	6846.13
906.924	6839.13
907.237	6872.12
907.551	6755.29
907.864	6740.15
908.177	6760.71
908.491	6771.11
908.804	6742.86
909.117	6667.38
909.43	6582.19
909.743	6595.97
910.056	6625.8
910.368	6552.81
910.681	6534.05
910.994	6495.18
911.307	6500.38
911.619	6413.15
911.932	6436.2
912.244	6409.76
912.557	6393.72
912.869	6361.17
913.181	6349.88
913.494	6333.15
913.806	6273.72
914.118	6257.9
914.43	6218.58
914.742	6251.57
915.054	6131.12
915.366	6153.5
915.678	6148.98
915.99	6102.2
916.302	6063.56
916.613	6037.34
916.925	5996.21
917.236	6039.15
917.548	5993.95
917.859	5967.74
918.171	5944.24
918.482	5930
918.794	5880.28
919.105	5845.93
919.416	5821.3
919.727	5795.54
920.038	5764.13
920.349	5765.26
920.66	5727.52
920.971	5713.96
921.282	5736.11
921.593	5675.77
921.903	5647.97
922.214	5589.44
922.525	5570.01
922.835	5544.7
923.146	5582.66
923.456	5535.21
923.767	5546.28
924.077	5517.13
924.387	5474.19
924.697	5426.28
925.008	5476.45
925.318	5408.88
925.628	5399.84
925.938	5352.39
926.248	5301.77
926.558	5297.25
926.867	5226.97
927.177	5277.14
927.487	5195.1
927.796	5176.8
928.106	5170.25
928.416	5162.56
928.725	5245.05
929.034	5138.61
929.344	5132.96
929.653	5116.01
929.962	5033.98
930.271	5033.07
930.581	5057.71
930.89	5053.86
931.199	4986.97
931.508	4923.47
931.817	4959.86
932.125	4899.97
932.434	4881.44
932.743	4833.08
933.051	4834.66
933.36	4820.2
933.669	4780.2
933.977	4747.66
934.286	4795.34
934.594	4765.06
934.902	4710.14
935.21	4723.93
935.519	4677.83
935.827	4652.52
936.135	4631.95
936.443	4595.8
936.751	4576.81
937.059	4545.4
937.367	4557.15
937.674	4610.03
937.982	4594.22
938.29	4500.21
938.597	4538.62
938.905	4478.29
939.213	4461.34
939.52	4443.94
939.827	4445.74
940.135	4381.57
940.442	4369.59
940.749	4414.11
941.056	4376.37
941.363	4317.39
941.67	4335.69
941.977	4263.83
942.284	4261.12
942.591	4248.24
942.898	4268.12
943.205	4229.71
943.511	4244.17
943.818	4209.37
944.125	4139.31
944.431	4131.18
944.738	4108.35
945.044	4143.61
945.35	4076.26
945.657	4084.17
945.963	4079.43
946.269	4017.28
946.575	4027.45
946.881	4004.17
947.187	4003.72
947.493	3985.42
947.799	3979.77
948.105	3936.83
948.41	3907
948.716	3961.92
949.022	3914.23
949.327	3855.48
949.633	3862.26
949.938	3867.68
950.244	3873.33
950.549	3772.54
950.854	3761.69
951.16	3831.75
951.465	3742.49
951.77	3738.42
952.075	3731.64
952.38	3722.6
952.685	3695.26
952.99	3698.65
953.294	3708.14
953.599	3619.55
953.904	3601.25
954.209	3598.08
954.513	3621.59
954.818	3562.38
955.122	3615.48
955.426	3591.98
955.731	3535.71
956.035	3504.98
956.339	3540.91
956.643	3480.57
956.948	3447.35
957.252	3460.46
957.556	3450.52
957.86	3436.28
958.163	3451.42
958.467	3411.65
958.771	3374.13
959.075	3406.45
959.378	3402.61
959.682	3333.68
959.985	3340.46
960.289	3343.4
960.592	3296.4
960.896	3342.95
961.199	3299.11
961.502	3303.4
961.805	3246.23
962.108	3243.52
962.411	3227.02
962.714	3275.15
963.017	3202.16
963.32	3183.63
963.623	3179.34
963.926	3134.82
964.228	3171.2
964.531	3140.02
964.833	3098.21
965.136	3095.95
965.438	3093.92
965.741	3079.9
966.043	3064.31
966.345	3043.75
966.648	3042.17
966.95	3048.49
967.252	3041.04
967.554	2998.1
967.856	2959.91
968.158	2968.72
968.46	2931.43
968.761	2931.43
969.063	2927.82
969.365	2903.86
969.666	2952.9
969.968	2934.15
970.269	2865.9
970.571	2892.57
970.872	2848.5
971.174	2853.24
971.475	2849.18
971.776	2842.62
972.077	2824.77
972.378	2804.21
972.679	2797.65
972.98	2758.33
973.281	2764.43
973.582	2772.79
973.883	2743.42
974.183	2733.25
974.484	2731.21
974.785	2692.8
975.085	2697.54
975.386	2720.37
975.686	2698.9
975.986	2672.46
976.287	2647.83
976.587	2616.87
976.887	2627.26
977.187	2603.53
977.487	2640.59
977.787	2606.02
978.087	2577.55
978.387	2601.5
978.687	2569.86
978.987	2559.24
979.286	2545.23
979.586	2512.91
979.885	2506.59
980.185	2496.64
980.484	2512.01
980.784	2471.33
981.083	2499.36
981.382	2469.53
981.682	2460.94
981.981	2453.71
982.28	2433.59
982.579	2439.92
982.878	2391.56
983.177	2422.75
983.475	2388.17
983.774	2382.75
984.073	2375.29
984.372	2351.56
984.67	2328.74
984.969	2351.79
985.267	2328.06
985.566	2317.89
985.864	2345.46
986.162	2298.68
986.461	2299.36
986.759	2279.47
987.057	2258.46
987.355	2255.29
987.653	2244.9
987.951	2205.58
988.249	2223.66
988.547	2233.15
988.844	2232.92
989.142	2218.01
989.44	2187.72
989.737	2175.3
990.035	2197.22
990.332	2170.1
990.63	2164.9
990.927	2155.86
991.224	2175.97
991.521	2105.24
991.819	2116.09
992.116	2088.97
992.413	2057.33
992.71	2066.82
993.006	2076.32
993.303	2058.69
993.6	2077.22
993.897	2045.81
994.193	2037.22
994.49	2038.8
994.787	2019.82
995.083	1999.48
995.379	1985.7
995.676	1972.59
995.972	1960.84
996.268	1980.72
996.565	1961.52
996.861	1971.46
997.157	1943.44
997.453	1928.75
997.749	1934.85
998.044	1911.35
998.34	1901.4
998.636	1909.77
998.932	1889.2
999.227	1862.08
999.523	1874.74
999.818	1859.37
1000.114	1833.61
1000.409	1821.63
1000.704	1848.3
1001	1817.34
1001.295	1802.65
1001.59	1775.53
1001.885	1800.84
1002.18	1778.24
1002.475	1785.02
1002.77	1763.56
1003.065	1747.96
1003.359	1770.11
1003.654	1735.76
1003.949	1740.28
1004.243	1751.35
1004.538	1703.44
1004.832	1701.41
1005.127	1706.83
1005.421	1679.94
1005.715	1661.41
1006.009	1686.04
1006.304	1627.97
1006.598	1663.67
1006.892	1638.13
1007.186	1632.71
1007.48	1603.56
1007.773	1628.42
1008.067	1629.77
1008.361	1608.76
1008.655	1582.32
1008.948	1587.29
1009.242	1560.85
1009.535	1550.68
1009.829	1531.7
1010.122	1563.56
1010.415	1529.44
1010.708	1530.57
1011.001	1514.3
1011.295	1507.74
1011.588	1486.73
1011.881	1475.65
1012.173	1504.35
1012.466	1487.4
1012.759	1483.79
1013.052	1459.83
1013.344	1464.35
1013.637	1438.37
1013.93	1455.77
1014.222	1441.08
1014.514	1390.01
1014.807	1390.46
1015.099	1380.29
1015.391	1407.41
1015.683	1389.33
1015.976	1399.72
1016.268	1400.63
1016.56	1326.5
1016.851	1365.83
1017.143	1325.83
1017.435	1359.95
1017.727	1329.22
1018.018	1363.11
1018.31	1330.35
1018.602	1316.79
1018.893	1297.35
1019.185	1298.48
1019.476	1288.31
1019.767	1285.83
1020.058	1291.03
1020.35	1264.13
1020.641	1278.37
1020.932	1245.6
1021.223	1246.73
1021.514	1218.26
1021.804	1225.49
1022.095	1211.03
1022.386	1243.79
1022.677	1186.4
1022.967	1178.26
1023.258	1209.9
1023.548	1166.73
1023.839	1189.56
1024.129	1165.6
1024.419	1151.37
1024.709	1126.51
1025	1144.14
1025.29	1139.16
1025.58	1136.91
1025.87	1118.6
1026.16	1107.08
1026.449	1108.43
1026.739	1088.54
1027.029	1101.65
1027.319	1082.67
1027.608	1072.73
1027.898	1080.18
1028.187	1079.96
1028.477	1065.72
1028.766	1051.03
1029.055	1046.06
1029.344	1063.23
1029.634	1052.16
1029.923	1022.56
1030.212	1015.1
1030.501	1022.78
1030.79	987.53
1031.078	1009.9
1031.367	1022.11
1031.656	997.02
1031.945	983.46
1032.233	1000.86
1032.522	947.31
1032.81	958.6
1033.099	951.6
1033.387	946.4
1033.675	952.28
1033.963	954.54
1034.251	924.93
1034.54	941.88
1034.828	935.78
1035.116	914.09
1035.403	893.07
1035.691	911.83
1035.979	908.66
1036.267	910.24
1036.554	903.24
1036.842	907.98
1037.129	894.2
1037.417	873.41
1037.704	877.02
1037.992	875.44
1038.279	884.26
1038.566	878.15
1038.853	878.15
1039.14	878.15
