Data from hue_32_FLMS001491_00061.txt Node
Date: Tue Feb 07 17:23:44 GMT 2017
User: dcchb
Spectrometer: FLMS00149
Trigger mode: 0
Integration Time (sec): 2.000000E-2
Scans to average: 10
Electric dark correction enabled: true
Nonlinearity correction enabled: false
Boxcar width: 0
XAxis mode: Wavelengths
Number of Pixels in Spectrum: 2048
>>>>>Begin Spectral Data<<<<<
341.393	2.9
341.776	2.9
342.16	2.9
342.543	-56.54
342.927	-72.58
343.31	-64
343.693	-63.77
344.077	-52.92
344.46	-58.35
344.843	-48.85
345.226	-67.84
345.61	-42.3
345.993	-29.19
346.376	18.49
346.759	1.54
347.142	15.1
347.525	58.26
347.908	58.49
348.291	77.7
348.674	88.99
349.057	108.66
349.44	141.87
349.823	139.16
350.206	168.31
350.588	191.82
350.971	235.66
351.354	242.21
351.737	255.77
352.119	247.63
352.502	265.94
352.884	286.28
353.267	307.75
353.65	300.97
354.032	313.85
354.414	294.41
354.797	310.46
355.179	352.94
355.562	327.18
355.944	333.96
356.326	321.76
356.709	321.53
357.091	355.2
357.473	350.23
357.855	330.34
358.238	354.75
358.62	346.62
359.002	365.37
359.384	344.58
359.766	348.2
360.148	349.1
360.53	348.2
360.912	331.47
361.294	327.41
361.676	349.78
362.057	342.32
362.439	348.88
362.821	339.61
363.203	331.7
363.584	330.57
363.966	329.67
364.348	326.73
364.729	332.15
365.111	335.54
365.493	330.8
365.874	317.24
366.256	304.36
366.637	308.65
367.019	330.8
367.4	340.06
367.781	311.14
368.163	330.12
368.544	327.63
368.925	312.72
369.306	325.82
369.688	340.74
370.069	338.71
370.45	340.74
370.831	326.5
371.212	342.32
371.593	333.73
371.974	332.83
372.355	325.82
372.736	319.5
373.117	330.12
373.498	310.46
373.879	337.58
374.26	307.75
374.641	313.17
375.021	332.15
375.402	317.69
375.783	362.89
376.163	345.94
376.544	337.35
376.925	325.15
377.305	332.38
377.686	324.24
378.066	337.12
378.447	330.12
378.827	346.16
379.208	321.08
379.588	346.16
379.968	353.17
380.349	346.16
380.729	337.8
381.109	347.29
381.489	361.98
381.87	348.88
382.25	333.96
382.63	345.49
383.01	341.64
383.39	356.11
383.77	346.62
384.15	369.67
384.53	347.75
384.91	358.59
385.29	356.33
385.67	355.65
386.049	385.03
386.429	350.91
386.809	343.9
387.189	380.74
387.568	358.14
387.948	359.04
388.328	364.02
388.707	363.11
389.087	372.15
389.466	392.26
389.846	358.82
390.225	366.28
390.605	354.98
390.984	373.06
391.363	392.72
391.743	390.46
392.122	394.3
392.501	377.35
392.881	389.78
393.26	372.15
393.639	373.96
394.018	384.35
394.397	381.64
394.776	388.2
395.155	405.37
395.534	368.54
395.913	395.88
396.292	380.29
396.671	380.06
397.05	394.98
397.429	387.29
397.808	390.23
398.186	397.46
398.565	417.57
398.944	395.2
399.323	394.3
399.701	411.02
400.08	407.86
400.458	402.66
400.837	404.01
401.215	420.51
401.594	423
401.972	411.92
402.351	427.97
402.729	421.64
403.107	432.71
403.486	426.84
403.864	417.12
404.242	431.13
404.62	440.4
404.999	445.37
405.377	422.55
405.755	439.04
406.133	448.08
406.511	450.79
406.889	451.47
407.267	442.88
407.645	449.66
408.023	464.35
408.401	450.57
408.779	461.19
409.156	458.02
409.534	452.38
409.912	466.39
410.29	479.27
410.667	460.74
411.045	472.71
411.422	464.58
411.8	474.75
412.178	485.37
412.555	486.95
412.933	466.39
413.31	484.69
413.687	496.67
414.065	507.51
414.442	489.89
414.819	494.63
415.197	506.38
415.574	504.58
415.951	524.92
416.328	511.36
416.705	533.73
417.082	523.56
417.46	501.64
417.837	529.66
418.214	539.38
418.591	511.58
418.967	532.6
419.344	528.31
419.721	543.9
420.098	551.81
420.475	551.81
420.852	551.58
421.228	543.9
421.605	544.35
421.982	561.52
422.358	573.05
422.735	577.34
423.111	563.78
423.488	579.15
423.864	583.22
424.241	578.93
424.617	577.12
424.994	590.9
425.37	577.57
425.746	560.62
426.123	593.84
426.499	595.2
426.875	601.52
427.251	604.01
427.627	588.19
428.003	597.23
428.379	606.72
428.756	625.93
429.132	613.73
429.507	630.22
429.883	625.7
430.259	651.24
430.635	655.53
431.011	646.72
431.387	664.8
431.763	664.12
432.138	679.71
432.514	674.52
432.89	689.43
433.265	685.14
433.641	695.08
434.016	676.78
434.392	704.35
434.767	706.38
435.143	697.11
435.518	722.88
435.894	716.1
436.269	739.6
436.644	728.98
437.02	747.28
437.395	745.02
437.77	740.28
438.145	754.51
438.52	765.59
438.895	782.31
439.271	802.87
439.646	775.53
440.021	785.02
440.395	797.22
440.77	773.95
441.145	766.94
441.52	782.31
441.895	795.64
442.27	802.65
442.645	814.17
443.019	831.12
443.394	813.04
443.769	843.78
444.143	845.36
444.518	834.74
444.892	838.58
445.267	857.79
445.641	860.5
446.016	864.12
446.39	856.88
446.764	871.57
447.139	864.57
447.513	866.83
447.887	881.29
448.262	873.61
448.636	900.05
449.01	905.02
449.384	890.78
449.758	890.33
450.132	903.44
450.506	906.6
450.88	909.54
451.254	919.93
451.628	937.33
452.002	927.16
452.376	938.46
452.75	969.88
453.123	959.71
453.497	996.32
453.871	987.5
454.244	979.59
454.618	1020.95
454.992	1005.35
455.365	1011.46
455.739	1032.7
456.112	1032.47
456.486	1058.01
456.859	1069.99
457.232	1060.49
457.606	1058.46
457.979	1066.37
458.352	1089.42
458.725	1118.57
459.099	1140.49
459.472	1142.3
459.845	1157.89
460.218	1154.73
460.591	1141.62
460.964	1162.41
461.337	1213.49
461.71	1202.64
462.083	1240.6
462.456	1241.51
462.829	1246.7
463.201	1262.52
463.574	1244.9
463.947	1285.8
464.32	1270.88
464.692	1299.36
465.065	1310.43
465.438	1331.9
465.81	1385.23
466.183	1368.51
466.555	1388.4
466.928	1407.83
467.3	1399.24
467.672	1393.37
468.045	1472.91
468.417	1474.95
468.789	1496.64
469.161	1530.76
469.534	1548.84
469.906	1574.61
470.278	1594.49
470.65	1620.71
471.022	1632.23
471.394	1662.06
471.766	1672
472.138	1704.55
472.51	1739.8
472.882	1761.49
473.253	1773.24
473.625	1825.9
473.997	1867.03
474.369	1893.47
474.74	1942.05
475.112	1949.28
475.484	2022.05
475.855	2051.43
476.227	2058.21
476.598	2158.77
476.97	2180.47
477.341	2213.23
477.713	2243.74
478.084	2274.93
478.455	2346.11
478.827	2411.19
479.198	2466.56
479.569	2514.47
479.94	2557.86
480.311	2604.18
480.682	2701.81
481.053	2756.5
481.424	2793.56
481.795	2835.36
482.166	2937.51
482.537	2958.07
482.908	3073.32
483.279	3114
483.65	3242.13
484.021	3339.98
484.391	3355.8
484.762	3411.17
485.133	3497.49
485.503	3567.77
485.874	3625.63
486.244	3706.07
486.615	3833.98
486.985	3926.41
487.356	3992.62
487.726	4104.93
488.097	4147.87
488.467	4200.3
488.837	4297.02
489.207	4428.09
489.578	4535.88
489.948	4578.14
490.318	4668.54
490.688	4719.83
491.058	4876.89
491.428	4939.26
491.798	5030.11
492.168	5110.33
492.538	5202.08
492.908	5300.61
493.278	5406.6
493.648	5437.1
494.017	5520.94
494.387	5635.74
494.757	5659.47
495.126	5805.23
495.496	5815.4
495.866	5958.9
496.235	5963.19
496.605	6149.63
496.974	6194.15
497.344	6242.05
497.713	6344.42
498.082	6418.77
498.452	6516.4
498.821	6580.58
499.19	6576.96
499.559	6677.3
499.928	6798.2
500.298	6826.22
500.667	6893.11
501.036	6911.64
501.405	7070.73
501.774	7075.03
502.143	7139.88
502.512	7145.53
502.88	7240.9
503.249	7334
503.618	7359.09
503.987	7407.45
504.356	7488.8
504.724	7543.94
505.093	7591.85
505.462	7636.37
505.83	7709.13
506.199	7896.7
506.567	7935.12
506.936	7913.2
507.304	7988
507.672	8105.96
508.041	8084.49
508.409	8204.71
508.777	8257.14
509.145	8314.77
509.514	8332.39
509.882	8421.66
510.25	8441.32
510.618	8517.02
510.986	8507.76
511.354	8611.48
511.722	8640.41
512.09	8742.1
512.458	8719.05
512.826	8844.47
513.193	8874.75
513.561	8896.22
513.929	8986.16
514.297	9092.37
514.664	9156.78
515.032	9127.18
515.4	9203.78
515.767	9265.25
516.135	9359.26
516.502	9242.88
516.869	9438.13
517.237	9441.74
517.604	9388.86
517.972	9481.29
518.339	9597.45
518.706	9597.67
519.073	9658.69
519.44	9740.49
519.808	9862.75
520.175	9820.94
520.542	9873.6
520.909	9994.95
521.276	9963.31
521.643	10043.08
522.009	10154.49
522.376	10130.99
522.743	10304.09
523.11	10333.7
523.477	10394.94
523.843	10483.3
524.21	10557.65
524.577	10643.07
524.943	10642.16
525.31	10712.67
525.676	10769.84
526.043	10848.71
526.409	10910.63
526.776	10967.35
527.142	10996.05
527.508	11043.96
527.874	11144.3
528.241	11177.52
528.607	11222.49
528.973	11370.28
529.339	11318.98
529.705	11406.66
530.071	11506.55
530.437	11485.76
530.803	11655.92
531.169	11637.84
531.535	11757.84
531.901	11744.51
532.267	11845.3
532.632	11881.23
532.998	11907.22
533.364	11939.08
533.73	12037.83
534.095	12193.08
534.461	12180.43
534.826	12216.59
535.192	12249.13
535.557	12371.61
535.923	12301.33
536.288	12375
536.653	12439.86
537.019	12524.83
537.384	12544.71
537.749	12609.57
538.114	12600.98
538.479	12670.81
538.845	12646.63
539.21	12822.9
539.575	12783.8
539.94	12860.18
540.305	12957.81
540.67	12994.42
541.034	12966.4
541.399	13038.48
541.764	13094.98
542.129	13213.85
542.494	13231.25
542.858	13249.55
543.223	13268.76
543.587	13435.99
543.952	13377.91
544.316	13405.93
544.681	13419.27
545.045	13604.8
545.41	13601.18
545.774	13633.27
546.138	13631.01
546.503	13753.27
546.867	13689.99
547.231	13856.32
547.595	13894.28
547.959	13881.4
548.324	13977.67
548.688	13957.1
549.052	14118.91
549.416	14121.39
549.779	14062.19
550.143	14212.69
550.507	14338.34
550.871	14341.73
551.235	14427.37
551.599	14452.46
551.962	14465.57
552.326	14532.68
552.689	14517.99
553.053	14475.96
553.417	14627.37
553.78	14807.93
554.143	14676.18
554.507	14821.49
554.87	14831.43
555.234	14978.32
555.597	14908.04
555.96	14969.73
556.323	15012.22
556.686	15015.16
557.05	15197.98
557.413	15201.37
557.776	15270.74
558.139	15301.48
558.502	15339.22
558.865	15348.48
559.228	15473
559.59	15541.92
559.953	15498.31
560.316	15707.12
560.679	15631.64
561.041	15740.56
561.404	15767.45
561.767	15940.1
562.129	15887.9
562.492	16061.23
562.854	15946.21
563.217	15922.48
563.579	16085.64
563.941	16226.42
564.304	16211.51
564.666	16312.3
565.028	16342.58
565.39	16342.8
565.753	16508.68
566.115	16536.92
566.477	16595.23
566.839	16611.05
567.201	16769.91
567.563	16764.94
567.925	16839.51
568.287	16889.46
568.648	16881.1
569.01	17100.07
569.372	17163.12
569.734	17131.94
570.095	17256.91
570.457	17340.97
570.819	17286.06
571.18	17414.87
571.542	17492.83
571.903	17564.24
572.265	17563.11
572.626	17691.47
572.987	17733.28
573.349	17859.15
573.71	17956.77
574.071	18025.7
574.432	18130.78
574.794	18288.06
575.155	18314.73
575.516	18417.33
575.877	18435.86
576.238	18566.48
576.599	18779.58
576.96	18754.04
577.32	18899.57
577.681	18998.33
578.042	19128.04
578.403	19267.93
578.763	19393.8
579.124	19515.6
579.485	19738.65
579.845	19863.16
580.206	19933.44
580.566	20128.92
580.927	20375.92
581.287	20535.01
581.648	20600.55
582.008	20763.71
582.368	20913.31
582.728	21153.75
583.089	21230.81
583.449	21482.78
583.809	21763.91
584.169	21857.46
584.529	22061.07
584.889	22439.59
585.249	22487.05
585.609	22765.46
585.969	23085.68
586.329	23193.47
586.688	23475.05
587.048	23669.62
587.408	23869.84
587.768	24141.92
588.127	24424.85
588.487	24512.53
588.846	24887.21
589.206	25058.28
589.565	25256.02
589.925	25553.18
590.284	25799.51
590.643	26102.32
591.003	26324.92
591.362	26571.91
591.721	26865.69
592.08	27175.97
592.44	27417.77
592.799	27769.17
593.158	27851.43
593.517	28325.77
593.876	28523.28
594.235	28710.16
594.593	28930.27
594.952	29399.41
595.311	29499.97
595.67	29811.38
596.029	30148.77
596.387	30331.36
596.746	30786.04
597.104	30813.84
597.463	31121.4
597.822	31442.07
598.18	31479.81
598.538	31774.72
598.897	32171.09
599.255	32125.67
599.613	32838.87
599.972	32854.69
600.33	33100.33
600.688	33267.78
601.046	33512.52
601.404	33807.43
601.762	34024.6
602.12	34409
602.478	34562.44
602.836	34740.51
603.194	34747.29
603.552	35057.79
603.91	35171.91
604.268	35535.97
604.625	35564.45
604.983	35959.92
605.341	35920.82
605.698	36345.44
606.056	36460.24
606.413	36756.28
606.771	36849.16
607.128	37011.41
607.485	37257.96
607.843	37332.54
608.2	37621.34
608.557	38017.94
608.914	37893.88
609.272	38116.24
609.629	38395.56
609.986	38661.31
610.343	38571.82
610.7	39001.87
611.057	39097.01
611.414	39053.85
611.771	39340.62
612.127	39587.17
612.484	39622.42
612.841	39936.76
613.198	39837.33
613.554	39959.13
613.911	40262.4
614.267	40436.18
614.624	40503.98
614.98	40541.94
615.337	40861.71
615.693	40808.15
616.05	41074.81
616.406	41226.22
616.762	41238.2
617.118	41251.75
617.475	41419.21
617.831	41524.29
618.187	41823.49
618.543	41936.71
618.899	42115.01
619.255	42126.99
619.611	42051.51
619.967	42288.79
620.323	42492.85
620.678	42284.5
621.034	42506.64
621.39	42450.82
621.746	42561.32
622.101	43110.69
622.457	42717.25
622.812	42900.75
623.168	43034.53
623.523	43071.37
623.879	43281.53
624.234	42978.04
624.589	43123.12
624.945	43247.41
625.3	43416.67
625.655	43362.43
626.01	43535.54
626.365	43526.5
626.72	43332.6
627.075	43398.36
627.43	43470.91
627.785	43576.44
628.14	43622.09
628.495	43842.65
628.85	43705.02
629.205	43566.27
629.559	43832.7
629.914	43699.37
630.269	43622.99
630.623	43709.54
630.978	43684.46
631.332	43873.83
631.687	44024.79
632.041	43737.56
632.396	43944.34
632.75	43811.01
633.104	43785.7
633.459	43671.35
633.813	43741.41
634.167	43818.47
634.521	43785.47
634.875	43850.78
635.229	43810.78
635.583	43669.54
635.937	43807.62
636.291	43702.09
636.645	43753.61
636.999	43680.84
637.352	43777.34
637.706	43537.57
638.06	43783.89
638.413	43579.15
638.767	43693.27
639.121	43726.27
639.474	43386.61
639.828	43539.83
640.181	43520.17
640.534	43540.51
640.888	43495.99
641.241	43403.56
641.594	43391.36
641.947	43543.9
642.301	43377.12
642.654	43422.09
643.007	43313.17
643.36	43482.43
643.713	43337.35
644.066	43505.03
644.419	43232.72
644.771	42997.47
645.124	42620.53
645.477	42566.07
645.83	42470.25
646.182	42337.15
646.535	42281.11
646.888	42316.81
647.24	41911.17
647.593	42136.02
647.945	42176.93
648.298	41950.27
648.65	41978.97
649.002	41844.73
649.355	41990.27
649.707	41982.58
650.059	42175.35
650.411	42615.79
650.763	42770.13
651.115	42891.03
651.467	42761.09
651.819	42903.91
652.171	42859.62
652.523	42676.8
652.875	42790.7
653.227	42582.34
653.578	42833.86
653.93	42698.95
654.282	42675.67
654.633	42533.75
654.985	42715.44
655.337	42595.9
655.688	42608.33
656.039	42714.09
656.391	42411.72
656.742	42521.33
657.094	42494.43
657.445	42636.58
657.796	42697.82
658.147	42613.53
658.498	42449.69
658.849	42610.59
659.2	42463.7
659.551	42411.5
659.902	42548.22
660.253	42470.48
660.604	42500.31
660.955	42266.19
661.306	42418.05
661.656	42323.36
662.007	42286.08
662.358	42379.41
662.708	42323.14
663.059	42338.51
663.409	42048.12
663.76	42281.78
664.11	42430.25
664.461	42441.55
664.811	42356.81
665.161	42388.67
665.511	42325.4
665.862	42444.27
666.212	42335.34
666.562	42261.45
666.912	42283.82
667.262	42197.04
667.612	42119.08
667.962	42313.42
668.312	42164.05
668.662	42362.69
669.011	42195.01
669.361	42275.68
669.711	42132.64
670.06	42164.05
670.41	42126.08
670.76	42087.89
671.109	42144.39
671.459	42112.07
671.808	42096.03
672.157	42183.93
672.507	41982.13
672.856	41910.72
673.205	41919.31
673.554	42195.23
673.904	41891.74
674.253	42220.54
674.602	42034.56
674.951	41516.15
675.3	41214.69
675.649	41803.38
675.998	41881.79
676.346	41892.19
676.695	41993.43
677.044	41595.7
677.393	41899.87
677.741	41900.1
678.09	41861.46
678.438	41563.16
678.787	41668.69
679.135	41684.74
679.484	41427.57
679.832	41623.5
680.181	41316.16
680.529	41482.71
680.877	41412.88
681.225	41383.95
681.573	41521.13
681.922	41315.26
682.27	41159.78
682.618	41083.17
682.966	41043.17
683.314	41193.68
683.661	41023.51
684.009	40817.42
684.357	40739.9
684.705	40806.12
685.053	40742.84
685.4	40732.22
685.748	40485.22
686.095	40550.3
686.443	40379.46
686.79	40457.65
687.138	40446.35
687.485	40380.82
687.832	40189.41
688.18	40311.21
688.527	40110.09
688.874	40050.88
689.221	39994.39
689.568	39820.83
689.915	39801.4
690.262	39792.36
690.609	39691.12
690.956	39557.34
691.303	39481.41
691.65	39222.2
691.997	39269.43
692.344	39164.58
692.69	39161.41
693.037	39036.67
693.383	38696.79
693.73	39009.55
694.077	38597.59
694.423	38703.57
694.769	38506.06
695.116	38518.27
695.462	38482.79
695.808	38266.52
696.155	38507.87
696.501	38075.57
696.847	37983.59
697.193	37793.31
697.539	38004.83
697.885	37778.4
698.231	37735.91
698.577	37586.77
698.923	37655.92
699.269	37480.33
699.614	37336.38
699.96	37190.39
700.306	37194.69
700.651	37123.95
700.997	36827.46
701.342	36844.19
701.688	36734.58
702.033	36723.96
702.379	36717.18
702.724	36658.65
703.069	36713.79
703.415	36153.13
703.76	36357.87
704.105	36188.84
704.45	36102.06
704.795	35997.66
705.14	35889.86
705.485	35659.58
705.83	35561.06
706.175	35764.44
706.52	35602.64
706.865	35349.76
707.209	35492.81
707.554	35251.01
707.899	35422.76
708.243	35223.44
708.588	35179.6
708.932	34876.55
709.277	34923.56
709.621	35038.13
709.966	34736.22
710.31	34846.5
710.654	34558.82
710.998	34653.06
711.342	34585.49
711.687	34519.05
712.031	34370.13
712.375	34182.56
712.719	34337.81
713.063	34106.18
713.407	34297.36
713.75	34092.85
714.094	34073.19
714.438	33858.73
714.782	33941.21
715.125	33717.49
715.469	33833.87
715.812	33553.88
716.156	33486.99
716.499	33387.78
716.843	33557.72
717.186	33300.78
717.53	33503.94
717.873	33487.66
718.216	33346.65
718.559	33200.89
718.902	33035.7
719.246	33158.86
719.589	33015.59
719.932	32967.9
720.275	32966.77
720.617	32837.96
720.96	32824.86
721.303	32741.7
721.646	32838.42
721.989	32473.91
722.331	32656.95
722.674	32484.98
723.016	32554.58
723.359	32462.83
723.701	32389.16
724.044	32237.3
724.386	32091.09
724.729	32317.75
725.071	32184.87
725.413	32119.34
725.755	32040.02
726.097	32045.44
726.439	31820.14
726.782	31904.88
727.124	31897.88
727.465	31793.02
727.807	31675.51
728.149	31611.33
728.491	31700.14
728.833	31649.29
729.175	31626.24
729.516	31483.65
729.858	31397.32
730.199	31509.64
730.541	31327.27
730.882	31354.84
731.224	31424.67
731.565	31187.39
731.906	31115.75
732.248	31145.81
732.589	31077.11
732.93	31063.77
733.271	31043.89
733.612	31048.41
733.953	30934.74
734.294	30911.69
734.635	30822.88
734.976	30867.39
735.317	30780.84
735.658	30705.59
735.999	30634.41
736.339	30608.42
736.68	30730.9
737.021	30518.93
737.361	30362.78
737.702	30546.05
738.042	30448.87
738.383	30446.61
738.723	30451.59
739.063	30280.97
739.404	30365.71
739.744	30260.86
740.084	30359.39
740.424	30292.49
740.764	30208.2
741.104	30215.89
741.444	30030.58
741.784	29916.69
742.124	30048.89
742.464	29981.09
742.804	29899.06
743.143	29739.97
743.483	29882.34
743.823	29773.86
744.162	29763.69
744.502	29785.16
744.841	29678.5
745.181	29852.28
745.52	29576.58
745.86	29694.77
746.199	29518.28
746.538	29469.24
746.877	29651.16
747.216	29582.46
747.556	29436.7
747.895	29440.99
748.234	29310.15
748.573	29214.33
748.911	29165.07
749.25	29126.42
749.589	29103.15
749.928	29076.48
750.267	29066.76
750.605	29013.21
750.944	28789.94
751.283	28804.17
751.621	28766.43
751.96	28685.76
752.298	28662.71
752.636	28748.13
752.975	28591.52
753.313	28505.42
753.651	28522.15
753.989	28405.76
754.327	28382.26
754.666	28282.6
755.004	28326.44
755.342	28303.39
755.679	28248.93
756.017	28037.19
756.355	28292.77
756.693	28005.32
757.031	28077.41
757.368	27829.73
757.706	27831.99
758.044	27801.26
758.381	27885.78
758.719	27698.21
759.056	27752.9
759.394	27572.34
759.731	27494.38
760.068	27334.15
760.405	27247.83
760.743	27326.24
761.08	27195.17
761.417	27148.17
761.754	27113.59
762.091	26952.92
762.428	26921.06
762.765	26843.77
763.102	26841.06
763.438	26664.12
763.775	26554.06
764.112	26631.57
764.449	26596.32
764.785	26511.12
765.122	26311.81
765.458	26154.3
765.795	26174.64
766.131	26114.07
766.467	26049.89
766.804	25823.69
767.14	25698.26
767.476	25717.02
767.812	25708.66
768.148	25691.03
768.485	25608.1
768.821	25481.55
769.157	25387.99
769.492	25321.33
769.828	25264.15
770.164	25077.72
770.5	24999.3
770.836	24935.12
771.171	24778.06
771.507	24804.05
771.842	24602.25
772.178	24716.14
772.513	24589.82
772.849	24459.43
773.184	24328.13
773.519	24363.38
773.855	24298.08
774.19	24054.24
774.525	23931.53
774.86	23985.99
775.195	23958.42
775.53	23850.63
775.865	23840.23
776.2	23633.91
776.535	23437.76
776.87	23405.22
777.205	23262.62
777.539	23307.14
777.874	23175.17
778.209	22987.83
778.543	22906.02
778.878	22934.5
779.212	22795.97
779.547	22727.04
779.881	22705.8
780.215	22583.77
780.55	22625.13
780.884	22572.92
781.218	22413.83
781.552	22395.3
781.886	22278.47
782.22	22179.04
782.554	22044.12
782.888	21906.73
783.222	21864.02
783.556	21749.44
783.889	21796.67
784.223	21546.74
784.557	21466.74
784.89	21490.01
785.224	21438.04
785.557	21335.89
785.891	21231.72
786.224	21149.01
786.558	21185.62
786.891	21056.13
787.224	20894.32
787.557	20787.89
787.891	20823.14
788.224	20769.58
788.557	20742.46
788.89	20671.73
789.223	20582.24
789.556	20490.94
789.888	20419.76
790.221	20301.57
790.554	20211.86
790.887	20302.7
791.219	20097.28
791.552	20048.7
791.884	19965.31
792.217	19908.36
792.549	19854.58
792.882	19704.98
793.214	19588.37
793.546	19700.91
793.879	19569.84
794.211	19389.96
794.543	19566.22
794.875	19443.97
795.207	19333.46
795.539	19279.45
795.871	19168.04
796.203	19117.65
796.535	19043.3
796.867	18928.5
797.198	18822.74
797.53	18869.07
797.862	18765.34
798.193	18918.33
798.525	18738
798.856	18665.68
799.188	18473.37
799.519	18464.56
799.85	18346.82
800.182	18410.32
800.513	18266.6
800.844	18245.35
801.175	18289.65
801.506	18221.85
801.837	18156.77
802.168	18072.93
802.499	18050.1
802.83	17962.65
803.161	17846.04
803.491	17846.04
803.822	17809.43
804.153	17782.99
804.483	17674.75
804.814	17563.11
805.145	17608.53
805.475	17560.4
805.805	17454.87
806.136	17483.57
806.466	17352.5
806.796	17383.46
807.126	17207.41
807.457	17212.39
807.787	17201.31
808.117	17131.03
808.447	17109.11
808.777	17074.76
809.107	17030.92
809.436	16967.87
809.766	16876.35
810.096	16909.12
810.426	16727.2
810.755	16741.44
811.085	16693.76
811.414	16780.76
811.744	16566.75
812.073	16539.64
812.403	16569.47
812.732	16441.56
813.061	16460.32
813.39	16327.89
813.719	16385.06
814.049	16324.95
814.378	16269.81
814.707	16227.33
815.036	16285.63
815.365	16051.06
815.693	16044.96
816.022	16048.8
816.351	16009.71
816.68	15860.56
817.008	15866.21
817.337	15777.85
817.665	15792.76
817.994	15795.47
818.322	15810.39
818.651	15779.66
818.979	15721.8
819.307	15702.6
819.636	15640
819.964	15626.67
820.292	15652.2
820.62	15611.52
820.948	15461.25
821.276	15484.07
821.604	15452.43
821.932	15514.13
822.259	15587.34
822.587	15463.96
822.915	15438.42
823.243	15566.55
823.57	15483.17
823.898	15460.79
824.225	15409.27
824.553	15362.27
824.88	15454.47
825.207	15393.23
825.535	15313.91
825.862	15487.01
826.189	15335.6
826.516	15438.42
826.843	15427.35
827.17	15451.53
827.497	15481.36
827.824	15480.68
828.151	15523.17
828.478	15359.1
828.805	15499.66
829.131	15399.78
829.458	15341.25
829.785	15267.13
830.111	15295.6
830.438	15428.25
830.764	15308.26
831.09	15380.12
831.417	15297.63
831.743	15348.93
832.069	15266
832.395	15310.52
832.722	15375.37
833.048	15284.53
833.374	15306.45
833.7	15194.36
834.026	15183.74
834.351	15234.59
834.677	15179.67
835.003	15136.28
835.329	15226.9
835.654	15146
835.98	15036.85
836.306	15172.44
836.631	15090.41
836.956	15096.28
837.282	15084.98
837.607	15061.48
837.932	15035.04
838.258	15002.05
838.583	14921.6
838.908	14870.53
839.233	14910.53
839.558	14853.13
839.883	14780.36
840.208	14728.61
840.533	14836.18
840.858	14740.59
841.182	14753.02
841.507	14742.62
841.832	14628.05
842.156	14567.71
842.481	14605.22
842.805	14585.56
843.13	14548.28
843.454	14567.03
843.778	14496.3
844.103	14366.36
844.427	14339.24
844.751	14317.77
845.075	14322.07
845.399	14221.28
845.723	14196.87
846.047	14187.61
846.371	14112.81
846.695	14072.58
847.019	13991.23
847.343	13900.38
847.666	13951.91
847.99	13769.09
848.313	13864
848.637	13659.71
848.96	13662.88
849.284	13653.84
849.607	13522.31
849.931	13528.19
850.254	13391.7
850.577	13389.21
850.9	13290.68
851.223	13287.52
851.546	13257.01
851.869	13145.83
852.192	13266.5
852.515	13081.65
852.838	13014.53
853.161	13027.64
853.483	13007.53
853.806	12860.64
854.129	12861.77
854.451	12831.26
854.774	12788.77
855.096	12695.44
855.419	12723.01
855.741	12710.81
856.063	12600.3
856.385	12594.43
856.708	12538.39
857.03	12530.7
857.352	12523.92
857.674	12492.96
857.996	12381.78
858.318	12322.57
858.64	12359.18
858.961	12354.66
859.283	12249.35
859.605	12125.29
859.926	12237.6
860.248	12230.37
860.57	12132.52
860.891	12154.44
861.212	12092.75
861.534	12026.31
861.855	11984.73
862.176	11968.91
862.498	11920.32
862.819	11881.45
863.14	11915.35
863.461	11936.14
863.782	11894.11
864.103	11768.69
864.424	11824.73
864.745	11880.1
865.065	11751.74
865.386	11706.09
865.707	11731.63
866.027	11707.22
866.348	11700.89
866.668	11680.78
866.989	11695.92
867.309	11555.36
867.63	11571.63
867.95	11532.31
868.27	11502.71
868.59	11442.37
868.91	11508.58
869.23	11484.4
869.55	11459.77
869.87	11478.3
870.19	11431.75
870.51	11454.12
870.83	11459.09
871.15	11405.08
871.469	11423.16
871.789	11344.74
872.109	11329.15
872.428	11227.01
872.748	11184.97
873.067	11271.3
873.386	11246.89
873.706	11208.02
874.025	11132.77
874.344	11125.09
874.663	11205.31
874.982	11123.28
875.301	11136.16
875.62	11112.89
875.939	11066.56
876.258	11084.64
876.577	11137.97
876.896	11057.75
877.214	10953.12
877.533	10980.69
877.852	11024.07
878.17	10985.88
878.489	10928.71
878.807	10983.62
879.125	10908.6
879.444	10934.81
879.762	10881.71
880.08	10947.47
880.398	10801.48
880.716	10843.06
881.034	10809.84
881.352	10749.28
881.67	10716.96
881.988	10730.52
882.306	10710.41
882.624	10660.24
882.941	10539.57
883.259	10645.55
883.577	10623.63
883.894	10550.41
884.212	10575.5
884.529	10529.85
884.846	10443.3
885.164	10474.48
885.481	10406.46
885.798	10510.19
886.115	10335.51
886.432	10349.29
886.75	10340.7
887.067	10368.05
887.383	10304.32
887.7	10339.8
888.017	10178
888.334	10272.46
888.651	10231.55
888.967	10127.37
889.284	10128.05
889.6	10109.3
889.917	10032.01
890.233	10093.48
890.55	10032.69
890.866	9998.34
891.182	10023.65
891.498	9921.28
891.815	9877.66
892.131	9901.39
892.447	9883.54
892.763	9827.04
893.079	9786.14
893.395	9746.82
893.71	9712.7
894.026	9705.92
894.342	9765.35
894.657	9589.31
894.973	9579.14
895.289	9612.13
895.604	9576.88
895.92	9479.48
896.235	9420.95
896.55	9500.05
896.865	9443.33
897.181	9425.02
897.496	9413.72
897.811	9387.06
898.126	9272.71
898.441	9322.42
898.756	9290.56
899.071	9189.09
899.386	9173.73
899.7	9159.94
900.015	9098.48
900.33	9029.1
900.644	9010.79
900.959	9058.02
901.273	8965.6
901.588	8939.84
901.902	8834.3
902.216	8872.04
902.531	8865.94
902.845	8839.73
903.159	8775.32
903.473	8711.14
903.787	8640.63
904.101	8623.91
904.415	8616.68
904.729	8673.4
905.042	8522.22
905.356	8602.67
905.67	8540.07
905.984	8593.63
906.297	8491.03
906.611	8400.19
906.924	8445.61
907.237	8420.98
907.551	8368.55
907.864	8313.19
908.177	8331.26
908.491	8220.31
908.804	8251.94
909.117	8202.23
909.43	8172.62
909.743	8174.21
910.056	8089.24
910.368	8071.84
910.681	8032.97
910.994	7993.87
911.307	8021.89
911.619	7896.47
911.932	7938.73
912.244	7856.02
912.557	7809.47
912.869	7727.21
913.181	7780.09
913.494	7787.1
913.806	7658.29
914.118	7711.85
914.43	7657.16
914.742	7624.62
915.054	7609.02
915.366	7590.27
915.678	7465.75
915.99	7502.36
916.302	7456.71
916.613	7425.75
916.925	7384.17
917.236	7349.82
917.548	7313.44
917.859	7321.8
918.171	7244.29
918.482	7258.07
918.794	7180.33
919.105	7177.62
919.416	7172.88
919.727	7101.24
920.038	7123.84
920.349	6992.09
920.66	7010.62
920.971	6979.21
921.282	6955.03
921.593	6922.04
921.903	6870.06
922.214	6812.43
922.525	6854.69
922.835	6762.27
923.146	6795.94
923.456	6763.4
923.767	6697.41
924.077	6670.29
924.387	6661.7
924.697	6663.74
925.008	6568.15
925.318	6578.09
925.628	6567.47
925.938	6564.53
926.248	6480.47
926.558	6448.15
926.867	6425.55
927.177	6409.73
927.487	6393.69
927.796	6278.21
928.106	6310.3
928.416	6306.68
928.725	6335.38
929.034	6247.25
929.344	6232.56
929.653	6197.53
929.962	6179
930.271	6103.3
930.581	6102.62
930.89	6045
931.199	6041.83
931.508	6043.87
931.817	6040.93
932.125	6024.21
932.434	5966.81
932.743	5960.48
933.051	5856.98
933.36	5834.38
933.669	5853.59
933.977	5839.13
934.286	5807.04
934.594	5794.61
934.902	5762.97
935.21	5733.37
935.519	5699.92
935.827	5699.02
936.135	5630.09
936.443	5626.48
936.751	5580.38
937.059	5596.19
937.367	5564.56
937.674	5580.15
937.982	5508.97
938.29	5488.63
938.597	5541.51
938.905	5426.71
939.213	5438.23
939.52	5409.08
939.827	5401.85
940.135	5342.19
940.442	5337.9
940.749	5311.68
941.056	5358.69
941.363	5221.74
941.67	5252.47
941.977	5263.1
942.284	5141.74
942.591	5166.15
942.898	5175.19
943.205	5165.25
943.511	5095.19
943.818	5084.12
944.125	4991.92
944.431	5033.72
944.738	5055.19
945.044	4985.59
945.35	4948.75
945.657	4938.13
945.963	4946.04
946.269	4906.5
946.575	4932.26
946.881	4821.75
947.187	4815.88
947.493	4843.9
947.799	4824.92
948.105	4767.29
948.41	4761.41
948.716	4748.99
949.022	4733.84
949.327	4752.83
949.633	4662.66
949.938	4680.51
950.244	4638.93
950.549	4584.92
950.854	4582.21
951.16	4561.19
951.465	4541.76
951.77	4554.41
952.075	4493.4
952.38	4506.96
952.685	4516.68
952.99	4428.09
953.294	4457.24
953.599	4432.38
953.904	4414.53
954.209	4383.35
954.513	4358.71
954.818	4362.1
955.122	4324.14
955.426	4339.73
955.731	4360.07
956.035	4280.52
956.339	4263.8
956.643	4240.75
956.948	4200.98
957.252	4186.97
957.556	4225.16
957.86	4150.36
958.163	4123.47
958.467	4103.58
958.771	4135.44
959.075	4097.93
959.378	4118.95
959.682	4041.21
959.985	4067.2
960.289	4008.21
960.592	3999.85
960.896	4032.62
961.199	3950.59
961.502	3951.49
961.805	3962.34
962.108	3923.47
962.411	3935.45
962.714	3885.73
963.017	3876.47
963.32	3884.6
963.623	3825.85
963.926	3888.67
964.228	3836.92
964.531	3827.65
964.833	3792.63
965.136	3732.29
965.438	3728.22
965.741	3682.35
966.043	3701.56
966.345	3684.61
966.648	3660.88
966.95	3634.66
967.252	3661.1
967.554	3629.92
967.856	3592.86
968.158	3559.64
968.46	3560.32
968.761	3594.44
969.063	3546.31
969.365	3522.35
969.666	3534.78
969.968	3491.62
970.269	3502.01
970.571	3485.52
970.872	3420.21
971.174	3434.9
971.475	3417.49
971.776	3399.87
972.077	3388.8
972.378	3397.38
972.679	3349.93
972.98	3346.54
973.281	3362.36
973.582	3300.21
973.883	3310.15
974.183	3295.92
974.484	3290.49
974.785	3281
975.085	3261.79
975.386	3259.31
975.686	3241.23
975.986	3198.52
976.287	3259.98
976.587	3143.38
976.887	3132.98
977.187	3149.71
977.487	3191.29
977.787	3121.91
978.087	3092.98
978.387	3095.92
978.687	3095.92
978.987	3056.83
979.286	3056.37
979.586	3047.34
979.885	3011.18
980.185	3021.35
980.484	3002.59
980.784	2985.64
981.083	2990.39
981.382	2968.69
981.682	2951.07
981.981	2910.62
982.28	2884.4
982.579	2888.47
982.878	2904.97
983.177	2882.37
983.475	2861.8
983.774	2852.76
984.073	2820.67
984.372	2845.31
984.67	2794.69
984.969	2819.77
985.267	2820
985.566	2790.39
985.864	2763.5
986.162	2775.25
986.461	2703.16
986.759	2725.54
987.057	2706.33
987.355	2685.76
987.653	2673.56
987.951	2669.27
988.249	2670.85
988.547	2636.5
988.844	2664.52
989.142	2656.38
989.44	2613.9
989.737	2622.49
990.035	2599.21
990.332	2598.99
990.63	2579.1
990.927	2564.18
991.224	2555.14
991.521	2538.2
991.819	2514.69
992.116	2497.75
992.413	2531.19
992.71	2469.95
993.006	2485.77
993.303	2463.17
993.6	2436.73
993.897	2493.68
994.193	2458.2
994.49	2426.56
994.787	2388.14
995.083	2391.76
995.379	2399.67
995.676	2369.61
995.972	2373.68
996.268	2389.05
996.565	2338.2
996.861	2327.13
997.157	2327.13
997.453	2306.11
997.749	2291.87
998.044	2264.98
998.34	2284.87
998.636	2254.36
998.932	2223.4
999.227	2201.03
999.523	2258.2
999.818	2201.26
1000.114	2187.7
1000.409	2194.48
1000.704	2146.79
1001	2134.82
1001.295	2129.85
1001.59	2124.65
1001.885	2161.48
1002.18	2129.17
1002.475	2114.7
1002.77	2096.85
1003.065	2067.47
1003.359	2082.16
1003.654	2075.38
1003.949	2065.89
1004.243	2055.95
1004.538	2035.38
1004.832	2010.3
1005.127	2013.92
1005.421	2019.34
1005.715	1974.37
1006.009	1967.59
1006.304	1993.13
1006.598	1944.99
1006.892	1985.44
1007.186	1944.54
1007.48	1920.81
1007.773	1942.51
1008.067	1896.4
1008.361	1857.08
1008.655	1895.28
1008.948	1915.84
1009.242	1849.4
1009.535	1849.63
1009.829	1846.69
1010.122	1808.95
1010.415	1835.16
1010.708	1816.41
1011.001	1781.83
1011.295	1761.27
1011.588	1770.31
1011.881	1787.26
1012.173	1737.09
1012.466	1739.8
1012.759	1723.3
1013.052	1734.15
1013.344	1740.25
1013.637	1684.66
1013.93	1668.39
1014.222	1679.46
1014.514	1681.04
1014.807	1651.89
1015.099	1664.77
1015.391	1662.74
1015.683	1666.35
1015.976	1614.38
1016.268	1604.89
1016.56	1591.55
1016.851	1585.45
1017.143	1575.96
1017.435	1561.5
1017.727	1565.79
1018.018	1569.18
1018.31	1556.07
1018.602	1529.63
1018.893	1516.08
1019.185	1534.61
1019.476	1506.13
1019.767	1502.74
1020.058	1479.92
1020.35	1480.82
1020.641	1460.03
1020.932	1451.22
1021.223	1447.38
1021.514	1408.06
1021.804	1441.95
1022.095	1440.82
1022.386	1375.06
1022.677	1413.71
1022.967	1386.36
1023.258	1364.44
1023.548	1354.95
1023.839	1366.02
1024.129	1376.42
1024.419	1359.92
1024.709	1331.9
1025	1356.31
1025.29	1294.61
1025.58	1269.75
1025.87	1308.85
1026.16	1281.96
1026.449	1276.76
1026.739	1275.4
1027.029	1284.22
1027.319	1272.47
1027.608	1264.56
1027.898	1264.11
1028.187	1226.37
1028.477	1257.55
1028.766	1233.37
1029.055	1212.81
1029.344	1211.9
1029.634	1186.59
1029.923	1178.23
1030.212	1211.23
1030.501	1178.01
1030.79	1173.26
1031.078	1168.06
1031.367	1153.15
1031.656	1153.15
1031.945	1155.86
1032.233	1117.22
1032.522	1122.19
1032.81	1106.14
1033.099	1113.6
1033.387	1109.98
1033.675	1127.84
1033.963	1088.74
1034.251	1087.16
1034.54	1104.11
1034.828	1081.29
1035.116	1039.93
1035.403	1057.1
1035.691	1056.65
1035.979	1064.56
1036.267	1032.92
1036.554	1034.28
1036.842	1039.48
1037.129	1037.67
1037.417	1008.07
1037.704	989.76
1037.992	994.96
1038.279	981.17
1038.566	1004.9
1038.853	1004.9
1039.14	1004.9
