Data from hue_260_FLMS001491_00052.txt Node
Date: Tue Feb 07 15:59:11 GMT 2017
User: dcchb
Spectrometer: FLMS00149
Trigger mode: 0
Integration Time (sec): 2.000000E-2
Scans to average: 10
Electric dark correction enabled: true
Nonlinearity correction enabled: false
Boxcar width: 0
XAxis mode: Wavelengths
Number of Pixels in Spectrum: 2048
>>>>>Begin Spectral Data<<<<<
341.393	-8.59
341.776	-8.59
342.16	-8.59
342.543	-35.71
342.927	-66.44
343.31	-77.29
343.693	-78.19
344.077	-61.02
344.46	-57.17
344.843	-56.72
345.226	-35.93
345.61	-26.21
345.993	-19.66
346.376	-12.88
346.759	4.75
347.142	23.05
347.525	28.47
347.908	79.09
348.291	80.22
348.674	105.31
349.057	104.18
349.44	110.51
349.823	123.84
350.206	174.01
350.588	183.27
350.971	217.62
351.354	220.79
351.737	215.59
352.119	227.11
352.502	251.97
352.884	244.51
353.267	276.15
353.65	272.99
354.032	293.78
354.414	314.34
354.797	306.21
355.179	295.59
355.562	292.87
355.944	306.88
356.326	313.66
356.709	310.5
357.091	317.05
357.473	314.57
357.855	333.78
358.238	335.13
358.62	329.03
359.002	321.12
359.384	323.61
359.766	315.47
360.148	338.07
360.53	335.13
360.912	340.56
361.294	314.79
361.676	323.16
362.057	324.51
362.439	342.36
362.821	297.39
363.203	313.66
363.584	319.31
363.966	317.28
364.348	321.35
364.729	301.24
365.111	322.48
365.493	301.46
365.874	312.08
366.256	296.49
366.637	310.27
367.019	308.47
367.4	313.89
367.781	288.81
368.163	320.67
368.544	296.94
368.925	301.91
369.306	321.35
369.688	315.02
370.069	300.11
370.45	289.26
370.831	298.98
371.212	306.21
371.593	283.16
371.974	314.79
372.355	303.04
372.736	315.7
373.117	308.01
373.498	301.91
373.879	294.91
374.26	289.94
374.641	308.69
375.021	301.91
375.402	299.88
375.783	310.5
376.163	318.18
376.544	330.61
376.925	315.92
377.305	316.15
377.686	304.62
378.066	320.22
378.447	283.61
378.827	316.6
379.208	308.24
379.588	325.87
379.968	318.18
380.349	318.41
380.729	332.87
381.109	334.23
381.489	326.55
381.87	317.73
382.25	327.9
382.63	331.97
383.01	331.97
383.39	331.29
383.77	314.79
384.15	337.84
384.53	316.15
384.91	338.3
385.29	338.75
385.67	328.13
386.049	348.47
386.429	339.88
386.809	350.95
387.189	341.23
387.568	348.47
387.948	326.77
388.328	343.95
388.707	351.18
389.087	354.34
389.466	352.08
389.846	354.11
390.225	354.79
390.605	344.62
390.984	356.83
391.363	350.73
391.743	368.8
392.122	374
392.501	361.8
392.881	362.93
393.26	372.65
393.639	371.29
394.018	376.49
394.397	369.71
394.776	363.38
395.155	366.54
395.534	371.74
395.913	368.13
396.292	399.99
396.671	397.96
397.05	396.6
397.429	389.82
397.808	382.14
398.186	395.47
398.565	399.76
398.944	412.64
399.323	424.62
399.701	386.66
400.08	399.54
400.458	411.51
400.837	398.63
401.215	414.23
401.594	394.79
401.972	398.86
402.351	403.83
402.729	416.26
403.107	422.14
403.486	427.79
403.864	420.33
404.242	418.97
404.62	444.51
404.999	443.6
405.377	431.85
405.755	424.4
406.133	456.71
406.511	426.2
406.889	463.94
407.267	439.31
407.645	465.98
408.023	469.37
408.401	470.72
408.779	464.85
409.156	473.21
409.534	489.03
409.912	488.35
410.29	508.91
410.667	494.68
411.045	494
411.422	494.45
411.8	514.11
412.178	517.27
412.555	538.97
412.933	542.13
413.31	562.7
413.687	566.31
414.065	562.25
414.442	569.7
414.819	569.93
415.197	582.13
415.574	581.23
415.951	608.57
416.328	578.74
416.705	604.28
417.082	616.03
417.46	620.1
417.837	629.59
418.214	625.75
418.591	636.59
418.967	646.31
419.344	626.42
419.721	668.68
420.098	682.69
420.475	663.94
420.852	687.89
421.228	696.7
421.605	719.98
421.982	723.6
422.358	725.86
422.735	753.88
423.111	749.58
423.488	758.62
423.864	760.66
424.241	762.47
424.617	785.97
424.994	805.18
425.37	819.41
425.746	828
426.123	806.98
426.499	804.5
426.875	827.1
427.251	852.63
427.627	859.64
428.003	864.38
428.379	888.11
428.756	896.47
429.132	882.24
429.507	905.96
429.883	915.91
430.259	935.79
430.635	949.13
431.011	973.31
431.387	963.14
431.763	989.35
432.138	982.35
432.514	1011.05
432.89	1009.69
433.265	1059.86
433.641	1035.68
434.016	1054.21
434.392	1083.14
434.767	1113.87
435.143	1119.74
435.518	1158.61
435.894	1159.52
436.269	1172.85
436.644	1187.77
437.02	1203.13
437.395	1191.38
437.77	1224.37
438.145	1242.68
438.52	1277.71
438.895	1288.1
439.271	1296.46
439.646	1330.59
440.021	1347.99
440.395	1345.73
440.77	1349.34
441.145	1362.45
441.52	1367.65
441.895	1392.05
442.27	1416.91
442.645	1437.25
443.019	1452.39
443.394	1455.1
443.769	1440.64
444.143	1449.68
444.518	1478.38
444.892	1505.05
445.267	1485.16
445.641	1491.26
446.016	1514.31
446.39	1540.3
446.764	1556.34
447.139	1546.4
447.513	1563.57
447.887	1567.64
448.262	1568.77
448.636	1592.5
449.01	1629.79
449.384	1620.97
449.758	1640.63
450.132	1636.57
450.506	1657.36
450.88	1664.81
451.254	1665.94
451.628	1698.94
452.002	1702.1
452.376	1703.68
452.75	1754.98
453.123	1739.16
453.497	1790.24
453.871	1778.03
454.244	1771.7
454.618	1806.28
454.992	1851.93
455.365	1843.79
455.739	1897.35
456.112	1883.57
456.486	1882.44
456.859	1928.31
457.232	1951.59
457.606	1966.5
457.979	1982.77
458.352	2021.87
458.725	2041.08
459.099	2033.39
459.472	2113.62
459.845	2077.01
460.218	2122.88
460.591	2167.17
460.964	2125.82
461.337	2173.28
461.71	2208.76
462.083	2237.46
462.456	2255.08
462.829	2276.1
463.201	2294.63
463.574	2296.89
463.947	2343.44
464.32	2390.22
464.692	2396.77
465.065	2415.3
465.438	2464.12
465.81	2486.94
466.183	2492.14
466.555	2520.16
466.928	2529.43
467.3	2543.89
467.672	2590.44
468.045	2654.85
468.417	2642.87
468.789	2645.35
469.161	2678.57
469.534	2720.83
469.906	2763.54
470.278	2802.86
470.65	2858
471.022	2885.12
471.394	2939.58
471.766	2931
472.138	2966.48
472.51	3024.1
472.882	3049.19
473.253	3057.32
473.625	3097.77
473.997	3195.4
474.369	3208.73
474.74	3246.24
475.112	3276.98
475.484	3368.05
475.855	3380.7
476.227	3424.54
476.598	3495.28
476.97	3492.34
477.341	3522.17
477.713	3606.68
478.084	3616.18
478.455	3725.33
478.827	3736.85
479.198	3811.2
479.569	3824.98
479.94	3928.48
480.311	3898.88
480.682	4010.52
481.053	4064.07
481.424	4126.22
481.795	4152.43
482.166	4262.49
482.537	4251.41
482.908	4365.99
483.279	4379.09
483.65	4416.16
484.021	4479.88
484.391	4511.07
484.762	4599.2
485.133	4620.22
485.503	4677.17
485.874	4749.25
486.244	4838.52
486.615	4917.84
486.985	4929.36
487.356	4968.46
487.726	4962.13
488.097	5155.34
488.467	5148.11
488.837	5184.95
489.207	5256.13
489.578	5322.57
489.948	5349.24
490.318	5383.59
490.688	5429.69
491.058	5445.28
491.428	5511.49
491.798	5641.43
492.168	5697.25
492.538	5724.82
492.908	5773.18
493.278	5779.74
493.648	5814.99
494.017	5905.61
494.387	5944.48
494.757	5956.91
495.126	6023.8
495.496	6045.49
495.866	6087.75
496.235	6107.18
496.605	6165.26
496.974	6224.24
497.344	6221.53
497.713	6227.86
498.082	6276.45
498.452	6338.59
498.821	6318.7
499.19	6368.65
499.559	6430.34
499.928	6498.36
500.298	6495.65
500.667	6573.16
501.036	6448.19
501.405	6581.97
501.774	6536.78
502.143	6590.79
502.512	6561.64
502.88	6571.35
503.249	6668.3
503.618	6677.34
503.987	6666.94
504.356	6731.12
504.724	6773.38
505.093	6787.84
505.462	6824.45
505.83	6852.25
506.199	6845.47
506.567	6955.98
506.936	6951
507.304	7012.47
507.672	7021.96
508.041	7031.23
508.409	6989.42
508.777	7097.44
509.145	7071.23
509.514	7079.81
509.882	7101.28
510.25	7094.05
510.618	7174.27
510.986	7180.38
511.354	7172.69
511.722	7240.26
512.09	7282.52
512.458	7281.39
512.826	7264.44
513.193	7304.67
513.561	7342.63
513.929	7355.74
514.297	7412.69
514.664	7412.01
515.032	7426.25
515.4	7453.82
515.767	7473.02
516.135	7448.39
516.502	7430.09
516.869	7518.67
517.237	7570.87
517.604	7518.67
517.972	7569.97
518.339	7617.88
518.706	7589.63
519.073	7547.6
519.44	7581.04
519.808	7658.33
520.175	7666.47
520.542	7682.51
520.909	7700.14
521.276	7677.31
521.643	7692.91
522.009	7728.84
522.376	7774.03
522.743	7757.08
523.11	7856.74
523.477	7816.52
523.843	7915.95
524.21	7913.24
524.577	7918.89
524.943	7899.23
525.31	7993.24
525.676	7920.47
526.043	8081.14
526.409	8062.39
526.776	8097.19
527.142	8007.02
527.508	8070.75
527.874	8135.15
528.241	8097.64
528.607	8057.19
528.973	8120.01
529.339	8095.38
529.705	8187.13
530.071	8189.62
530.437	8178.54
530.803	8197.07
531.169	8225.09
531.535	8139.22
531.901	8165.21
532.267	8130.63
532.632	8251.99
532.998	8228.26
533.364	8229.61
533.73	8218.99
534.095	8333.34
534.461	8214.7
534.826	8294.7
535.192	8263.06
535.557	8347.8
535.923	8288.82
536.288	8238.88
536.653	8332.66
537.019	8240.24
537.384	8297.41
537.749	8280.46
538.114	8311.42
538.479	8288.37
538.845	8315.49
539.21	8180.12
539.575	8273.45
539.94	8262.83
540.305	8238.2
540.67	8223.51
541.034	8242.04
541.399	8220.57
541.764	8282.04
542.129	8213.12
542.494	8275.26
542.858	8284.53
543.223	8188.71
543.587	8261.03
543.952	8292.89
544.316	8239.78
544.681	8172.89
545.045	8271.87
545.41	8200.91
545.774	8303.51
546.138	8212.21
546.503	8178.99
546.867	8126.79
547.231	8238.88
547.595	8176.28
547.959	8211.76
548.324	8169.73
548.688	8198.2
549.052	8189.39
549.416	8191.2
549.779	8132.22
550.143	8170.41
550.507	8183.97
550.871	8211.31
551.235	8074.59
551.599	8210.86
551.962	8180.58
552.326	8140.58
552.689	8185.77
553.053	8134.48
553.417	8098.09
553.78	8189.39
554.143	8136.51
554.507	8159.79
554.87	8174.02
555.234	8192.55
555.597	8216.06
555.96	8192.1
556.323	8158.2
556.686	8140.35
557.05	8151.65
557.413	8167.47
557.776	8167.24
558.139	8221.48
558.502	8214.7
558.865	8234.13
559.228	8247.24
559.59	8308.93
559.953	8238.2
560.316	8368.37
560.679	8270.97
561.041	8343.96
561.404	8292.89
561.767	8395.94
562.129	8342.83
562.492	8367.24
562.854	8393.68
563.217	8372.44
563.579	8385.32
563.941	8427.12
564.304	8385.54
564.666	8447.24
565.028	8536.27
565.39	8374.92
565.753	8486.56
566.115	8592.32
566.477	8565.2
566.839	8640.9
567.201	8652.2
567.563	8638.42
567.925	8659.43
568.287	8656.27
568.648	8693.33
569.01	8671.64
569.372	8743.5
569.734	8686.33
570.095	8740.11
570.457	8809.71
570.819	8856.04
571.18	8787.11
571.542	8788.7
571.903	8824.4
572.265	8903.95
572.626	8941.01
572.987	8906.88
573.349	8960.22
573.71	9014.68
574.071	8998.41
574.432	9027.79
574.794	9079.54
575.155	9073.66
575.516	8992.53
575.877	9065.75
576.238	9076.15
576.599	9077.73
576.96	9156.6
577.32	9144.84
577.681	9169.93
578.042	9185.3
578.403	9177.16
578.763	9177.16
579.124	9262.81
579.485	9248.12
579.845	9349.13
580.206	9272.07
580.566	9301.22
580.927	9296.93
581.287	9385.97
581.648	9352.3
582.008	9445.18
582.368	9437.49
582.728	9475.91
583.089	9470.94
583.449	9471.16
583.809	9439.3
584.169	9479.52
584.529	9479.07
584.889	9621.22
585.249	9548.45
585.609	9495.57
585.969	9530.14
586.329	9524.27
586.688	9622.57
587.048	9587.09
587.408	9478.39
587.768	9563.14
588.127	9663.47
588.487	9600.65
588.846	9688.33
589.206	9588.22
589.565	9687.2
589.925	9684.04
590.284	9715.68
590.643	9733.98
591.003	9745.05
591.362	9750.25
591.721	9774.88
592.08	9782.12
592.44	9745.28
592.799	9859.18
593.158	9810.82
593.517	9812.17
593.876	9819.85
594.235	9830.25
594.593	9856.24
594.952	9872.96
595.311	9764.72
595.67	9918.84
596.029	9925.39
596.387	9877.25
596.746	9929
597.104	9823.47
597.463	9903.92
597.822	9955.44
598.18	9896.46
598.538	9978.49
598.897	9890.14
599.255	9891.27
599.613	10007.87
599.972	9967.42
600.33	9994.54
600.688	9984.37
601.046	9973.52
601.404	10090.36
601.762	10048.78
602.12	10145.95
602.478	10152.95
602.836	10104.59
603.194	9995.9
603.552	10052.62
603.91	10038.38
604.268	10094.42
604.625	10035.89
604.983	10126.29
605.341	10008.55
605.698	10079.28
606.056	10097.36
606.413	10070.47
606.771	10157.02
607.128	10162.9
607.485	10057.36
607.843	10158.6
608.2	10181.88
608.557	10217.36
608.914	10124.48
609.272	10206.06
609.629	10203.57
609.986	10293.06
610.343	10238.83
610.7	10315.66
611.057	10273.85
611.414	10243.12
611.771	10270.01
612.127	10349.78
612.484	10338.03
612.841	10387.52
613.198	10288.77
613.554	10294.19
613.911	10352.5
614.267	10274.31
614.624	10382.33
614.98	10341.65
615.337	10337.13
615.693	10397.01
616.05	10398.14
616.406	10393.63
616.762	10373.96
617.118	10381.65
617.475	10349.11
617.831	10465.94
618.187	10427.3
618.543	10437.01
618.899	10554.75
619.255	10466.62
619.611	10452.83
619.967	10528.76
620.323	10454.64
620.678	10451.02
621.034	10489.44
621.39	10434.75
621.746	10416
622.101	10534.19
622.457	10503.45
622.812	10464.13
623.168	10521.08
623.523	10511.81
623.879	10573.96
624.234	10438.37
624.589	10412.16
624.945	10546.16
625.3	10461.65
625.655	10511.81
626.01	10514.3
626.365	10485.6
626.72	10388.43
627.075	10468.2
627.43	10480.4
627.785	10399.73
628.14	10454.41
628.495	10489.44
628.85	10354.76
629.205	10425.26
629.559	10431.82
629.914	10414.87
630.269	10427.07
630.623	10336
630.978	10378.26
631.332	10397.92
631.687	10451.48
632.041	10365.6
632.396	10347.75
632.75	10310.69
633.104	10280.41
633.459	10307.53
633.813	10241.54
634.167	10278.37
634.521	10275.21
634.875	10262.56
635.229	10258.26
635.583	10276.57
635.937	10256.45
636.291	10246.28
636.645	10270.01
636.999	10195.89
637.352	10224.82
637.706	10204.7
638.06	10196.12
638.413	10083.12
638.767	10089
639.121	10135.33
639.474	10076.12
639.828	10093.07
640.181	10084.03
640.534	10127.64
640.888	10079.28
641.241	10087.64
641.594	10074.54
641.947	9995.67
642.301	10067.08
642.654	10024.6
643.007	10072.05
643.36	10012.62
643.713	9960.42
644.066	10011.04
644.419	9938.72
644.771	9888.33
645.124	9810.36
645.477	9835.22
645.83	9738.5
646.182	9724.04
646.535	9733.3
646.888	9797.71
647.24	9630.93
647.593	9700.31
647.945	9655.34
648.298	9586.87
648.65	9586.19
649.002	9565.62
649.355	9648.56
649.707	9584.15
650.059	9676.58
650.411	9789.57
650.763	9743.25
651.115	9913.86
651.467	9826.41
651.819	9903.24
652.171	9876.8
652.523	9801.78
652.875	9861.21
653.227	9796.58
653.578	9865.05
653.93	9832.28
654.282	9844.26
654.633	9844.49
654.985	9802
655.337	9818.72
655.688	9844.03
656.039	9849.68
656.391	9758.84
656.742	9785.51
657.094	9793.19
657.445	9823.47
657.796	9806.3
658.147	9773.98
658.498	9775.34
658.849	9802.45
659.2	9753.87
659.551	9665.06
659.902	9766.3
660.253	9828.89
660.604	9809.69
660.955	9735.79
661.306	9816.01
661.656	9785.73
662.007	9790.93
662.358	9766.07
662.708	9770.82
663.059	9790.03
663.409	9776.69
663.76	9799.97
664.11	9808.1
664.461	9847.88
664.811	9853.53
665.161	9763.13
665.511	9854.88
665.862	9828.89
666.212	9736.69
666.562	9820.31
666.912	9819.4
667.262	9769.91
667.612	9797.93
667.962	9821.44
668.312	9810.59
668.662	9863.24
669.011	9845.62
669.361	9761.78
669.711	9779.4
670.06	9756.13
670.41	9802.91
670.76	9845.39
671.109	9781.89
671.459	9753.42
671.808	9820.53
672.157	9707.32
672.507	9726.75
672.856	9660.76
673.205	9696.47
673.554	9715.45
673.904	9599.75
674.253	9749.35
674.602	9766.3
674.951	9536.92
675.3	9509.81
675.649	9733.98
675.998	9667.32
676.346	9655.34
676.695	9661.21
677.044	9637.49
677.393	9626.41
677.741	9642.91
678.09	9625.74
678.438	9576.02
678.787	9569.69
679.135	9526.98
679.484	9550.26
679.832	9585.06
680.181	9459.86
680.529	9546.42
680.877	9418.28
681.225	9457.15
681.573	9557.49
681.922	9496.02
682.27	9473.2
682.618	9449.92
682.966	9427.32
683.314	9487.66
683.661	9343.48
684.009	9353.2
684.357	9300.32
684.705	9333.77
685.053	9373.09
685.4	9303.26
685.748	9248.34
686.095	9250.38
686.443	9196.82
686.79	9215.12
687.138	9163.37
687.485	9186.43
687.832	9108.91
688.18	9174.45
688.527	9044.96
688.874	9107.33
689.221	9018.07
689.568	9001.57
689.915	8948.01
690.262	8955.47
690.609	8887.22
690.956	8918.41
691.303	8918.64
691.65	8948.24
691.997	8808.36
692.344	8823.72
692.69	8757.06
693.037	8822.37
693.383	8688.36
693.73	8704.4
694.077	8633.45
694.423	8647.91
694.769	8651.52
695.116	8567.23
695.462	8561.36
695.808	8480.68
696.155	8560.9
696.501	8509.61
696.847	8429.38
697.193	8373.34
697.539	8414.24
697.885	8322.49
698.231	8355.26
698.577	8287.69
698.923	8299.89
699.269	8328.59
699.614	8140.8
699.96	8124.31
700.306	8099.45
700.651	8160.92
700.997	8185.55
701.342	8126.79
701.688	8075.95
702.033	8061.71
702.379	8063.74
702.724	7984.87
703.069	8062.16
703.415	7921.83
703.76	7954.37
704.105	7934.71
704.45	7887.7
704.795	7886.57
705.14	7863.07
705.485	7811.32
705.83	7754.15
706.175	7814.71
706.52	7802.51
706.865	7717.09
707.209	7742.85
707.554	7679.35
707.899	7714.37
708.243	7686.13
708.588	7623.3
708.932	7519.8
709.277	7597.77
709.621	7613.13
709.966	7501.72
710.31	7524.77
710.654	7425.57
710.998	7410.2
711.342	7504.44
711.687	7394.38
712.031	7403.2
712.375	7356.42
712.719	7413.14
713.063	7343.76
713.407	7415.62
713.75	7365
714.094	7309.19
714.438	7277.32
714.782	7266.02
715.125	7282.52
715.469	7273.71
715.812	7215.18
716.156	7147.16
716.499	7212.01
716.843	7238.23
717.186	7181.28
717.53	7223.09
717.873	7229.64
718.216	7186.03
718.559	7136.99
718.902	7060.38
719.246	7108.74
719.589	7126.59
719.932	7067.38
720.275	7098.12
720.617	7063.77
720.96	7045.46
721.303	7059.25
721.646	7085.46
721.989	7008.86
722.331	7010.21
722.674	7097.44
723.016	7016.09
723.359	6991.45
723.701	7025.8
724.044	7008.18
724.386	6897.22
724.729	7005.92
725.071	6988.29
725.413	6950.1
725.755	6959.82
726.097	6970.21
726.439	6882.98
726.782	6981.74
727.124	6940.16
727.465	6911.46
727.807	6929.54
728.149	6892.7
728.491	6876.2
728.833	6875.07
729.175	6866.03
729.516	6883.21
729.858	6874.4
730.199	6892.02
730.541	6855.19
730.882	6887.95
731.224	6924.56
731.565	6861.74
731.906	6863.1
732.248	6904.45
732.589	6805.92
732.93	6828.07
733.271	6828.52
733.612	6827.62
733.953	6834.17
734.294	6840.95
734.635	6801.18
734.976	6842.98
735.317	6776.32
735.658	6857.45
735.999	6797.34
736.339	6785.36
736.68	6848.41
737.021	6840.95
737.361	6788.52
737.702	6811.57
738.042	6793.27
738.383	6814.51
738.723	6818.13
739.063	6803.44
739.404	6848.86
739.744	6874.4
740.084	6828.3
740.424	6874.85
740.764	6875.98
741.104	6949.2
741.444	6893.83
741.784	6814.74
742.124	6900.61
742.464	6865.36
742.804	6911.23
743.143	6991.45
743.483	6886.82
743.823	6936.09
744.162	6962.3
744.502	6928.63
744.841	7022.41
745.181	7043.43
745.52	7068.29
745.86	7060.61
746.199	7090.89
746.538	7144.22
746.877	7166.59
747.216	7189.42
747.556	7194.61
747.895	7206.14
748.234	7212.92
748.573	7285.23
748.911	7350.54
749.25	7441.61
749.589	7417.21
749.928	7473.93
750.267	7512.57
750.605	7587.37
750.944	7599.8
751.283	7606.81
751.621	7748.95
751.96	7799.57
752.298	7819.68
752.636	7933.35
752.975	7977.87
753.313	8008.83
753.651	8153.68
753.989	8201.59
754.327	8266.9
754.666	8287.92
755.004	8461.25
755.342	8506.44
755.679	8644.07
756.017	8675.93
756.355	8844.51
756.693	8909.37
757.031	9054
757.368	9133.09
757.706	9208.12
758.044	9310.94
758.381	9479.07
758.719	9589.8
759.056	9643.59
759.394	9775.34
759.731	9844.03
760.068	9978.72
760.405	10086.06
760.743	10187.3
761.08	10353.17
761.417	10470.46
761.754	10574.41
762.091	10726.27
762.428	10790.22
762.765	10922.88
763.102	11078.8
763.438	11242.87
763.775	11222.53
764.112	11406.48
764.449	11585.68
764.785	11654.38
765.122	11721.05
765.458	11842.4
765.795	11921.95
766.131	12107.7
766.467	12140.92
766.804	12308.83
767.14	12393.35
767.476	12500.91
767.812	12595.38
768.148	12729.61
768.485	12730.96
768.821	12893.67
769.157	13056.38
769.492	13004.86
769.828	13153.1
770.164	13135.25
770.5	13291.63
770.836	13340.21
771.171	13431.74
771.507	13442.13
771.842	13573.88
772.178	13539.08
772.513	13668.12
772.849	13739.53
773.184	13829.01
773.519	13854.1
773.855	13932.74
774.19	13904.04
774.525	13944.72
774.86	14019.97
775.195	14023.36
775.53	14190.14
775.865	14064.94
776.2	14123.7
776.535	14116.92
776.87	14195.56
777.205	14252.05
777.539	14226.52
777.874	14275.78
778.209	14189.68
778.543	14266.07
778.878	14196.46
779.212	14308.1
779.547	14267.2
779.881	14307.65
780.215	14360.75
780.55	14394.65
780.884	14301.54
781.218	14316.91
781.552	14345.61
781.886	14364.82
782.22	14233.98
782.554	14206.86
782.888	14159.85
783.222	14261.32
783.556	14230.81
783.889	14255.67
784.223	14155.33
784.557	14148.1
784.89	14266.29
785.224	14159.18
785.557	14125.5
785.891	14126.18
786.224	14108.1
786.558	14150.81
786.891	13987.88
787.224	13965.51
787.557	14085.05
787.891	14035.56
788.224	14051.61
788.557	14126.41
788.89	13994.66
789.223	13984.94
789.556	13990.59
789.888	13877.38
790.221	13948.11
790.554	13910.14
790.887	13854.78
791.219	13821.78
791.552	13915.57
791.884	13805.96
792.217	13779.52
792.549	13735.68
792.882	13778.85
793.214	13598.06
793.546	13711.5
793.879	13592.64
794.211	13563.71
794.543	13586.99
794.875	13549.02
795.207	13567.1
795.539	13530.94
795.871	13599.64
796.203	13442.36
796.535	13358.74
796.867	13358.29
797.198	13370.04
797.53	13304.06
797.862	13236.04
798.193	13385.18
798.525	13187.9
798.856	13234.68
799.188	13106.77
799.519	13074.46
799.85	13026.78
800.182	13044.85
800.513	12989.04
800.844	12929.83
801.175	12996.49
801.506	12985.2
801.837	12975.93
802.168	12870.62
802.499	12879.66
802.83	12855.93
803.161	12754.24
803.491	12791.75
803.822	12851.87
804.153	12655.71
804.483	12676.5
804.814	12639.44
805.145	12536.62
805.475	12560.12
805.805	12559.44
806.136	12549.95
806.466	12578.88
806.796	12504.3
807.126	12363.29
807.457	12353.35
807.787	12430.63
808.117	12381.14
808.447	12273.8
808.777	12357.19
809.107	12289.17
809.436	12204.88
809.766	12236.51
810.096	12184.99
810.426	12205.78
810.755	12208.94
811.085	12125.1
811.414	12127.36
811.744	12022.96
812.073	12004.43
812.403	12016.41
812.732	12005.56
813.061	12035.62
813.39	11910.65
813.719	11828.84
814.049	11941.61
814.378	11823.19
814.707	11847.15
815.036	11858.45
815.365	11832.91
815.693	11665.46
816.022	11759.24
816.351	11666.59
816.68	11654.83
817.008	11782.97
817.337	11561.28
817.665	11579.58
817.994	11633.37
818.322	11620.03
818.651	11493.94
818.979	11520.15
819.307	11566.02
819.636	11448.29
819.964	11457.33
820.292	11476.53
820.62	11484.67
820.948	11396.54
821.276	11439.93
821.604	11364.67
821.932	11422.07
822.259	11346.82
822.587	11361.06
822.915	11451.68
823.243	11445.12
823.57	11405.58
823.898	11490.32
824.225	11380.94
824.553	11403.77
824.88	11465.91
825.207	11418.23
825.535	11414.16
825.862	11447.38
826.189	11387.72
826.516	11468.17
826.843	11471.11
827.17	11482.41
827.497	11430.43
827.824	11467.72
828.151	11539.58
828.478	11509.08
828.805	11508.4
829.131	11398.57
829.458	11382.07
829.785	11385.69
830.111	11388.18
830.438	11496.19
830.764	11439.25
831.09	11418
831.417	11396.54
831.743	11429.53
832.069	11477.89
832.395	11403.99
832.722	11329.19
833.048	11404.67
833.374	11346.59
833.7	11400.38
834.026	11366.93
834.351	11363.77
834.677	11387.27
835.003	11385.46
835.329	11353.37
835.654	11351.34
835.98	11289.42
836.306	11236.99
836.631	11240.16
836.956	11240.38
837.282	11317.44
837.607	11224.56
837.932	11197.9
838.258	11269.99
838.583	11241.74
838.908	11120.61
839.233	11149.54
839.558	11110.67
839.883	11041.74
840.208	11113.61
840.533	11044.91
840.858	11048.3
841.182	11072.25
841.507	11060.27
841.832	10943.67
842.156	10950.45
842.481	10865.48
842.805	10921.29
843.13	10894.18
843.454	10911.35
843.778	10879.04
844.103	10819.6
844.427	10788.19
844.751	10760.85
845.075	10701.87
845.399	10708.64
845.723	10697.8
846.047	10671.58
846.371	10597.69
846.695	10632.71
847.019	10539.38
847.343	10500.51
847.666	10434.98
847.99	10387.98
848.313	10366.28
848.637	10315.43
848.96	10264.14
849.284	10328.32
849.607	10189.34
849.931	10181.43
850.254	10066.18
850.577	10049.91
850.9	9965.39
851.223	10003.13
851.546	9885.39
851.869	9883.13
852.192	9964.94
852.515	9868.44
852.838	9801.78
853.161	9827.76
853.483	9804.49
853.806	9713.42
854.129	9667.54
854.451	9619.86
854.774	9609.69
855.096	9584.61
855.419	9541.67
855.741	9569.47
856.063	9466.19
856.385	9466.19
856.708	9485.17
857.03	9388.91
857.352	9369.02
857.674	9357.95
857.996	9400.66
858.318	9306.87
858.64	9280.43
858.961	9301.22
859.283	9226.42
859.605	9197.05
859.926	9117.73
860.248	9262.13
860.57	9143.71
860.891	9167.22
861.212	9065.52
861.534	9056.49
861.855	9065.98
862.176	9018.52
862.498	9023.27
862.819	9020.55
863.14	9016.49
863.461	9019.2
863.782	8974.23
864.103	8963.61
864.424	8962.7
864.745	8989.59
865.065	8827.11
865.386	8839.09
865.707	8842.71
866.027	8853.78
866.348	8875.92
866.668	8794.8
866.989	8836.15
867.309	8720.45
867.63	8783.27
867.95	8785.31
868.27	8729.94
868.59	8695.14
868.91	8721.35
869.23	8663.05
869.55	8641.58
869.87	8707.57
870.19	8629.83
870.51	8631.41
870.83	8643.84
871.15	8542.83
871.469	8594.8
871.789	8611.52
872.109	8554.58
872.428	8540.79
872.748	8612.43
873.067	8526.56
873.386	8565.65
873.706	8555.48
874.025	8511.19
874.344	8484.07
874.663	8468.93
874.982	8516.84
875.301	8498.53
875.62	8431.64
875.939	8440
876.258	8383.28
876.577	8403.85
876.896	8381.25
877.214	8324.75
877.533	8402.49
877.852	8362.04
878.17	8364.07
878.489	8326.33
878.807	8309.84
879.125	8296.05
879.444	8326.56
879.762	8243.63
880.08	8189.39
880.398	8230.07
880.716	8237.3
881.034	8192.55
881.352	8167.02
881.67	8136.28
881.988	8135.83
882.306	8156.4
882.624	8100.13
882.941	8082.73
883.259	8076.85
883.577	8052.22
883.894	7991.88
884.212	7989.85
884.529	7983.29
884.846	7983.07
885.164	7873.01
885.481	7958.21
885.798	7957.3
886.115	7892.67
886.432	7912.56
886.75	7828.95
887.067	7836.4
887.383	7854.26
887.7	7899.68
888.017	7748.27
888.334	7789.17
888.651	7766.58
888.967	7762.51
889.284	7709.63
889.6	7685.45
889.917	7623.75
890.233	7681.83
890.55	7609.97
890.866	7637.09
891.182	7575.39
891.498	7551.44
891.815	7552.34
892.131	7492.23
892.447	7487.26
892.763	7455.4
893.079	7458.79
893.395	7410.65
893.71	7400.71
894.026	7402.29
894.342	7366.81
894.657	7266.25
894.973	7307.6
895.289	7297.66
895.604	7273.93
895.92	7192.58
896.235	7154.84
896.55	7219.7
896.865	7133.6
897.181	7152.35
897.496	7138.57
897.811	7117.1
898.126	7076.42
898.441	7037.56
898.756	7042.07
899.071	6971.79
899.386	6996.2
899.7	6945.35
900.015	6928.41
900.33	6875.75
900.644	6805.02
900.959	6815.41
901.273	6788.3
901.588	6771.8
901.902	6788.97
902.216	6735.42
902.531	6719.15
902.845	6738.35
903.159	6651.8
903.473	6651.8
903.787	6610.45
904.101	6553.95
904.415	6563.9
904.729	6558.02
905.042	6477.8
905.356	6442.32
905.67	6498.59
905.984	6450.9
906.297	6372.71
906.611	6455.65
906.924	6369.78
907.237	6335.2
907.551	6360.96
907.864	6296.11
908.177	6298.14
908.491	6313.05
908.804	6244.81
909.117	6243.68
909.43	6183.79
909.743	6152.83
910.056	6130.23
910.368	6127.97
910.681	6128.43
910.994	6080.29
911.307	6037.36
911.619	6005.49
911.932	6023.34
912.244	5972.05
912.557	5899.51
912.869	5931.14
913.181	5853.63
913.494	5881.2
913.806	5826.29
914.118	5842.33
914.43	5749.91
914.742	5773.18
915.054	5786.29
915.366	5741.54
915.678	5759.85
915.99	5691.15
916.302	5651.15
916.613	5631.49
916.925	5640.76
917.236	5609.34
917.548	5553.98
917.859	5625.16
918.171	5522.11
918.482	5491.16
918.794	5503.81
919.105	5410.93
919.416	5433.53
919.727	5431.04
920.038	5425.17
920.349	5372.06
920.66	5324.38
920.971	5352.85
921.282	5320.99
921.593	5284.38
921.903	5293.65
922.214	5273.99
922.525	5263.14
922.835	5263.59
923.146	5194.21
923.456	5187.43
923.767	5195.34
924.077	5209.35
924.387	5105.4
924.697	5094.56
925.008	5079.87
925.318	5120.54
925.628	5067.44
925.938	5033.77
926.248	4982.02
926.558	4961.45
926.867	4973.43
927.177	4975.01
927.487	4917.61
927.796	4895.01
928.106	4844.84
928.416	4839.65
928.725	4837.61
929.034	4827.22
929.344	4772.98
929.653	4765.52
929.962	4743.83
930.271	4755.13
930.581	4710.16
930.89	4708.12
931.199	4643.04
931.508	4615.7
931.817	4668.8
932.125	4638.07
932.434	4556.49
932.743	4542.03
933.051	4516.04
933.36	4591.97
933.669	4499.77
933.977	4454.12
934.286	4444.4
934.594	4445.08
934.902	4481.92
935.21	4428.81
935.519	4384.29
935.827	4415.93
936.135	4367.34
936.443	4370.05
936.751	4352.43
937.059	4312.2
937.367	4302.26
937.674	4277.18
937.982	4306.55
938.29	4241.47
938.597	4265.88
938.905	4237.4
939.213	4194.01
939.52	4190.62
939.827	4199.89
940.135	4166.67
940.442	4130.96
940.749	4095.49
941.056	4108.82
941.363	4053
941.67	4067.69
941.977	4084.86
942.284	4022.95
942.591	4001.02
942.898	3986.11
943.205	4011.19
943.511	3918.09
943.818	3934.13
944.125	3936.39
944.431	3906.79
944.738	3921.25
945.044	3878.77
945.35	3861.37
945.657	3846
945.963	3807.13
946.269	3807.36
946.575	3805.78
946.881	3771.65
947.187	3751.54
947.493	3745.21
947.799	3746.12
948.105	3719.68
948.41	3659.56
948.716	3713.12
949.022	3679
949.327	3650.98
949.633	3637.42
949.938	3606.01
950.244	3576.4
950.549	3564.43
950.854	3600.81
951.16	3586.12
951.465	3551.09
951.77	3525.78
952.075	3529.85
952.38	3511.32
952.685	3467.93
952.99	3457.54
953.294	3474.03
953.599	3465.67
953.904	3432.23
954.209	3382.74
954.513	3438.55
954.818	3358.56
955.122	3382.51
955.426	3347.93
955.731	3403.07
956.035	3338.44
956.339	3364.88
956.643	3300.7
956.948	3300.03
957.252	3303.87
957.556	3269.97
957.86	3249.18
958.163	3235.62
958.467	3248.95
958.771	3220.25
959.075	3175.28
959.378	3193.36
959.682	3160.37
959.985	3151.1
960.289	3161.72
960.592	3151.33
960.896	3134.61
961.199	3135.51
961.502	3112.91
961.805	3076.08
962.108	3076.98
962.411	3090.99
962.714	3059.35
963.017	3029.07
963.32	3030.88
963.623	3034.72
963.926	3019.81
964.228	2971.45
964.531	2956.76
964.833	2958.79
965.136	2913.37
965.438	2966.93
965.741	2925.12
966.043	2882.41
966.345	2891.68
966.648	2902.97
966.95	2862.07
967.252	2864.78
967.554	2851
967.856	2853.48
968.158	2801.06
968.46	2829.3
968.761	2778.23
969.063	2808.51
969.365	2759.93
969.666	2756.31
969.968	2739.14
970.269	2744.79
970.571	2736.65
970.872	2704.56
971.174	2697.33
971.475	2637.9
971.776	2717.67
972.077	2651.68
972.378	2659.82
972.679	2651.68
972.98	2637.22
973.281	2655.52
973.582	2627.05
973.883	2577.56
974.183	2606.26
974.484	2559.71
974.785	2587.28
975.085	2585.47
975.386	2568.07
975.686	2522.87
975.986	2529.2
976.287	2528.75
976.587	2469.54
976.887	2481.29
977.187	2492.59
977.487	2470.9
977.787	2453.49
978.087	2478.13
978.387	2429.09
978.687	2424.57
978.987	2394.06
979.286	2376.21
979.586	2413.72
979.885	2404.46
980.185	2349.32
980.484	2368.53
980.784	2338.24
981.083	2363.55
981.382	2331.69
981.682	2317.45
981.981	2310.45
982.28	2324.01
982.579	2282.88
982.878	2309.77
983.177	2278.13
983.475	2282.65
983.774	2270
984.073	2250.11
984.372	2190.22
984.67	2268.19
984.969	2245.36
985.267	2217.12
985.566	2207.17
985.864	2191.81
986.162	2180.96
986.461	2200.39
986.759	2154.07
987.057	2155.65
987.355	2125.59
987.653	2117.01
987.951	2161.75
988.249	2133.05
988.547	2126.95
988.844	2080.17
989.142	2078.59
989.44	2044.69
989.737	2043.34
990.035	2034.3
990.332	2045.82
990.63	2039.04
990.927	2027.97
991.224	2029.55
991.521	2020.29
991.819	2038.82
992.116	1992.04
992.413	1967.86
992.71	1960.4
993.006	1958.14
993.303	1958.82
993.6	1959.04
993.897	1955.2
994.193	1913.85
994.49	1905.94
994.787	1890.57
995.083	1901.64
995.379	1893.74
995.676	1903.23
995.972	1879.05
996.268	1881.53
996.565	1850.57
996.861	1863.45
997.157	1829.1
997.453	1823.45
997.749	1851.02
998.044	1808.31
998.34	1813.96
998.636	1796.34
998.932	1809.44
999.227	1791.14
999.523	1776
999.818	1771.93
1000.114	1775.55
1000.409	1769.45
1000.704	1740.07
1001	1704.36
1001.295	1736.23
1001.59	1707.3
1001.885	1695.1
1002.18	1685.61
1002.475	1677.92
1002.77	1661.2
1003.065	1657.81
1003.359	1662.33
1003.654	1627.3
1003.949	1644.93
1004.243	1637.02
1004.538	1607.87
1004.832	1632.73
1005.127	1628.66
1005.421	1621.65
1005.715	1604.93
1006.009	1563.57
1006.304	1571.26
1006.598	1561.54
1006.892	1538.49
1007.186	1537.59
1007.48	1535.78
1007.773	1492.39
1008.067	1517.7
1008.361	1533.52
1008.655	1489
1008.948	1480.87
1009.242	1463.24
1009.535	1496.46
1009.829	1458.04
1010.122	1485.38
1010.415	1444.03
1010.708	1436.12
1011.001	1456.01
1011.295	1444.71
1011.588	1393.41
1011.881	1408.32
1012.173	1429.11
1012.466	1436.57
1012.759	1410.58
1013.052	1374.2
1013.344	1390.7
1013.637	1352.28
1013.93	1371.04
1014.222	1343.92
1014.514	1366.52
1014.807	1356.12
1015.099	1338.27
1015.391	1323.81
1015.683	1311.6
1015.976	1322.45
1016.268	1300.3
1016.56	1274.77
1016.851	1297.37
1017.143	1267.76
1017.435	1285.16
1017.727	1256.01
1018.018	1270.02
1018.31	1258.27
1018.602	1232.51
1018.893	1258.72
1019.185	1224.6
1019.476	1226.63
1019.767	1230.7
1020.058	1215.56
1020.35	1179.4
1020.641	1167.88
1020.932	1179.18
1021.223	1172.62
1021.514	1175.11
1021.804	1152.96
1022.095	1139.86
1022.386	1145.05
1022.677	1126.52
1022.967	1141.66
1023.258	1107.77
1023.548	1152.74
1023.839	1123.81
1024.129	1100.99
1024.419	1110.25
1024.709	1100.08
1025	1091.72
1025.29	1052.4
1025.58	1063.93
1025.87	1040.2
1026.16	1049.24
1026.449	1057.83
1026.739	1026.41
1027.029	1036.13
1027.319	1016.47
1027.608	1032.97
1027.898	1022.12
1028.187	988.22
1028.477	988
1028.766	1023.7
1029.055	997.94
1029.344	997.26
1029.634	1006.53
1029.923	979.64
1030.212	953.2
1030.501	974.66
1030.79	939.86
1031.078	946.42
1031.367	940.09
1031.656	947.55
1031.945	966.98
1032.233	956.13
1032.522	936.7
1032.81	940.54
1033.099	915.68
1033.387	911.84
1033.675	930.15
1033.963	900.77
1034.251	907.77
1034.54	912.52
1034.828	884.04
1035.116	872.75
1035.403	878.62
1035.691	870.94
1035.979	858.96
1036.267	846.53
1036.554	851.05
1036.842	862.8
1037.129	828.68
1037.417	826.87
1037.704	820.32
1037.992	825.97
1038.279	813.54
1038.566	818.06
1038.853	818.06
1039.14	818.06
