Data from hue_330_FLMS001491_37.txt Node
Date: Mon Feb 06 15:45:19 GMT 2017
User: dcchb
Spectrometer: FLMS00149
Trigger mode: 0
Integration Time (sec): 2.000000E-2
Scans to average: 10
Electric dark correction enabled: true
Nonlinearity correction enabled: false
Boxcar width: 0
XAxis mode: Wavelengths
Number of Pixels in Spectrum: 2048
>>>>>Begin Spectral Data<<<<<
341.393	-14.39
341.776	-14.39
342.16	-14.39
342.543	-46.71
342.927	-58.23
343.31	-91.9
343.693	-72.24
344.077	-58.46
344.46	-54.84
344.843	-48.52
345.226	-55.3
345.61	-30.44
345.993	-13.94
346.376	6.4
346.759	7.53
347.142	38.71
347.525	35.1
347.908	65.15
348.291	84.81
348.674	95.66
349.057	92.27
349.44	133.4
349.823	115.55
350.206	164.13
350.588	188.54
350.971	208.2
351.354	221.53
351.737	233.28
352.119	267.86
352.502	264.24
352.884	285.26
353.267	271.93
353.65	306.5
354.032	330.46
354.414	299.95
354.797	334.75
355.179	314.19
355.562	330.23
355.944	323.9
356.326	331.14
356.709	311.47
357.091	346.28
357.473	339.04
357.855	329.78
358.238	342.66
358.62	345.37
359.002	327.75
359.384	329.55
359.766	344.47
360.148	320.97
360.53	343.56
360.912	353.73
361.294	344.02
361.676	325.03
362.057	334.75
362.439	334.98
362.821	324.13
363.203	314.41
363.584	327.29
363.966	301.53
364.348	310.57
364.729	332.04
365.111	320.29
365.493	311.25
365.874	308.54
366.256	322.1
366.637	337.24
367.019	345.82
367.4	309.89
367.781	296.11
368.163	324.58
368.544	306.96
368.925	321.87
369.306	309.44
369.688	316.9
370.069	309.22
370.45	314.64
370.831	315.54
371.212	323.68
371.593	315.99
371.974	318.71
372.355	325.94
372.736	305.83
373.117	313.96
373.498	332.04
373.879	314.86
374.26	325.03
374.641	323.68
375.021	296.33
375.402	311.7
375.783	308.31
376.163	344.92
376.544	315.99
376.925	330.68
377.305	320.97
377.686	318.93
378.066	334.07
378.447	324.13
378.827	329.33
379.208	341.76
379.588	337.69
379.968	338.59
380.349	344.47
380.729	328.2
381.109	337.01
381.489	340.17
381.87	322.55
382.25	315.09
382.63	342.43
383.01	321.19
383.39	339.5
383.77	341.08
384.15	337.24
384.53	336.11
384.91	329.78
385.29	353.73
385.67	361.19
386.049	355.09
386.429	347.86
386.809	349.44
387.189	345.37
387.568	352.6
387.948	341.3
388.328	338.37
388.707	373.85
389.087	357.12
389.466	344.24
389.846	368.2
390.225	346.95
390.605	344.69
390.984	370.68
391.363	366.16
391.743	359.84
392.122	346.28
392.501	388.99
392.881	390.34
393.26	356.67
393.639	386.73
394.018	377.69
394.397	366.61
394.776	386.05
395.155	393.28
395.534	354.19
395.913	381.76
396.292	367.07
396.671	393.96
397.05	380.17
397.429	404.58
397.808	378.82
398.186	372.26
398.565	361.87
398.944	371.13
399.323	376.78
399.701	378.59
400.08	393.51
400.458	394.18
400.837	407.07
401.215	389.44
401.594	407.29
401.972	389.66
402.351	396.9
402.729	416.33
403.107	406.61
403.486	398.93
403.864	409.33
404.242	383.11
404.62	400.51
404.999	413.62
405.377	424.24
405.755	431.7
406.133	407.07
406.511	417.01
406.889	433.28
407.267	414.97
407.645	433.96
408.023	441.64
408.401	452.26
408.779	461.75
409.156	440.74
409.534	447.97
409.912	451.13
410.29	459.49
410.667	479.83
411.045	482.77
411.422	479.38
411.8	470.34
412.178	468.53
412.555	475.54
412.933	494.29
413.31	505.14
413.687	511.7
414.065	501.75
414.442	499.27
414.819	518.02
415.197	519.15
415.574	520.51
415.951	553.5
416.328	520.51
416.705	553.95
417.082	559.38
417.46	562.32
417.837	558.93
418.214	561.19
418.591	553.05
418.967	568.42
419.344	583.56
419.721	599.83
420.098	583.11
420.475	600.05
420.852	609.09
421.228	608.87
421.605	629.21
421.982	611.13
422.358	607.74
422.735	613.39
423.111	629.66
423.488	657.45
423.864	621.98
424.241	645.7
424.617	674.86
424.994	677.11
425.37	664.46
425.746	669.21
426.123	645.93
426.499	676.21
426.875	706.72
427.251	718.24
427.627	709.88
428.003	738.36
428.379	710.79
428.756	707.17
429.132	741.97
429.507	730.9
429.883	723.44
430.259	750.11
430.635	774.06
431.011	772.93
431.387	816.77
431.763	776.1
432.138	794.17
432.514	820.16
432.89	799.37
433.265	824.91
433.641	826.49
434.016	845.92
434.392	835.3
434.767	866.94
435.143	843.44
435.518	872.82
435.894	893.38
436.269	899.03
436.644	897.9
437.02	885.02
437.395	909.43
437.77	908.75
438.145	911.69
438.52	918.46
438.895	942.64
439.271	940.38
439.646	977.9
440.021	958.92
440.395	950.1
440.77	955.3
441.145	968.41
441.52	993.49
441.895	996.2
442.27	1018.8
442.645	976.32
443.019	992.81
443.394	995.98
443.769	985.36
444.143	996.43
444.518	1013.38
444.892	996.88
445.267	1014.96
445.641	1040.95
446.016	1010.67
446.39	1026.48
446.764	1065.81
447.139	1040.95
447.513	1041.17
447.887	1065.58
448.262	1055.86
448.636	1042.98
449.01	1073.04
449.384	1081.62
449.758	1072.58
450.132	1059.25
450.506	1072.36
450.88	1077.56
451.254	1080.49
451.628	1088.63
452.002	1134.96
452.376	1111.91
452.75	1121.62
453.123	1119.36
453.497	1140.38
453.871	1120.95
454.244	1166.82
454.618	1135.18
454.992	1153.94
455.365	1181.06
455.739	1199.81
456.112	1171.79
456.486	1207.27
456.859	1208.63
457.232	1199.81
457.606	1213.15
457.979	1219.7
458.352	1237.33
458.725	1225.12
459.099	1260.6
459.472	1284.1
459.845	1267.38
460.218	1299.02
460.591	1296.99
460.964	1313.93
461.337	1311
461.71	1322.97
462.083	1334.95
462.456	1348.74
462.829	1329.08
463.201	1375.4
463.574	1360.26
463.947	1383.99
464.32	1407.72
464.692	1429.19
465.065	1391.9
465.438	1403.42
465.81	1433.25
466.183	1455.17
466.555	1455.85
466.928	1465.12
467.3	1482.29
467.672	1497.21
468.045	1510.31
468.417	1511.9
468.789	1527.04
469.161	1545.79
469.534	1551.89
469.906	1587.15
470.278	1605.23
470.65	1604.32
471.022	1614.27
471.394	1655.85
471.766	1665.34
472.138	1675.73
472.51	1673.47
472.882	1703.3
473.253	1735.39
473.625	1733.58
473.997	1761.38
474.369	1781.27
474.74	1776.75
475.112	1816.29
475.484	1842.73
475.855	1865.11
476.227	1901.49
476.598	1921.15
476.97	1959.34
477.341	1948.27
477.713	1987.59
478.084	1977.87
478.455	2052.67
478.827	2031.2
479.198	2113.01
479.569	2121.14
479.94	2124.31
480.311	2169.96
480.682	2193.46
481.053	2258.99
481.424	2234.59
481.795	2240.46
482.166	2301.25
482.537	2322.5
482.908	2366.34
483.279	2377.18
483.65	2390.97
484.021	2421.02
484.391	2464.41
484.762	2468.93
485.133	2483.85
485.503	2510.51
485.874	2568.14
486.244	2556.39
486.615	2599.32
486.985	2630.28
487.356	2672.09
487.726	2665.54
488.097	2733.56
488.467	2729.04
488.837	2810.84
489.207	2830.28
489.578	2846.55
489.948	2847.45
490.318	2887.9
490.688	2904.63
491.058	2955.25
491.428	2958.64
491.798	3016.26
492.168	3035.47
492.538	3045.41
492.908	3086.77
493.278	3110.5
493.648	3114.56
494.017	3155.92
494.387	3139.2
494.757	3211.06
495.126	3230.95
495.496	3221.68
495.866	3235.47
496.235	3260.78
496.605	3288.57
496.974	3299.19
497.344	3331.06
497.713	3311.62
498.082	3351.39
498.452	3418.96
498.821	3373.77
499.19	3442.47
499.559	3374.22
499.928	3440.88
500.298	3461
500.667	3496.02
501.036	3468
501.405	3497.38
501.774	3542.12
502.143	3519.98
502.512	3546.87
502.88	3581.22
503.249	3554.78
503.618	3602.46
503.987	3612.18
504.356	3592.29
504.724	3615.34
505.093	3616.25
505.462	3653.08
505.83	3685.85
506.199	3680.2
506.567	3703.7
506.936	3698.28
507.304	3766.07
507.672	3774.43
508.041	3764.72
508.409	3785.28
508.777	3731.27
509.145	3823.25
509.514	3778.73
509.882	3809.69
510.25	3808.78
510.618	3841.1
510.986	3849.69
511.354	3858.5
511.722	3900.08
512.09	3896.24
512.458	3849.01
512.826	3906.63
513.193	3891.49
513.561	3933.75
513.929	4005.39
514.297	4013.75
514.664	4005.39
515.032	4001.55
515.4	3995.45
515.767	4018.72
516.135	4049.23
516.502	4007.42
516.869	4096.91
517.237	4017.37
517.604	4030.93
517.972	4093.75
518.339	4083.58
518.706	4065.95
519.073	4053.07
519.44	4086.29
519.808	4133.07
520.175	4125.16
520.542	4143.24
520.909	4168.77
521.276	4156.12
521.643	4210.81
522.009	4232.5
522.376	4216.68
522.743	4252.84
523.11	4251.94
523.477	4306.62
523.843	4300.75
524.21	4344.59
524.577	4343.69
524.943	4335.78
525.31	4327.41
525.676	4414.87
526.043	4402.67
526.409	4406.96
526.776	4417.81
527.142	4407.19
527.508	4496.22
527.874	4547.52
528.241	4547.52
528.607	4514.75
528.973	4580.29
529.339	4587.29
529.705	4579.16
530.071	4624.13
530.437	4655.32
530.803	4660.74
531.169	4691.92
531.535	4680.17
531.901	4701.42
532.267	4743.9
532.632	4776.89
532.998	4778.02
533.364	4776.44
533.73	4805.59
534.095	4878.13
534.461	4849.21
534.826	4863.45
535.192	4897.12
535.557	4978.7
535.923	4956.32
536.288	4947.51
536.653	4970.34
537.019	4939.38
537.384	5012.82
537.749	5046.04
538.114	5044.01
538.479	5048.3
538.845	5069.54
539.21	5076.55
539.575	5129.88
539.94	5150.67
540.305	5135.75
540.67	5163.32
541.034	5179.37
541.399	5219.82
541.764	5246.71
542.129	5224.11
542.494	5301.17
542.858	5299.82
543.223	5274.06
543.587	5258.01
543.952	5368.74
544.316	5361.96
544.681	5380.49
545.045	5445.58
545.41	5443.77
545.774	5494.39
546.138	5470.44
546.503	5503.43
546.867	5495.97
547.231	5531.68
547.595	5535.07
547.959	5606.48
548.324	5618.45
548.688	5599.47
549.052	5638.11
549.416	5644.22
549.779	5659.81
550.143	5661.84
550.507	5754.95
550.871	5704.55
551.235	5672.46
551.599	5791.78
551.962	5805.34
552.326	5786.36
552.689	5805.57
553.053	5806.02
553.417	5866.58
553.78	5879.24
554.143	5900.48
554.507	5908.62
554.87	5901.16
555.234	5947.26
555.597	5937.99
555.96	5993.81
556.323	5987.26
556.686	5996.98
557.05	6037.43
557.413	6046.01
557.776	6061.61
558.139	6110.42
558.502	6094.37
558.865	6085.33
559.228	6100.48
559.59	6164.65
559.953	6154.49
560.316	6177.08
560.679	6194.94
561.041	6293.92
561.404	6274.48
561.767	6217.76
562.129	6248.49
562.492	6298.21
562.854	6304.76
563.217	6301.6
563.579	6311.32
563.941	6362.84
564.304	6394.7
564.666	6395.16
565.028	6390.64
565.39	6454.59
565.753	6468.6
566.115	6461.14
566.477	6507.92
566.839	6496.85
567.201	6592.44
567.563	6545.21
567.925	6638.09
568.287	6640.57
568.648	6701.36
569.01	6700.23
569.372	6735.03
569.734	6695.26
570.095	6787.46
570.457	6790.63
570.819	6841.25
571.18	6776.62
571.542	6912.43
571.903	6886.9
572.265	6932.77
572.626	6975.93
572.987	6963.28
573.349	7086.66
573.71	7091.64
574.071	7104.52
574.432	7190.84
574.794	7289.6
575.155	7280.11
575.516	7297.73
575.877	7393.55
576.238	7456.37
576.599	7545.41
576.96	7572.53
577.32	7593.09
577.681	7731.17
578.042	7769.81
578.403	7917.15
578.763	7934.78
579.124	7965.51
579.485	8104.49
579.845	8306.29
580.206	8335.9
580.566	8418.61
580.927	8541.31
581.287	8724.59
581.648	8856.79
582.008	8956.45
582.368	9045.93
582.728	9229.21
583.089	9329.32
583.449	9504.23
583.809	9664
584.169	9787.38
584.529	9986.25
584.889	10164.32
585.249	10343.98
585.609	10509.62
585.969	10772.44
586.329	10910.52
586.688	11189.15
587.048	11365.65
587.408	11552.08
587.768	11740.78
588.127	11956.59
588.487	12159.75
588.846	12594.54
589.206	12690.36
589.565	12955.44
589.925	13254.64
590.284	13479.49
590.643	13736.21
591.003	14004.67
591.362	14287.15
591.721	14461.61
592.08	14775.5
592.44	15104.53
592.799	15389.5
593.158	15630.17
593.517	15958.97
593.876	16238.51
594.235	16376.82
594.593	16751.49
594.952	17090.02
595.311	17261.31
595.67	17584.02
596.029	17989.43
596.387	18292.7
596.746	18645
597.104	18751.89
597.463	19023.53
597.822	19488.6
598.18	19619.89
598.538	19805.88
598.897	20336.03
599.255	20399.08
599.613	20978.95
599.972	21143.24
600.33	21430.69
600.688	21609.45
601.046	21980.06
601.404	22303.44
601.762	22519.93
602.12	22986.58
602.478	23158.56
602.836	23396.52
603.194	23621.14
603.552	23833.57
603.91	23985.88
604.268	24422.48
604.625	24627.9
604.983	24871.73
605.341	24969.36
605.698	25365.51
606.056	25713.52
606.413	25898.6
606.771	26126.84
607.128	26417.91
607.485	26573.61
607.843	26754.17
608.2	27086.59
608.557	27416.75
608.914	27464.43
609.272	27875.5
609.629	28038.88
609.986	28403.39
610.343	28441.36
610.7	28780.56
611.057	28881.12
611.414	29001.12
611.771	29236.82
612.127	29606.52
612.484	29621.21
612.841	29970.36
613.198	30020.07
613.554	30161.99
613.911	30449.21
614.267	30583.67
614.624	30663.45
614.98	30913.38
615.337	31222.07
615.693	31364.67
616.05	31500.49
616.406	31747.71
616.762	31753.13
617.118	31849.85
617.475	32202.39
617.831	32262.95
618.187	32344.98
618.543	32664.97
618.899	32880.56
619.255	32956.27
619.611	32959.88
619.967	33261.57
620.323	33368.23
620.678	33287.78
621.034	33335.24
621.39	33460.21
621.746	33685.74
622.101	34129.79
622.457	33851.61
622.812	33973.87
623.168	34159.4
623.523	34328.43
623.879	34379.28
624.234	34269.45
624.589	34375.44
624.945	34736.33
625.3	34665.37
625.655	34816.33
626.01	34853.17
626.365	34985.59
626.72	34968.42
627.075	34951.69
627.43	35021.75
627.785	35162.08
628.14	35298.35
628.495	35340.84
628.85	35162.54
629.205	35310.1
629.559	35509.87
629.914	35360.5
630.269	35522.3
630.623	35525.69
630.978	35462.87
631.332	35733.82
631.687	35836.42
632.041	35735.4
632.396	35736.98
632.75	35711.22
633.104	35854.95
633.459	35673.03
633.813	35744.44
634.167	35715.06
634.521	35677.55
634.875	35801.16
635.229	35833.25
635.583	35602.07
635.937	35742.41
636.291	35704.89
636.645	35809.3
636.999	35673.71
637.352	35853.14
637.706	35634.84
638.06	35965.45
638.413	35690.88
638.767	35687.04
639.121	35790.77
639.474	35662.64
639.828	35656.08
640.181	35715.29
640.534	35713.48
640.888	35803.65
641.241	35512.13
641.594	35742.63
641.947	35808.62
642.301	35685.91
642.654	35656.76
643.007	35814.5
643.36	35671.9
643.713	35736.98
644.066	35743.31
644.419	35775.63
644.771	35340.16
645.124	35135.87
645.477	34991.24
645.83	34810.68
646.182	34717.8
646.535	34698.14
646.888	34665.15
647.24	34520.07
647.593	34735.2
647.945	34670.35
648.298	34531.37
648.65	34444.59
649.002	34529.56
649.355	34565.26
649.707	34499.05
650.059	34691.36
650.411	35095.19
650.763	35186.49
651.115	35441.85
651.467	35298.8
651.819	35479.14
652.171	35337.22
652.523	35130.45
652.875	35273.27
653.227	35094.97
653.578	35349.88
653.93	35158.92
654.282	35292.93
654.633	35056.78
654.985	35151.01
655.337	35226.71
655.688	35180.39
656.039	35309.42
656.391	35051.8
656.742	35116.66
657.094	35088.41
657.445	35249.09
657.796	35092.48
658.147	35006.38
658.498	35099.71
658.849	35174.51
659.2	34972.03
659.551	35021.75
659.902	35113.5
660.253	35063.33
660.604	35114.85
660.955	34959.6
661.306	35169.54
661.656	35037.34
662.007	35119.6
662.358	34991.92
662.708	34965.25
663.059	35005.48
663.409	34799.83
663.76	35121.18
664.11	34974.52
664.461	34927.06
664.811	35082.09
665.161	34939.04
665.511	34958.93
665.862	34981.52
666.212	35123.89
666.562	34981.52
666.912	34906.27
667.262	34824.69
667.612	34951.47
667.962	34834.86
668.312	34923.45
668.662	35082.76
669.011	34967.74
669.361	34933.16
669.711	34751.25
670.06	34776.56
670.41	34671.48
670.76	34856.78
671.109	34827.63
671.459	34877.8
671.808	34790.34
672.157	34876.22
672.507	34577.01
672.856	34594.64
673.205	34751.47
673.554	34808.87
673.904	34668.99
674.253	34788.76
674.602	34671.02
674.951	34230.58
675.3	34122.79
675.649	34570.91
675.998	34729.33
676.346	34605.94
676.695	34603.91
677.044	34429.67
677.393	34593.74
677.741	34681.19
678.09	34414.08
678.438	34428.77
678.787	34415.44
679.135	34478.49
679.484	34355.78
679.832	34436
680.181	34288.21
680.529	34418.15
680.877	34237.36
681.225	34105.39
681.573	34475.77
681.922	34106.07
682.27	34090.93
682.618	34095.45
682.966	33954.66
683.314	34005.73
683.661	33939.29
684.009	33855
684.357	33736.13
684.705	33664.72
685.053	33708.11
685.4	33704.5
685.748	33466.08
686.095	33503.82
686.443	33418.4
686.79	33410.04
687.138	33381.57
687.485	33478.74
687.832	33335.69
688.18	33254.79
688.527	33097.28
688.874	33315.13
689.221	33067.45
689.568	33065.64
689.915	32877.4
690.262	32934.12
690.609	32837.63
690.956	32745.65
691.303	32791.3
691.65	32657.52
691.997	32573.9
692.344	32266.11
692.69	32381.14
693.037	32373
693.383	32163.52
693.73	32242.84
694.077	32067.93
694.423	32128.94
694.769	31850.31
695.116	31844.88
695.462	31852.11
695.808	31747.26
696.155	31728.5
696.501	31537.09
696.847	31555.17
697.193	31282.41
697.539	31554.72
697.885	31353.82
698.231	31102.76
698.577	31217.1
698.923	31152.25
699.269	30977.56
699.614	30832.71
699.96	30751.35
700.306	30789.54
700.651	30604.24
700.997	30570.11
701.342	30508.65
701.688	30544.8
702.033	30394.07
702.379	30309.56
702.724	30208.77
703.069	30298.71
703.415	29948.21
703.76	29993.18
704.105	29965.84
704.45	29850.59
704.795	29785.05
705.14	29747.99
705.485	29663.25
705.83	29529.46
706.175	29540.54
706.52	29605.17
706.865	29296.02
707.209	29416.92
707.554	29226.42
707.899	29231.39
708.243	29177.83
708.588	29102.58
708.932	28966.31
709.277	28910.27
709.621	28968.12
709.966	28920.21
710.31	28795.02
710.654	28607.68
710.998	28655.81
711.342	28613.56
711.687	28473.67
712.031	28389.83
712.375	28281.13
712.719	28380.34
713.063	28314.58
713.407	28408.14
713.75	28199.1
714.094	28117.07
714.438	28105.77
714.782	28135.6
715.125	27859.68
715.469	27951.88
715.812	27825.78
716.156	27598.44
716.499	27616.29
716.843	27602.51
717.186	27524.09
717.53	27608.38
717.873	27593.47
718.216	27564.77
718.559	27433.47
718.902	27265.12
719.246	27358.22
719.589	27225.34
719.932	27246.13
720.275	27161.16
720.617	27143.09
720.96	27077.78
721.303	27183.54
721.646	26986.48
721.989	26877.1
722.331	26920.72
722.674	26936.99
723.016	26821.74
723.359	26756.2
723.701	26901.96
724.044	26699.71
724.386	26531.35
724.729	26641.86
725.071	26618.35
725.413	26621.29
725.755	26609.09
726.097	26430.56
726.439	26381.98
726.782	26276.44
727.124	26433.95
727.465	26265.59
727.807	26398.47
728.149	26171.59
728.491	26200.29
728.833	26152.38
729.175	26028.54
729.516	25962.33
729.858	25942.21
730.199	26063.79
730.541	25958.94
730.882	25826.28
731.224	25959.84
731.565	25749.45
731.906	25809.34
732.248	25882.1
732.589	25759.85
732.93	25622.9
733.271	25571.15
733.612	25689.56
733.953	25682.79
734.294	25645.05
734.635	25379.97
734.976	25650.7
735.317	25431.72
735.658	25413.41
735.999	25434.66
736.339	25388.56
736.68	25429.23
737.021	25281.89
737.361	25226.98
737.702	25276.69
738.042	25243.02
738.383	25050.03
738.723	25272.17
739.063	25009.36
739.404	24997.15
739.744	25080.54
740.084	24846.87
740.424	24905.4
740.764	24796.71
741.104	24969.58
741.444	24727.33
741.784	24680.78
742.124	24789.02
742.464	24699.08
742.804	24618.63
743.143	24639.42
743.483	24699.08
743.823	24457.51
744.162	24596.94
744.502	24500.22
744.841	24397.4
745.181	24449.37
745.52	24379.09
745.86	24338.19
746.199	24238.08
746.538	24290.05
746.877	24351.07
747.216	24380.45
747.556	24191.75
747.895	24250.73
748.234	24043.28
748.573	24025.43
748.911	23975.03
749.25	24034.47
749.589	23855.49
749.928	23886.22
750.267	23930.06
750.605	23806
750.944	23778.43
751.283	23805.77
751.621	23784.3
751.96	23594.93
752.298	23525.78
752.636	23620.92
752.975	23511.77
753.313	23395.61
753.651	23442.84
753.989	23442.17
754.327	23409.4
754.666	23197.2
755.004	23268.39
755.342	23220.7
755.679	23158.78
756.017	23031.78
756.355	23085.57
756.693	23014.83
757.031	22965.34
757.368	23006.7
757.706	22867.27
758.044	22751.79
758.381	22802.41
758.719	22826.14
759.056	22699.59
759.394	22585.24
759.731	22537.56
760.068	22388.41
760.405	22473.6
760.743	22263.89
761.08	22357.45
761.417	22157.23
761.754	22150.67
762.091	22129.43
762.428	22081.07
762.765	21881.3
763.102	21920.85
763.438	21754.75
763.775	21746.39
764.112	21755.66
764.449	21751.82
764.785	21606.51
765.122	21526.06
765.458	21396.34
765.795	21407.42
766.131	21273.64
766.467	21266.63
766.804	21197.48
767.14	21111.61
767.476	21046.07
767.812	20893.53
768.148	20982.8
768.485	20825.51
768.821	20794.1
769.157	20817.83
769.492	20656.48
769.828	20691.28
770.164	20442.92
770.5	20465.75
770.836	20319.08
771.171	20254.23
771.507	20171.07
771.842	20115.02
772.178	20106.43
772.513	20058.3
772.849	20007.45
773.184	19901.24
773.519	19906.21
773.855	19776.73
774.19	19764.75
774.525	19577.18
774.86	19597.3
775.195	19623.28
775.53	19398.88
775.865	19337.87
776.2	19244.31
776.535	19044.99
776.87	19120.02
777.205	19023.98
777.539	18906.92
777.874	18927.93
778.209	18782.18
778.543	18748.28
778.878	18670.31
779.212	18590.54
779.547	18527.95
779.881	18590.99
780.215	18386.93
780.55	18503.09
780.884	18246.6
781.218	18238.01
781.552	18260.83
781.886	18189.87
782.22	18070.1
782.554	18003.21
782.888	17904.91
783.222	17799.83
783.556	17665.82
783.889	17649.32
784.223	17619.49
784.557	17569.55
784.89	17590.34
785.224	17450.46
785.557	17395.77
785.891	17196.45
786.224	17335.66
786.558	17285.94
786.891	17124.82
787.224	17046.18
787.557	17076.91
787.891	16943.35
788.224	16979.06
788.557	16935.44
788.89	16843.47
789.223	16920.98
789.556	16620.88
789.888	16663.14
790.221	16662.91
790.554	16544.72
790.887	16512.86
791.219	16446.42
791.552	16313.31
791.884	16365.29
792.217	16206.42
792.549	16175.46
792.882	16093.88
793.214	16073.55
793.546	15874
793.879	16016.82
794.211	15709.71
794.543	15867.9
794.875	15859.77
795.207	15791.52
795.539	15765.31
795.871	15724.85
796.203	15545.42
796.535	15507.69
796.867	15493.45
797.198	15466.33
797.53	15446.44
797.862	15251.42
798.193	15385.2
798.525	15226.34
798.856	15252.55
799.188	15053.01
799.519	15068.6
799.85	14938.89
800.182	14961.71
800.513	14942.05
800.844	14811.43
801.175	14980.24
801.506	15013.46
801.837	14795.39
802.168	14710.42
802.499	14718.33
802.83	14684.88
803.161	14600.59
803.491	14507.94
803.822	14543.87
804.153	14491.44
804.483	14228.4
804.814	14287.38
805.145	14289.19
805.475	14325.8
805.805	14207.15
806.136	14229.08
806.466	14218.91
806.796	14115.41
807.126	14113.6
807.457	14103.65
807.787	14037.22
808.117	14021.4
808.447	13934.62
808.777	14020.49
809.107	13833.61
809.436	13808.52
809.766	13842.42
810.096	13817.33
810.426	13751.12
810.755	13771.69
811.085	13748.86
811.414	13590.9
811.744	13568.3
812.073	13541.18
812.403	13494.18
812.732	13472.03
813.061	13395.65
813.39	13328.08
813.719	13368.98
814.049	13301.42
814.378	13367.63
814.707	13217.35
815.036	13338.02
815.365	13153.62
815.693	13063.68
816.022	13114.75
816.351	12991.14
816.68	12965.15
817.008	13039.73
817.337	12878.83
817.665	12898.26
817.994	12926.96
818.322	12836.57
818.651	12795.44
818.979	12765.84
819.307	12881.31
819.636	12719.28
819.964	12660.08
820.292	12679.06
820.62	12714.54
820.948	12685.84
821.276	12649.46
821.604	12668.89
821.932	12686.52
822.259	12651.94
822.587	12649.46
822.915	12606.74
823.243	12622.56
823.57	12611.04
823.898	12685.84
824.225	12534.43
824.553	12579.85
824.88	12576.92
825.207	12561.32
825.535	12641.77
825.862	12562.23
826.189	12565.39
826.516	12599.97
826.843	12645.39
827.17	12634.77
827.497	12627.31
827.824	12590.7
828.151	12599.06
828.478	12635.44
828.805	12653.75
829.131	12582.56
829.458	12523.81
829.785	12494.66
830.111	12577.59
830.438	12613.98
830.764	12533.53
831.09	12511.38
831.417	12505.5
831.743	12570.59
832.069	12566.97
832.395	12477.26
832.722	12532.17
833.048	12492.62
833.374	12482
833.7	12445.62
834.026	12473.87
834.351	12486.3
834.677	12486.3
835.003	12399.29
835.329	12392.97
835.654	12444.49
835.98	12347.54
836.306	12293.76
836.631	12309.8
836.956	12292.18
837.282	12338.73
837.607	12209.69
837.932	12247.88
838.258	12244.95
838.583	12276.81
838.908	12202.69
839.233	12135.34
839.558	12122.46
839.883	12129.92
840.208	12046.53
840.533	12071.84
840.858	12066.42
841.182	12006.31
841.507	12057.83
841.832	11890.83
842.156	11981.68
842.481	11912.3
842.805	11948.46
843.13	11846.76
843.454	11870.27
843.778	11714.11
844.103	11847.22
844.427	11765.41
844.751	11736.03
845.075	11710.5
845.399	11684.96
845.723	11604.06
846.047	11621.91
846.371	11519.54
846.695	11492.88
847.019	11496.27
847.343	11417.85
847.666	11356.61
847.99	11322.03
848.313	11219.21
848.637	11175.82
848.96	11189.61
849.284	11214.92
849.607	11072.77
849.931	11075.26
850.254	10990.74
850.577	10955.26
850.9	10912.1
851.223	10849.5
851.546	10840.01
851.869	10725.44
852.192	10790.52
852.515	10591.43
852.838	10551.66
853.161	10634.82
853.483	10601.83
853.806	10545.33
854.129	10510.98
854.451	10477.99
854.774	10489.06
855.096	10390.53
855.419	10349.4
855.741	10302.62
856.063	10288.61
856.385	10233.25
856.708	10192.34
857.03	10180.59
857.352	10197.32
857.674	10154.83
857.996	10141.27
858.318	10077.32
858.64	10097.43
858.961	10074.83
859.283	10007.27
859.605	9969.53
859.926	9989.19
860.248	9951.22
860.57	9869.64
860.891	9913.93
861.212	9794.16
861.534	9821.28
861.855	9819.7
862.176	9718.01
862.498	9780.38
862.819	9778.57
863.14	9748.74
863.461	9705.13
863.782	9646.82
864.103	9683.88
864.424	9733.37
864.745	9710.1
865.065	9571.8
865.386	9539.48
865.707	9633.72
866.027	9542.87
866.348	9526.6
866.668	9483.21
866.989	9505.13
867.309	9416.77
867.63	9478.24
867.95	9485.24
868.27	9355.53
868.59	9398.69
868.91	9415.64
869.23	9426.49
869.55	9323.89
869.87	9382.42
870.19	9357.11
870.51	9292.26
870.83	9346.04
871.15	9253.39
871.469	9191.02
871.789	9283.44
872.109	9226.95
872.428	9235.08
872.748	9262.65
873.067	9207.51
873.386	9257.45
873.706	9208.87
874.025	9195.99
874.344	9076.44
874.663	9122.09
874.982	9167.29
875.301	9100.17
875.62	9079.61
875.939	9051.58
876.258	9047.97
876.577	9041.41
876.896	8987.18
877.214	8984.02
877.533	9005.94
877.852	8959.61
878.17	8960.51
878.489	8955.32
878.807	8957.35
879.125	8950.12
879.444	8872.83
879.762	8856.79
880.08	8840.97
880.398	8871.48
880.716	8817.47
881.034	8879.16
881.352	8774.3
881.67	8738.82
881.988	8762.1
882.306	8782.44
882.624	8749.67
882.941	8685.94
883.259	8709.67
883.577	8716
883.894	8620.18
884.212	8556
884.529	8606.62
884.846	8617.25
885.164	8586.06
885.481	8530.47
885.798	8548.55
886.115	8492.95
886.432	8483.69
886.75	8493.63
887.067	8469.23
887.383	8422
887.7	8422.9
888.017	8368.89
888.334	8389.45
888.651	8362.34
888.967	8362.34
889.284	8312.62
889.6	8285.5
889.917	8159.63
890.233	8261.1
890.55	8191.72
890.866	8217.93
891.182	8177.48
891.498	8127.31
891.815	8118.05
892.131	8060.2
892.447	8072.85
892.763	8047.77
893.079	8030.14
893.395	7977.94
893.71	8036.24
894.026	7939.52
894.342	7942.69
894.657	7902.46
894.973	7902.24
895.289	7896.36
895.604	7865.63
895.92	7789.02
896.235	7772.07
896.55	7755.8
896.865	7770.49
897.181	7737.72
897.496	7662.02
897.811	7653.2
898.126	7577.72
898.441	7612.75
898.756	7570.94
899.071	7537.27
899.386	7600.1
899.7	7491.63
900.015	7391.74
900.33	7415.92
900.644	7433.32
900.959	7356.04
901.273	7339.54
901.588	7279.88
901.902	7278.75
902.216	7293.21
902.531	7201.46
902.845	7283.72
903.159	7175.48
903.473	7114.46
903.787	7061.13
904.101	7057.96
904.415	7106.1
904.729	7006.21
905.042	6988.81
905.356	6987.91
905.67	6935.48
905.984	6929.38
906.297	6951.3
906.611	6936.61
906.924	6824.75
907.237	6827.24
907.551	6867.23
907.864	6805.77
908.177	6769.61
908.491	6772.55
908.804	6724.41
909.117	6710.63
909.43	6652.33
909.743	6643.51
910.056	6598.09
910.368	6582.72
910.681	6541.59
910.994	6610.07
911.307	6542.05
911.619	6458.88
911.932	6475.38
912.244	6406
912.557	6440.35
912.869	6417.75
913.181	6364.65
913.494	6377.53
913.806	6269.06
914.118	6298.89
914.43	6224.31
914.742	6202.39
915.054	6252.79
915.366	6168.72
915.678	6149.06
915.99	6158.78
916.302	6058.67
916.613	6087.14
916.925	6111.1
917.236	6119.23
917.548	6020.48
917.859	6026.8
918.171	5968.73
918.482	5955.62
918.794	5933.93
919.105	5932.57
919.416	5823.19
919.727	5844.66
920.038	5845.57
920.349	5810.54
920.66	5705.68
920.971	5739.35
921.282	5694.38
921.593	5713.59
921.903	5707.49
922.214	5665.46
922.525	5614.39
922.835	5650.09
923.146	5610.54
923.456	5552.47
923.767	5541.85
924.077	5528.96
924.387	5442.41
924.697	5411.68
925.008	5483.77
925.318	5418.91
925.628	5413.49
925.938	5396.09
926.248	5384.34
926.558	5305.02
926.867	5314.06
927.177	5277.67
927.487	5289.65
927.796	5190.89
928.106	5278.58
928.416	5220.95
928.725	5202.87
929.034	5182.76
929.344	5146.83
929.653	5086.04
929.962	5053.72
930.271	5030.45
930.581	5057.34
930.89	5006.72
931.199	4990.9
931.508	4970.79
931.817	4943.67
932.125	4936.44
932.434	4971.24
932.743	4890.34
933.051	4863.45
933.36	4822.99
933.669	4808.31
933.977	4779.61
934.286	4788.19
934.594	4762.66
934.902	4728.99
935.21	4749.32
935.519	4738.7
935.827	4672.04
936.135	4678.82
936.443	4599.5
936.751	4588.2
937.059	4618.03
937.367	4641.98
937.674	4567.18
937.982	4550.69
938.29	4561.98
938.597	4539.84
938.905	4538.03
939.213	4498.94
939.52	4454.19
939.827	4490.12
940.135	4410.35
940.442	4411.03
940.749	4361.76
941.056	4400.41
941.363	4384.14
941.67	4366.96
941.977	4315.89
942.284	4282.9
942.591	4274.31
942.898	4245.83
943.205	4266.63
943.511	4232.05
943.818	4160.64
944.125	4150.92
944.431	4160.64
944.738	4151.83
945.044	4132.84
945.35	4105.95
945.657	4104.82
945.963	4096.46
946.269	4004.71
946.575	4036.57
946.881	4044.71
947.187	4020.08
947.493	4003.13
947.799	3994.54
948.105	3974.43
948.41	3937.82
948.716	3965.62
949.022	3932.17
949.327	3920.87
949.633	3866.18
949.938	3866.18
950.244	3832.51
950.549	3815.34
950.854	3837.26
951.16	3819.18
951.465	3762.46
951.77	3770.82
952.075	3724.72
952.38	3725.17
952.685	3729.01
952.99	3710.26
953.294	3725.62
953.599	3644.49
953.904	3673.19
954.209	3609.47
954.513	3632.52
954.818	3593.65
955.122	3573.99
955.426	3551.16
955.731	3552.29
956.035	3525.18
956.339	3515.46
956.643	3506.42
956.948	3515.23
957.252	3476.82
957.556	3461.22
957.86	3426.65
958.163	3440.43
958.467	3443.14
958.771	3402.02
959.075	3404.95
959.378	3395.46
959.682	3345.97
959.985	3345.97
960.289	3338.74
960.592	3308.01
960.896	3318.85
961.199	3253.54
961.502	3305.29
961.805	3242.25
962.108	3254.22
962.411	3223.26
962.714	3187.33
963.017	3221.23
963.32	3227.33
963.623	3205.41
963.926	3183.94
964.228	3150.27
964.531	3142.13
964.833	3101.68
965.136	3083.83
965.438	3106.66
965.741	3071.85
966.043	3064.62
966.345	3031.86
966.648	3064.62
966.95	3043.83
967.252	3009.26
967.554	3020.1
967.856	3004.06
968.158	2976.72
968.46	2978.75
968.761	2973.33
969.063	2923.16
969.365	2888.36
969.666	2952.31
969.968	2889.03
970.269	2890.84
970.571	2854.01
970.872	2867.11
971.174	2819.43
971.475	2887.23
971.776	2834.35
972.077	2830.96
972.378	2808.58
972.679	2779.88
972.98	2806.55
973.281	2777.4
973.582	2790.51
973.883	2744.86
974.183	2721.58
974.484	2734.01
974.785	2713.22
975.085	2697.17
975.386	2725.87
975.686	2710.28
975.986	2661.24
976.287	2693.56
976.587	2656.5
976.887	2628.02
977.187	2628.93
977.487	2583.73
977.787	2583.05
978.087	2567.91
978.387	2580.12
978.687	2581.47
978.987	2560
979.286	2528.59
979.586	2545.09
979.885	2539.21
980.185	2533.11
980.484	2507.8
980.784	2488.37
981.083	2509.84
981.382	2479.1
981.682	2452.44
981.981	2418.54
982.28	2414.7
982.579	2387.58
982.878	2406.11
983.177	2424.41
983.475	2408.37
983.774	2367.01
984.073	2387.35
984.372	2334.25
984.67	2345.32
984.969	2356.62
985.267	2356.39
985.566	2325.66
985.864	2333.12
986.162	2313
986.461	2283.85
986.759	2301.48
987.057	2250.18
987.355	2258.32
987.653	2259.22
987.951	2219
988.249	2239.33
988.547	2235.94
988.844	2239.33
989.142	2189.62
989.44	2198.66
989.737	2206.34
990.035	2180.35
990.332	2153.46
990.63	2140.58
990.927	2130.18
991.224	2149.62
991.521	2116.17
991.819	2123.86
992.116	2107.81
992.413	2129.73
992.71	2090.41
993.006	2109.17
993.303	2087.25
993.6	2042.95
993.897	2060.36
994.193	2047.7
994.49	2013.58
994.787	2011.32
995.083	2052.67
995.379	2003.63
995.676	1992.79
995.972	1966.35
996.268	1955.27
996.565	1964.09
996.861	1953.01
997.157	1927.93
997.453	1919.57
997.749	1923.41
998.044	1918.66
998.34	1890.19
998.636	1889.51
998.932	1875.73
999.227	1900.59
999.523	1881.6
999.818	1853.58
1000.114	1885.22
1000.409	1843.19
1000.704	1850.64
1001	1841.38
1001.295	1800.02
1001.59	1826.01
1001.885	1788.95
1002.18	1797.54
1002.475	1774.49
1002.77	1770.42
1003.065	1765.22
1003.359	1739.01
1003.654	1720.03
1003.949	1762.51
1004.243	1749.4
1004.538	1702.85
1004.832	1703.08
1005.127	1697.2
1005.421	1669.63
1005.715	1664.21
1006.009	1665.79
1006.304	1642.97
1006.598	1634.83
1006.892	1673.25
1007.186	1616.98
1007.48	1599.12
1007.773	1625.56
1008.067	1633.7
1008.361	1578.79
1008.655	1571.33
1008.948	1590.54
1009.242	1543.08
1009.535	1552.35
1009.829	1547.83
1010.122	1539.24
1010.415	1556.19
1010.708	1544.89
1011.001	1534.49
1011.295	1552.35
1011.588	1515.74
1011.881	1498.56
1012.173	1479.81
1012.466	1475.51
1012.759	1454.95
1013.052	1491.56
1013.344	1439.35
1013.637	1445.68
1013.93	1417.89
1014.222	1386.47
1014.514	1427.38
1014.807	1426.02
1015.099	1386.25
1015.391	1414.04
1015.683	1385.34
1015.976	1376.76
1016.268	1389.19
1016.56	1375.63
1016.851	1368.4
1017.143	1370.2
1017.435	1331.34
1017.727	1320.94
1018.018	1325.91
1018.31	1337.21
1018.602	1314.16
1018.893	1310.77
1019.185	1294.73
1019.476	1305.8
1019.767	1307.15
1020.058	1276.2
1020.35	1253.82
1020.641	1262.41
1020.932	1250.43
1021.223	1247.04
1021.514	1242.75
1021.804	1242.75
1022.095	1219.47
1022.386	1221.28
1022.677	1166.14
1022.967	1195.75
1023.258	1209.3
1023.548	1175.63
1023.839	1171.11
1024.129	1167.95
1024.419	1159.81
1024.709	1159.81
1025	1151.23
1025.29	1138.8
1025.58	1144.9
1025.87	1133.83
1026.16	1107.39
1026.449	1122.3
1026.739	1100.15
1027.029	1125.92
1027.319	1083.43
1027.608	1063.55
1027.898	1064.68
1028.187	1088.86
1028.477	1030.1
1028.766	1077.78
1029.055	1019.48
1029.344	1028.97
1029.634	1047.05
1029.923	1035.07
1030.212	1006.82
1030.501	1033.94
1030.79	1012.47
1031.078	1007.95
1031.367	991.23
1031.656	989.65
1031.945	996.2
1032.233	953.49
1032.522	953.94
1032.81	996.65
1033.099	962.08
1033.387	965.02
1033.675	962.31
1033.963	947.39
1034.251	939.93
1034.54	949.65
1034.828	932.48
1035.116	896.77
1035.403	922.31
1035.691	919.59
1035.979	920.27
1036.267	900.61
1036.554	888.63
1036.842	871.46
1037.129	884.12
1037.417	871.69
1037.704	892.02
1037.992	864
1038.279	876.88
1038.566	849.09
1038.853	849.09
1039.14	849.09
