Data from hue_140_FLMS001491_00010.txt Node
Date: Tue Feb 07 16:55:18 GMT 2017
User: dcchb
Spectrometer: FLMS00149
Trigger mode: 0
Integration Time (sec): 2.000000E-2
Scans to average: 10
Electric dark correction enabled: true
Nonlinearity correction enabled: false
Boxcar width: 0
XAxis mode: Wavelengths
Number of Pixels in Spectrum: 2048
>>>>>Begin Spectral Data<<<<<
341.393	-3.43
341.776	-3.43
342.16	-3.43
342.543	-58.8
342.927	-63.54
343.31	-67.16
343.693	-88.4
344.077	-67.84
344.46	-67.84
344.843	-59.25
345.226	-29.87
345.61	-26.03
345.993	-15.18
346.376	-9.08
346.759	15.78
347.142	17.81
347.525	31.6
347.908	77.02
348.291	86.51
348.674	92.38
349.057	109.56
349.44	138.26
349.823	152.95
350.206	175.55
350.588	199.5
350.971	196.11
351.354	246.05
351.737	259.84
352.119	244.47
352.502	287.86
352.884	284.24
353.267	278.37
353.65	298.03
354.032	307.29
354.414	305.49
354.797	301.19
355.179	316.33
355.562	332.83
355.944	346.84
356.326	349.33
356.709	340.51
357.091	355.2
357.473	354.07
357.855	338.93
358.238	341.87
358.62	350.46
359.002	360.17
359.384	349.33
359.766	347.29
360.148	334.41
360.53	335.99
360.912	354.75
361.294	350.46
361.676	338.25
362.057	344.36
362.439	353.17
362.821	331.47
363.203	326.95
363.584	349.1
363.966	344.36
364.348	331.93
364.729	350.46
365.111	327.86
365.493	302.32
365.874	330.34
366.256	300.97
366.637	319.5
367.019	320.63
367.4	308.42
367.781	318.14
368.163	334.64
368.544	322.89
368.925	322.21
369.306	332.15
369.688	328.54
370.069	306.16
370.45	286.73
370.831	326.05
371.212	327.41
371.593	307.75
371.974	306.16
372.355	300.97
372.736	319.27
373.117	335.09
373.498	310.91
373.879	324.47
374.26	333.06
374.641	310.01
375.021	326.5
375.402	309.55
375.783	337.58
376.163	326.05
376.544	348.2
376.925	322.44
377.305	312.94
377.686	325.82
378.066	330.34
378.447	359.27
378.827	342.1
379.208	324.92
379.588	368.54
379.968	347.52
380.349	349.55
380.729	347.52
381.109	344.36
381.489	337.8
381.87	358.14
382.25	345.71
382.63	347.97
383.01	347.29
383.39	343.45
383.77	361.3
384.15	349.55
384.53	348.65
384.91	339.84
385.29	362.43
385.67	360.85
386.049	338.93
386.429	378.7
386.809	370.12
387.189	356.33
387.568	365.37
387.948	375.09
388.328	360.4
388.707	360.63
389.087	347.97
389.466	378.03
389.846	373.51
390.225	370.12
390.605	374.41
390.984	384.58
391.363	360.4
391.743	367.63
392.122	380.96
392.501	374.41
392.881	364.69
393.26	366.5
393.639	385.48
394.018	373.51
394.397	373.06
394.776	381.64
395.155	372.38
395.534	398.59
395.913	396.33
396.292	378.93
396.671	395.2
397.05	405.82
397.429	381.64
397.808	400.17
398.186	385.48
398.565	411.92
398.944	395.2
399.323	397.24
399.701	406.27
400.08	403.79
400.458	391.13
400.837	401.53
401.215	395.88
401.594	406.95
401.972	420.74
402.351	434.75
402.729	418.03
403.107	431.58
403.486	418.03
403.864	425.26
404.242	405.37
404.62	428.87
404.999	423
405.377	452.6
405.755	433.17
406.133	419.61
406.511	444.47
406.889	436.33
407.267	443.56
407.645	443.11
408.023	431.58
408.401	457.12
408.779	460.51
409.156	446.95
409.534	462.77
409.912	476.56
410.29	465.03
410.667	467.52
411.045	477.23
411.422	477.46
411.8	483.33
412.178	503.22
412.555	483.79
412.933	484.69
413.31	489.21
413.687	492.6
414.065	495.76
414.442	502.54
414.819	496.44
415.197	515.88
415.574	527.63
415.951	517.23
416.328	507.06
416.705	518.14
417.082	517.91
417.46	535.76
417.837	521.07
418.214	515.2
418.591	529.89
418.967	533.28
419.344	555.88
419.721	540.96
420.098	538.47
420.475	540.51
420.852	535.31
421.228	557.46
421.605	552.94
421.982	544.12
422.358	561.3
422.735	568.08
423.111	582.99
423.488	568.53
423.864	571.69
424.241	577.8
424.617	584.35
424.994	588.64
425.37	592.48
425.746	582.09
426.123	600.62
426.499	598.13
426.875	606.72
427.251	616.21
427.627	641.97
428.003	634.07
428.379	622.31
428.756	621.64
429.132	627.74
429.507	636.1
429.883	624.57
430.259	645.82
430.635	655.31
431.011	650.34
431.387	662.77
431.763	669.09
432.138	667.74
432.514	697.34
432.89	687.17
433.265	690.11
433.641	715.87
434.016	702.99
434.392	707.28
434.767	713.16
435.143	730.79
435.518	716.77
435.894	717.9
436.269	738.02
436.644	771.01
437.02	762.65
437.395	761.75
437.77	774.17
438.145	755.19
438.52	770.33
438.895	772.37
439.271	796.09
439.646	797.22
440.021	824.79
440.395	819.82
440.77	802.65
441.145	805.13
441.52	820.28
441.895	833.16
442.27	811.91
442.645	851.23
443.019	849.88
443.394	853.72
443.769	857.11
444.143	842.42
444.518	841.29
444.892	872.48
445.267	876.54
445.641	879.93
446.016	877.9
446.39	906.15
446.764	904.57
447.139	899.14
447.513	864.57
447.887	902.53
448.262	885.58
448.636	917.45
449.01	934.85
449.384	930.55
449.758	914.96
450.132	951.8
450.506	951.57
450.88	940.05
451.254	981.85
451.628	973.49
452.002	975.98
452.376	987.5
452.75	978.01
453.123	991.8
453.497	1007.84
453.871	1039.93
454.244	1015.3
454.618	1044.9
454.992	1040.38
455.365	1051.46
455.739	1075.86
456.112	1076.54
456.486	1122.41
456.859	1072.25
457.232	1129.42
457.606	1131.23
457.979	1142.53
458.352	1161.96
458.725	1170.1
459.099	1173.26
459.472	1178.68
459.845	1189.53
460.218	1222.98
460.591	1238.8
460.964	1238.57
461.337	1246.25
461.71	1296.87
462.083	1286.48
462.456	1304.1
462.829	1320.37
463.201	1310.43
463.574	1356.08
463.947	1378
464.32	1360.15
464.692	1390.88
465.065	1436.08
465.438	1457.32
465.81	1470.2
466.183	1502.74
466.555	1505.23
466.928	1523.31
467.3	1524.66
467.672	1568.5
468.045	1610.54
468.417	1595.17
468.789	1622.74
469.161	1636.98
469.534	1701.61
469.906	1732.79
470.278	1784.54
470.65	1769.18
471.022	1804.88
471.394	1866.8
471.766	1870.42
472.138	1898.21
472.51	1933.69
472.882	1987.93
473.253	2005.33
473.625	2067.47
473.997	2117.42
474.369	2144.08
474.74	2219.33
475.112	2252.1
475.484	2280.58
475.855	2365.32
476.227	2405.09
476.598	2481.47
476.97	2533
477.341	2600.57
477.713	2616.84
478.084	2687.34
478.455	2775.93
478.827	2806.21
479.198	2909.71
479.569	2990.84
479.94	3077.62
480.311	3154.22
480.682	3232.19
481.053	3354.22
481.424	3414.78
481.795	3485.29
482.166	3575
482.537	3713.08
482.908	3782.68
483.279	3872.17
483.65	3984.71
484.021	4132.96
484.391	4175.67
484.762	4293.18
485.133	4388.77
485.503	4520.52
485.874	4647.97
486.244	4750.12
486.615	4870.11
486.985	5007.51
487.356	5205.47
487.726	5207.05
488.097	5394.17
488.467	5459.48
488.837	5685.01
489.207	5771.33
489.578	5933.36
489.948	6039.8
490.318	6214.94
490.688	6316.85
491.058	6449.73
491.428	6586.9
491.798	6741.7
492.168	6905.31
492.538	7014.01
492.908	7136.04
493.278	7330.16
493.648	7411.97
494.017	7562.02
494.387	7705.07
494.757	7876.81
495.126	7979.41
495.496	8101.89
495.866	8217.59
496.235	8343.69
496.605	8514.31
496.974	8561.09
497.344	8760.41
497.713	8829.1
498.082	8942.32
498.452	9081.3
498.821	9188.42
499.19	9274.97
499.559	9447.62
499.928	9526.26
500.298	9683.09
500.667	9873.82
501.036	9860.49
501.405	10014.84
501.774	10080.6
502.143	10208.05
502.512	10222.97
502.88	10375.73
503.249	10465.67
503.618	10592.9
503.987	10617.31
504.356	10758.32
504.724	10780.69
505.093	10886.68
505.462	10974.36
505.83	11042.38
506.199	11150.4
506.567	11259.55
506.936	11306.55
507.304	11460.67
507.672	11558.98
508.041	11572.08
508.409	11674.45
508.777	11854.34
509.145	11904.28
509.514	11936.59
509.882	12031.73
510.25	12050.04
510.618	12028.57
510.986	12228.56
511.354	12263.36
511.722	12325.51
512.09	12390.14
512.458	12351.72
512.826	12523.02
513.193	12548.55
513.561	12596.46
513.929	12654.31
514.297	12680.75
514.664	12760.53
515.032	12831.26
515.4	12976.34
515.767	12952.39
516.135	12995.32
516.502	12911.03
516.869	13116
517.237	13088.2
517.604	13146.05
517.972	13254.75
518.339	13214.53
518.706	13258.37
519.073	13305.82
519.44	13268.54
519.808	13381.98
520.175	13351.92
520.542	13431.47
520.909	13419.04
521.276	13422.88
521.643	13593.72
522.009	13629.88
522.376	13686.38
522.743	13794.17
523.11	13766.38
523.477	13820.39
523.843	13877.56
524.21	13916.65
524.577	13980.61
524.943	14026.03
525.31	13950.33
525.676	14050.89
526.043	14070.32
526.409	14056.09
526.776	14204.33
527.142	14163.88
527.508	14164.1
527.874	14202.52
528.241	14284.55
528.607	14203.88
528.973	14213.14
529.339	14261.05
529.705	14321.16
530.071	14366.59
530.437	14390.31
530.803	14400.03
531.169	14369.52
531.535	14328.17
531.901	14307.83
532.267	14283.42
532.632	14367.04
532.998	14343.54
533.364	14366.13
533.73	14325
534.095	14361.39
534.461	14354.61
534.826	14242.3
535.192	14386.7
535.557	14280.49
535.923	14291.33
536.288	14218.11
536.653	14276.87
537.019	14102.64
537.384	14186.03
537.749	14213.82
538.114	14176.31
538.479	14066.71
538.845	14152.35
539.21	14020.83
539.575	14027.16
539.94	14063.99
540.305	13979.25
540.67	13966.37
541.034	13993.49
541.399	13901.29
541.764	13856.09
542.129	13898.8
542.494	13849.09
542.858	13762.99
543.223	13827.16
543.587	13783.32
543.952	13709.43
544.316	13781.97
544.681	13621.07
545.045	13689.09
545.41	13648.19
545.774	13578.81
546.138	13522.99
546.503	13485.03
546.867	13567.28
547.231	13469.21
547.595	13465.37
547.959	13532.26
548.324	13389.21
548.688	13317.57
549.052	13288.42
549.416	13261.08
549.779	13184.47
550.143	13253.39
550.507	13304.92
550.871	13269.89
551.235	13119.61
551.599	13139.05
551.962	13183.79
552.326	13130.23
552.689	13154.64
553.053	13031.25
553.417	12967.53
553.78	13088.43
554.143	12983.12
554.507	13038.03
554.87	12954.65
555.234	13036.23
555.597	12882.78
555.96	12937.92
556.323	12918.71
556.686	12920.52
557.05	12938.83
557.413	12894.99
557.776	12862.44
558.139	12881.88
558.502	12874.87
558.865	12876.23
559.228	12815.21
559.59	12844.14
559.953	12875.1
560.316	12942.89
560.679	12912.16
561.041	12898.15
561.404	12920.97
561.767	12929.79
562.129	12862.9
562.492	12967.98
562.854	12934.08
563.217	12894.99
563.579	12880.97
563.941	12908.32
564.304	12840.07
564.666	13007.07
565.028	12921.43
565.39	12948.77
565.753	13046.39
566.115	12995.1
566.477	13020.63
566.839	13028.32
567.201	13045.04
567.563	13059.28
567.925	13068.54
568.287	13044.13
568.648	13092.04
569.01	13105.83
569.372	13166.62
569.734	13152.83
570.095	13137.92
570.457	13261.76
570.819	13238.48
571.18	13170.01
571.542	13236.67
571.903	13269.89
572.265	13242.55
572.626	13203.9
572.987	13281.19
573.349	13252.49
573.71	13242.77
574.071	13346.27
574.432	13301.53
574.794	13358.93
575.155	13348.31
575.516	13232.6
575.877	13299.27
576.238	13358.48
576.599	13363.67
576.96	13390.79
577.32	13412.71
577.681	13359.15
578.042	13488.19
578.403	13377.23
578.763	13406.16
579.124	13405.48
579.485	13426.5
579.845	13419.27
580.206	13460.85
580.566	13414.29
580.927	13413.62
581.287	13411.36
581.648	13379.72
582.008	13421.75
582.368	13396.67
582.728	13405.93
583.089	13425.59
583.449	13381.75
583.809	13385.14
584.169	13407.06
584.529	13357.12
584.889	13459.04
585.249	13302.88
585.609	13215.2
585.969	13335.65
586.329	13313.51
586.688	13316.9
587.048	13301.08
587.408	13215.2
587.768	13233.28
588.127	13221.76
588.487	13263.56
588.846	13254.3
589.206	13136.34
589.565	13200.06
589.925	13189.89
590.284	13203.68
590.643	13250.46
591.003	13275.54
591.362	13354.86
591.721	13238.25
592.08	13227.41
592.44	13170.68
592.799	13261.08
593.158	13199.61
593.517	13172.72
593.876	13120.29
594.235	13166.17
594.593	13159.16
594.952	13090.69
595.311	13109.22
595.67	13126.62
596.029	13153.51
596.387	13098.14
596.746	13142.66
597.104	13089.56
597.463	13102.89
597.822	13139.95
598.18	13113.06
598.538	12998.49
598.897	13154.87
599.255	13026.51
599.613	13292.94
599.972	13095.21
600.33	13141.76
600.688	13119.16
601.046	13101.08
601.404	13256.56
601.762	13147.18
602.12	13193.51
602.478	13156
602.836	13185.6
603.194	13087.75
603.552	13181.31
603.91	13078.71
604.268	13143.57
604.625	13047.75
604.983	13166.62
605.341	13028.77
605.698	13123
606.056	13119.39
606.413	13084.13
606.771	13159.61
607.128	13185.6
607.485	13059.5
607.843	13152.83
608.2	13178.59
608.557	13148.09
608.914	13182.66
609.272	13157.35
609.629	13264.92
609.986	13269.21
610.343	13222.66
610.7	13297.01
611.057	13221.98
611.414	13264.02
611.771	13286.39
612.127	13280.06
612.484	13257.91
612.841	13318.48
613.198	13275.31
613.554	13282.77
613.911	13395.76
614.267	13290
614.624	13356.67
614.98	13376.33
615.337	13360.51
615.693	13404.12
616.05	13347.4
616.406	13514.4
616.762	13470.11
617.118	13398.25
617.475	13447.29
617.831	13485.7
618.187	13440.96
618.543	13515.76
618.899	13552.14
619.255	13527.29
619.611	13492.03
619.967	13586.49
620.323	13546.72
620.678	13492.71
621.034	13558.02
621.39	13452.03
621.746	13468.3
622.101	13525.93
622.457	13409.77
622.812	13532.94
623.168	13601.18
623.523	13555.99
623.879	13593.95
624.234	13462.65
624.589	13542.43
624.945	13522.77
625.3	13549.43
625.655	13451.81
626.01	13453.62
626.365	13518.25
626.72	13495.42
627.075	13610.22
627.43	13539.94
627.785	13471.92
628.14	13478.7
628.495	13529.09
628.85	13521.64
629.205	13403
629.559	13520.73
629.914	13473.73
630.269	13490.68
630.623	13482.77
630.978	13410.68
631.332	13450.45
631.687	13374.75
632.041	13384.01
632.396	13434.41
632.75	13358.25
633.104	13421.75
633.459	13328.42
633.813	13379.27
634.167	13263.56
634.521	13400.28
634.875	13272.83
635.229	13250
635.583	13206.62
635.937	13264.47
636.291	13210.68
636.645	13301.98
636.999	13270.57
637.352	13214.98
637.706	13118.48
638.06	13256.33
638.413	13167.3
638.767	13078.48
639.121	13132.95
639.474	12988.77
639.828	12960.75
640.181	13060.86
640.534	13090.69
640.888	12965.04
641.241	13040.97
641.594	13024.25
641.947	13030.8
642.301	13048.88
642.654	13047.75
643.007	13047.52
643.36	12953.29
643.713	13001.65
644.066	12958.03
644.419	12989.22
644.771	12876.91
645.124	12702
645.477	12720.3
645.83	12740.87
646.182	12578.61
646.535	12577.71
646.888	12575.22
647.24	12459.97
647.593	12650.92
647.945	12528.44
648.298	12485.05
648.65	12500.87
649.002	12412.51
649.355	12549.91
649.707	12547.88
650.059	12620.19
650.411	12736.57
650.763	12709.91
651.115	12885.04
651.467	12821.09
651.819	12792.16
652.171	12817.7
652.523	12763.69
652.875	12796.01
653.227	12736.12
653.578	12798.94
653.93	12825.61
654.282	12767.98
654.633	12697.93
654.985	12715.1
655.337	12784.48
655.688	12727.31
656.039	12749.45
656.391	12704.93
656.742	12700.19
657.094	12733.63
657.445	12793.52
657.796	12702
658.147	12742.9
658.498	12767.98
658.849	12793.07
659.2	12760.07
659.551	12770.02
659.902	12783.12
660.253	12824.71
660.604	12734.09
660.955	12700.19
661.306	12772.28
661.656	12819.06
662.007	12757.59
662.358	12818.15
662.708	12823.12
663.059	12844.37
663.409	12757.81
663.76	12819.28
664.11	12777.7
664.461	12870.81
664.811	12847.3
665.161	12846.4
665.511	12750.13
665.862	12824.03
666.212	12859.28
666.562	12847.98
666.912	12803.46
667.262	12775.21
667.612	12788.1
667.962	12951.26
668.312	12895.44
668.662	12797.81
669.011	12799.85
669.361	12756.01
669.711	12728.44
670.06	12877.36
670.41	12750.13
670.76	12712.17
671.109	12788.32
671.459	12734.09
671.808	12720.08
672.157	12712.62
672.507	12684.14
672.856	12701.32
673.205	12752.39
673.554	12773.86
673.904	12665.39
674.253	12791.03
674.602	12723.24
674.951	12464.94
675.3	12454.32
675.649	12655.22
675.998	12686.86
676.346	12615.67
676.695	12705.39
677.044	12590.81
677.393	12549.68
677.741	12566.86
678.09	12551.27
678.438	12519.18
678.787	12532.28
679.135	12402.8
679.484	12416.35
679.832	12478.73
680.181	12456.13
680.529	12419.97
680.877	12386.3
681.225	12336.36
681.573	12433.98
681.922	12347.2
682.27	12325.28
682.618	12336.36
682.966	12293.19
683.314	12282.57
683.661	12200.99
684.009	12233.53
684.357	12194.21
684.705	12152.86
685.053	12136.36
685.4	12113.54
685.748	12087.32
686.095	12039.87
686.443	11985.18
686.79	11988.34
687.138	12056.14
687.485	12035.8
687.832	12040.09
688.18	11979.98
688.527	11836.03
688.874	11911.28
689.221	11794.22
689.568	11832.41
689.915	11746.99
690.262	11725.53
690.609	11706.77
690.956	11638.07
691.303	11708.58
691.65	11477.4
691.997	11619.54
692.344	11502.48
692.69	11502.25
693.037	11460.45
693.383	11416.83
693.73	11456.38
694.077	11381.13
694.423	11397.4
694.769	11251.87
695.116	11205.76
695.462	11224.07
695.808	11136.39
696.155	11158.31
696.501	11165.99
696.847	11138.87
697.193	11043.96
697.539	10997.18
697.885	10988.82
698.231	10907.02
698.577	10941.82
698.923	10850.75
699.269	10790.18
699.614	10803.06
699.96	10667.47
700.306	10764.65
700.651	10647.59
700.997	10641.03
701.342	10596.74
701.688	10577.76
702.033	10475.84
702.379	10472.45
702.724	10461.83
703.069	10472.45
703.415	10308.84
703.76	10364.66
704.105	10404.2
704.45	10363.98
704.795	10213.7
705.14	10214.83
705.485	10266.13
705.83	10174.83
706.175	10134.38
706.52	10138.45
706.865	10066.59
707.209	10064.1
707.554	10004.67
707.899	10072.91
708.243	9938.91
708.588	9997.43
708.932	9878.57
709.277	9906.14
709.621	9879.47
709.966	9791.56
710.31	9886.7
710.654	9771.45
710.998	9787.95
711.342	9744.56
711.687	9735.07
712.031	9642.87
712.375	9693.94
712.719	9681.74
713.063	9641.74
713.407	9666.37
713.75	9553.83
714.094	9607.39
714.438	9543.66
714.782	9598.35
715.125	9514.06
715.469	9476.54
715.812	9451.23
716.156	9471.12
716.499	9426.38
716.843	9417.56
717.186	9351.8
717.53	9411.24
717.873	9439.03
718.216	9387.06
718.559	9387.96
718.902	9348.86
719.246	9337.57
719.589	9314.29
719.932	9294.85
720.275	9319.26
720.617	9274.74
720.96	9228.87
721.303	9212.6
721.646	9226.16
721.989	9215.08
722.331	9264.35
722.674	9167.63
723.016	9167.63
723.359	9201.52
723.701	9173.73
724.044	9118.59
724.386	9132.37
724.729	9145.71
725.071	9145.48
725.413	9022.55
725.755	9198.59
726.097	9047.4
726.439	9031.58
726.782	9036.56
727.124	9091.02
727.465	9017.57
727.807	8990
728.149	9002.21
728.491	9007.86
728.833	9110.9
729.175	9078.14
729.516	8983.22
729.858	9027.06
730.199	8954.3
730.541	8993.39
730.882	9010.12
731.224	9004.92
731.565	8963.79
731.906	8955.43
732.248	8993.39
732.589	8910.46
732.93	8973.96
733.271	8968.54
733.612	9051.25
733.953	8990.68
734.294	8963.34
734.635	8864.81
734.976	8999.72
735.317	8923.79
735.658	8931.7
735.999	8875.2
736.339	8948.87
736.68	9068.87
737.021	8947.52
737.361	8909.55
737.702	9044.47
738.042	8990.46
738.383	8976.44
738.723	9073.39
739.063	8957.91
739.404	9016.9
739.744	8952.94
740.084	9032.71
740.424	8995.65
740.764	9069.78
741.104	9158.59
741.444	9085.59
741.784	9043.79
742.124	9104.35
742.464	9137.57
742.804	9107.06
743.143	9182.32
743.483	9194.74
743.823	9178.93
744.162	9203.33
744.502	9253.27
744.841	9260.96
745.181	9296.66
745.52	9313.39
745.86	9448.07
746.199	9417.79
746.538	9457.11
746.877	9463.66
747.216	9502.53
747.556	9528.75
747.895	9576.43
748.234	9653.49
748.573	9684.22
748.911	9737.78
749.25	9772.36
749.589	9778.46
749.928	9974.61
750.267	9970.09
750.605	10123.53
750.944	10105.91
751.283	10143.19
751.621	10331.44
751.96	10337.31
752.298	10473.81
752.636	10592.67
752.975	10570.75
753.313	10700.02
753.651	10878.99
753.989	10870.41
754.327	11053.23
754.666	11132.77
755.004	11263.39
755.342	11448.7
755.679	11532.99
756.017	11623.38
756.355	11839.42
756.693	11882.36
757.031	12030.38
757.368	12177.04
757.706	12255.91
758.044	12464.26
758.381	12683.01
758.719	12866.29
759.056	12878.49
759.394	13171.36
759.731	13164.36
760.068	13421.3
760.405	13473.5
760.743	13688.19
761.08	13921.85
761.417	14101.96
761.754	14190.77
762.091	14456.53
762.428	14557.31
762.765	14627.6
763.102	14979.45
763.438	15017.42
763.775	15171.54
764.112	15400.46
764.449	15616.72
764.785	15721.35
765.122	15786.66
765.458	15924.28
765.795	16053.77
766.131	16196.59
766.467	16443.82
766.804	16621.89
767.14	16651.72
767.476	16750.48
767.812	16931.49
768.148	17097.59
768.485	17171.48
768.821	17213.52
769.157	17425.26
769.492	17600.62
769.828	17766.27
770.164	17731.02
770.5	17738.47
770.836	17879.04
771.171	17980.05
771.507	18097.11
771.842	18131.68
772.178	18277.44
772.513	18432.02
772.849	18512.92
773.184	18504.33
773.519	18578.68
773.855	18646.7
774.19	18714.27
774.525	18775.28
774.86	18951.78
775.195	18978.67
775.53	18990.64
775.865	18919.69
776.2	19051.43
776.535	18916.3
776.87	18970.76
777.205	19068.61
777.539	19029.51
777.874	19210.98
778.209	19174.59
778.543	19216.85
778.878	19099.57
779.212	19233.12
779.547	19136.4
779.881	19291.88
780.215	19181.37
780.55	19350.64
780.884	19277.19
781.218	19327.13
781.552	19285.78
781.886	19346.57
782.22	19249.85
782.554	19216.4
782.888	19155.61
783.222	19213.69
783.556	19136.4
783.889	19206.68
784.223	19143.64
784.557	19143.18
784.89	19160.58
785.224	19003.75
785.557	19042.17
785.891	19065.67
786.224	19057.99
786.558	19036.75
786.891	19023.41
787.224	18856.86
787.557	18907.94
787.891	18972.79
788.224	18970.76
788.557	18903.87
788.89	18978.44
789.223	18977.99
789.556	18773.48
789.888	18817.09
790.221	18749.75
790.554	18609.41
790.887	18689.86
791.219	18613.93
791.552	18636.53
791.884	18545.23
792.217	18513.6
792.549	18460.94
792.882	18427.04
793.214	18320.61
793.546	18476.08
793.879	18316.09
794.211	18153.15
794.543	18333.71
794.875	18183.66
795.207	18366.71
795.539	18236.99
795.871	18178.69
796.203	18030.67
796.535	18022.76
796.867	17956.55
797.198	17853.27
797.53	17987.96
797.862	17790
798.193	17847.62
798.525	17770.79
798.856	17786.38
799.188	17635.43
799.519	17665.71
799.85	17582.32
800.182	17567.86
800.513	17467.75
800.844	17383
801.175	17492.38
801.506	17323.8
801.837	17386.85
802.168	17332.61
802.499	17274.08
802.83	17244.02
803.161	17247.19
803.491	17236.11
803.822	17272.95
804.153	17070.7
804.483	16982.56
804.814	16938.5
805.145	16893.52
805.475	16841.55
805.805	16843.36
806.136	16895.56
806.466	16866.41
806.796	16756.13
807.126	16658.5
807.457	16656.24
807.787	16647.88
808.117	16525.85
808.447	16506.87
808.777	16517.49
809.107	16449.69
809.436	16501.67
809.766	16506.87
810.096	16397.94
810.426	16356.36
810.755	16326.99
811.085	16265.52
811.414	16276.59
811.744	16148.91
812.073	16146.2
812.403	16129.48
812.732	16096.48
813.061	16091.74
813.39	16033.43
813.719	15984.85
814.049	16074.79
814.378	15947.56
814.707	15869.14
815.036	15887.45
815.365	15842.25
815.693	15802.93
816.022	15743.27
816.351	15679.09
816.68	15596.38
817.008	15674.57
817.337	15553.9
817.665	15504.18
817.994	15527.46
818.322	15536.95
818.651	15492.88
818.979	15404.52
819.307	15499.44
819.636	15531.75
819.964	15404.98
820.292	15424.64
820.62	15356.39
820.948	15333.57
821.276	15354.13
821.604	15375.6
821.932	15395.03
822.259	15372.21
822.587	15389.16
822.915	15321.59
823.243	15372.43
823.57	15271.65
823.898	15389.16
824.225	15228.26
824.553	15331.31
824.88	15307.8
825.207	15295.37
825.535	15327.92
825.862	15352.1
826.189	15218.31
826.516	15277.52
826.843	15405.88
827.17	15347.58
827.497	15266.45
827.824	15383.28
828.151	15423.05
828.478	15324.98
828.805	15321.14
829.131	15347.58
829.458	15386.9
829.785	15305.09
830.111	15269.16
830.438	15333.79
830.764	15306
831.09	15357.29
831.417	15268.93
831.743	15295.6
832.069	15298.31
832.395	15235.26
832.722	15244.75
833.048	15241.82
833.374	15381.7
833.7	15228.03
834.026	15199.33
834.351	15208.82
834.677	15224.87
835.003	15282.49
835.329	15207.47
835.654	15256.51
835.98	15145.77
836.306	15213.79
836.631	15080.01
836.956	15116.4
837.282	15129.96
837.607	15148.94
837.932	14995.95
838.258	14960.24
838.583	14985.33
838.908	14945.78
839.233	14836.18
839.558	14899.9
839.883	14863.75
840.208	14887.02
840.533	14821.49
840.858	14788.04
841.182	14813.35
841.507	14723.19
841.832	14752.34
842.156	14646.13
842.481	14666.46
842.805	14675.05
843.13	14593.47
843.454	14560.7
843.778	14517.09
844.103	14506.92
844.427	14450.2
844.751	14546.92
845.075	14386.02
845.399	14375.62
845.723	14236.19
846.047	14357.77
846.371	14222.41
846.695	14217.21
847.019	13995.97
847.343	14001.4
847.666	13990.55
847.99	13924.11
848.313	13891.8
848.637	13874.4
848.96	13787.84
849.284	13782.42
849.607	13638.92
849.931	13593.5
850.254	13567.51
850.577	13461.07
850.9	13422.88
851.223	13439.6
851.546	13313.51
851.869	13263.11
852.192	13251.13
852.515	13179.5
852.838	13069.9
853.161	13129.1
853.483	13054.3
853.806	12972.95
854.129	12890.92
854.451	12944.02
854.774	12829
855.096	12727.08
855.419	12757.59
855.741	12739.74
856.063	12682.56
856.385	12612.73
856.708	12619.96
857.03	12624.03
857.352	12595.78
857.674	12556.46
857.996	12496.35
858.318	12377.71
858.64	12362.12
858.961	12363.02
859.283	12341.55
859.605	12248.68
859.926	12356.69
860.248	12238.96
860.57	12147.21
860.891	12236.02
861.212	12128.68
861.534	12145.85
861.855	12006.42
862.176	12086.42
862.498	12074.22
862.819	12118.06
863.14	12095.01
863.461	12031.73
863.782	12068.11
864.103	11972.98
864.424	11911.06
864.745	11891.17
865.065	11820.66
865.386	11780.89
865.707	11790.16
866.027	11823.15
866.348	11693.89
866.668	11766.2
866.989	11735.02
867.309	11673.55
867.63	11727.56
867.95	11684.4
868.27	11603.49
868.59	11606.66
868.91	11631.52
869.23	11568.47
869.55	11533.21
869.87	11614.79
870.19	11555.13
870.51	11532.54
870.83	11558.07
871.15	11451.18
871.469	11415.02
871.789	11500.67
872.109	11529.37
872.428	11341.35
872.748	11494.34
873.067	11383.16
873.386	11405.76
873.706	11309.26
874.025	11316.5
874.344	11280.79
874.663	11290.51
874.982	11280.34
875.301	11257.74
875.62	11201.47
875.939	11241.47
876.258	11210.51
876.577	11244.41
876.896	11081.02
877.214	11098.87
877.533	11030.63
877.852	11106.11
878.17	11074.24
878.489	11102.72
878.807	11132.55
879.125	11062.04
879.444	11011.42
879.762	11008.26
880.08	11083.96
880.398	10918.99
880.716	10931.65
881.034	10889.61
881.352	10894.59
881.67	10875.15
881.988	10868.6
882.306	10791.31
882.624	10745.66
882.941	10719.45
883.259	10710.64
883.577	10674.25
883.894	10727.59
884.212	10679.22
884.529	10659.34
884.846	10568.72
885.164	10603.97
885.481	10534.37
885.798	10549.74
886.115	10437.42
886.432	10439.23
886.75	10466.35
887.067	10444.88
887.383	10408.72
887.7	10372.11
888.017	10389.51
888.334	10369.18
888.651	10328.95
888.967	10342.74
889.284	10297.99
889.6	10251.89
889.917	10177.54
890.233	10189.97
890.55	10138.67
890.866	10109.3
891.182	10087.83
891.498	10050.54
891.815	9992.46
892.131	9946.36
892.447	9958.11
892.763	9982.29
893.079	9866.36
893.395	9877.66
893.71	9862.3
894.026	9822.52
894.342	9838.79
894.657	9724.45
894.973	9681.96
895.289	9728.52
895.604	9713.6
895.92	9638.57
896.235	9623.21
896.55	9547.73
896.865	9517.45
897.181	9479.71
897.496	9479.48
897.811	9435.42
898.126	9368.98
898.441	9391.12
898.756	9333.05
899.071	9268.19
899.386	9314.97
899.7	9201.52
900.015	9158.36
900.33	9091.47
900.644	9126.95
900.959	9114.07
901.273	9071.13
901.588	9051.7
901.902	8953.62
902.216	8969.44
902.531	8958.14
902.845	8929.67
903.159	8834.75
903.473	8831.14
903.787	8737.13
904.101	8749.56
904.415	8754.3
904.729	8652.84
905.042	8659.84
905.356	8637.47
905.67	8588.66
905.984	8575.33
906.297	8519.96
906.611	8478.6
906.924	8489.45
907.237	8425.5
907.551	8474.09
907.864	8377.82
908.177	8388.66
908.491	8270.02
908.804	8292.85
909.117	8273.41
909.43	8215.11
909.743	8121.1
910.056	8197.03
910.368	8139.63
910.681	8024.38
910.994	8068.9
911.307	8061.44
911.619	7941.9
911.932	7988.9
912.244	7922.46
912.557	7857.15
912.869	7835.46
913.181	7769.47
913.494	7805.85
913.806	7777.61
914.118	7701.68
914.43	7638.4
914.742	7653.32
915.054	7592.53
915.366	7571.74
915.678	7530.38
915.99	7515.92
916.302	7489.03
916.613	7403.38
916.925	7399.31
917.236	7350.5
917.548	7313.89
917.859	7330.39
918.171	7243.83
918.482	7260.33
918.794	7204.06
919.105	7202.93
919.416	7145.08
919.727	7127.91
920.038	7105.76
920.349	7077.74
920.66	7029.15
920.971	7018.3
921.282	7016.27
921.593	6969.94
921.903	6953.45
922.214	6916.39
922.525	6903.96
922.835	6924.07
923.146	6794.58
923.456	6809.95
923.767	6780.12
924.077	6711.19
924.387	6742.61
924.697	6673.23
925.008	6646.79
925.318	6651.99
925.628	6630.29
925.938	6580.58
926.248	6542.38
926.558	6564.3
926.867	6462.39
927.177	6474.59
927.487	6452.67
927.796	6369.51
928.106	6395.5
928.416	6419.45
928.725	6394.37
929.034	6312.33
929.344	6255.39
929.653	6326.34
929.962	6262.39
930.271	6180.36
930.581	6176.52
930.89	6197.76
931.199	6078.67
931.508	6100.14
931.817	6093.81
932.125	6058.56
932.434	6056.52
932.743	6013.36
933.051	5985.34
933.36	6011.32
933.669	5898.11
933.977	5915.96
934.286	5893.81
934.594	5884.1
934.902	5805.23
935.21	5822.18
935.519	5791.22
935.827	5762.29
936.135	5724.78
936.443	5744.44
936.751	5719.13
937.059	5686.81
937.367	5631
937.674	5610.88
937.982	5618.11
938.29	5598.23
938.597	5581.05
938.905	5537.89
939.213	5488.63
939.52	5440.49
939.827	5467.61
940.135	5434.62
940.442	5399.82
940.749	5346.26
941.056	5376.77
941.363	5337.44
941.67	5351
941.977	5279.37
942.284	5275.75
942.591	5231.23
942.898	5221.52
943.205	5240.05
943.511	5152.36
943.818	5139.48
944.125	5116.89
944.431	5101.29
944.738	5086.15
945.044	5021.29
945.35	5025.14
945.657	5011.35
945.963	5014.97
946.269	4988.08
946.575	4976.1
946.881	4921.41
947.187	4925.25
947.493	4914.63
947.799	4866.95
948.105	4857.91
948.41	4846.84
948.716	4830.57
949.022	4791.24
949.327	4751.25
949.633	4723.22
949.938	4718.25
950.244	4755.09
950.549	4654.3
950.854	4638.93
951.16	4675.77
951.465	4633.28
951.77	4589.67
952.075	4622.66
952.38	4581.53
952.685	4562.78
952.99	4495.88
953.294	4532.04
953.599	4447.52
953.904	4465.6
954.209	4419.05
954.513	4414.76
954.818	4396.45
955.122	4440.29
955.426	4395.77
955.731	4341.54
956.035	4353.74
956.339	4357.81
956.643	4323.46
956.948	4252.05
957.252	4249.34
957.556	4264.25
957.86	4225.84
958.163	4232.61
958.467	4186.74
958.771	4167.53
959.075	4156.23
959.378	4139.96
959.682	4133.18
959.985	4105.61
960.289	4121.66
960.592	4130.24
960.896	4077.82
961.199	4032.39
961.502	4016.8
961.805	4070.13
962.108	3987.88
962.411	3965.05
962.714	3946.52
963.017	3950.36
963.32	3913.3
963.623	3900.19
963.926	3897.93
964.228	3833.76
964.531	3892.51
964.833	3868.1
965.136	3818.61
965.438	3795.79
965.741	3776.81
966.043	3755.34
966.345	3746.98
966.648	3732.06
966.95	3734.55
967.252	3680.31
967.554	3629.69
967.856	3651.84
968.158	3659.75
968.46	3615.46
968.761	3604.38
969.063	3597.15
969.365	3605.29
969.666	3597.38
969.968	3580.88
970.269	3510.37
970.571	3535.91
970.872	3510.15
971.174	3483.93
971.475	3464.05
971.776	3486.87
972.077	3449.58
972.378	3435.57
972.679	3378.17
972.98	3373.65
973.281	3365.52
973.582	3360.55
973.883	3325.52
974.183	3384.28
974.484	3330.72
974.785	3355.8
975.085	3289.36
975.386	3281.45
975.686	3302.92
975.986	3263.6
976.287	3253.66
976.587	3195.13
976.887	3229.03
977.187	3216.37
977.487	3214.34
977.787	3159.2
978.087	3165.3
978.387	3175.47
978.687	3136.37
978.987	3099.76
979.286	3117.62
979.586	3114.68
979.885	3080.33
980.185	3089.37
980.484	3055.7
980.784	3066.09
981.083	3034.23
981.382	3048.69
981.682	3011.63
981.981	3011.18
982.28	2941.58
982.579	2977.28
982.878	2937.28
983.177	2958.98
983.475	2932.76
983.774	2929.6
984.073	2883.5
984.372	2910.62
984.67	2853.89
984.969	2867.9
985.267	2821.58
985.566	2843.95
985.864	2829.49
986.162	2796.04
986.461	2784.29
986.759	2767.34
987.057	2699.55
987.355	2740.22
987.653	2732.77
987.951	2707.68
988.249	2731.64
988.547	2685.76
988.844	2671.75
989.142	2715.59
989.44	2639.44
989.737	2667.91
990.035	2653.9
990.332	2624.75
990.63	2608.02
990.927	2612.54
991.224	2603.28
991.521	2569.83
991.819	2572.32
992.116	2582.71
992.413	2561.92
992.71	2523.73
993.006	2516.28
993.303	2479.44
993.6	2473.56
993.897	2461.81
994.193	2477.63
994.49	2468.82
994.787	2462.94
995.083	2405.09
995.379	2459.1
995.676	2403.96
995.972	2351.53
996.268	2358.77
996.565	2338.43
996.861	2337.98
997.157	2328.48
997.453	2368.26
997.749	2291.87
998.044	2321.25
998.34	2297.98
998.636	2288.71
998.932	2297.3
999.227	2246.68
999.523	2261.37
999.818	2241.71
1000.114	2232.44
1000.409	2243.51
1000.704	2184.53
1001	2184.31
1001.295	2176.17
1001.59	2173.91
1001.885	2156.29
1002.18	2143.63
1002.475	2142.27
1002.77	2108.6
1003.065	2068.38
1003.359	2119
1003.654	2100.02
1003.949	2086.91
1004.243	2087.81
1004.538	2057.08
1004.832	2035.16
1005.127	2077.87
1005.421	2001.49
1005.715	2025.22
1006.009	1983.18
1006.304	1985.67
1006.598	1984.99
1006.892	1965.56
1007.186	1931.66
1007.48	1964.65
1007.773	1925.1
1008.067	1940.25
1008.361	1905.67
1008.655	1888.04
1008.948	1897.08
1009.242	1907.7
1009.535	1867.93
1009.829	1894.6
1010.122	1843.75
1010.415	1869.06
1010.708	1798.1
1011.001	1817.99
1011.295	1810.53
1011.588	1802.62
1011.881	1756.52
1012.173	1758.78
1012.466	1757.2
1012.759	1747.93
1013.052	1723.08
1013.344	1744.77
1013.637	1730.99
1013.93	1701.83
1014.222	1689.86
1014.514	1699.57
1014.807	1706.13
1015.099	1676.52
1015.391	1684.43
1015.683	1657.32
1015.976	1671.78
1016.268	1623.42
1016.56	1624.77
1016.851	1622.51
1017.143	1580.93
1017.435	1594.27
1017.727	1593.59
1018.018	1568.5
1018.31	1565.34
1018.602	1575.96
1018.893	1534.38
1019.185	1530.09
1019.476	1512.46
1019.767	1495.96
1020.058	1494.16
1020.35	1508.84
1020.641	1504.1
1020.932	1467.49
1021.223	1452.57
1021.514	1459.81
1021.804	1451.22
1022.095	1441.05
1022.386	1447.15
1022.677	1406.25
1022.967	1408.96
1023.258	1400.82
1023.548	1390.43
1023.839	1381.16
1024.129	1377.77
1024.419	1365.35
1024.709	1377.77
1025	1358.79
1025.29	1342.3
1025.58	1334.39
1025.87	1327.83
1026.16	1306.36
1026.449	1316.99
1026.739	1285.57
1027.029	1284.22
1027.319	1286.93
1027.608	1264.11
1027.898	1244.44
1028.187	1261.17
1028.477	1236.99
1028.766	1267.95
1029.055	1226.14
1029.344	1219.13
1029.634	1213.94
1029.923	1187.95
1030.212	1195.86
1030.501	1187.05
1030.79	1196.76
1031.078	1169.64
1031.367	1160.83
1031.656	1160.83
1031.945	1149.08
1032.233	1151.11
1032.522	1129.87
1032.81	1140.72
1033.099	1115.86
1033.387	1140.94
1033.675	1115.41
1033.963	1093.26
1034.251	1097.1
1034.54	1096.65
1034.828	1073.6
1035.116	1063.21
1035.403	1055.75
1035.691	1063.43
1035.979	1039.03
1036.267	1036.31
1036.554	1023.66
1036.842	1016.88
1037.129	1031.34
1037.417	1006.26
1037.704	1039.7
1037.992	996.54
1038.279	995.64
1038.566	961.29
1038.853	961.29
1039.14	961.29
