Data from hue_20_FLMS001491_91.txt Node
Date: Mon Feb 06 15:34:59 GMT 2017
User: dcchb
Spectrometer: FLMS00149
Trigger mode: 0
Integration Time (sec): 2.000000E-2
Scans to average: 10
Electric dark correction enabled: true
Nonlinearity correction enabled: false
Boxcar width: 0
XAxis mode: Wavelengths
Number of Pixels in Spectrum: 2048
>>>>>Begin Spectral Data<<<<<
341.393	2.6
341.776	2.6
342.16	2.6
342.543	-76.27
342.927	-52.32
343.31	-72.65
343.693	-64.74
344.077	-77.17
344.46	-47.12
344.843	-60.22
345.226	-36.95
345.61	-37.4
345.993	-10.51
346.376	-7.57
346.759	8.47
347.142	34.46
347.525	43.5
347.908	77.4
348.291	70.62
348.674	77.85
349.057	102.03
349.44	115.36
349.823	144.97
350.206	166.89
350.588	191.97
350.971	217.51
351.354	238.75
351.737	244.4
352.119	259.54
352.502	262.03
352.884	297.05
353.267	257.96
353.65	308.13
354.032	280.33
354.414	318.52
354.797	297.73
355.179	332.31
355.562	312.87
355.944	331.63
356.326	332.76
356.709	349.26
357.091	351.06
357.473	345.41
357.855	356.04
358.238	354.45
358.62	327.34
359.002	344.06
359.384	342.25
359.766	353.78
360.148	337.05
360.53	334.34
360.912	336.38
361.294	348.58
361.676	354
362.057	340.22
362.439	323.04
362.821	335.25
363.203	332.53
363.584	350.61
363.966	349.03
364.348	308.13
364.729	319.43
365.111	318.75
365.493	323.95
365.874	344.28
366.256	323.95
366.637	330.95
367.019	314.91
367.4	332.76
367.781	338.41
368.163	325.08
368.544	317.84
368.925	333.66
369.306	321.91
369.688	332.31
370.069	325.98
370.45	324.17
370.831	320.56
371.212	307.9
371.593	327.56
371.974	329.37
372.355	336.83
372.736	331.63
373.117	316.71
373.498	325.75
373.879	338.41
374.26	317.62
374.641	321.46
375.021	317.39
375.402	325.3
375.783	315.58
376.163	342.7
376.544	335.02
376.925	331.18
377.305	344.06
377.686	323.49
378.066	349.71
378.447	339.77
378.827	365.08
379.208	348.35
379.588	341.57
379.968	343.15
380.349	336.83
380.729	343.38
381.109	338.41
381.489	362.36
381.87	371.18
382.25	343.38
382.63	365.08
383.01	356.71
383.39	354
383.77	347.9
384.15	357.84
384.53	342.02
384.91	357.62
385.29	350.39
385.67	366.88
386.049	364.4
386.429	350.16
386.809	361.23
387.189	361.01
387.568	365.98
387.948	384.96
388.328	380.67
388.707	372.08
389.087	389.48
389.466	377.05
389.846	377.05
390.225	375.7
390.605	410.27
390.984	394.9
391.363	403.94
391.743	398.29
392.122	384.51
392.501	395.13
392.881	392.87
393.26	410.5
393.639	382.48
394.018	395.36
394.397	386.32
394.776	393.77
395.155	412.76
395.534	405.53
395.913	404.85
396.292	418.63
396.671	424.51
397.05	417.28
397.429	421.57
397.808	410.72
398.186	414.34
398.565	422.25
398.944	411.85
399.323	433.1
399.701	435.36
400.08	433.1
400.458	433.32
400.837	412.76
401.215	431.97
401.594	434
401.972	440.1
402.351	435.81
402.729	431.74
403.107	416.15
403.486	438.52
403.864	442.14
404.242	434.45
404.62	437.39
404.999	466.77
405.377	461.12
405.755	458.86
406.133	484.17
406.511	448.46
406.889	459.31
407.267	486.88
407.645	451.17
408.023	487.56
408.401	467.67
408.779	463.83
409.156	478.97
409.534	452.08
409.912	479.2
410.29	475.58
410.667	484.62
411.045	498.86
411.422	489.37
411.8	466.77
412.178	500.21
412.555	521.68
412.933	535.24
413.31	517.16
413.687	515.13
414.065	512.64
414.442	511.74
414.819	518.74
415.197	519.65
415.574	531.85
415.951	526.88
416.328	547.44
416.705	555.58
417.082	544.51
417.46	555.8
417.837	565.52
418.214	549.93
418.591	575.01
418.967	566.2
419.344	568.23
419.721	580.44
420.098	588.12
420.475	577.95
420.852	590.38
421.228	600.32
421.605	593.09
421.982	598.06
422.358	584.28
422.735	584.28
423.111	615.92
423.488	619.31
423.864	617.5
424.241	633.54
424.617	636.93
424.994	627.44
425.37	638.51
425.746	607.55
426.123	634.45
426.499	657.95
426.875	659.53
427.251	663.15
427.627	665.86
428.003	654.33
428.379	668.12
428.756	681.23
429.132	696.82
429.507	680.55
429.883	684.84
430.259	723.03
430.635	696.14
431.011	684.84
431.387	726.87
431.763	715.57
432.138	735.91
432.514	732.52
432.89	735.23
433.265	748.34
433.641	754.67
434.016	751.96
434.392	782.47
434.767	779.53
435.143	778.62
435.518	812.75
435.894	805.97
436.269	788.34
436.644	784.05
437.02	800.32
437.395	814.78
437.77	823.59
438.145	828.34
438.52	839.19
438.895	861.56
439.271	868.56
439.646	853.88
440.021	871.28
440.395	858.62
440.77	849.81
441.145	864.27
441.52	895.46
441.895	896.59
442.27	878.06
442.645	890.49
443.019	904.27
443.394	898.39
443.769	934.1
444.143	923.48
444.518	925.29
444.892	927.55
445.267	948.34
445.641	929.35
446.016	962.35
446.39	962.12
446.764	974.78
447.139	958.51
447.513	972.97
447.887	1003.48
448.262	965.96
448.636	987.43
449.01	998.28
449.384	1012.97
449.758	1021.1
450.132	1034.66
450.506	1026.98
450.88	1032.63
451.254	1036.24
451.628	1038.5
452.002	1052.29
452.376	1084.83
452.75	1059.07
453.123	1073.53
453.497	1106.3
453.871	1096.81
454.244	1082.34
454.618	1113.76
454.992	1108.78
455.365	1124.6
455.739	1164.6
456.112	1163.92
456.486	1182
456.859	1175.45
457.232	1208.22
457.606	1205.73
457.979	1229.46
458.352	1254.77
458.725	1257.71
459.099	1259.74
459.472	1275.56
459.845	1265.62
460.218	1311.72
460.591	1309.91
460.964	1308.1
461.337	1349.91
461.71	1332.51
462.083	1371.38
462.456	1366.86
462.829	1398.04
463.201	1411.15
463.574	1410.7
463.947	1466.74
464.32	1445.72
464.692	1466.52
465.065	1503.58
465.438	1516.23
465.81	1548.55
466.183	1528.21
466.555	1562.78
466.928	1588.09
467.3	1589.45
467.672	1589.9
468.045	1647.08
468.417	1622.44
468.789	1661.76
469.161	1689.33
469.534	1727.98
469.906	1716.9
470.278	1770.24
470.65	1739.73
471.022	1786.05
471.394	1824.47
471.766	1890.46
472.138	1896.79
472.51	1933.62
472.882	1954.41
473.253	1952.6
473.625	1969.55
473.997	2033.05
474.369	2013.62
474.74	2080.74
475.112	2090
475.484	2148.31
475.855	2144.01
476.227	2203.44
476.598	2256.55
476.97	2299.94
477.341	2320.05
477.713	2369.32
478.084	2410.67
478.455	2457.22
478.827	2455.87
479.198	2512.82
479.569	2518.24
479.94	2645.92
480.311	2633.04
480.682	2714.62
481.053	2790.1
481.424	2828.51
481.795	2845.24
482.166	2910.54
482.537	2938.57
482.908	3051.56
483.279	3020.37
483.65	3110.77
484.021	3119.35
484.391	3200.25
484.762	3207.71
485.133	3249.07
485.503	3325.9
485.874	3372.68
486.244	3446.58
486.615	3473.92
486.985	3557.08
487.356	3620.58
487.726	3636.85
488.097	3756.85
488.467	3738.55
488.837	3809.73
489.207	3873.68
489.578	3950.74
489.948	3972.66
490.318	4038.42
490.688	4054.24
491.058	4069.61
491.428	4178.31
491.798	4233.9
492.168	4328.36
492.538	4383.5
492.908	4346.67
493.278	4408.36
493.648	4449.49
494.017	4496.94
494.387	4574.23
494.757	4593.44
495.126	4660.56
495.496	4679.54
495.866	4705.98
496.235	4780.33
496.605	4821.91
496.974	4856.93
497.344	4907.55
497.713	4970.38
498.082	5017.38
498.452	5034.56
498.821	5039.75
499.19	5067.55
499.559	5134.89
499.928	5166.53
500.298	5201.33
500.667	5247.66
501.036	5232.07
501.405	5316.81
501.774	5303.25
502.143	5392.06
502.512	5395.45
502.88	5427.31
503.249	5449.24
503.618	5481.78
503.987	5534.66
504.356	5573.53
504.724	5578.95
505.093	5603.81
505.462	5636.12
505.83	5678.16
506.199	5726.29
506.567	5796.34
506.936	5812.84
507.304	5839.28
507.672	5869.56
508.041	5916.34
508.409	5908.43
508.777	6014.87
509.145	6023.68
509.514	5970.13
509.882	6090.57
510.25	6060.74
510.618	6149.78
510.986	6133.29
511.354	6190.23
511.722	6202.21
512.09	6250.34
512.458	6307.97
512.826	6317.91
513.193	6367.63
513.561	6369.21
513.929	6416.22
514.297	6474.29
514.664	6454.63
515.032	6555.19
515.4	6545.25
515.767	6575.99
516.135	6624.35
516.502	6626.61
516.869	6683.33
517.237	6739.82
517.604	6702.31
517.972	6729.43
518.339	6844.9
518.706	6827.5
519.073	6900.27
519.44	6875.41
519.808	6979.59
520.175	7033.83
520.542	7048.97
520.909	7098.91
521.276	7094.62
521.643	7139.36
522.009	7182.75
522.376	7229.98
522.743	7216.42
523.11	7311.56
523.477	7433.36
523.843	7391.56
524.21	7464.55
524.577	7560.82
524.943	7541.16
525.31	7604.88
525.676	7673.13
526.043	7673.81
526.409	7726.01
526.776	7774.6
527.142	7779.57
527.508	7885.56
527.874	7970.98
528.241	8031.99
528.607	8029.05
528.973	8081.03
529.339	8082.16
529.705	8207.13
530.071	8227.69
530.437	8251.65
530.803	8318.09
531.169	8311.08
531.535	8368.48
531.901	8364.64
532.267	8427.01
532.632	8480.12
532.998	8501.36
533.364	8498.42
533.73	8619.55
534.095	8644.86
534.461	8666.78
534.826	8798.07
535.192	8740.9
535.557	8861.57
535.923	8839.2
536.288	8859.09
536.653	8943.15
537.019	8879.88
537.384	8936.15
537.749	8992.64
538.114	9013.66
538.479	9058.63
538.845	9144.73
539.21	9099.53
539.575	9206.2
539.94	9162.58
540.305	9273.09
540.67	9248.91
541.034	9254.11
541.399	9317.61
541.764	9323.26
542.129	9408.23
542.494	9446.19
542.858	9522.8
543.223	9494.1
543.587	9539.52
543.952	9612.29
544.316	9538.85
544.681	9540.65
545.045	9713.08
545.41	9736.81
545.774	9790.59
546.138	9797.14
546.503	9779.97
546.867	9904.49
547.231	9915.11
547.595	9911.72
547.959	9978.16
548.324	9951.72
548.688	10021.54
549.052	10072.62
549.416	10108.32
549.779	10163.91
550.143	10144.71
550.507	10266.06
550.871	10194.65
551.235	10249.56
551.599	10310.35
551.962	10391.93
552.326	10423.12
552.689	10440.97
553.053	10416.79
553.417	10482.32
553.78	10584.92
554.143	10547.86
554.507	10591.92
554.87	10641.87
555.234	10808.19
555.597	10680.96
555.96	10740.85
556.323	10793.73
556.686	10802.77
557.05	10844.8
557.413	10865.82
557.776	10872.82
558.139	10996.89
558.502	10996.21
558.865	11074.4
559.228	11129.99
559.59	11189.2
559.953	11191.23
560.316	11332.92
560.679	11317.1
561.041	11363.2
561.404	11418.34
561.767	11485.91
562.129	11393.03
562.492	11565.01
562.854	11443.65
563.217	11553.93
563.579	11610.88
563.941	11678.68
564.304	11709.41
564.666	11800.03
565.028	11795.28
565.39	11898.11
565.753	11917.31
566.115	12007.48
566.477	12036.86
566.839	12063.3
567.201	12145.78
567.563	12141.94
567.925	12179.23
568.287	12172.22
568.648	12207.02
569.01	12411.09
569.372	12350.75
569.734	12403.85
570.095	12504.87
570.457	12536.28
570.819	12536.28
571.18	12494.02
571.542	12611.76
571.903	12678.88
572.265	12782.38
572.626	12766.33
572.987	12883.16
573.349	12918.19
573.71	12971.52
574.071	13117.51
574.432	13143.5
574.794	13298.52
575.155	13219.88
575.516	13244.51
575.877	13362.93
576.238	13432.08
576.599	13464.84
576.96	13494.22
577.32	13566.54
577.681	13698.28
578.042	13874.55
578.403	13808.56
578.763	13930.82
579.124	14033.87
579.485	14093.53
579.845	14185.95
580.206	14293.3
580.566	14376.01
580.927	14450.58
581.287	14680.4
581.648	14704.13
582.008	14905.94
582.368	14974.18
582.728	15118.81
583.089	15243.1
583.449	15342.53
583.809	15605.13
584.169	15551.34
584.529	15740.26
584.889	16113.59
585.249	16128.95
585.609	16225.22
585.969	16519.45
586.329	16707.47
586.688	16853.46
587.048	17088.03
587.408	17145.88
587.768	17344.74
588.127	17594.45
588.487	17885.97
588.846	18143.82
589.206	18309.24
589.565	18442.79
589.925	18760.75
590.284	18895.21
590.643	19221.75
591.003	19541.97
591.362	19774.73
591.721	19906.26
592.08	20319.8
592.44	20546.69
592.799	20795.72
593.158	21083.63
593.517	21303.73
593.876	21664.4
594.235	21844.74
594.593	22105.97
594.952	22497.83
595.311	22758.61
595.67	23025.27
596.029	23324.7
596.387	23674.07
596.746	24046.26
597.104	24223.66
597.463	24362.64
597.822	24874.26
598.18	25104.99
598.538	25215.72
598.897	25769.83
599.255	25809.38
599.613	26420.66
599.972	26692.52
600.33	26838.05
600.688	27105.16
601.046	27459.5
601.404	27788.08
601.762	28025.36
602.12	28495.86
602.478	28805.91
602.836	28888.17
603.194	29039.12
603.552	29463.52
603.91	29588.04
604.268	30014.24
604.625	30216.95
604.983	30603.83
605.341	30645.18
605.698	31123.14
606.056	31324.71
606.413	31631.82
606.771	31853.74
607.128	32149.78
607.485	32307.29
607.843	32567.39
608.2	32979.36
608.557	33273.36
608.914	33384.77
609.272	33679
609.629	34022.95
609.986	34323.5
610.343	34431.98
610.7	34849.14
611.057	34897.5
611.414	35071.06
611.771	35390.82
612.127	35620.87
612.484	35687.54
612.841	36067.87
613.198	35972.73
613.554	36194.19
613.911	36576.1
614.267	36791.69
614.624	36736.77
614.98	37278.68
615.337	37499.69
615.693	37539.24
616.05	37568.39
616.406	37949.85
616.762	37876.18
617.118	38066.68
617.475	38228.26
617.831	38548.48
618.187	38704.86
618.543	38881.58
618.899	39183.04
619.255	39204.73
619.611	39317.95
619.967	39537.15
620.323	39743.02
620.678	39737.6
621.034	39647.88
621.39	39970.36
621.746	39887.88
622.101	40524.47
622.457	40154.09
622.812	40367.87
623.168	40453.29
623.523	40688.31
623.879	40891.02
624.234	40624.81
624.589	40881.3
624.945	40980.73
625.3	41172.14
625.655	41086.94
626.01	41371
626.365	41368.52
626.72	41319.93
627.075	41460.49
627.43	41590.43
627.785	41410.55
628.14	41618.23
628.495	41751.78
628.85	41756.08
629.205	41681.95
629.559	41910.88
629.914	41915.4
630.269	41935.73
630.623	41919.24
630.978	41984.55
631.332	42046.69
631.687	42117.88
632.041	41932.57
632.396	42135.73
632.75	42001.27
633.104	42158.78
633.459	42016.41
633.813	41986.81
634.167	42139.57
634.521	42099.35
634.875	42152.45
635.229	42168.72
635.583	41843.08
635.937	42116.29
636.291	41862.74
636.645	42059.12
636.999	42168.72
637.352	42194.48
637.706	41855.28
638.06	42143.64
638.413	42112
638.767	41952.68
639.121	42128.27
639.474	41976.86
639.828	41940.48
640.181	42015.05
640.534	42160.13
640.888	41958.33
641.241	41844.21
641.594	42019.57
641.947	42006.69
642.301	41963.76
642.654	41956.52
643.007	41962.4
643.36	41920.14
643.713	41802.63
644.066	42157.87
644.419	41753.82
644.771	41546.82
645.124	41224.57
645.477	41190.22
645.83	40958.58
646.182	40929.66
646.535	40739.38
646.888	40719.27
647.24	40575.09
647.593	40724.69
647.945	40728.99
648.298	40525.6
648.65	40557.69
649.002	40428.65
649.355	40587.75
649.707	40451.25
650.059	40724.01
650.411	41215.75
650.763	41319.93
651.115	41678.57
651.467	41666.36
651.819	41537.55
652.171	41497.55
652.523	41456.42
652.875	41325.35
653.227	41148.18
653.578	41469.76
653.93	41450.77
654.282	41124.91
654.633	41191.8
654.985	41320.16
655.337	41272.25
655.688	41223.89
656.039	41429.53
656.391	41122.65
656.742	41200.39
657.094	41182.76
657.445	41291.68
657.796	41199.48
658.147	41091.46
658.498	41035.64
658.849	41303.21
659.2	41188.41
659.551	41114.51
659.902	41115.87
660.253	41028.19
660.604	41078.35
660.955	40977.34
661.306	41140.73
661.656	40997.91
662.007	41013.27
662.358	40940.28
662.708	40942.99
663.059	41093.04
663.409	40783
663.76	41107.05
664.11	41076.77
664.461	41101.18
664.811	41026.6
665.161	40967.85
665.511	40931.24
665.862	40933.05
666.212	41067.96
666.562	41195.41
666.912	40963.1
667.262	40955.87
667.612	40947.74
667.962	40937.79
668.312	40912.26
668.662	41071.58
669.011	41009.43
669.361	40887.4
669.711	40909.77
670.06	40862.32
670.41	40834.75
670.76	40781.41
671.109	40973.72
671.459	40780.74
671.808	40707.97
672.157	40861.19
672.507	40570.57
672.856	40638.82
673.205	40703.9
673.554	40814.63
673.904	40729.44
674.253	40866.38
674.602	40835.2
674.951	40278.6
675.3	39909.8
675.649	40619.38
675.998	40608.31
676.346	40653.73
676.695	40717.69
677.044	40303.01
677.393	40407.41
677.741	40615.09
678.09	40456
678.438	40389.79
678.787	40407.64
679.135	40395.89
679.484	40073.64
679.832	40320.18
680.181	40158.83
680.529	40223.91
680.877	39955.9
681.225	40114.99
681.573	40191.15
681.922	40012.62
682.27	39843.13
682.618	39871.16
682.966	39734.21
683.314	39778.05
683.661	39736.92
684.009	39671.16
684.357	39565.63
684.705	39463.03
685.053	39492.63
685.4	39415.35
685.748	39220.32
686.095	39436.59
686.443	39178.52
686.79	39088.58
687.138	39260.55
687.485	39124.96
687.832	39076.15
688.18	39013.32
688.527	38766.78
688.874	38778.53
689.221	38632.77
689.568	38691.98
689.915	38508.03
690.262	38502.38
690.609	38355.49
690.956	38385.77
691.303	38219.45
691.65	38086.34
691.997	38068.04
692.344	37964.99
692.69	38002.05
693.037	37902.85
693.383	37509.41
693.73	37720.93
694.077	37575.4
694.423	37448.62
694.769	37390.32
695.116	37257.44
695.462	37275.07
695.808	37115.75
696.155	37274.61
696.501	36994.85
696.847	36910.1
697.193	36718.7
697.539	36772.93
697.885	36574.52
698.231	36412.26
698.577	36556.89
698.923	36310.34
699.269	36227.41
699.614	36043.69
699.96	35936.12
700.306	36036.23
700.651	35791.71
700.997	35781.55
701.342	35671.72
701.688	35572.96
702.033	35490.25
702.379	35487.54
702.724	35356.47
703.069	35384.72
703.415	35017.95
703.76	35025.41
704.105	35051.17
704.45	34909.7
704.795	34645.76
705.14	34757.84
705.485	34641.01
705.83	34609.15
706.175	34530.05
706.52	34461.13
706.865	34420.22
707.209	34328.7
707.554	34139.55
707.899	34321.7
708.243	34021.82
708.588	34033.79
708.932	33899.33
709.277	33764.42
709.621	33899.33
709.966	33675.16
710.31	33690.75
710.654	33463.64
710.998	33485.56
711.342	33434.71
711.687	33302.97
712.031	33225.91
712.375	33094.61
712.719	33197.21
713.063	33052.35
713.407	33253.25
713.75	32868.63
714.094	32898.01
714.438	32765.58
714.782	32848.51
715.125	32676.77
715.469	32651.68
715.812	32568.07
716.156	32534.17
716.499	32314.74
716.843	32493.72
717.186	32234.75
717.53	32389.09
717.873	32351.58
718.216	32323.56
718.559	32125.82
718.902	31894.87
719.246	32087.86
719.589	31856
719.932	31785.49
720.275	31896.45
720.617	31794.31
720.96	31608.55
721.303	31688.09
721.646	31657.59
721.989	31391.15
722.331	31431.6
722.674	31506.18
723.016	31509.12
723.359	31294.21
723.701	31358.38
724.044	31272.96
724.386	31052.4
724.729	31225.51
725.071	31075.45
725.413	31064.61
725.755	30908.23
726.097	30911.84
726.439	30736.48
726.782	30782.13
727.124	30968.56
727.465	30696.48
727.807	30741.45
728.149	30672.3
728.491	30561.12
728.833	30646.31
729.175	30350.5
729.516	30519.76
729.858	30421.46
730.199	30479.99
730.541	30345.3
730.882	30255.81
731.224	30449.26
731.565	30233.44
731.906	30185.76
732.248	30199.32
732.589	30017.18
732.93	29934.92
733.271	29903.28
733.612	30004.07
733.953	30130.62
734.294	29946.67
734.635	29808.59
734.976	29787.8
735.317	29758.2
735.658	29696.51
735.999	29715.49
736.339	29532.44
736.68	29697.64
737.021	29597.07
737.361	29417.19
737.702	29629.16
738.042	29531.31
738.383	29412.67
738.723	29551.65
739.063	29345.78
739.404	29352.34
739.744	29273.24
740.084	29215.62
740.424	29200.02
740.764	29168.39
741.104	29225.79
741.444	29053.13
741.784	28974.49
742.124	29074.15
742.464	29016.3
742.804	28923.87
743.143	28966.36
743.483	28945.11
743.823	28823.76
744.162	28731.56
744.502	28661.28
744.841	28566.37
745.181	28673.26
745.52	28626.7
745.86	28654.5
746.199	28600.04
746.538	28624.45
746.877	28492.47
747.216	28443.88
747.556	28440.27
747.895	28376.99
748.234	28411.34
748.573	28308.52
748.911	28235.98
749.25	28201.63
749.589	28219.94
749.928	28135.87
750.267	28168.64
750.605	28125.93
750.944	28045.03
751.283	27985.37
751.621	28071.24
751.96	27954.41
752.298	27767.97
752.636	27770.91
752.975	27772.04
753.313	27596.45
753.651	27788.99
753.989	27713.51
754.327	27656.33
754.666	27516.68
755.004	27510.35
755.342	27431.26
755.679	27360.07
756.017	27237.81
756.355	27307.64
756.693	27275.1
757.031	27206.4
757.368	27128.89
757.706	26964.15
758.044	26878.28
758.381	26946.98
758.719	26922.34
759.056	26900.42
759.394	26804.38
759.731	26665.4
760.068	26608.68
760.405	26509.7
760.743	26386.31
761.08	26537.49
761.417	26337.05
761.754	26289.14
762.091	26333.43
762.428	26304.05
762.765	26001.46
763.102	26075.36
763.438	26095.47
763.775	25758.98
764.112	25789.94
764.449	25868.36
764.785	25823.16
765.122	25478.99
765.458	25496.62
765.795	25440.8
766.131	25463.4
766.467	25332.1
766.804	25186.34
767.14	24998.33
767.476	25082.39
767.812	24846.24
768.148	24989.74
768.485	24785.45
768.821	24744.55
769.157	24680.82
769.492	24589.3
769.828	24610.77
770.164	24230.89
770.5	24367.16
770.836	24336.65
771.171	24162.19
771.507	24206.03
771.842	23947.51
772.178	23901.63
772.513	23919.71
772.849	23785.7
773.184	23793.16
773.519	23653.28
773.855	23592.04
774.19	23454.19
774.525	23343.45
774.86	23439.5
775.195	23362.21
775.53	23133.29
775.865	23154.53
776.2	22911.37
776.535	22896.23
776.87	22789.8
777.205	22612.17
777.539	22681.55
777.874	22644.04
778.209	22572.63
778.543	22362.69
778.878	22259.41
779.212	22326.98
779.547	22126.08
779.881	22207.89
780.215	21986.65
780.55	22036.82
780.884	21903.72
781.218	21840.44
781.552	21809.48
781.886	21631.18
782.22	21559.32
782.554	21525.42
782.888	21287.91
783.222	21223.06
783.556	21066.68
783.889	21173.79
784.223	20961.14
784.557	20939.9
784.89	21042.05
785.224	20841.6
785.557	20696.52
785.891	20742.17
786.224	20613.58
786.558	20676.18
786.891	20441.61
787.224	20373.59
787.557	20389.41
787.891	20342.18
788.224	20256.98
788.557	20298.79
788.89	20153.93
789.223	20110.09
789.556	20015.63
789.888	19913.71
790.221	19931.79
790.554	19690.22
790.887	19677.11
791.219	19617.68
791.552	19618.13
791.884	19529.09
792.217	19394.41
792.549	19307.63
792.882	19245.26
793.214	19101.53
793.546	19278.25
793.879	19025.83
794.211	18970.69
794.543	19004.59
794.875	18893.18
795.207	18988.77
795.539	18798.94
795.871	18763.46
796.203	18533.86
796.535	18595.1
796.867	18518.04
797.198	18413.19
797.53	18483.69
797.862	18284.15
798.193	18400.08
798.525	18244.38
798.856	18240.09
799.188	18062.91
799.519	17954.22
799.85	18004.84
800.182	17920.32
800.513	17853.88
800.844	17784.73
801.175	17816.14
801.506	17828.34
801.837	17672.42
802.168	17686.43
802.499	17563.27
802.83	17509.94
803.161	17460.67
803.491	17470.39
803.822	17445.76
804.153	17317.85
804.483	17325.99
804.814	17162.6
805.145	17140.45
805.475	17100
805.805	17008.03
806.136	17043.73
806.466	17023.62
806.796	16927.8
807.126	16782.5
807.457	16787.47
807.787	16844.19
808.117	16676.51
808.447	16665.89
808.777	16526.68
809.107	16558.77
809.436	16499.79
809.766	16608.49
810.096	16459.79
810.426	16410.98
810.755	16383.86
811.085	16291.89
811.414	16299.12
811.744	16186.35
812.073	16202.17
812.403	16206.24
812.732	16025.23
813.061	16011.67
813.39	15980.03
813.719	15874.27
814.049	15972.57
814.378	15880.15
814.707	15844.67
815.036	15911.33
815.365	15759.25
815.693	15609.87
816.022	15624.56
816.351	15657.1
816.68	15489.88
817.008	15621.17
817.337	15361.74
817.665	15399.03
817.994	15455.3
818.322	15434.28
818.651	15290.56
818.979	15239.26
819.307	15234.97
819.636	15280.62
819.964	15183.44
820.292	15148.64
820.62	15208.75
820.948	15139.83
821.276	15227.74
821.604	15113.61
821.932	15101.18
822.259	15024.35
822.587	15028.87
822.915	15127.4
823.243	15134.18
823.57	15061.64
823.898	15055.08
824.225	15045.59
824.553	15111.13
824.88	15057.12
825.207	15142.09
825.535	14987.74
825.862	15034.07
826.189	15007.85
826.516	15132.14
826.843	15172.37
827.17	15051.47
827.497	15192.26
827.824	15023.22
828.151	15044.69
828.478	15017.35
828.805	15087.63
829.131	15020.73
829.458	14969.44
829.785	14885.6
830.111	14944.58
830.438	15031.81
830.764	15097.12
831.09	15067.06
831.417	14924.69
831.743	15079.49
832.069	14960.62
832.395	14952.49
832.722	14975.76
833.048	14963.11
833.374	14938.25
833.7	14772.61
834.026	14904.81
834.351	14844.02
834.677	14883.56
835.003	14879.95
835.329	14836.11
835.654	14761.08
835.98	14705.72
836.306	14773.28
836.631	14708.2
836.956	14719.05
837.282	14718.82
837.607	14693.74
837.932	14671.59
838.258	14634.53
838.583	14571.71
838.908	14455.1
839.233	14533.97
839.558	14530.8
839.883	14470.69
840.208	14439.51
840.533	14475.66
840.858	14443.12
841.182	14425.72
841.507	14354.99
841.832	14326.06
842.156	14313.63
842.481	14231.6
842.805	14234.99
843.13	14169.68
843.454	14179.4
843.778	14111.61
844.103	14091.95
844.427	14053.53
844.751	14106.18
845.075	14048.33
845.399	13996.58
845.723	13844.95
846.047	13853.53
846.371	13818.05
846.695	13857.83
847.019	13632.3
847.343	13680.88
847.666	13576.93
847.99	13493.77
848.313	13541.45
848.637	13381.68
848.96	13329.25
849.284	13385.75
849.607	13229.82
849.931	13295.13
850.254	13159.54
850.577	13063.72
850.9	12982.14
851.223	12899.89
851.546	12897.4
851.869	12803.62
852.192	12893.33
852.515	12715.94
852.838	12779.21
853.161	12790.96
853.483	12678.42
853.806	12623.06
854.129	12586
854.451	12491.08
854.774	12477.07
855.096	12449.96
855.419	12379.9
855.741	12367.47
856.063	12282.95
856.385	12209.96
856.708	12215.16
857.03	12115.05
857.352	12205.89
857.674	12081.15
857.996	12125.44
858.318	12037.31
858.64	12039.34
858.961	11942.17
859.283	11908.05
859.605	11854.26
859.926	11851.78
860.248	11857.88
860.57	11786.24
860.891	11825.34
861.212	11720.48
861.534	11710.99
861.855	11750.54
862.176	11745.11
862.498	11658.34
862.819	11643.65
863.14	11649.07
863.461	11573.82
863.782	11531.79
864.103	11579.47
864.424	11433.71
864.745	11572.24
865.065	11468.96
865.386	11453.6
865.707	11424.9
866.027	11408.63
866.348	11303.54
866.668	11347.16
866.989	11386.25
867.309	11241.17
867.63	11353.94
867.95	11279.82
868.27	11167.05
868.59	11307.84
868.91	11281.62
869.23	11291.12
869.55	11086.38
869.87	11173.15
870.19	11195.3
870.51	11158.01
870.83	11138.8
871.15	11162.98
871.469	11107.39
871.789	11099.48
872.109	11108.52
872.428	11019.26
872.748	11056.77
873.067	11005.93
873.386	10990.78
873.706	11023.33
874.025	10949.88
874.344	10908.07
874.663	11044.12
874.982	10894.74
875.301	10875.99
875.62	10852.03
875.939	10840.28
876.258	10767.29
876.577	10780.62
876.896	10830.79
877.214	10730.9
877.533	10721.19
877.852	10761.19
878.17	10735.2
878.489	10738.59
878.807	10701.07
879.125	10633.05
879.444	10675.76
879.762	10679.15
880.08	10626.5
880.398	10566.84
880.716	10598.93
881.034	10521.19
881.352	10575.43
881.67	10474.64
881.988	10513.51
882.306	10433.51
882.624	10443.91
882.941	10353.74
883.259	10345.6
883.577	10401.42
883.894	10268.54
884.212	10326.17
884.529	10290.46
884.846	10288.43
885.164	10214.99
885.481	10187.87
885.798	10254.98
886.115	10180.86
886.432	10158.72
886.75	10129.56
887.067	10118.72
887.383	10041.2
887.7	10120.07
888.017	10017.25
888.334	10073.75
888.651	9970.7
888.967	10026.29
889.284	9947.2
889.6	9915.11
889.917	9870.59
890.233	9836.69
890.55	9767.77
890.866	9837.14
891.182	9789.91
891.498	9664.49
891.815	9732.06
892.131	9698.62
892.447	9645.74
892.763	9605.06
893.079	9595.34
893.395	9513.99
893.71	9582.69
894.026	9485.06
894.342	9473.54
894.657	9411.62
894.973	9334.56
895.289	9437.83
895.604	9355.8
895.92	9289.59
896.235	9219.08
896.55	9255.24
896.865	9238.74
897.181	9213.43
897.496	9116.94
897.811	9110.16
898.126	9068.8
898.441	9102.25
898.756	9037.62
899.071	9008.92
899.386	8966.2
899.7	8985.87
900.015	8945.87
900.33	8858.19
900.644	8869.03
900.959	8882.82
901.273	8841.46
901.588	8751.07
901.902	8754.46
902.216	8691.18
902.531	8687.79
902.845	8698.64
903.159	8579.55
903.473	8601.92
903.787	8565.31
904.101	8502.94
904.415	8502.71
904.729	8441.92
905.042	8451.19
905.356	8349.72
905.67	8307.24
905.984	8394.02
906.297	8326
906.611	8249.39
906.924	8294.13
907.237	8239.22
907.551	8163.97
907.864	8100.69
908.177	8101.82
908.491	8067.02
908.804	8033.12
909.117	7985.89
909.43	7951.32
909.743	7933.92
910.056	7967.59
910.368	7931.88
910.681	7794.94
910.994	7805.11
911.307	7760.81
911.619	7717.2
911.932	7723.75
912.244	7659.57
912.557	7725.33
912.869	7594.49
913.181	7548.39
913.494	7585.68
913.806	7525.56
914.118	7544.55
914.43	7435.62
914.742	7469.52
915.054	7352.91
915.366	7350.43
915.678	7330.09
915.99	7278.11
916.302	7288.28
916.613	7284.44
916.925	7241.5
917.236	7182.52
917.548	7142.98
917.859	7180.94
918.171	7086.03
918.482	7101.62
918.794	7042.41
919.105	7038.35
919.416	6994.05
919.727	6942.53
920.038	6893.72
920.349	6968.29
920.66	6830.67
920.971	6837.45
921.282	6838.58
921.593	6781.63
921.903	6699.37
922.214	6724.46
922.525	6694.63
922.835	6706.83
923.146	6630.9
923.456	6673.16
923.767	6598.13
924.077	6570.11
924.387	6566.49
924.697	6507.74
925.008	6505.7
925.318	6466.38
925.628	6492.6
925.938	6366.05
926.248	6299.83
926.558	6331.47
926.867	6286.28
927.177	6268.65
927.487	6293.28
927.796	6186.17
928.106	6259.61
928.416	6204.7
928.725	6166.28
929.034	6145.94
929.344	6114.75
929.653	6096.68
929.962	6001.09
930.271	6016.68
930.581	6013.06
930.89	5974.65
931.199	5931.03
931.508	5918.38
931.817	5924.03
932.125	5895.1
932.434	5886.96
932.743	5778.27
933.051	5760.41
933.36	5744.14
933.669	5742.79
933.977	5682.9
934.286	5696.23
934.594	5693.52
934.902	5606.97
935.21	5645.39
935.519	5616.01
935.827	5552.51
936.135	5538.27
936.443	5503.02
936.751	5492.85
937.059	5479.52
937.367	5479.97
937.674	5442.23
937.982	5430.48
938.29	5404.72
938.597	5428.9
938.905	5322.46
939.213	5316.58
939.52	5306.64
939.827	5312.29
940.135	5270.26
940.442	5241.11
940.749	5218.51
941.056	5256.25
941.363	5172.18
941.67	5180.77
941.977	5132.18
942.284	5123.14
942.591	5055.35
942.898	5021.22
943.205	5044.73
943.511	5030.26
943.818	4974.67
944.125	4918.18
944.431	4919.98
944.738	4944.16
945.044	4861
945.35	4874.11
945.657	4912.3
945.963	4823.71
946.269	4792.3
946.575	4800.44
946.881	4796.82
947.187	4794.34
947.493	4720.44
947.799	4719.31
948.105	4691.06
948.41	4673.89
948.716	4728.12
949.022	4629.6
949.327	4632.31
949.633	4562.25
949.938	4611.52
950.244	4580.78
950.549	4520.9
950.854	4501.92
951.16	4509.6
951.465	4491.75
951.77	4443.84
952.075	4443.39
952.38	4408.58
952.685	4431.63
952.99	4369.94
953.294	4374.69
953.599	4352.99
953.904	4330.39
954.209	4287.68
954.513	4257.18
954.818	4248.59
955.122	4259.21
955.426	4235.93
955.731	4208.59
956.035	4184.64
956.339	4162.04
956.643	4189.61
956.948	4143.51
957.252	4122.49
957.556	4080.91
957.86	4079.55
958.163	4075.49
958.467	4050.63
958.771	4059.67
959.075	4006.56
959.378	3983.51
959.682	3992.78
959.985	3957.3
960.289	3930.18
960.592	3941.25
960.896	3940.8
961.199	3915.26
961.502	3879.56
961.805	3839.79
962.108	3819.45
962.411	3837.3
962.714	3803.63
963.017	3778.09
963.32	3766.57
963.623	3734.48
963.926	3743.29
964.228	3740.58
964.531	3741.03
964.833	3685.67
965.136	3653.58
965.438	3682.95
965.741	3641.6
966.043	3651.54
966.345	3616.52
966.648	3609.74
966.95	3645.44
967.252	3559.57
967.554	3557.08
967.856	3519.79
968.158	3510.08
968.46	3504.2
968.761	3485.9
969.063	3525.9
969.365	3471.89
969.666	3477.99
969.968	3401.61
970.269	3439.34
970.571	3424.43
970.872	3404.77
971.174	3411.1
971.475	3340.14
971.776	3378.56
972.077	3328.84
972.378	3287.71
972.679	3297.65
972.98	3278.44
973.281	3279.12
973.582	3233.93
973.883	3257.2
974.183	3257.88
974.484	3235.96
974.785	3186.92
975.085	3216.07
975.386	3220.14
975.686	3156.41
975.986	3178.33
976.287	3105.57
976.587	3138.34
976.887	3123.42
977.187	3127.71
977.487	3099.01
977.787	3060.37
978.087	3065.34
978.387	3015.85
978.687	3027.6
978.987	3036.64
979.286	3006.81
979.586	2997.1
979.885	2977.44
980.185	2954.84
980.484	2959.36
980.784	2925.46
981.083	2920.26
981.382	2909.42
981.682	2894.05
981.981	2864.44
982.28	2868.29
982.579	2875.52
982.878	2861.05
983.177	2878.91
983.475	2791.9
983.774	2810.66
984.073	2809.3
984.372	2775.63
984.67	2783.99
984.969	2780.83
985.267	2745.35
985.566	2787.38
985.864	2720.27
986.162	2725.01
986.461	2708.06
986.759	2698.12
987.057	2699.7
987.355	2642.53
987.653	2674.84
987.951	2661.74
988.249	2628.74
988.547	2588.07
988.844	2611.34
989.142	2621.74
989.44	2579.48
989.737	2593.49
990.035	2548.97
990.332	2528.41
990.63	2521.4
990.927	2525.47
991.224	2526.83
991.521	2498.35
991.819	2482.08
992.116	2498.13
992.413	2455.87
992.71	2473.95
993.006	2429.88
993.303	2415.64
993.6	2418.81
993.897	2407.96
994.193	2383.78
994.49	2351.01
994.787	2367.06
995.083	2360.5
995.379	2346.72
995.676	2356.66
995.972	2367.28
996.268	2335.87
996.565	2324.35
996.861	2285.93
997.157	2283.44
997.453	2279.15
997.749	2272.14
998.044	2236.21
998.34	2249.32
998.636	2241.86
998.932	2236.66
999.227	2197.8
999.523	2223.11
999.818	2176.55
1000.114	2183.78
1000.409	2155.08
1000.704	2130.68
1001	2151.69
1001.295	2119.83
1001.59	2116.22
1001.885	2118.02
1002.18	2069.89
1002.475	2076.67
1002.77	2076.67
1003.065	2052.94
1003.359	2096.56
1003.654	2020.62
1003.949	2048.65
1004.243	2014.52
1004.538	2014.52
1004.832	1976.78
1005.127	1968.2
1005.421	2002.55
1005.715	1950.57
1006.009	1958.93
1006.304	1949.67
1006.598	1920.74
1006.892	1912.38
1007.186	1916.45
1007.48	1894.53
1007.773	1903.57
1008.067	1871.93
1008.361	1853.62
1008.655	1833.29
1008.948	1809.78
1009.242	1827.86
1009.535	1822.89
1009.829	1811.36
1010.122	1795.55
1010.415	1813.4
1010.708	1759.16
1011.001	1747.41
1011.295	1766.62
1011.588	1786.28
1011.881	1713.97
1012.173	1732.27
1012.466	1727.53
1012.759	1725.49
1013.052	1701.54
1013.344	1658.6
1013.637	1689.56
1013.93	1668.09
1014.222	1687.3
1014.514	1658.37
1014.807	1651.59
1015.099	1631.71
1015.391	1623.57
1015.683	1614.31
1015.976	1611.6
1016.268	1596
1016.56	1573.4
1016.851	1573.18
1017.143	1569.34
1017.435	1551.71
1017.727	1533.18
1018.018	1538.83
1018.31	1495.44
1018.602	1500.41
1018.893	1502.22
1019.185	1496.57
1019.476	1489.57
1019.767	1493.41
1020.058	1433.3
1020.35	1442.56
1020.641	1446.85
1020.932	1432.17
1021.223	1424.26
1021.514	1433.97
1021.804	1393.3
1022.095	1399.4
1022.386	1412.96
1022.677	1363.47
1022.967	1336.58
1023.258	1350.36
1023.548	1328.67
1023.839	1350.81
1024.129	1361.43
1024.419	1335.22
1024.709	1315.78
1025	1321.66
1025.29	1318.27
1025.58	1300.42
1025.87	1325.5
1026.16	1286.86
1026.449	1245.5
1026.739	1268.1
1027.029	1256.8
1027.319	1238.5
1027.608	1256.13
1027.898	1229.91
1028.187	1212.06
1028.477	1218.84
1028.766	1238.5
1029.055	1238.27
1029.344	1182.23
1029.634	1200.53
1029.923	1189.46
1030.212	1172.51
1030.501	1152.17
1030.79	1170.25
1031.078	1139.07
1031.367	1152.4
1031.656	1113.76
1031.945	1134.32
1032.233	1158.95
1032.522	1105.62
1032.81	1102.46
1033.099	1108.56
1033.387	1099.75
1033.675	1089.8
1033.963	1092.51
1034.251	1075.34
1034.54	1062.23
1034.828	1069.46
1035.116	1053.87
1035.403	1044.83
1035.691	1038.5
1035.979	1033.08
1036.267	1031.72
1036.554	1012.06
1036.842	1021.78
1037.129	998.05
1037.417	1000.54
1037.704	1009.8
1037.992	992.4
1038.279	989.01
1038.566	955.57
1038.853	955.57
1039.14	955.57
