Data from hue_34_FLMS001491_00004.txt Node
Date: Tue Feb 07 17:25:07 GMT 2017
User: dcchb
Spectrometer: FLMS00149
Trigger mode: 0
Integration Time (sec): 2.000000E-2
Scans to average: 10
Electric dark correction enabled: true
Nonlinearity correction enabled: false
Boxcar width: 0
XAxis mode: Wavelengths
Number of Pixels in Spectrum: 2048
>>>>>Begin Spectral Data<<<<<
341.393	-17.05
341.776	-17.05
342.16	-17.05
342.543	-52.07
342.927	-80.77
343.31	-78.97
343.693	-63.6
344.077	-69.7
344.46	-52.75
344.843	-50.27
345.226	-30.61
345.61	-31.96
345.993	-28.12
346.376	3.29
346.759	20.47
347.142	1.03
347.525	49.39
347.908	56.62
348.291	74.48
348.674	98.43
349.057	102.27
349.44	135.26
349.823	153.57
350.206	163.29
350.588	189.5
350.971	212.32
351.354	224.75
351.737	240.8
352.119	246.22
352.502	262.95
352.884	273.11
353.267	260.69
353.65	276.05
354.032	313.34
354.414	282.15
354.797	318.31
355.179	303.4
355.562	318.54
355.944	317.41
356.326	346.78
356.709	327.12
357.091	339.33
357.473	322.38
357.855	325.32
358.238	338.2
358.62	319.21
359.002	344.07
359.384	349.95
359.766	345.88
360.148	343.39
360.53	338.2
360.912	332.55
361.294	356.95
361.676	319.67
362.057	311.53
362.439	322.83
362.821	304.98
363.203	325.32
363.584	330.51
363.966	328.93
364.348	335.03
364.729	329.61
365.111	304.3
365.493	314.02
365.874	311.53
366.256	316.95
366.637	296.39
367.019	332.32
367.4	319.89
367.781	310.18
368.163	305.2
368.544	305.43
368.925	292.55
369.306	304.07
369.688	299.33
370.069	302.49
370.45	310.85
370.831	309.05
371.212	308.59
371.593	329.38
371.974	309.27
372.355	312.89
372.736	339.33
373.117	329.16
373.498	313.57
373.879	337.97
374.26	328.71
374.641	310.63
375.021	314.24
375.402	321.02
375.783	323.51
376.163	317.18
376.544	331.42
376.925	305.2
377.305	314.24
377.686	333.9
378.066	326.22
378.447	329.16
378.827	338.65
379.208	337.52
379.588	343.85
379.968	337.29
380.349	336.16
380.729	326.22
381.109	339.55
381.489	331.42
381.87	336.16
382.25	337.29
382.63	348.14
383.01	338.88
383.39	342.49
383.77	331.42
384.15	340.68
384.53	364.19
384.91	369.38
385.29	347.01
385.67	330.74
386.049	361.93
386.429	377.29
386.809	340.91
387.189	351.53
387.568	358.99
387.948	350.63
388.328	364.41
388.707	368.93
389.087	357.18
389.466	358.08
389.846	331.64
390.225	353.56
390.605	377.52
390.984	359.89
391.363	361.25
391.743	358.76
392.122	365.32
392.501	369.83
392.881	348.14
393.26	367.12
393.639	373.9
394.018	372.09
394.397	372.32
394.776	387.91
395.155	371.87
395.534	373
395.913	384.98
396.292	394.02
396.671	368.25
397.05	366.67
397.429	404.41
397.808	391.53
398.186	362.38
398.565	388.82
398.944	372.55
399.323	380
399.701	401.47
400.08	401.7
400.458	397.4
400.837	405.09
401.215	382.26
401.594	373
401.972	411.87
402.351	395.6
402.729	422.49
403.107	413.22
403.486	403.96
403.864	428.36
404.242	409.83
404.62	419.1
404.999	425.65
405.377	417.97
405.755	427.23
406.133	434.69
406.511	426.56
406.889	428.82
407.267	447.12
407.645	444.41
408.023	434.47
408.401	444.18
408.779	481.24
409.156	462.49
409.534	459.78
409.912	442.6
410.29	442.15
410.667	451.41
411.045	448.7
411.422	447.57
411.8	479.89
412.178	471.53
412.555	456.39
412.933	455.93
413.31	467.46
413.687	478.31
414.065	495.03
414.442	481.47
414.819	503.62
415.197	488.93
415.574	506.55
415.951	497.97
416.328	507.46
416.705	497.97
417.082	474.01
417.46	524.41
417.837	507.01
418.214	521.47
418.591	525.31
418.967	510.62
419.344	516.5
419.721	509.49
420.098	532.99
420.475	522.83
420.852	533.67
421.228	535.25
421.605	532.99
421.982	555.37
422.358	535.03
422.735	536.61
423.111	535.25
423.488	540.9
423.864	556.27
424.241	578.87
424.617	555.59
424.994	558.3
425.37	574.58
425.746	553.56
426.123	574.58
426.499	575.93
426.875	596.27
427.251	601.24
427.627	598.98
428.003	611.64
428.379	580.22
428.756	588.13
429.132	588.36
429.507	625.2
429.883	625.87
430.259	636.49
430.635	627.68
431.011	622.48
431.387	636.27
431.763	650.05
432.138	657.06
432.514	654.8
432.89	663.39
433.265	684.63
433.641	676.04
434.016	667
434.392	698.87
434.767	687.57
435.143	681.01
435.518	711.07
435.894	696.15
436.269	698.41
436.644	718.07
437.02	697.51
437.395	710.39
437.77	730.73
438.145	724.4
438.52	732.09
438.895	745.64
439.271	733.44
439.646	738.41
440.021	775.93
440.395	770.05
440.77	779.77
441.145	761.91
441.52	780.22
441.895	785.64
442.27	774.8
442.645	794
443.019	815.7
443.394	780.22
443.769	814.12
444.143	788.35
444.518	802.14
444.892	801.24
445.267	822.25
445.641	840.56
446.016	831.29
446.39	848.69
446.764	871.06
447.139	867
447.513	876.49
447.887	859.31
448.262	863.83
448.636	852.08
449.01	861.35
449.384	882.36
449.758	881.23
450.132	888.69
450.506	890.73
450.88	915.58
451.254	920.55
451.628	913.1
452.002	926.88
452.376	934.57
452.75	919.2
453.123	926.43
453.497	943.83
453.871	941.57
454.244	954.9
454.618	986.99
454.992	986.09
455.365	975.47
455.739	1009.14
456.112	1040.1
456.486	1018.41
456.859	1028.35
457.232	1015.47
457.606	1038.74
457.979	1057.5
458.352	1097.27
458.725	1110.83
459.099	1096.14
459.472	1094.11
459.845	1130.72
460.218	1102.02
460.591	1126.88
460.964	1144.28
461.337	1158.51
461.71	1191.28
462.083	1187.67
462.456	1204.62
462.829	1208.91
463.201	1211.62
463.574	1242.35
463.947	1243.48
464.32	1272.18
464.692	1299.98
465.065	1302.47
465.438	1305.18
465.81	1346.08
466.183	1340.88
466.555	1363.26
466.928	1388.79
467.3	1396.93
467.672	1417.94
468.045	1433.76
468.417	1450.48
468.789	1439.86
469.161	1501.1
469.534	1527.77
469.906	1512.63
470.278	1566.19
470.65	1555.34
471.022	1594.66
471.394	1655.68
471.766	1670.37
472.138	1651.84
472.51	1709.46
472.882	1711.95
473.253	1760.31
473.625	1790.36
473.997	1802.57
474.369	1844.15
474.74	1886.86
475.112	1931.6
475.484	1931.38
475.855	2036.23
476.227	2038.27
476.598	2065.84
476.97	2102.44
477.341	2168.66
477.713	2206.17
478.084	2239.16
478.455	2291.59
478.827	2339.5
479.198	2407.97
479.569	2438.48
479.94	2555.77
480.311	2548.99
480.682	2621.98
481.053	2687.51
481.424	2763.9
481.795	2801.86
482.166	2847.28
482.537	2945.36
482.908	3006.38
483.279	3078.24
483.65	3093.38
484.021	3216.54
484.391	3248.4
484.762	3366.59
485.133	3409.98
485.503	3446.14
485.874	3575.85
486.244	3658.11
486.615	3732.46
486.985	3805.22
487.356	3868.27
487.726	3982.4
488.097	4024.65
488.467	4120.24
488.837	4203.41
489.207	4283.63
489.578	4438.65
489.948	4474.13
490.318	4567.01
490.688	4635.26
491.058	4760
491.428	4886.33
491.798	4945.76
492.168	5057.17
492.538	5079.09
492.908	5190.73
493.278	5295.81
493.648	5316.82
494.017	5409.7
494.387	5509.13
494.757	5564.05
495.126	5672.97
495.496	5727.89
495.866	5807.88
496.235	5904.83
496.605	5995.22
496.974	6031.61
497.344	6058.72
497.713	6150.25
498.082	6269.79
498.452	6377.36
498.821	6465.49
499.19	6411.03
499.559	6585.04
499.928	6627.75
500.298	6666.39
500.667	6769.89
501.036	6740.29
501.405	6902.09
501.774	6926.5
502.143	6999.49
502.512	7061.64
502.88	7117.23
503.249	7172.14
503.618	7272.25
503.987	7350.67
504.356	7362.65
504.724	7394.96
505.093	7450.33
505.462	7534.17
505.83	7545.24
506.199	7690.32
506.567	7796.53
506.936	7785.01
507.304	7951.78
507.672	8017.32
508.041	8010.31
508.409	8080.82
508.777	8162.17
509.145	8181.15
509.514	8181.38
509.882	8299.8
510.25	8303.41
510.618	8426.57
510.986	8497.98
511.354	8512.9
511.722	8580.69
512.09	8688.03
512.458	8697.07
512.826	8733.68
513.193	8853.91
513.561	8884.64
513.929	8896.84
514.297	8974.81
514.664	9032.88
515.032	9096.16
515.4	9128.25
515.767	9250.73
516.135	9242.6
516.502	9149.49
516.869	9416.6
517.237	9363.5
517.604	9330.73
517.972	9469.48
518.339	9497.96
518.706	9535.02
519.073	9596.94
519.44	9653.43
519.808	9733.2
520.175	9717.16
520.542	9869.92
520.909	9911.96
521.276	9887.78
521.643	10024.27
522.009	10057.26
522.376	10132.52
522.743	10166.64
523.11	10301.78
523.477	10339.97
523.843	10414.77
524.21	10567.53
524.577	10525.95
524.943	10560.3
525.31	10667.64
525.676	10800.75
526.043	10812.95
526.409	10912.16
526.776	10977.47
527.142	10953.51
527.508	11100.85
527.874	11149.44
528.241	11208.42
528.607	11202.09
528.973	11309.43
529.339	11276.89
529.705	11407.06
530.071	11522.76
530.437	11518.69
530.803	11632.82
531.169	11654.96
531.535	11644.57
531.901	11705.58
532.267	11734.06
532.632	11882.53
532.998	11998
533.364	12042.07
533.73	12039.13
534.095	12097.44
534.461	12162.52
534.826	12248.84
535.192	12223.53
535.557	12355.28
535.923	12319.58
536.288	12386.24
536.653	12470.76
537.019	12487.93
537.384	12541.04
537.749	12563.64
538.114	12692.22
538.479	12638.89
538.845	12740.36
539.21	12805.44
539.575	12740.36
539.94	12804.76
540.305	12866.68
540.67	12932.89
541.034	12951.65
541.399	13091.99
541.764	13177.86
542.129	13134.7
542.494	13301.25
542.858	13226.9
543.223	13318.65
543.587	13299.89
543.952	13347.8
544.316	13461.02
544.681	13505.99
545.045	13576.04
545.41	13622.14
545.774	13626.66
546.138	13796.83
546.503	13830.95
546.867	13798.18
547.231	13891.06
547.595	13859.88
547.959	14013.09
548.324	13928.12
548.688	14011.51
549.052	14102.36
549.416	14174.9
549.779	14155.69
550.143	14172.41
550.507	14239.3
550.871	14409.47
551.235	14352.29
551.599	14449.01
551.962	14462.35
552.326	14516.81
552.689	14642.45
553.053	14492.4
553.417	14537.37
553.78	14706.63
554.143	14658.05
554.507	14758.61
554.87	14889.91
555.234	14959.51
555.597	14972.84
555.96	14940.07
556.323	15017.13
556.686	15036.34
557.05	15076.57
557.413	15152.27
557.776	15215.55
558.139	15389.55
558.502	15350.91
558.865	15372.15
559.228	15521.98
559.59	15503.9
559.953	15550
560.316	15733.95
560.679	15716.78
561.041	15846.72
561.404	15795.19
561.767	15936.88
562.129	15878.81
562.492	16058.24
562.854	16034.28
563.217	16073.38
563.579	16169.19
563.941	16118.57
564.304	16242.64
564.666	16308.17
565.028	16367.61
565.39	16433.14
565.753	16535.06
566.115	16554.04
566.477	16519.24
566.839	16730.31
567.201	16771.66
567.563	16869.06
567.925	16963.97
568.287	16999.45
568.648	17062.73
569.01	17117.19
569.372	17211.65
569.734	17175.27
570.095	17333
570.457	17377.75
570.819	17408.71
571.18	17452.55
571.542	17588.14
571.903	17682.15
572.265	17662.26
572.626	17803.73
572.987	17891.63
573.349	17880.56
573.71	18019.99
574.071	18003.04
574.432	18205.52
574.794	18361.68
575.155	18344.73
575.516	18414.56
575.877	18513.09
576.238	18691.16
576.599	18771.38
576.96	18732.29
577.32	18986.52
577.681	19084.82
578.042	19226.06
578.403	19360.3
578.763	19459.28
579.124	19582.21
579.485	19734.98
579.845	19927.29
580.206	20019.49
580.566	20089.09
580.927	20335.19
581.287	20489.98
581.648	20520.49
582.008	20771.78
582.368	20948.28
582.728	21155.73
583.089	21266.46
583.449	21563.18
583.809	21597.75
584.169	21821.25
584.529	21983.96
584.889	22342.14
585.249	22515.92
585.609	22628.46
585.969	22919.52
586.329	23077.94
586.688	23291.94
587.048	23588.21
587.408	23735.55
587.768	23912.94
588.127	24192.71
588.487	24373.95
588.846	24737.33
589.206	24915.63
589.565	25128.28
589.925	25516.74
590.284	25736.4
590.643	25861.82
591.003	26193.11
591.362	26502.26
591.721	26584.74
592.08	26954.22
592.44	27297.04
592.799	27515.79
593.158	27632.39
593.517	27846.17
593.876	28142.44
594.235	28438.02
594.593	28604.12
594.952	29053.15
595.311	29127.04
595.67	29364.78
596.029	29790.76
596.387	29958.44
596.746	30294.47
597.104	30345.77
597.463	30582.37
597.822	31005.64
598.18	31105.3
598.538	31405.86
598.897	31611.73
599.255	31767.2
599.613	32384.13
599.972	32334.64
600.33	32571.25
600.688	32665.93
601.046	33049.43
601.404	33338.01
601.762	33445.8
602.12	33808.73
602.478	33990.65
602.836	34220.24
603.194	34221.37
603.552	34547.92
603.91	34501.82
604.268	34911.53
604.625	34938.87
604.983	35379.54
605.341	35219.31
605.698	35598.51
606.056	35821.78
606.413	36047.99
606.771	36282.56
607.128	36495.21
607.485	36567.08
607.843	36618.15
608.2	36913.96
608.557	37220.17
608.914	37223.33
609.272	37546.94
609.629	37716.88
609.986	37923.2
610.343	37880.26
610.7	38268.73
611.057	38441.15
611.414	38494.93
611.771	38639.56
612.127	38855.6
612.484	39042.72
612.841	39261.47
613.198	39166.1
613.554	39344.4
613.911	39574.45
614.267	39656.26
614.624	39719.99
614.98	39898.74
615.337	40226.19
615.693	40063.48
616.05	40184.61
616.406	40446.52
616.762	40460.53
617.118	40573.75
617.475	40642.67
617.831	40835.89
618.187	40864.82
618.543	41114.07
618.899	41274.07
619.255	41437.68
619.611	41242.66
619.967	41522.65
620.323	41704.34
620.678	41667.73
621.034	41519.49
621.39	41707.28
621.746	41666.15
622.101	42252.8
622.457	41892.81
622.812	42049.42
623.168	42102.52
623.523	42208.73
623.879	42405.57
624.234	42236.98
624.589	42372.12
624.945	42480.37
625.3	42515.17
625.655	42654.6
626.01	42622.74
626.365	42765.1
626.72	42676.29
627.075	42670.42
627.43	42824.99
627.785	42563.53
628.14	42851.88
628.495	42919.45
628.85	42875.38
629.205	42768.04
629.559	43019.79
629.914	42839.45
630.269	42947.92
630.623	42916.51
630.978	42861.15
631.332	42946.79
631.687	43136.62
632.041	43017.53
632.396	42869.28
632.75	42914.93
633.104	43079.45
633.459	42949.51
633.813	42917.42
634.167	42918.32
634.521	42986.57
634.875	43008.94
635.229	42854.37
635.583	42848.04
635.937	42913.58
636.291	42974.36
636.645	42959.9
636.999	42799.68
637.352	43018.21
637.706	42880.58
638.06	42993.8
638.413	42862.05
638.767	42860.92
639.121	42899.11
639.474	42653.47
639.828	42587.93
640.181	42858.89
640.534	42863.41
640.888	42672
641.241	42507.71
641.594	42579.57
641.947	42693.92
642.301	42524.21
642.654	42549.74
643.007	42559.23
643.36	42531.66
643.713	42544.09
644.066	42768.95
644.419	42407.37
644.771	42197.44
645.124	41848.07
645.477	41726.71
645.83	41539.6
646.182	41312.71
646.535	41243.11
646.888	41425.7
647.24	41289.21
647.593	41424.12
647.945	41393.39
648.298	41226.84
648.65	41061.65
649.002	41101.42
649.355	41268.19
649.707	41233.62
650.059	41380.96
650.411	41904.56
650.763	41798.35
651.115	42152.92
651.467	42022.75
651.819	41999.93
652.171	42052.35
652.523	41887.84
652.875	41978.01
653.227	41740.95
653.578	41966.26
653.93	41836.99
654.282	41811.46
654.633	41631.57
654.985	41765.36
655.337	41929.19
655.688	41801.29
656.039	41915.41
656.391	41552.48
656.742	41776.2
657.094	41780.95
657.445	41933.26
657.796	41747.96
658.147	41627.51
658.498	41688.3
658.849	41820.5
659.2	41678.81
659.551	41611.69
659.902	41793.6
660.253	41467.74
660.604	41793.6
660.955	41430
661.306	41827.95
661.656	41523.1
662.007	41571.01
662.358	41673.83
662.708	41706.38
663.059	41488.98
663.409	41351.13
663.76	41573.27
664.11	41571.69
664.461	41667.05
664.811	41699.14
665.161	41505.7
665.511	41538.7
665.862	41498.47
666.212	41666.38
666.562	41550.9
666.912	41417.57
667.262	41464.57
667.612	41402.65
667.962	41589.09
668.312	41483.56
668.662	41624.12
669.011	41480.62
669.361	41400.39
669.711	41387.06
670.06	41329.21
670.41	41334.86
670.76	41261.64
671.109	41373.05
671.459	41294.63
671.808	41292.15
672.157	41329.66
672.507	41159.04
672.856	41027.75
673.205	41256.9
673.554	41259.16
673.904	41244.47
674.253	41422.31
674.602	41238.82
674.951	40710.24
675.3	40433.41
675.649	41103
675.998	41044.47
676.346	41038.6
676.695	41172.83
677.044	40821.65
677.393	41046.51
677.741	41024.13
678.09	40961.31
678.438	40877.47
678.787	40976.68
679.135	40907.53
679.484	40679.51
679.832	40783.69
680.181	40613.3
680.529	40692.84
680.877	40531.04
681.225	40537.14
681.573	40816.91
681.922	40396.35
682.27	40390.48
682.618	40531.94
682.966	40271.61
683.314	40341.89
683.661	40379.86
684.009	40141.44
684.357	40053.54
684.705	39954.33
685.053	40002.47
685.4	39879.3
685.748	39769.93
686.095	39807.44
686.443	39569.26
686.79	39653.77
687.138	39693.55
687.485	39727.44
687.832	39547.11
688.18	39541.91
688.527	39279.09
688.874	39312.77
689.221	39295.14
689.568	39093.34
689.915	38957.97
690.262	39059.21
690.609	39068.48
690.956	38806.56
691.303	38706.68
691.65	38613.35
691.997	38628.72
692.344	38372.68
692.69	38379.46
693.037	38283.64
693.383	38000.94
693.73	38252.91
694.077	38009.52
694.423	38023.08
694.769	37900.6
695.116	37620.83
695.462	37757.33
695.808	37597.56
696.155	37619.93
696.501	37338.13
696.847	37445.92
697.193	37159.83
697.539	37393.49
697.885	36965.48
698.231	36949.66
698.577	36997.57
698.923	36985.37
699.269	36799.61
699.614	36673.29
699.96	36589.45
700.306	36478.49
700.651	36272.85
700.997	36264.71
701.342	36164.6
701.688	36117.37
702.033	35987.88
702.379	36062.68
702.724	35887.55
703.069	35860.88
703.415	35663.14
703.76	35487.1
704.105	35557.84
704.45	35598.97
704.795	35392.64
705.14	35165.53
705.485	35091.63
705.83	35053.22
706.175	35091.63
706.52	34920.79
706.865	34899.55
707.209	34909.27
707.554	34724.19
707.899	34761.02
708.243	34598.99
708.588	34641.7
708.932	34387.7
709.277	34361.71
709.621	34354.7
709.966	34148.16
710.31	34220.92
710.654	34027.71
710.998	33960.82
711.342	34013.7
711.687	33874.26
712.031	33736.64
712.375	33538.23
712.719	33656.64
713.063	33565.12
713.407	33658.45
713.75	33467.5
714.094	33351.11
714.438	33298.69
714.782	33319.7
715.125	33139.59
715.469	33246.48
715.812	33141.18
716.156	32901.63
716.499	32919.94
716.843	32916.78
717.186	32754.07
717.53	32794.29
717.873	32811.69
718.216	32665.71
718.559	32646.73
718.902	32347.98
719.246	32559.5
719.589	32375.32
719.932	32330.58
720.275	32367.41
720.617	32309.56
720.96	32119.06
721.303	32042
721.646	32111.6
721.989	32053.07
722.331	32058.95
722.674	31984.82
723.016	32056.01
723.359	31859.18
723.701	31817.37
724.044	31676.81
724.386	31479.75
724.729	31695.79
725.071	31573.08
725.413	31576.02
725.755	31480.2
726.097	31403.37
726.439	31234.11
726.782	31342.58
727.124	31472.97
727.465	31357.72
727.807	31181.23
728.149	31150.27
728.491	31024.85
728.833	31169.48
729.175	31000.89
729.516	30928.58
729.858	30863.27
730.199	31006.09
730.541	30936.04
730.882	30788.92
731.224	30908.47
731.565	30734.23
731.906	30728.58
732.248	30693.56
732.589	30451.08
732.93	30436.84
733.271	30530.85
733.612	30471.87
733.953	30517.06
734.294	30328.6
734.635	30368.14
734.976	30475.48
735.317	30181.03
735.658	30217.19
735.999	30177.19
736.339	30054.48
736.68	30215.15
737.021	29925.22
737.361	29822.39
737.702	30138.32
738.042	29903.3
738.383	29747.37
738.723	29882.28
739.063	29917.31
739.404	29891.09
739.744	29685.45
740.084	29610.87
740.424	29597.77
740.764	29510.76
741.104	29602.51
741.444	29453.59
741.784	29362.74
742.124	29391.67
742.464	29376.98
742.804	29270.54
743.143	29357.1
743.483	29371.11
743.823	29040.72
744.162	29133.15
744.502	29225.35
744.841	29099.25
745.181	29114.39
745.52	28864.68
745.86	29084.56
746.199	29009.76
746.538	29030.78
746.877	29012.25
747.216	28859.26
747.556	28857.67
747.895	28720.73
748.234	28765.7
748.573	28662.65
748.911	28641.63
749.25	28781.52
749.589	28553.73
749.928	28499.49
750.267	28590.56
750.605	28431.7
750.944	28349.21
751.283	28326.84
751.621	28377.01
751.96	28188.99
752.298	28177.69
752.636	28226.96
752.975	27981.76
753.313	27907.42
753.651	28117.58
753.989	27893.86
754.327	27868.77
754.666	27792.84
755.004	27751.26
755.342	27683.92
755.679	27791.03
756.017	27611.83
756.355	27607.08
756.693	27410.93
757.031	27575.9
757.368	27442.8
757.706	27315.79
758.044	27312.86
758.381	27401.21
758.719	27128.23
759.056	27088.23
759.394	27072.64
759.731	26913.77
760.068	26936.82
760.405	26755.36
760.743	26789.03
761.08	26732.08
761.417	26656.38
761.754	26515.36
762.091	26414.57
762.428	26425.87
762.765	26206.9
763.102	26346.1
763.438	26110.85
763.775	26100.23
764.112	26201.47
764.449	25933.23
764.785	25952.21
765.122	25772.33
765.458	25697.98
765.795	25646.01
766.131	25594.03
766.467	25523.52
766.804	25400.59
767.14	25430.64
767.476	25321.5
767.812	25265
768.148	25187.26
768.485	25166.02
768.821	24973.48
769.157	24952.01
769.492	24855.74
769.828	24878.57
770.164	24525.36
770.5	24478.81
770.836	24601.51
771.171	24429.32
771.507	24391.8
771.842	24228.64
772.178	24175.54
772.513	24145.25
772.849	23964.47
773.184	23830.23
773.519	23917.46
773.855	23741.42
774.19	23696.23
774.525	23673.85
774.86	23532.62
775.195	23516.34
775.53	23364.26
775.865	23213.98
776.2	23028.22
776.535	23089.01
776.87	23061.44
777.205	22919.75
777.539	22813.99
777.874	22798.17
778.209	22692.86
778.543	22580.55
778.878	22492.87
779.212	22375.58
779.547	22307.11
779.881	22338.3
780.215	22180.56
780.55	22258.52
780.884	22088.13
781.218	21907.57
781.552	22014.69
781.886	21835.94
782.22	21811.08
782.554	21669.61
782.888	21440.47
783.222	21467.13
783.556	21314.37
783.889	21295.39
784.223	21146.46
784.557	21052.23
784.89	21157.76
785.224	21056.97
785.557	20875.96
785.891	20899.24
786.224	20774.95
786.558	20779.24
786.891	20598.46
787.224	20555.97
787.557	20523.66
787.891	20492.92
788.224	20373.15
788.557	20407.73
788.89	20273.27
789.223	20230.56
789.556	19999.83
789.888	19977.68
790.221	19960.73
790.554	19848.64
790.887	19978.36
791.219	19687.29
791.552	19708.76
791.884	19589.22
792.217	19475.1
792.549	19417.02
792.882	19362.78
793.214	19227.19
793.546	19258.38
793.879	19157.14
794.211	19139.28
794.543	19192.16
794.875	19030.81
795.207	19044.82
795.539	18910.14
795.871	18936.8
796.203	18726.41
796.535	18665.63
796.867	18676.92
797.198	18590.37
797.53	18593.08
797.862	18361.9
798.193	18458.62
798.525	18332.3
798.856	18435.12
799.188	18210.72
799.519	18180.21
799.85	18038.3
800.182	18017.73
800.513	18053.21
800.844	17887.57
801.175	18009.6
801.506	17935.7
801.837	17815.48
802.168	17779.32
802.499	17676.05
802.83	17621.36
803.161	17594.24
803.491	17539.33
803.822	17517.86
804.153	17429.27
804.483	17262.5
804.814	17189.96
805.145	17308.6
805.475	17183.18
805.805	17128.72
806.136	17158.09
806.466	17194.48
806.796	17036.74
807.126	16921.72
807.457	16936.63
807.787	16977.31
808.117	16756.07
808.447	16788.39
808.777	16783.41
809.107	16666.58
809.436	16610.99
809.766	16638.11
810.096	16550.43
810.426	16523.31
810.755	16470.88
811.085	16447.15
811.414	16408.28
811.744	16281.51
812.073	16220.04
812.403	16191.79
812.732	16162.64
813.061	16154.96
813.39	16135.3
813.719	16026.37
814.049	16124.67
814.378	16041.29
814.707	15950.22
815.036	15845.81
815.365	15879.26
815.693	15695.99
816.022	15783.21
816.351	15705.93
816.68	15619.38
817.008	15660.05
817.337	15463.68
817.665	15505.71
817.994	15502.54
818.322	15445.37
818.651	15382.55
818.979	15269.78
819.307	15337.35
819.636	15312.72
819.964	15248.09
820.292	15340.29
820.62	15306.84
820.948	15176.45
821.276	15273.85
821.604	15167.19
821.932	15324.7
822.259	15225.49
822.587	15161.08
822.915	15130.8
823.243	15246.05
823.57	15148.43
823.898	15139.39
824.225	15138.94
824.553	15057.36
824.88	15147.07
825.207	15146.17
825.535	15078.83
825.862	15162.44
826.189	15114.31
826.516	15185.26
826.843	15172.84
827.17	15094.87
827.497	15132.16
827.824	15103.91
828.151	15140.75
828.478	15107.98
828.805	15242.21
829.131	15134.19
829.458	15074.53
829.785	15064.36
830.111	15088.09
830.438	15185.04
830.764	15131.03
831.09	15067.75
831.417	14996.34
831.743	15099.62
832.069	15161.31
832.395	15066.85
832.722	15069.79
833.048	14984.59
833.374	15037.7
833.7	14910.7
834.026	14978.26
834.351	14971.48
834.677	14986.17
835.003	14889
835.329	14905.72
835.654	14829.34
835.98	14948.43
836.306	14865.95
836.631	14748.21
836.956	14848.32
837.282	14823.69
837.607	14782.34
837.932	14713.64
838.258	14661.44
838.583	14644.94
838.908	14583.92
839.233	14628.9
839.558	14551.16
839.883	14561.1
840.208	14413.76
840.533	14514.32
840.858	14565.62
841.182	14448.11
841.507	14475
841.832	14415.57
842.156	14333.54
842.481	14409.92
842.805	14229.81
843.13	14216.93
843.454	14243.37
843.778	14170.38
844.103	14164.95
844.427	14112.52
844.751	14145.52
845.075	14117.27
845.399	14033.2
845.723	14006.54
846.047	13965.41
846.371	13912.53
846.695	13891.06
847.019	13633.89
847.343	13683.84
847.666	13564.74
847.99	13550.05
848.313	13588.92
848.637	13572.65
848.96	13486.33
849.284	13479.32
849.607	13302.38
849.931	13348.48
850.254	13151.42
850.577	13213.56
850.9	12996.62
851.223	13082.72
851.546	12995.27
851.869	12876.17
852.192	12934.25
852.515	12771.99
852.838	12784.2
853.161	12723.41
853.483	12748.27
853.806	12647.25
854.129	12569.51
854.451	12513.7
854.774	12480.25
855.096	12468.27
855.419	12543.07
855.741	12416.3
856.063	12447.26
856.385	12339.92
856.708	12294.04
857.03	12256.98
857.352	12188.06
857.674	12150.54
857.996	12144.67
858.318	12086.14
858.64	12080.26
858.961	12122.07
859.283	11992.81
859.605	11940.6
859.926	12014.95
860.248	11944.9
860.57	11901.96
860.891	11913.03
861.212	11850.89
861.534	11818.57
861.855	11741.06
862.176	11774.28
862.498	11731.8
862.819	11741.97
863.14	11643.44
863.461	11605.02
863.782	11674.17
864.103	11636.88
864.424	11697.45
864.745	11594.62
865.065	11539.03
865.386	11518.69
865.707	11464.46
866.027	11498.13
866.348	11416.55
866.668	11439.83
866.989	11455.19
867.309	11281.64
867.63	11337.46
867.95	11407.96
868.27	11312.37
868.59	11301.3
868.91	11240.74
869.23	11298.59
869.55	11213.39
869.87	11268.08
870.19	11301.75
870.51	11274.63
870.83	11157.35
871.15	11116.44
871.469	11153.96
871.789	11181.3
872.109	11155.77
872.428	11033.28
872.748	11015.88
873.067	11021.53
873.386	11047.52
873.706	11030.57
874.025	10998.26
874.344	10924.36
874.663	10912.61
874.982	10937.47
875.301	10979.27
875.62	10943.57
875.939	10817.02
876.258	10880.52
876.577	10792.84
876.896	10839.84
877.214	10794.42
877.533	10721.43
877.852	10752.39
878.17	10817.92
878.489	10755.1
878.807	10748.32
879.125	10772.27
879.444	10624.03
879.762	10662.9
880.08	10596.01
880.398	10615.22
880.716	10649.11
881.034	10550.58
881.352	10570.92
881.67	10513.75
881.988	10545.61
882.306	10477.82
882.624	10490.02
882.941	10421.77
883.259	10422.68
883.577	10404.15
883.894	10363.47
884.212	10277.6
884.529	10365.05
884.846	10253.64
885.164	10281.89
885.481	10184.94
885.798	10243.93
886.115	10220.42
886.432	10143.59
886.75	10157.6
887.067	10175.68
887.383	10111.27
887.7	10092.74
888.017	10083.25
888.334	10017.04
888.651	10014.1
888.967	9953.76
889.284	9919.87
889.6	9985.18
889.917	9893.65
890.233	9871.96
890.55	9810.49
890.866	9839.87
891.182	9814.56
891.498	9769.59
891.815	9704.73
892.131	9742.02
892.447	9653.43
892.763	9611.4
893.079	9636.94
893.395	9591.51
893.71	9550.61
894.026	9579.54
894.342	9508.8
894.657	9496.6
894.973	9489.37
895.289	9496.6
895.604	9406.89
895.92	9337.51
896.235	9315.14
896.55	9315.59
896.865	9297.51
897.181	9182.26
897.496	9243.05
897.811	9186.78
898.126	9163.28
898.441	9079.44
898.756	9042.15
899.071	9041.47
899.386	8991.08
899.7	9004.41
900.015	8900.91
900.33	8911.08
900.644	8886
900.959	8882.15
901.273	8854.13
901.588	8773.46
901.902	8707.02
902.216	8737.98
902.531	8725.55
902.845	8681.03
903.159	8621.14
903.473	8554.03
903.787	8556.96
904.101	8499.34
904.415	8530.75
904.729	8437.42
905.042	8418.44
905.356	8425.67
905.67	8342.96
905.984	8395.61
906.297	8337.31
906.611	8274.03
906.924	8293.69
907.237	8231.78
907.551	8183.41
907.864	8173.25
908.177	8121.95
908.491	8099.8
908.804	8082.85
909.117	8059.12
909.43	8015.28
909.743	7963.53
910.056	7897.09
910.368	7937.32
910.681	7887.6
910.994	7878.11
911.307	7764.22
911.619	7792.69
911.932	7723.31
912.244	7710.43
912.557	7697.1
912.869	7582.98
913.181	7620.94
913.494	7501.62
913.806	7547.27
914.118	7544.56
914.43	7502.53
914.742	7446.48
915.054	7439.48
915.366	7416.43
915.678	7346.83
915.99	7387.05
916.302	7301.63
916.613	7269.54
916.925	7244.46
917.236	7273.83
917.548	7170.56
917.859	7190.9
918.171	7129.88
918.482	7075.65
918.794	7086.72
919.105	7061.64
919.416	7023.9
919.727	6980.51
920.038	6962.66
920.349	6881.08
920.66	6921.98
920.971	6939.15
921.282	6821.64
921.593	6812.15
921.903	6781.64
922.214	6751.36
922.525	6726.96
922.835	6736.67
923.146	6692.83
923.456	6593.4
923.767	6627.07
924.077	6641.99
924.387	6573.06
924.697	6524.02
925.008	6513.18
925.318	6490.35
925.628	6403.8
925.938	6369.23
926.248	6333.29
926.558	6358.38
926.867	6330.36
927.177	6324.48
927.487	6250.13
927.796	6208.78
928.106	6212.17
928.416	6211.49
928.725	6212.62
929.034	6159.29
929.344	6119.97
929.653	6103.7
929.962	6045.84
930.271	5980.76
930.581	5971.72
930.89	5978.5
931.199	5957.94
931.508	5915.45
931.817	5985.51
932.125	5890.14
932.434	5827.77
932.743	5827.54
933.051	5842.91
933.36	5752.52
933.669	5744.61
933.977	5703.25
934.286	5713.2
934.594	5701.67
934.902	5638.17
935.21	5653.09
935.519	5614.22
935.827	5604.5
936.135	5566.76
936.443	5497.38
936.751	5459.87
937.059	5500.1
937.367	5416.93
937.674	5451.74
937.982	5446.09
938.29	5390.49
938.597	5433.43
938.905	5338.29
939.213	5313.89
939.52	5262.59
939.827	5263.04
940.135	5273.43
940.442	5233.21
940.749	5204.06
941.056	5203.15
941.363	5203.61
941.67	5158.86
941.977	5120.44
942.284	5132.42
942.591	5110.28
942.898	5035.02
943.205	5047.9
943.511	5032.76
943.818	4973.78
944.125	4977.17
944.431	4974.01
944.738	4977.85
945.044	4925.42
945.35	4911.86
945.657	4868.93
945.963	4849.94
946.269	4828.47
946.575	4826.44
946.881	4812.88
947.187	4752.54
947.493	4753.67
947.799	4720.23
948.105	4697.63
948.41	4722.26
948.716	4697.86
949.022	4651.53
949.327	4571.98
949.633	4574.47
949.938	4584.87
950.244	4583.74
950.549	4534.92
950.854	4531.76
951.16	4489.95
951.465	4474.13
951.77	4463.06
952.075	4455.38
952.38	4405.44
952.685	4428.94
952.99	4333.8
953.294	4362.95
953.599	4358.88
953.904	4277.53
954.209	4291.54
954.513	4283.4
954.818	4253.8
955.122	4232.56
955.426	4221.71
955.731	4220.58
956.035	4210.41
956.339	4168.15
956.643	4188.72
956.948	4113.47
957.252	4167.48
957.556	4091.54
957.86	4094.71
958.163	4067.59
958.467	4049.29
958.771	4031.89
959.075	4063.3
959.378	3981.27
959.682	3968.84
959.985	3927.71
960.289	3974.71
960.592	3909.4
960.896	3926.35
961.199	3867.14
961.502	3884.54
961.805	3842.51
962.108	3884.09
962.411	3835.28
962.714	3804.77
963.017	3823.98
963.32	3783.3
963.623	3806.35
963.926	3733.14
964.228	3772.68
964.531	3722.29
964.833	3675.96
965.136	3702.4
965.438	3661.05
965.741	3617.89
966.043	3637.77
966.345	3606.59
966.648	3594.61
966.95	3572.24
967.252	3560.03
967.554	3589.64
967.856	3578.34
968.158	3539.02
968.46	3486.82
968.761	3465.12
969.063	3498.79
969.365	3477.32
969.666	3444.56
969.968	3404.78
970.269	3376.99
970.571	3421.96
970.872	3370.66
971.174	3388.51
971.475	3370.66
971.776	3335.41
972.077	3315.52
972.378	3289.31
972.679	3319.81
972.98	3289.31
973.281	3282.07
973.582	3266.93
973.883	3296.31
974.183	3259.25
974.484	3198.01
974.785	3203.43
975.085	3177.22
975.386	3166.82
975.686	3196.43
975.986	3149.87
976.287	3155.52
976.587	3123.66
976.887	3133.6
977.187	3105.13
977.487	3091.8
977.787	3049.31
978.087	3039.37
978.387	3009.31
978.687	3055.64
978.987	3040.95
979.286	3026.26
979.586	3004.34
979.885	3009.77
980.185	2950.11
980.484	2957.56
980.784	2911.46
981.083	2921.41
981.382	2903.78
981.682	2914.17
981.981	2877.34
982.28	2830.56
982.579	2847.74
982.878	2861.07
983.177	2820.39
983.475	2828.08
983.774	2784.46
984.073	2774.07
984.372	2740.62
984.67	2751.02
984.969	2743.78
985.267	2765.7
985.566	2703.56
985.864	2727.96
986.162	2670.11
986.461	2695.65
986.759	2628.53
987.057	2614.52
987.355	2619.49
987.653	2651.13
987.951	2627.85
988.249	2599.38
988.547	2637.12
988.844	2583.56
989.142	2564.13
989.44	2535.2
989.737	2553.05
990.035	2534.52
990.332	2526.84
990.63	2524.58
990.927	2495.65
991.224	2534.3
991.521	2483.23
991.819	2468.54
992.116	2443.9
992.413	2436.22
992.71	2447.75
993.006	2452.27
993.303	2410.01
993.6	2426.28
993.897	2395.32
994.193	2373.4
994.49	2370.46
994.787	2346.05
995.083	2368.88
995.379	2346.28
995.676	2331.82
995.972	2341.99
996.268	2295.89
996.565	2296.79
996.861	2256.11
997.157	2256.34
997.453	2257.24
997.749	2269.22
998.044	2198.26
998.34	2210.69
998.636	2215.66
998.932	2210.69
999.227	2195.32
999.523	2169.34
999.818	2177.25
1000.114	2133.63
1000.409	2141.99
1000.704	2123.91
1001	2131.82
1001.295	2116.23
1001.59	2068.32
1001.885	2105.16
1002.18	2083.46
1002.475	2076.23
1002.77	2065.38
1003.065	2038.72
1003.359	1996.01
1003.654	2031.03
1003.949	2016.12
1004.243	1990.13
1004.538	1993.07
1004.832	1974.31
1005.127	1953.3
1005.421	1929.34
1005.715	1966.18
1006.009	1955.1
1006.304	1922.79
1006.598	1927.08
1006.892	1887.76
1007.186	1888.89
1007.48	1911.49
1007.773	1898.38
1008.067	1848.21
1008.361	1822.9
1008.655	1842.56
1008.948	1847.54
1009.242	1829.68
1009.535	1808.44
1009.829	1805.5
1010.122	1801.21
1010.415	1790.81
1010.708	1795.79
1011.001	1746.52
1011.295	1734.09
1011.588	1763.02
1011.881	1711.72
1012.173	1732.06
1012.466	1719.86
1012.759	1701.1
1013.052	1696.13
1013.344	1662.91
1013.637	1678.73
1013.93	1672.17
1014.222	1640.99
1014.514	1669.69
1014.807	1633.53
1015.099	1605.28
1015.391	1593.53
1015.683	1633.08
1015.976	1601.67
1016.268	1560.76
1016.56	1576.13
1016.851	1580.2
1017.143	1546.98
1017.435	1542.23
1017.727	1543.36
1018.018	1542.46
1018.31	1513.31
1018.602	1508.56
1018.893	1479.18
1019.185	1483.7
1019.476	1475.12
1019.767	1470.82
1020.058	1464.72
1020.35	1436.02
1020.641	1414.55
1020.932	1441.9
1021.223	1450.26
1021.514	1394.89
1021.804	1406.42
1022.095	1395.8
1022.386	1392.63
1022.677	1371.16
1022.967	1358.28
1023.258	1343.14
1023.548	1364.84
1023.839	1337.95
1024.129	1325.97
1024.419	1295.01
1024.709	1301.79
1025	1319.41
1025.29	1291.39
1025.58	1292.97
1025.87	1266.99
1026.16	1262.69
1026.449	1251.62
1026.739	1254.11
1027.029	1258.63
1027.319	1245.07
1027.608	1229.25
1027.898	1193.99
1028.187	1196.71
1028.477	1227.44
1028.766	1214.11
1029.055	1183.82
1029.344	1197.38
1029.634	1183.15
1029.923	1171.62
1030.212	1152.64
1030.501	1163.49
1030.79	1150.15
1031.078	1118.74
1031.367	1165.97
1031.656	1111.51
1031.945	1121.23
1032.233	1111.51
1032.522	1085.52
1032.81	1091.4
1033.099	1094.11
1033.387	1074
1033.675	1080.55
1033.963	1096.14
1034.251	1063.6
1034.54	1051.85
1034.828	1055.92
1035.116	1044.39
1035.403	1056.14
1035.691	1040.78
1035.979	1050.27
1036.267	1018.86
1036.554	1007.11
1036.842	993.77
1037.129	996.94
1037.417	984.06
1037.704	976.15
1037.992	994.68
1038.279	984.73
1038.566	970.72
1038.853	970.72
1039.14	970.72
