Data from hue_100_FLMS001491_00086.txt Node
Date: Tue Feb 07 17:03:46 GMT 2017
User: dcchb
Spectrometer: FLMS00149
Trigger mode: 0
Integration Time (sec): 2.000000E-2
Scans to average: 10
Electric dark correction enabled: true
Nonlinearity correction enabled: false
Boxcar width: 0
XAxis mode: Wavelengths
Number of Pixels in Spectrum: 2048
>>>>>Begin Spectral Data<<<<<
341.393	-2.46
341.776	-2.46
342.16	-2.46
342.543	-61.44
342.927	-70.48
343.31	-80.87
343.693	-58.95
344.077	-82
344.46	-58.95
344.843	-43.13
345.226	-39.29
345.61	-34.32
345.993	-21.44
346.376	-13.3
346.759	28.28
347.142	38.67
347.525	49.97
347.908	50.2
348.291	77.54
348.674	91.1
349.057	96.52
349.44	143.08
349.823	141.27
350.206	171.32
350.588	191.66
350.971	217.65
351.354	233.69
351.737	248.16
352.119	260.59
352.502	272.34
352.884	285.44
353.267	285.67
353.65	303.98
354.032	325.22
354.414	319.12
354.797	317.08
355.179	322.05
355.562	324.54
355.944	347.59
356.326	349.17
356.709	364.31
357.091	357.98
357.473	361.83
357.855	351.21
358.238	346.69
358.62	350.98
359.002	357.76
359.384	369.74
359.766	359.79
360.148	342.17
360.53	344.88
360.912	337.87
361.294	339.23
361.676	350.53
362.057	346.23
362.439	330.42
362.821	330.87
363.203	351.66
363.584	327.7
363.966	326.35
364.348	330.64
364.729	309.62
365.111	310.08
365.493	328.16
365.874	348.95
366.256	328.61
366.637	328.16
367.019	326.8
367.4	335.61
367.781	312.34
368.163	322.05
368.544	328.83
368.925	321.38
369.306	346.46
369.688	308.04
370.069	319.34
370.45	325.22
370.831	328.38
371.212	320.7
371.593	318.21
371.974	329.06
372.355	326.35
372.736	324.31
373.117	348.95
373.498	331.77
373.879	317.53
374.26	321.38
374.641	319.57
375.021	318.21
375.402	350.75
375.783	346.91
376.163	354.37
376.544	341.94
376.925	326.8
377.305	348.49
377.686	316.4
378.066	339
378.447	346.01
378.827	355.73
379.208	346.23
379.588	341.26
379.968	340.58
380.349	354.14
380.729	340.58
381.109	331.09
381.489	364.76
381.87	363.86
382.25	369.28
382.63	357.08
383.01	357.53
383.39	380.81
383.77	366.12
384.15	360.47
384.53	358.44
384.91	384.42
385.29	367.7
385.67	364.31
386.049	379.91
386.429	375.16
386.809	386.68
387.189	358.44
387.568	368.38
387.948	390.3
388.328	369.06
388.707	376.74
389.087	367.7
389.466	390.07
389.846	380.81
390.225	395.27
390.605	393.46
390.984	390.53
391.363	381.04
391.743	392.56
392.122	392.33
392.501	388.04
392.881	403.41
393.26	385.78
393.639	401.37
394.018	400.92
394.397	410.86
394.776	416.06
395.155	407.93
395.534	401.15
395.913	408.15
396.292	392.33
396.671	406.57
397.05	424.2
397.429	419.9
397.808	411.99
398.186	424.42
398.565	416.74
398.944	414.25
399.323	411.09
399.701	406.57
400.08	427.59
400.458	441.6
400.837	431.43
401.215	441.6
401.594	430.98
401.972	435.05
402.351	427.81
402.729	457.64
403.107	458.1
403.486	438.21
403.864	445.44
404.242	460.81
404.62	448.6
404.999	462.39
405.377	483.86
405.755	460.58
406.133	473.24
406.511	466.23
406.889	459.23
407.267	494.03
407.645	467.13
408.023	478.89
408.401	473.91
408.779	508.26
409.156	503.52
409.534	475.95
409.912	491.54
410.29	518.43
410.667	510.98
411.045	505.78
411.422	506.68
411.8	501.71
412.178	498.55
412.555	507.59
412.933	541.03
413.31	522.27
413.687	531.54
414.065	536.29
414.442	544.19
414.819	556.4
415.197	546.45
415.574	562.27
415.951	555.95
416.328	553.91
416.705	550.3
417.082	547.81
417.46	554.36
417.837	576.51
418.214	562.73
418.591	562.73
418.967	572.89
419.344	566.57
419.721	584.42
420.098	613.12
420.475	601.59
420.852	597.07
421.228	593.91
421.605	613.12
421.982	594.36
422.358	610.86
422.735	624.42
423.111	593.46
423.488	641.59
423.864	612.89
424.241	626
424.617	639.33
424.994	630.29
425.37	659.9
425.746	657.64
426.123	646.79
426.499	648.15
426.875	658.77
427.251	678.88
427.627	694.47
428.003	687.92
428.379	673.46
428.756	688.15
429.132	697.41
429.507	720.24
429.883	694.93
430.259	712.33
430.635	729.27
431.011	742.16
431.387	746.68
431.763	744.87
432.138	736.96
432.514	752.55
432.89	762.04
433.265	779.89
433.641	771.08
434.016	787.58
434.392	797.97
434.767	809.5
435.143	807.92
435.518	824.87
435.894	806.11
436.269	829.16
436.644	825.77
437.02	844.75
437.395	856.5
437.77	876.16
438.145	850.63
438.52	898.99
438.895	915.26
439.271	890.17
439.646	903.51
440.021	901.93
440.395	908.25
440.77	884.52
441.145	947.8
441.52	927.91
441.895	936.05
442.27	924.98
442.645	961.81
443.019	949.61
443.394	931.98
443.769	977.4
444.143	977.86
444.518	968.14
444.892	977.18
445.267	1004.07
445.641	990.96
446.016	985.54
446.39	988.93
446.764	1001.13
447.139	1027.12
447.513	1037.06
447.887	1049.49
448.262	1016.27
448.636	1049.04
449.01	1036.84
449.384	1061.02
449.758	1063.73
450.132	1046.78
450.506	1059.66
450.88	1088.81
451.254	1089.72
451.628	1141.92
452.002	1116.16
452.376	1130.17
452.75	1124.07
453.123	1141.02
453.497	1136.27
453.871	1150.96
454.244	1170.39
454.618	1180.79
454.992	1236.38
455.365	1204.97
455.739	1229.15
456.112	1257.4
456.486	1265.98
456.859	1269.37
457.232	1312.99
457.606	1289.94
457.979	1306.43
458.352	1380.33
458.725	1350.5
459.099	1359.31
459.472	1411.52
459.845	1391.18
460.218	1410.39
460.591	1417.17
460.964	1434.79
461.337	1485.19
461.71	1480.44
462.083	1532.42
462.456	1529.93
462.829	1557.28
463.201	1566.09
463.574	1576.26
463.947	1586.43
464.32	1637.27
464.692	1632.98
465.065	1627.1
465.438	1685.41
465.81	1707.1
466.183	1758.17
466.555	1782.13
466.928	1795.69
467.3	1815.57
467.672	1856.25
468.045	1873.43
468.417	1905.06
468.789	1925.18
469.161	1947.77
469.534	2007.43
469.906	2048.79
470.278	2023.48
470.65	2094.44
471.022	2115.23
471.394	2163.36
471.766	2212.17
472.138	2246.07
472.51	2290.36
472.882	2326.07
473.253	2433.86
473.625	2432.28
473.997	2494.88
474.369	2525.61
474.74	2555.44
475.112	2651.71
475.484	2659.85
475.855	2766.96
476.227	2842.89
476.598	2926.05
476.97	2964.7
477.341	3042.43
477.713	3122.43
478.084	3183
478.455	3295.53
478.827	3312.26
479.198	3450.78
479.569	3507.05
479.94	3615.07
480.311	3660.27
480.682	3802.87
481.053	3930.32
481.424	4028.62
481.795	4084.89
482.166	4189.97
482.537	4302.74
482.908	4415.05
483.279	4548.61
483.65	4682.84
484.021	4767.36
484.391	4886.23
484.762	5008.71
485.133	5101.59
485.503	5258.87
485.874	5417.06
486.244	5537.06
486.615	5661.8
486.985	5800.1
487.356	6005.97
487.726	6081.68
488.097	6263.82
488.467	6295.68
488.837	6534.32
489.207	6694.32
489.578	6821.54
489.948	7005.49
490.318	7163.46
490.688	7261.98
491.058	7417.91
491.428	7645.7
491.798	7788.75
492.168	7949.42
492.538	7928.86
492.908	8176.54
493.278	8362.52
493.648	8506.7
494.017	8680.7
494.387	8833.47
494.757	8940.13
495.126	9151.2
495.496	9138.55
495.866	9247.69
496.235	9472.77
496.605	9636.39
496.974	9778.53
497.344	9933.1
497.713	10051.52
498.082	10177.61
498.452	10299.42
498.821	10440.66
499.19	10514.33
499.559	10725.62
499.928	10790.03
500.298	10895.56
500.667	11007.42
501.036	11100.3
501.405	11288.32
501.774	11260.52
502.143	11544.36
502.512	11537.8
502.88	11629.55
503.249	11745.71
503.618	11810.79
503.987	11920.39
504.356	12053.27
504.724	12142.76
505.093	12255.3
505.462	12282.42
505.83	12388.63
506.199	12555.63
506.567	12681.05
506.936	12655.06
507.304	12799.69
507.672	12841.72
508.041	13034.26
508.409	13076.07
508.777	13197.2
509.145	13287.59
509.514	13236.74
509.882	13390.86
510.25	13463.4
510.618	13509.73
510.986	13517.64
511.354	13673.12
511.722	13813
512.09	13888.7
512.458	13891.87
512.826	13999.43
513.193	14015.93
513.561	14034.46
513.929	14191.75
514.297	14305.41
514.664	14419.54
515.032	14342.02
515.4	14495.01
515.767	14495.24
516.135	14594.9
516.502	14474.45
516.869	14703.14
517.237	14651.17
517.604	14674.67
517.972	14787.21
518.339	14864.27
518.706	14871.5
519.073	14955.34
519.44	14976.36
519.808	15023.36
520.175	14949.24
520.542	15199.63
520.909	15291.15
521.276	15191.72
521.643	15449.34
522.009	15365.27
522.376	15447.98
522.743	15466.29
523.11	15559.17
523.477	15628.77
523.843	15652.27
524.21	15818.6
524.577	15847.07
524.943	15912.83
525.31	15875.54
525.676	15981.98
526.043	16041.19
526.409	15959.61
526.776	16103.33
527.142	16202.99
527.508	16173.61
527.874	16255.42
528.241	16180.62
528.607	16158.25
528.973	16309.88
529.339	16319.83
529.705	16369.54
530.071	16380.61
530.437	16393.72
530.803	16426.04
531.169	16495.41
531.535	16382.87
531.901	16454.96
532.267	16464.68
532.632	16527.5
532.998	16492.93
533.364	16543.32
533.73	16477.56
534.095	16473.27
534.461	16539.71
534.826	16543.1
535.192	16546.94
535.557	16600.04
535.923	16516.43
536.288	16506.94
536.653	16492.7
537.019	16432.36
537.384	16394.63
537.749	16434.17
538.114	16442.76
538.479	16429.2
538.845	16326.83
539.21	16308.75
539.575	16353.95
539.94	16300.62
540.305	16256.32
540.67	16252.26
541.034	16414.06
541.399	16222.88
541.764	16254.74
542.129	16226.27
542.494	16193.95
542.858	16237.79
543.223	16166.38
543.587	16132.26
543.952	16057.91
544.316	16017.46
544.681	16007.06
545.045	16124.8
545.41	16024.24
545.774	15992.6
546.138	16030.79
546.503	15855.2
546.867	15919.38
547.231	15928.87
547.595	15907.18
547.959	15939.95
548.324	15732.5
548.688	15745.15
549.052	15769.11
549.416	15789.44
549.779	15716.45
550.143	15692.95
550.507	15736.11
550.871	15687.98
551.235	15677.13
551.599	15666.73
551.962	15779.05
552.326	15587.64
552.689	15604.59
553.053	15469.45
553.417	15537.7
553.78	15680.07
554.143	15539.51
554.507	15544.93
554.87	15572.5
555.234	15531.15
555.597	15436.01
555.96	15422.67
556.323	15377.03
556.686	15361.21
557.05	15467.19
557.413	15464.48
557.776	15483.24
558.139	15543.8
558.502	15528.66
558.865	15476.68
559.228	15571.14
559.59	15509.45
559.953	15498.6
560.316	15591.03
560.679	15510.81
561.041	15610.92
561.404	15579.05
561.767	15682.78
562.129	15612.73
562.492	15676.9
562.854	15587.42
563.217	15584.93
563.579	15579.73
563.941	15599.84
564.304	15666.06
564.666	15801.87
565.028	15669.45
565.39	15697.02
565.753	15815.21
566.115	15704.25
566.477	15857.24
566.839	15784.7
567.201	15900.85
567.563	15830.8
567.925	15956.44
568.287	15856.79
568.648	15906.5
569.01	15960.51
569.372	15940.17
569.734	15998.03
570.095	16098.59
570.457	16075.76
570.819	15998.25
571.18	16052.71
571.542	16148.76
571.903	16095.65
572.265	16128.64
572.626	16102.88
572.987	16098.59
573.349	16125.03
573.71	16231.24
574.071	16168.64
574.432	16239.38
574.794	16300.84
575.155	16169.55
575.516	16186.04
575.877	16317.79
576.238	16248.41
576.599	16285.02
576.96	16178.13
577.32	16282.31
577.681	16342.42
578.042	16379.03
578.403	16297.45
578.763	16262.43
579.124	16353.72
579.485	16441.86
579.845	16473.49
580.206	16442.99
580.566	16437.79
580.927	16360.05
581.287	16508.52
581.648	16376.55
582.008	16395.98
582.368	16402.76
582.728	16435.3
583.089	16354.4
583.449	16296.55
583.809	16388.98
584.169	16358.69
584.529	16312.82
584.889	16506.26
585.249	16329.99
585.609	16319.15
585.969	16373.61
586.329	16227.17
586.688	16281.18
587.048	16293.39
587.408	16261.07
587.768	16347.62
588.127	16285.93
588.487	16138.36
588.846	16293.39
589.206	16184.01
589.565	16233.05
589.925	16369.09
590.284	16214.74
590.643	16181.3
591.003	16276.66
591.362	16212.48
591.721	16290.45
592.08	16207.29
592.44	16213.84
592.799	16159.83
593.158	16269.66
593.517	16081.41
593.876	16181.52
594.235	16175.2
594.593	16116.21
594.952	16130.9
595.311	16128.42
595.67	16164.57
596.029	16241.64
596.387	15996.67
596.746	16157.8
597.104	16075.76
597.463	16036.44
597.822	16158.93
598.18	16071.92
598.538	16081.64
598.897	16161.19
599.255	16047.52
599.613	16190.56
599.972	16114.18
600.33	16187.17
600.688	16092.71
601.046	16198.92
601.404	16093.16
601.762	16131.13
602.12	16229.66
602.478	16191.69
602.836	16157.34
603.194	16048.65
603.552	16109.44
603.91	16136.55
604.268	16141.75
604.625	16030.34
604.983	16179.94
605.341	16132.49
605.698	16126.84
606.056	16110.57
606.413	16129.32
606.771	16179.94
607.128	16198.92
607.485	16069.66
607.843	16116.67
608.2	16193.05
608.557	16237.57
608.914	16164.35
609.272	16264.91
609.629	16305.59
609.986	16302.42
610.343	16216.55
610.7	16303.78
611.057	16320.73
611.414	16344.91
611.771	16334.06
612.127	16367.06
612.484	16355.76
612.841	16395.53
613.198	16349.65
613.554	16328.86
613.911	16456.32
614.267	16383.33
614.624	16365.93
614.98	16402.99
615.337	16467.84
615.693	16477.79
616.05	16419.94
616.406	16637.1
616.762	16507.39
617.118	16518.01
617.475	16525.47
617.831	16595.52
618.187	16520.27
618.543	16566.37
618.899	16660.61
619.255	16659.03
619.611	16496.32
619.967	16609.99
620.323	16615.18
620.678	16678.46
621.034	16538.12
621.39	16622.19
621.746	16524.11
622.101	16744.67
622.457	16577.67
622.812	16601.17
623.168	16640.04
623.523	16735.18
623.879	16656.09
624.234	16718.46
624.589	16687.73
624.945	16687.95
625.3	16598.91
625.655	16685.69
626.01	16626.48
626.365	16660.16
626.72	16685.24
627.075	16576.77
627.43	16600.27
627.785	16604.79
628.14	16648.63
628.495	16643.21
628.85	16640.95
629.205	16628.52
629.559	16578.35
629.914	16597.56
630.269	16523.66
630.623	16521.4
630.978	16530.89
631.332	16535.86
631.687	16541.29
632.041	16559.82
632.396	16451.12
632.75	16529.09
633.104	16522.76
633.459	16343.78
633.813	16392.82
634.167	16363.67
634.521	16369.32
634.875	16435.75
635.229	16309.88
635.583	16292.03
635.937	16320.05
636.291	16222.43
636.645	16226.04
636.999	16194.63
637.352	16213.61
637.706	16193.05
638.06	16263.1
638.413	16165.03
638.767	16185.14
639.121	16251.35
639.474	16074.18
639.828	16062.88
640.181	16042.32
640.534	16118.47
640.888	16090.9
641.241	15962.77
641.594	16044.58
641.947	16043
642.301	16005.26
642.654	15919.16
643.007	16062.43
643.36	15928.65
643.713	15862.21
644.066	16011.58
644.419	15889.33
644.771	15766.62
645.124	15687.53
645.477	15596.91
645.83	15561.88
646.182	15478.72
646.535	15426.74
646.888	15446.85
647.24	15294.09
647.593	15487.76
647.945	15407.76
648.298	15391.71
648.65	15363.69
649.002	15319.4
649.355	15419.96
649.707	15377.25
650.059	15368.21
650.411	15595.32
650.763	15680.52
651.115	15817.69
651.467	15685.49
651.819	15687.98
652.171	15792.61
652.523	15718.71
652.875	15659.28
653.227	15609.56
653.578	15692.72
653.93	15709.45
654.282	15630.13
654.633	15653.63
654.985	15603.46
655.337	15615.44
655.688	15692.05
656.039	15774.53
656.391	15681.2
656.742	15661.31
657.094	15725.04
657.445	15780.86
657.796	15660.63
658.147	15742.89
658.498	15678.26
658.849	15812.27
659.2	15673.97
659.551	15599.84
659.902	15759.39
660.253	15775.66
660.604	15808.65
660.955	15613.63
661.306	15665.83
661.656	15706.73
662.007	15707.41
662.358	15667.19
662.708	15785.6
663.059	15768.43
663.409	15617.7
663.76	15727.75
664.11	15740.41
664.461	15789.44
664.811	15757.13
665.161	15820.86
665.511	15734.98
665.862	15690.24
666.212	15742.89
666.562	15824.92
666.912	15765.26
667.262	15744.92
667.612	15704.02
667.962	15761.42
668.312	15718.03
668.662	15811.82
669.011	15679.16
669.361	15658.6
669.711	15649.56
670.06	15743.34
670.41	15723.23
670.76	15713.51
671.109	15691.59
671.459	15699.95
671.808	15692.27
672.157	15653.85
672.507	15561.65
672.856	15585.16
673.205	15527.08
673.554	15579.28
673.904	15578.6
674.253	15659.28
674.602	15614.08
674.951	15353.97
675.3	15297.48
675.649	15619.28
675.998	15541.09
676.346	15535.66
676.695	15532.28
677.044	15499.06
677.393	15534.54
677.741	15566.62
678.09	15520.07
678.438	15464.25
678.787	15476.91
679.135	15414.09
679.484	15356.91
679.832	15417.7
680.181	15419.74
680.529	15406.63
680.877	15298.38
681.225	15266.07
681.573	15277.59
681.922	15241.44
682.27	15037.37
682.618	15213.19
682.966	15067.88
683.314	15197.14
683.661	15064.94
684.009	15034.66
684.357	14965.28
684.705	14960.09
685.053	14893.42
685.4	14918.51
685.748	14862.69
686.095	14916.02
686.443	14757.83
686.79	14839.64
687.138	14797.15
687.485	14771.62
687.832	14657.04
688.18	14688
688.527	14637.38
688.874	14628.8
689.221	14558.52
689.568	14525.3
689.915	14464.28
690.262	14381.35
690.609	14396.94
690.956	14439.2
691.303	14279.43
691.65	14229.94
691.997	14292.53
692.344	14187.68
692.69	14169.83
693.037	14115.59
693.383	13973.67
693.73	14063.39
694.077	13890.96
694.423	13953.56
694.769	13948.59
695.116	13821.36
695.462	13832.88
695.808	13738.65
696.155	13789.5
696.501	13721.93
696.847	13658.2
697.193	13516.51
697.539	13636.28
697.885	13391.31
698.231	13478.54
698.577	13449.39
698.923	13471.09
699.269	13291.66
699.614	13204.88
699.96	13189.29
700.306	13257.53
700.651	13127.14
700.997	13088.27
701.342	12997.43
701.688	13021.61
702.033	12926.02
702.379	12943.87
702.724	12897.77
703.069	12931.21
703.415	12721.73
703.76	12806.7
704.105	12690.99
704.45	12613.03
704.795	12648.28
705.14	12612.8
705.485	12558.12
705.83	12519.93
706.175	12449.19
706.52	12437.44
706.865	12321.74
707.209	12346.37
707.554	12304.56
707.899	12309.08
708.243	12246.94
708.588	12246.71
708.932	12119.71
709.277	12112.03
709.621	12161.97
709.966	12111.57
710.31	12095.53
710.654	11903.22
710.998	11987.74
711.342	11965.14
711.687	11862.54
712.031	11882.88
712.375	11805.14
712.719	11883.11
713.063	11848.08
713.407	11824.8
713.75	11833.39
714.094	11733.51
714.438	11698.48
714.782	11723.79
715.125	11642.21
715.469	11699.61
715.812	11632.72
716.156	11523.79
716.499	11617.35
716.843	11566.05
717.186	11476.56
717.53	11643.56
717.873	11565.6
718.216	11510.91
718.559	11393.18
718.902	11398.37
719.246	11408.99
719.589	11358.37
719.932	11291.93
720.275	11369.45
720.617	11342.1
720.96	11319.73
721.303	11353.85
721.646	11326.96
721.989	11280.41
722.331	11327.87
722.674	11258.49
723.016	11261.43
723.359	11217.13
723.701	11267.53
724.044	11241.31
724.386	11060.3
724.729	11253.29
725.071	11177.14
725.413	11190.69
725.755	11147.76
726.097	11072.28
726.439	11079.06
726.782	11069.34
727.124	11113.41
727.465	11117.7
727.807	11058.04
728.149	11012.62
728.491	11074.31
728.833	11066.18
729.175	10996.58
729.516	11026.18
729.858	11027.31
730.199	10975.33
730.541	10977.82
730.882	10984.15
731.224	11009.46
731.565	10905.28
731.906	10952.51
732.248	10997.48
732.589	10984.6
732.93	10977.59
733.271	10913.41
733.612	10963.81
733.953	11021.21
734.294	10932.85
734.635	10934.43
734.976	11000.64
735.317	10899.18
735.658	10920.42
735.999	10967.88
736.339	11075.9
736.68	10995.22
737.021	10977.14
737.361	10911.38
737.702	10950.25
738.042	10992.73
738.383	10944.6
738.723	10982.11
739.063	10984.37
739.404	11006.74
739.744	11074.77
740.084	10986.18
740.424	11042.68
740.764	10990.02
741.104	11107.98
741.444	11018.27
741.784	11047.87
742.124	11062.79
742.464	11074.77
742.804	11079.28
743.143	11103.47
743.483	11106.4
743.823	11111.6
744.162	11103.24
744.502	11206.74
744.841	11139.62
745.181	11286.74
745.52	11260.07
745.86	11361.76
746.199	11401.99
746.538	11393.85
746.877	11435.43
747.216	11524.25
747.556	11511.59
747.895	11528.09
748.234	11563.79
748.573	11562.44
748.911	11740.74
749.25	11834.75
749.589	11882.65
749.928	11935.99
750.267	11992.26
750.605	12020.96
750.944	12155.19
751.283	12187.05
751.621	12374.17
751.96	12389.31
752.298	12487.84
752.636	12606.25
752.975	12664.55
753.313	12814.83
753.651	12942.06
753.989	12957.43
754.327	13101.6
754.666	13176.86
755.004	13339.56
755.342	13478.54
755.679	13640.12
756.017	13621.14
756.355	13915.37
756.693	13891.41
757.031	14113.78
757.368	14290.27
757.706	14374.57
758.044	14487.78
758.381	14621.56
758.719	14868.34
759.056	14974.32
759.394	15109.24
759.731	15238.27
760.068	15401.88
760.405	15497.02
760.743	15661.31
761.08	15874.87
761.417	16079.61
761.754	16219.94
762.091	16407.05
762.428	16545.81
762.765	16583.1
763.102	16998.9
763.438	17015.63
763.775	17174.49
764.112	17369.06
764.449	17510.53
764.785	17579
765.122	17709.39
765.458	17912.55
765.795	18053.79
766.131	18176.5
766.467	18337.85
766.804	18432.09
767.14	18657.84
767.476	18770.61
767.812	18784.17
768.148	18986.2
768.485	19064.61
768.821	19218.05
769.157	19250.6
769.492	19399.97
769.828	19455.11
770.164	19520.19
770.5	19622.34
770.836	19814.42
771.171	19821.65
771.507	19869.79
771.842	19925.38
772.178	20086.28
772.513	20183
772.849	20165.6
773.184	20215.32
773.519	20262.77
773.855	20368.76
774.19	20375.54
774.525	20415.76
774.86	20608.53
775.195	20543.22
775.53	20579.15
775.865	20587.28
776.2	20525.59
776.535	20490.34
776.87	20667.96
777.205	20623.44
777.539	20600.39
777.874	20741.18
778.209	20764.23
778.543	20677
778.878	20697.56
779.212	20786.15
779.547	20654.63
779.881	20873.15
780.215	20698.92
780.55	20780.27
780.884	20721.97
781.218	20762.65
781.552	20834.96
781.886	20778.01
782.22	20715.64
782.554	20733.04
782.888	20623.89
783.222	20579.37
783.556	20495.31
783.889	20607.17
784.223	20496.89
784.557	20485.59
784.89	20558.36
785.224	20451.92
785.557	20378.48
785.891	20401.98
786.224	20375.31
786.558	20451.24
786.891	20293.05
787.224	20249.21
787.557	20173.96
787.891	20260.74
788.224	20201.3
788.557	20218.25
788.89	20210.12
789.223	20164.02
789.556	20098.48
789.888	20105.49
790.221	19971.03
790.554	19966.73
790.887	19892.84
791.219	19879.28
791.552	19753.86
791.884	19837.92
792.217	19757.7
792.549	19789.56
792.882	19598.16
793.214	19524.03
793.546	19641.77
793.879	19498.27
794.211	19446.3
794.543	19407.88
794.875	19387.77
795.207	19488.56
795.539	19350.03
795.871	19308.45
796.203	19185.06
796.535	19099.41
796.867	19087.89
797.198	19216.92
797.53	19100.54
797.862	18902.81
798.193	18933.99
798.525	18913.88
798.856	18932.86
799.188	18717.95
799.519	18709.14
799.85	18589.37
800.182	18568.35
800.513	18642.25
800.844	18525.64
801.175	18647.67
801.506	18618.75
801.837	18486.1
802.168	18423.72
802.499	18477.51
802.83	18358.42
803.161	18258.76
803.491	18279.55
803.822	18290.39
804.153	18239.1
804.483	18087.91
804.814	17950.06
805.145	18024.64
805.475	17967.47
805.805	17862.61
806.136	17922.95
806.466	17965.21
806.796	17898.31
807.126	17776.28
807.457	17675.04
807.787	17659.68
808.117	17656.51
808.447	17563.18
808.777	17614.48
809.107	17539.68
809.436	17426.69
809.766	17475.95
810.096	17424.88
810.426	17338.78
810.755	17383.98
811.085	17284.32
811.414	17340.82
811.744	17125
812.073	17172.01
812.403	17137.43
812.732	16968.85
813.061	17117.54
813.39	16957.77
813.719	16903.09
814.049	16933.82
814.378	16898.79
814.707	16859.7
815.036	16867.83
815.365	16744.45
815.693	16749.64
816.022	16626.48
816.351	16698.57
816.68	16634.62
817.008	16678.69
817.337	16413.16
817.665	16433.72
817.994	16471.69
818.322	16474.17
818.651	16388.07
818.979	16425.36
819.307	16432.82
819.636	16423.1
819.964	16286.38
820.292	16421.07
820.62	16293.16
820.948	16205.48
821.276	16424.68
821.604	16330.22
821.932	16318.7
822.259	16382.87
822.587	16242.09
822.915	16281.86
823.243	16250
823.57	16148.08
823.898	16261.52
824.225	16257.45
824.553	16219.94
824.88	16225.82
825.207	16273.95
825.535	16285.25
825.862	16224.23
826.189	16156.67
826.516	16260.17
826.843	16317.11
827.17	16385.36
827.497	16272.14
827.824	16299.03
828.151	16311.46
828.478	16278.02
828.805	16319.6
829.131	16214.52
829.458	16285.48
829.785	16136.1
830.111	16173.39
830.438	16312.37
830.764	16222.88
831.09	16273.5
831.417	16209.09
831.743	16248.64
832.069	16245.02
832.395	16146.72
832.722	16114.63
833.048	16124.12
833.374	16079.38
833.7	16097.01
834.026	16081.64
834.351	16145.59
834.677	16051.81
835.003	16143.33
835.329	16064.92
835.654	16050.68
835.98	15928.42
836.306	16057.69
836.631	15952.83
836.956	15952.15
837.282	16006.84
837.607	15869.22
837.932	15873.06
838.258	15830.8
838.583	15873.74
838.908	15763.23
839.233	15857.24
839.558	15741.99
839.883	15689.33
840.208	15661.31
840.533	15652.5
840.858	15707.19
841.182	15586.51
841.507	15610.69
841.832	15551.26
842.156	15507.19
842.481	15447.98
842.805	15462.9
843.13	15438.04
843.454	15438.72
843.778	15387.42
844.103	15269.01
844.427	15254.09
844.751	15217.71
845.075	15163.92
845.399	15113.08
845.723	15098.39
846.047	15202.79
846.371	15023.14
846.695	14979.75
847.019	14889.81
847.343	14808.9
847.666	14748.57
847.99	14713.09
848.313	14708.57
848.637	14623.6
848.96	14605.29
849.284	14548.12
849.607	14437.16
849.931	14423.38
850.254	14383.38
850.577	14262.48
850.9	14179.99
851.223	14179.99
851.546	14121.46
851.869	14040.11
852.192	14015.7
852.515	13905.65
852.838	13860.91
853.161	13856.84
853.483	13814.35
853.806	13798.76
854.129	13759.44
854.451	13619.56
854.774	13618.43
855.096	13536.4
855.419	13488.49
855.741	13528.49
856.063	13429.96
856.385	13332.11
856.708	13344.54
857.03	13266.35
857.352	13252.34
857.674	13250.53
857.996	13156.52
858.318	13140.47
858.64	13142.73
858.961	13079.68
859.283	12972.57
859.605	12959.91
859.926	12954.04
860.248	12930.54
860.57	12915.85
860.891	12925.11
861.212	12841.95
861.534	12706.13
861.855	12748.17
862.176	12779.13
862.498	12742.29
862.819	12759.47
863.14	12643.09
863.461	12632.46
863.782	12553.82
864.103	12654.61
864.424	12560.38
864.745	12574.61
865.065	12520.38
865.386	12492.13
865.707	12440.61
866.027	12505.01
866.348	12398.57
866.668	12409.87
866.989	12458.91
867.309	12346.37
867.63	12362.87
867.95	12282.19
868.27	12308.41
868.59	12304.79
868.91	12290.55
869.23	12221.63
869.55	12092.82
869.87	12332.36
870.19	12149.77
870.51	12208.97
870.83	12169.65
871.15	12140.5
871.469	12156.77
871.789	12224.79
872.109	12065.25
872.428	12056.21
872.748	12002.65
873.067	11981.63
873.386	12034.06
873.706	12007.4
874.025	11921.07
874.344	11857.57
874.663	11863.22
874.982	11878.13
875.301	11873.61
875.62	11842.65
875.939	11828.19
876.258	11826.16
876.577	11806.27
876.896	11837.23
877.214	11666.61
877.533	11750.68
877.852	11725.82
878.17	11660.06
878.489	11725.6
878.807	11733.51
879.125	11603.56
879.444	11635.65
879.762	11581.87
880.08	11526.96
880.398	11549.1
880.716	11604.92
881.034	11531.02
881.352	11481.53
881.67	11499.84
881.988	11461.42
882.306	11425.49
882.624	11283.57
882.941	11329.67
883.259	11284.25
883.577	11266.85
883.894	11282.9
884.212	11258.94
884.529	11265.72
884.846	11264.14
885.164	11110.47
885.481	11120.87
885.798	11195.67
886.115	11117.02
886.432	11074.54
886.75	10977.59
887.067	11025.95
887.383	10984.82
887.7	11014.43
888.017	10965.16
888.334	10973.07
888.651	10912.96
888.967	10886.07
889.284	10797.48
889.6	10709.58
889.917	10655.79
890.233	10723.59
890.55	10699.41
890.866	10662.57
891.182	10702.57
891.498	10666.19
891.815	10649.92
892.131	10502.58
892.447	10532.86
892.763	10413.99
893.079	10457.38
893.395	10385.97
893.71	10396.82
894.026	10388.23
894.342	10296.48
894.657	10257.16
894.973	10248.57
895.289	10297.61
895.604	10207.9
895.92	10218.97
896.235	10081.35
896.55	10081.57
896.865	10053.32
897.181	9991.4
897.496	10032.53
897.811	10002.03
898.126	9924.97
898.441	9944.85
898.756	9883.16
899.071	9846.77
899.386	9793.67
899.7	9712.32
900.015	9697.85
900.33	9659.44
900.644	9641.36
900.959	9685.65
901.273	9556.39
901.588	9580.34
901.902	9463.73
902.216	9452.66
902.531	9455.6
902.845	9387.13
903.159	9392.55
903.473	9331.08
903.787	9260.12
904.101	9229.62
904.415	9182.39
904.729	9133.12
905.042	9147.36
905.356	9136.51
905.67	9113.91
905.984	9117.08
906.297	8995.27
906.611	8939.45
906.924	8983.97
907.237	8931.77
907.551	8951.66
907.864	8782.17
908.177	8805.22
908.491	8783.07
908.804	8710.31
909.117	8696.52
909.43	8679.57
909.743	8645
910.056	8617.2
910.368	8578.56
910.681	8425.12
910.994	8467.38
911.307	8520.93
911.619	8423.76
911.932	8468.96
912.244	8370.2
912.557	8324.1
912.869	8281.39
913.181	8236.42
913.494	8216.76
913.806	8179.02
914.118	8208.4
914.43	8052.25
914.742	8072.36
915.054	8018.8
915.366	8016.09
915.678	7951.91
915.99	7901.52
916.302	7882.31
916.613	7866.71
916.925	7816.09
917.236	7847.28
917.548	7816.55
917.859	7756.43
918.171	7707.62
918.482	7711.92
918.794	7673.27
919.105	7661.07
919.416	7535.42
919.727	7528.87
920.038	7559.15
920.349	7455.43
920.66	7449.1
920.971	7518.47
921.282	7396.9
921.593	7331.36
921.903	7315.32
922.214	7266.73
922.525	7240.29
922.835	7243
923.146	7184.02
923.456	7200.06
923.767	7207.07
924.077	7136.34
924.387	7138.37
924.697	7031.26
925.008	7024.48
925.318	7023.8
925.628	6987.42
925.938	6941.31
926.248	6888.21
926.558	6910.81
926.867	6844.37
927.177	6894.76
927.487	6811.83
927.796	6717.14
928.106	6734.99
928.416	6711.49
928.725	6718.27
929.034	6681.43
929.344	6646.86
929.653	6640.31
929.962	6606.41
930.271	6544.04
930.581	6510.82
930.89	6440.76
931.199	6481.44
931.508	6425.17
931.817	6457.49
932.125	6420.88
932.434	6411.61
932.743	6352.4
933.051	6337.94
933.36	6353.08
933.669	6194.44
933.977	6215.68
934.286	6206.87
934.594	6220.2
934.902	6122.13
935.21	6102.92
935.519	6121.68
935.827	6079.64
936.135	6067.21
936.443	6025.86
936.751	5970.04
937.059	6040.32
937.367	5904.73
937.674	5990.61
937.982	5937.27
938.29	5945.41
938.597	5918.52
938.905	5808.69
939.213	5810.5
939.52	5747.45
939.827	5781.35
940.135	5738.86
940.442	5671.07
940.749	5660.67
941.056	5635.36
941.363	5635.13
941.67	5570.05
941.977	5581.35
942.284	5510.84
942.591	5551.52
942.898	5485.53
943.205	5459.77
943.511	5497.96
943.818	5462.71
944.125	5395.59
944.431	5353.33
944.738	5369.38
945.044	5330.96
945.35	5300.45
945.657	5250.74
945.963	5220.91
946.269	5243.05
946.575	5244.41
946.881	5201.47
947.187	5155.15
947.493	5175.49
947.799	5150.18
948.105	5130.06
948.41	5071.31
948.716	5122.38
949.022	5031.31
949.327	5056.62
949.633	4983.4
949.938	5014.13
950.244	4995.83
950.549	4950.18
950.854	4949.5
951.16	4963.51
951.465	4893.23
951.77	4853.23
952.075	4822.5
952.38	4796.06
952.685	4838.09
952.99	4741.15
953.294	4707.25
953.599	4765.1
953.904	4686.68
954.209	4660.92
954.513	4691.66
954.818	4619.34
955.122	4680.36
955.426	4617.53
955.731	4584.54
956.035	4546.12
956.339	4538.44
956.643	4571.21
956.948	4510.87
957.252	4511.77
957.556	4473.13
957.86	4443.53
958.163	4425.67
958.467	4427.93
958.771	4402.17
959.075	4380.03
959.378	4361.27
959.682	4357.43
959.985	4320.14
960.289	4298.45
960.592	4336.86
960.896	4283.53
961.199	4278.11
961.502	4242.63
961.805	4231.78
962.108	4187.94
962.411	4209.64
962.714	4141.39
963.017	4121.95
963.32	4145.23
963.623	4087.6
963.926	4103.42
964.228	4049.19
964.531	4072.24
964.833	4056.19
965.136	4027.49
965.438	3997.44
965.741	3961.96
966.043	3943.2
966.345	3921.73
966.648	3949.53
966.95	3925.8
967.252	3899.36
967.554	3861.17
967.856	3857.55
968.158	3847.84
968.46	3840.15
968.761	3809.87
969.063	3768.97
969.365	3769.87
969.666	3782.98
969.968	3713.6
970.269	3734.62
970.571	3715.64
970.872	3701.4
971.174	3702.98
971.475	3684.68
971.776	3647.39
972.077	3626.83
972.378	3606.04
972.679	3616.43
972.98	3612.81
973.281	3575.3
973.582	3591.57
973.883	3515.19
974.183	3531.01
974.484	3500.95
974.785	3486.49
975.085	3478.58
975.386	3481.29
975.686	3465.02
975.986	3435.64
976.287	3442.42
976.587	3355.65
976.887	3385.7
977.187	3346.83
977.487	3356.78
977.787	3308.42
978.087	3342.09
978.387	3320.39
978.687	3314.97
978.987	3298.92
979.286	3287.85
979.586	3256.44
979.885	3253.28
980.185	3234.75
980.484	3203.11
980.784	3207.18
981.083	3162.66
981.382	3180.28
981.682	3172.37
981.981	3154.07
982.28	3153.62
982.579	3125.82
982.878	3127.63
983.177	3055.32
983.475	3088.08
983.774	3057.8
984.073	3039.27
984.372	3014.64
984.67	2977.8
984.969	3023
985.267	3003.11
985.566	2979.61
985.864	2957.24
986.162	2970.57
986.461	2953.17
986.759	2926.73
987.057	2950.91
987.355	2918.37
987.653	2908.65
987.951	2863
988.249	2838.82
988.547	2810.8
988.844	2854.19
989.142	2823.46
989.44	2816.9
989.737	2785.27
990.035	2789.33
990.332	2729.22
990.63	2768.99
990.927	2731.93
991.224	2698.71
991.521	2705.04
991.819	2717.02
992.116	2701.43
992.413	2656.91
992.71	2673.4
993.006	2686.74
993.303	2618.49
993.6	2646.06
993.897	2632.28
994.193	2629.56
994.49	2580.53
994.787	2584.82
995.083	2542.11
995.379	2547.98
995.676	2530.58
995.972	2533.07
996.268	2488.78
996.565	2462.56
996.861	2480.87
997.157	2453.75
997.453	2497.14
997.749	2455.33
998.044	2444.48
998.34	2422.11
998.636	2369.68
998.932	2404.71
999.227	2404.26
999.523	2396.12
999.818	2361.1
1000.114	2345.96
1000.409	2312.51
1000.704	2332.4
1001	2294.66
1001.295	2305.05
1001.59	2290.36
1001.885	2263.02
1002.18	2267.54
1002.475	2242.23
1002.77	2265.73
1003.065	2199.52
1003.359	2200.42
1003.654	2187.32
1003.949	2192.29
1004.243	2170.14
1004.538	2146.64
1004.832	2153.64
1005.127	2154.77
1005.421	2145.96
1005.715	2119.52
1006.009	2099.63
1006.304	2120.88
1006.598	2060.54
1006.892	2038.84
1007.186	2045.4
1007.48	2030.48
1007.773	2066.19
1008.067	2017.15
1008.361	2000.88
1008.655	2008.56
1008.948	1968.11
1009.242	1974.67
1009.535	1962.24
1009.829	1938.28
1010.122	1939.19
1010.415	1919.07
1010.708	1908.68
1011.001	1882.46
1011.295	1881.33
1011.588	1910.03
1011.881	1851.96
1012.173	1886.31
1012.466	1826.87
1012.759	1822.13
1013.052	1825.29
1013.344	1837.95
1013.637	1820.55
1013.93	1772.86
1014.222	1797.27
1014.514	1777.38
1014.807	1755.69
1015.099	1762.02
1015.391	1745.75
1015.683	1726.99
1015.976	1734.45
1016.268	1691.74
1016.56	1710.49
1016.851	1697.38
1017.143	1694.67
1017.435	1674.79
1017.727	1663.94
1018.018	1651.06
1018.31	1621.45
1018.602	1631.17
1018.893	1632.08
1019.185	1612.64
1019.476	1582.81
1019.767	1600.66
1020.058	1589.36
1020.35	1573.32
1020.641	1577.84
1020.932	1553.66
1021.223	1553.89
1021.514	1528.58
1021.804	1518.18
1022.095	1488.58
1022.386	1523.15
1022.677	1482.25
1022.967	1499.88
1023.258	1469.37
1023.548	1456.04
1023.839	1425.08
1024.129	1438.63
1024.419	1432.53
1024.709	1431.4
1025	1428.92
1025.29	1392.99
1025.58	1397.28
1025.87	1409.26
1026.16	1354.34
1026.449	1365.19
1026.739	1342.82
1027.029	1326.32
1027.319	1353.21
1027.608	1355.02
1027.898	1323.38
1028.187	1329.48
1028.477	1322.71
1028.766	1301.24
1029.055	1300.11
1029.344	1286.77
1029.634	1279.99
1029.923	1272.76
1030.212	1254.01
1030.501	1250.16
1030.79	1230.73
1031.078	1225.31
1031.367	1229.15
1031.656	1211.97
1031.945	1214.69
1032.233	1182.6
1032.522	1178.98
1032.81	1157.51
1033.099	1163.39
1033.387	1166.1
1033.675	1169.94
1033.963	1167.91
1034.251	1153.22
1034.54	1121.58
1034.828	1125.65
1035.116	1118.19
1035.403	1123.16
1035.691	1096.72
1035.979	1107.34
1036.267	1103.5
1036.554	1085.88
1036.842	1058.08
1037.129	1071.64
1037.417	1046.1
1037.704	1055.14
1037.992	1069.6
1038.279	1068.7
1038.566	1033.67
1038.853	1033.67
1039.14	1033.67
