Data from hue_290_FLMS001491_00076.txt Node
Date: Tue Feb 07 15:53:13 GMT 2017
User: dcchb
Spectrometer: FLMS00149
Trigger mode: 0
Integration Time (sec): 2.000000E-2
Scans to average: 10
Electric dark correction enabled: true
Nonlinearity correction enabled: false
Boxcar width: 0
XAxis mode: Wavelengths
Number of Pixels in Spectrum: 2048
>>>>>Begin Spectral Data<<<<<
341.393	-3.22
341.776	-3.22
342.16	-3.22
342.543	-82.77
342.927	-53.39
343.31	-77.79
343.693	-62.88
344.077	-67.4
344.46	-57
344.843	-32.6
345.226	-57.46
345.61	-29.66
345.993	-20.62
346.376	-10.45
346.759	12.82
347.142	31.58
347.525	51.24
347.908	35.42
348.291	71.58
348.674	106.61
349.057	106.61
349.44	120.84
349.823	125.59
350.206	148.41
350.588	195.19
350.971	213.05
351.354	208.75
351.737	228.86
352.119	249.65
352.502	271.8
352.884	261.86
353.267	261.86
353.65	285.81
354.032	250.78
354.414	299.14
354.797	302.08
355.179	306.15
355.562	303.21
355.944	308.18
356.326	319.71
356.709	332.14
357.091	328.07
357.473	318.58
357.855	327.84
358.238	325.13
358.62	346.15
359.002	330.33
359.384	315.87
359.766	335.75
360.148	323.1
360.53	326.04
360.912	338.92
361.294	329.65
361.676	326.49
362.057	322.42
362.439	321.29
362.821	310.44
363.203	328.75
363.584	328.97
363.966	324.68
364.348	332.59
364.729	322.87
365.111	318.81
365.493	299.37
365.874	328.52
366.256	326.71
366.637	305.47
367.019	304.34
367.4	300.5
367.781	309.99
368.163	306.6
368.544	323.78
368.925	308.18
369.306	293.95
369.688	315.87
370.069	275.42
370.45	313.61
370.831	311.35
371.212	320.84
371.593	312.93
371.974	296.66
372.355	296.88
372.736	318.58
373.117	313.16
373.498	317
373.879	332.59
374.26	319.94
374.641	317.68
375.021	321.29
375.402	333.04
375.783	332.36
376.163	318.35
376.544	318.35
376.925	317.22
377.305	312.48
377.686	314.74
378.066	339.82
378.447	328.52
378.827	315.42
379.208	334.62
379.588	340.27
379.968	327.62
380.349	322.19
380.729	308.41
381.109	336.21
381.489	337.56
381.87	329.88
382.25	326.49
382.63	338.24
383.01	341.63
383.39	350.44
383.77	333.72
384.15	336.66
384.53	326.26
384.91	338.01
385.29	347.05
385.67	334.62
386.049	325.58
386.429	333.72
386.809	344.34
387.189	329.88
387.568	349.31
387.948	335.98
388.328	357.22
388.707	338.01
389.087	349.31
389.466	361.29
389.846	360.39
390.225	366.49
390.605	358.8
390.984	369.65
391.363	353.61
391.743	369.88
392.122	367.62
392.501	350.89
392.881	404.9
393.26	367.84
393.639	356.32
394.018	376.88
394.397	387.28
394.776	378.69
395.155	375.07
395.534	377.33
395.913	364.68
396.292	381.85
396.671	383.21
397.05	363.1
397.429	409.42
397.808	387.05
398.186	381.85
398.565	402.87
398.944	404
399.323	392.7
399.701	402.19
400.08	391.35
400.458	408.52
400.837	412.36
401.215	413.04
401.594	433.83
401.972	428.63
402.351	401.06
402.729	417.79
403.107	439.71
403.486	423.66
403.864	443.1
404.242	413.27
404.62	452.14
404.999	445.81
405.377	445.58
405.755	437.67
406.133	460.5
406.511	463.66
406.889	437.9
407.267	454.17
407.645	483.77
408.023	479.93
408.401	479.7
408.779	472.93
409.156	518.35
409.534	505.01
409.912	505.92
410.29	513.15
410.667	510.21
411.045	526.48
411.422	523.77
411.8	547.95
412.178	534.39
412.555	558.57
412.933	557.89
413.31	545.24
413.687	567.61
414.065	586.37
414.442	599.7
414.819	603.09
415.197	602.87
415.574	593.15
415.951	606.93
416.328	642.41
416.705	617.33
417.082	651
417.46	641.51
417.837	663.2
418.214	627.05
418.591	659.36
418.967	665.24
419.344	678.34
419.721	709.53
420.098	700.04
420.475	705.46
420.852	702.98
421.228	723.31
421.605	735.52
421.982	742.75
422.358	742.75
422.735	750.66
423.111	745.69
423.488	765.12
423.864	778.68
424.241	799.92
424.617	779.58
424.994	792.24
425.37	813.48
425.746	827.27
426.123	812.58
426.499	859.81
426.875	817.1
427.251	860.49
427.627	898.45
428.003	874.27
428.379	891.9
428.756	913.14
429.132	917.43
429.507	944.1
429.883	922.41
430.259	947.04
430.635	967.38
431.011	958.56
431.387	986.58
431.763	981.61
432.138	983.19
432.514	1010.76
432.89	1034.27
433.265	1050.09
433.641	1079.46
434.016	1047.15
434.392	1076.75
434.767	1107.26
435.143	1114.49
435.518	1133.7
435.894	1134.38
436.269	1173.7
436.644	1167.82
437.02	1160.59
437.395	1166.92
437.77	1203.08
438.145	1224.77
438.52	1229.29
438.895	1219.8
439.271	1230.87
439.646	1252.34
440.021	1277.2
440.395	1279.91
440.77	1292.11
441.145	1298.44
441.52	1334.37
441.895	1309.06
442.27	1321.49
442.645	1313.58
443.019	1337.76
443.394	1308.61
443.769	1326.24
444.143	1321.72
444.518	1375.05
444.892	1352.68
445.267	1351.55
445.641	1378.66
446.016	1413.92
446.39	1388.61
446.764	1425.67
447.139	1410.75
447.513	1400.58
447.887	1414.82
448.262	1391.32
448.636	1434.03
449.01	1449.62
449.384	1461.83
449.758	1457.08
450.132	1450.3
450.506	1446.46
450.88	1489.85
451.254	1468.83
451.628	1513.12
452.002	1518.77
452.376	1540.24
452.75	1526.91
453.123	1532.11
453.497	1553.57
453.871	1559
454.244	1578.66
454.618	1587.47
454.992	1651.2
455.365	1602.39
455.739	1603.07
456.112	1645.32
456.486	1682.84
456.859	1678.77
457.232	1664.76
457.606	1676.96
457.979	1700.01
458.352	1736.85
458.725	1736.17
459.099	1740.01
459.472	1760.58
459.845	1768.48
460.218	1797.18
460.591	1813.46
460.964	1793.79
461.337	1860.23
461.71	1884.64
462.083	1869.5
462.456	1881.25
462.829	1894.36
463.201	1907.01
463.574	1921.7
463.947	1948.37
464.32	1978.87
464.692	2018.2
465.065	1965.54
465.438	2002.38
465.81	2005.99
466.183	2027.69
466.555	2116.95
466.928	2097.29
467.3	2062.26
467.672	2130.96
468.045	2156.27
468.417	2135.93
468.789	2180.45
469.161	2192.2
469.534	2185.65
469.906	2224.97
470.278	2291.86
470.65	2256.16
471.022	2280.11
471.394	2304.29
471.766	2350.62
472.138	2380.9
472.51	2428.13
472.882	2465.42
473.253	2424.51
473.625	2481.46
473.997	2517.62
474.369	2544.96
474.74	2525.98
475.112	2608.91
475.484	2591.06
475.855	2660.44
476.227	2684.17
476.598	2696.14
476.97	2718.52
477.341	2771.4
477.713	2818.17
478.084	2815.24
478.455	2869.02
478.827	2863.82
479.198	2963.71
479.569	2951.28
479.94	3014.33
480.311	3012.07
480.682	3064.95
481.053	3158.5
481.424	3217.03
481.795	3172.97
482.166	3212.06
482.537	3279.41
482.908	3288.44
483.279	3292.29
483.65	3374.54
484.021	3426.29
484.391	3431.72
484.762	3475.56
485.133	3500.87
485.503	3483.02
485.874	3572.05
486.244	3577.93
486.615	3668.77
486.985	3671.94
487.356	3727.3
487.726	3715.78
488.097	3783.57
488.467	3847.75
488.837	3901.76
489.207	3908.77
489.578	3958.71
489.948	3983.79
490.318	3997.58
490.688	4036.67
491.058	4071.7
491.428	4130
491.798	4128.2
492.168	4233.73
492.538	4255.65
492.908	4233.05
493.278	4323.67
493.648	4303.56
494.017	4378.13
494.387	4386.72
494.757	4397.79
495.126	4425.36
495.496	4388.53
495.866	4437.57
496.235	4540.62
496.605	4494.74
496.974	4502.42
497.344	4582.2
497.713	4596.88
498.082	4620.39
498.452	4676.43
498.821	4664.23
499.19	4647.5
499.559	4707.39
499.928	4721.63
500.298	4729.76
500.667	4734.51
501.036	4756.2
501.405	4820.83
501.774	4785.13
502.143	4878.23
502.512	4882.08
502.88	4915.07
503.249	4887.5
503.618	4934.28
503.987	4925.69
504.356	4941.06
504.724	4932.92
505.093	4948.97
505.462	4952.81
505.83	5012.47
506.199	5096.53
506.567	5047.49
506.936	5065.35
507.304	5151.67
507.672	5103.99
508.041	5162.97
508.409	5126.36
508.777	5171.56
509.145	5239.58
509.514	5203.87
509.882	5288.17
510.25	5224.44
510.618	5298.34
510.986	5271.22
511.354	5320.03
511.722	5370.65
512.09	5360.25
512.458	5353.48
512.826	5414.26
513.193	5427.6
513.561	5420.14
513.929	5442.74
514.297	5482.74
514.664	5462.4
515.032	5538.55
515.4	5594.15
515.767	5515.96
516.135	5569.74
516.502	5540.36
516.869	5574.49
517.237	5602.96
517.604	5584.43
517.972	5588.72
518.339	5646.35
518.706	5652.45
519.073	5687.48
519.44	5707.82
519.808	5695.84
520.175	5715.73
520.542	5704.88
520.909	5793.24
521.276	5726.12
521.643	5808.6
522.009	5838.21
522.376	5841.37
522.743	5899
523.11	5903.29
523.477	5943.29
523.843	5983.51
524.21	5976.96
524.577	6023.06
524.943	6019.67
525.31	6088.82
525.676	6122.72
526.043	6134.02
526.409	6129.27
526.776	6181.93
527.142	6193.23
527.508	6218.31
527.874	6240.46
528.241	6304.86
528.607	6314.35
528.973	6351.87
529.339	6365.2
529.705	6367.23
530.071	6444.52
530.437	6453.79
530.803	6424.41
531.169	6470.06
531.535	6525.42
531.901	6464.18
532.267	6582.6
532.632	6532.65
532.998	6583.5
533.364	6591.86
533.73	6585.08
534.095	6658.07
534.461	6706.66
534.826	6728.13
535.192	6670.73
535.557	6773.78
535.923	6721.12
536.288	6815.81
536.653	6806.09
537.019	6771.29
537.384	6804.28
537.749	6870.5
538.114	6909.82
538.479	6813.55
538.845	6916.82
539.21	6870.27
539.575	6938.52
539.94	6934.22
540.305	6972.64
540.67	7035.01
541.034	7042.24
541.399	6976.48
541.764	7063.94
542.129	7086.54
542.494	7080.66
542.858	7112.98
543.223	7095.58
543.587	7159.08
543.952	7106.65
544.316	7178.74
544.681	7212.41
545.045	7165.63
545.41	7226.87
545.774	7230.04
546.138	7320.88
546.503	7344.84
546.867	7291.5
547.231	7317.27
547.595	7380.09
547.959	7393.2
548.324	7363.82
548.688	7369.24
549.052	7415.12
549.416	7513.87
549.779	7465.74
550.143	7439.52
550.507	7512.06
550.871	7507.54
551.235	7468.9
551.599	7546.86
551.962	7570.59
552.326	7582.34
552.689	7597.71
553.053	7609.23
553.417	7618.27
553.78	7653.3
554.143	7642.68
554.507	7683.58
554.87	7694.43
555.234	7783.02
555.597	7694.88
555.96	7740.98
556.323	7764.94
556.686	7832.73
557.05	7817.59
557.413	7842.68
557.776	7845.61
558.139	7810.13
558.502	7911.37
558.865	7861.43
559.228	7954.31
559.59	7976.46
559.953	7939.17
560.316	8002.67
560.679	8035.44
561.041	8082.44
561.404	8089.67
561.767	8052.84
562.129	8133.29
562.492	8193.63
562.854	8126.51
563.217	8116.34
563.579	8151.37
563.941	8207.41
564.304	8250.35
564.666	8277.01
565.028	8243.34
565.39	8276.11
565.753	8291.25
566.115	8307.52
566.477	8394.53
566.839	8391.36
567.201	8487.18
567.563	8537.8
567.925	8560.85
568.287	8479.04
568.648	8538.02
569.01	8570.79
569.372	8586.38
569.734	8587.74
570.095	8713.39
570.457	8720.39
570.819	8754.29
571.18	8816.89
571.542	8844.46
571.903	8795.42
572.265	8943.89
572.626	8875.42
572.987	8961.06
573.349	8923.32
573.71	8955.19
574.071	9029.08
574.432	9122.64
574.794	9162.19
575.155	9199.25
575.516	9154.28
575.877	9311.56
576.238	9288.06
576.599	9347.04
576.96	9369.41
577.32	9417.1
577.681	9507.72
578.042	9571.67
578.403	9592.01
578.763	9625
579.124	9705.23
579.485	9784.54
579.845	9878.78
580.206	9898.21
580.566	9987.03
580.927	10048.49
581.287	10148.38
581.648	10193.12
582.008	10307.02
582.368	10307.24
582.728	10449.16
583.089	10524.86
583.449	10588.82
583.809	10693.45
584.169	10783.84
584.529	10781.58
584.889	11055.25
585.249	11169.82
585.609	11266.09
585.969	11358.74
586.329	11371.62
586.688	11551.28
587.048	11658.85
587.408	11753.98
587.768	11850.03
588.127	12052.73
588.487	12125.5
588.846	12380.18
589.206	12325.95
589.565	12511.03
589.925	12734.75
590.284	12764.81
590.643	12919.83
591.003	13079.15
591.362	13250.44
591.721	13267.39
592.08	13449.76
592.44	13642.07
592.799	13802.07
593.158	13810.43
593.517	13969.07
593.876	14159.57
594.235	14205.67
594.593	14448.6
594.952	14529.96
595.311	14718.43
595.67	14783.51
596.029	15015.14
596.387	15125.65
596.746	15292.87
597.104	15351.4
597.463	15510.72
597.822	15614
598.18	15667.55
598.538	15828.23
598.897	16030.48
599.255	16046.98
599.613	16369
599.972	16283.13
600.33	16496.23
600.688	16505.5
601.046	16685.38
601.404	16961.31
601.762	17006.28
602.12	17159.72
602.478	17176.67
602.836	17301.64
603.194	17330.11
603.552	17356.55
603.91	17498.69
604.268	17748.86
604.625	17633.6
604.983	17820.27
605.341	17868.17
605.698	18027.94
606.056	18154.95
606.413	18237.66
606.771	18315.85
607.128	18389.52
607.485	18353.36
607.843	18480.59
608.2	18717.87
608.557	18833.12
608.914	18792.9
609.272	18978.65
609.629	18955.6
609.986	19197.63
610.343	19057.07
610.7	19334.12
611.057	19365.08
611.414	19438.75
611.771	19475.36
612.127	19624.29
612.484	19585.19
612.841	19724.62
613.198	19704.51
613.554	19827.67
613.911	19862.92
614.267	19920.32
614.624	20030.83
614.98	20106.76
615.337	20218.85
615.693	20251.16
616.05	20209.13
616.406	20469.46
616.762	20322.35
617.118	20294.33
617.475	20346.3
617.831	20579.74
618.187	20490.7
618.543	20597.37
618.899	20766.4
619.255	20696.35
619.611	20800.75
619.967	20890.24
620.323	20927.53
620.678	20918.72
621.034	20942.67
621.39	20932.73
621.746	20923.01
622.101	21172.27
622.457	21033.06
622.812	21185.38
623.168	21158.71
623.523	21233.74
623.879	21240.97
624.234	21080.97
624.589	21146.51
624.945	21261.76
625.3	21227.86
625.655	21282.1
626.01	21329.55
626.365	21412.26
626.72	21374.07
627.075	21305.37
627.43	21342.89
627.785	21358.25
628.14	21366.16
628.495	21457.68
628.85	21359.16
629.205	21372.94
629.559	21573.61
629.914	21379.04
630.269	21467.63
630.623	21309.21
630.978	21401.19
631.332	21392.15
631.687	21354.18
632.041	21307.63
632.396	21415.2
632.75	21414.75
633.104	21454.97
633.459	21291.36
633.813	21234.87
634.167	21303.56
634.521	21387.4
634.875	21358.93
635.229	21482.77
635.583	21348.31
635.937	21303.79
636.291	21355.09
636.645	21284.13
636.999	21253.4
637.352	21307.86
637.706	21237.13
638.06	21295.65
638.413	21172.49
638.767	21184.25
639.121	21262.44
639.474	21051.59
639.828	21118.26
640.181	21124.13
640.534	21021.99
640.888	21064.02
641.241	20926.17
641.594	20948.32
641.947	21064.93
642.301	21070.58
642.654	21122.1
643.007	21041.65
643.36	21055.66
643.713	21005.72
644.066	21126.62
644.419	20921.65
644.771	20824.71
645.124	20708.55
645.477	20575
645.83	20529.57
646.182	20428.33
646.535	20418.16
646.888	20444.6
647.24	20354.21
647.593	20413.19
647.945	20424.94
648.298	20306.75
648.65	20136.59
649.002	20308.34
649.355	20480.08
649.707	20321.9
650.059	20465.85
650.411	20756.46
650.763	20777.7
651.115	20937.02
651.467	20779.51
651.819	20997.58
652.171	20827.87
652.523	20835.1
652.875	20885.04
653.227	20795.55
653.578	20996.68
653.93	20800.98
654.282	20801.43
654.633	20716.91
654.985	20821.32
655.337	20856.12
655.688	20847.3
656.039	20999.39
656.391	20768.89
656.742	20782.45
657.094	20858.6
657.445	20985.38
657.796	20968.88
658.147	20920.98
658.498	20794.88
658.849	20961.2
659.2	20826.74
659.551	20781.32
659.902	20972.5
660.253	20836.68
660.604	20991.26
660.955	20774.09
661.306	20886.63
661.656	20909.45
662.007	20862.9
662.358	20962.33
662.708	20973.18
663.059	20925.27
663.409	20769.57
663.76	20914.42
664.11	20878.72
664.461	21039.84
664.811	20949.45
665.161	20975.89
665.511	20873.52
665.862	20887.3
666.212	20983.8
666.562	21015.66
666.912	20903.35
667.262	20894.08
667.612	20890.02
667.962	20941.09
668.312	20906.96
668.662	21115.09
669.011	21026.28
669.361	20831.71
669.711	20835.55
670.06	20853.63
670.41	20818.61
670.76	20888.66
671.109	20900.18
671.459	20861.54
671.808	20873.74
672.157	20891.82
672.507	20752.84
672.856	20767.53
673.205	20813.63
673.554	20898.83
673.904	20730.7
674.253	20853.63
674.602	20772.73
674.951	20465.39
675.3	20238.28
675.649	20664.71
675.998	20709.46
676.346	20696.57
676.695	20791.26
677.044	20544.94
677.393	20700.87
677.741	20601.66
678.09	20590.81
678.438	20576.58
678.787	20559.63
679.135	20575
679.484	20457.48
679.832	20447.32
680.181	20389.01
680.529	20514.43
680.877	20413.19
681.225	20431.72
681.573	20407.09
681.922	20342.91
682.27	20151.96
682.618	20250.94
682.966	20117.38
683.314	20134.33
683.661	20120.77
684.009	19967.1
684.357	19979.76
684.705	19981.57
685.053	19983.15
685.4	19890.95
685.748	19888.23
686.095	19835.58
686.443	19748.8
686.79	19736.15
687.138	19760.78
687.485	19773.43
687.832	19732.31
688.18	19689.14
688.527	19517.62
688.874	19520.33
689.221	19526.21
689.568	19471.52
689.915	19388.59
690.262	19313.33
690.609	19302.26
690.956	19254.35
691.303	19183.39
691.65	19092.32
691.997	19055.04
692.344	18998.99
692.69	18979.33
693.037	18956.73
693.383	18755.61
693.73	18881.71
694.077	18698.66
694.423	18739.34
694.769	18648.49
695.116	18559
695.462	18535.5
695.808	18499.8
696.155	18482.85
696.501	18401.49
696.847	18405.79
697.193	18305.68
697.539	18266.58
697.885	18086.93
698.231	18066.36
698.577	18035.4
698.923	17979.58
699.269	18007.61
699.614	17800.83
699.96	17791.79
700.306	17817.55
700.651	17680.83
700.997	17639.71
701.342	17598.8
701.688	17554.51
702.033	17517
702.379	17477.68
702.724	17429.77
703.069	17331.69
703.415	17203.78
703.76	17136.22
704.105	17124.92
704.45	17157.68
704.795	17041.08
705.14	16968.54
705.485	16900.29
705.83	16811.25
706.175	16900.29
706.52	16753.4
706.865	16817.81
707.209	16697.58
707.554	16659.84
707.899	16725.38
708.243	16594.76
708.588	16611.94
708.932	16445.84
709.277	16416.69
709.621	16442.45
709.966	16331.94
710.31	16339.17
710.654	16111.38
710.998	16176.92
711.342	16141.44
711.687	16148.67
712.031	16045.85
712.375	16060.09
712.719	16047.66
713.063	15931.28
713.407	16042.91
713.75	15926.53
714.094	16075.23
714.438	15820.09
714.782	15905.06
715.125	15774.22
715.469	15862.13
715.812	15750.04
716.156	15676.59
716.499	15704.84
716.843	15727.21
717.186	15633.66
717.53	15767.44
717.873	15590.95
718.216	15548.46
718.559	15562.25
718.902	15565.64
719.246	15484.73
719.589	15399.99
719.932	15424.85
720.275	15399.76
720.617	15349.6
720.96	15264.85
721.303	15352.53
721.646	15298.07
721.989	15235.93
722.331	15357.73
722.674	15311.41
723.016	15210.17
723.359	15257.17
723.701	15217.4
724.044	15117.96
724.386	15096.04
724.729	15129.26
725.071	15139.43
725.413	15125.87
725.755	15137.62
726.097	15030.73
726.439	14993.22
726.782	15009.49
727.124	15100.79
727.465	14993.45
727.807	14923.17
728.149	14917.97
728.491	14934.92
728.833	14960.45
729.175	14970.17
729.516	14900.57
729.858	14903.96
730.199	14901.25
730.541	14882.94
730.882	14825.32
731.224	14955.71
731.565	14697.18
731.906	14842.49
732.248	14760.46
732.589	14771.08
732.93	14701.25
733.271	14732.21
733.612	14800.01
733.953	14818.99
734.294	14723.62
734.635	14762.27
734.976	14756.17
735.317	14681.82
735.658	14688.82
735.999	14738.09
736.339	14696.05
736.68	14830.74
737.021	14703.06
737.361	14739.67
737.702	14765.2
738.042	14675.94
738.383	14805.2
738.723	14755.71
739.063	14777.18
739.404	14776.28
739.744	14693.12
740.084	14786
740.424	14859.67
740.764	14746.67
741.104	14891.53
741.444	14855.6
741.784	14787.58
742.124	14798.2
742.464	14862.15
742.804	14894.92
743.143	14788.26
743.483	14897.4
743.823	14850.17
744.162	14845.88
744.502	14938.76
744.841	14934.24
745.181	14990.96
745.52	14973.79
745.86	15128.81
746.199	15141.92
746.538	15217.85
746.877	15237.28
747.216	15257.4
747.556	15312.08
747.895	15364.96
748.234	15259.2
748.573	15429.14
748.911	15343.04
749.25	15479.31
749.589	15408.8
749.928	15569.25
750.267	15750.49
750.605	15772.86
750.944	15678.4
751.283	15775.57
751.621	15935.8
751.96	15920.43
752.298	16071.16
752.636	16064.38
752.975	16109.35
753.313	16128.78
753.651	16458.49
753.989	16378.5
754.327	16408.78
754.666	16575.33
755.004	16692.39
755.342	16927.41
755.679	16924.92
756.017	16937.13
756.355	17132.15
756.693	17243.11
757.031	17425.7
757.368	17432.25
757.706	17491.69
758.044	17444.91
758.381	17735.52
758.719	17795.18
759.056	17928.51
759.394	17883.77
759.731	17955.86
760.068	18001.28
760.405	18263.64
760.743	18264.77
761.08	18395.17
761.417	18438.78
761.754	18647.14
762.091	18710.41
762.428	18795.38
762.765	18710.41
763.102	18920.12
763.438	18863.63
763.775	18958.77
764.112	19098.88
764.449	19204.64
764.785	19311.3
765.122	19252.09
765.458	19259.1
765.795	19345.65
766.131	19436.27
766.467	19526.44
766.804	19561.69
767.14	19527.11
767.476	19586.1
767.812	19608.92
768.148	19721.01
768.485	19679.43
768.821	19700.22
769.157	19833.32
769.492	19714.23
769.828	19904.73
770.164	19754.68
770.5	19723.49
770.836	19821.12
771.171	19865.64
771.507	19796.49
771.842	19892.75
772.178	19841.91
772.513	19855.47
772.849	19829.48
773.184	19804.85
773.519	19885.07
773.855	19808.24
774.19	19882.58
774.525	19702.25
774.86	19851.85
775.195	19813.21
775.53	19821.57
775.865	19770.27
776.2	19637.17
776.535	19586.32
776.87	19699.09
777.205	19533.89
777.539	19549.03
777.874	19632.87
778.209	19414.8
778.543	19474.23
778.878	19411.86
779.212	19384.29
779.547	19351.75
779.881	19426.78
780.215	19256.16
780.55	19286.44
780.884	19216.16
781.218	19269.72
781.552	19224.07
781.886	19192.66
782.22	19206.22
782.554	19003.74
782.888	18903.63
783.222	18854.59
783.556	18917.41
783.889	18819.79
784.223	18751.99
784.557	18699.11
784.89	18656.18
785.224	18648.49
785.557	18527.37
785.891	18539.12
786.224	18447.59
786.558	18438.33
786.891	18358.1
787.224	18236.98
787.557	18244.44
787.891	18212.8
788.224	18220.26
788.557	18152.46
788.89	18102.29
789.223	18050.77
789.556	18018.9
789.888	17921.28
790.221	17971.9
790.554	17703.66
790.887	17701.85
791.219	17727.39
791.552	17703.21
791.884	17630.89
792.217	17660.72
792.549	17557.67
792.882	17366.94
793.214	17455.98
793.546	17390.67
793.879	17336.66
794.211	17182.77
794.543	17328.08
794.875	17270.68
795.207	17266.38
795.539	17135.09
795.871	17132.15
796.203	16913.4
796.535	16800.63
796.867	16961.31
797.198	16884.92
797.53	16916.11
797.862	16705.49
798.193	16705.04
798.525	16694.87
798.856	16679.96
799.188	16464.37
799.519	16523.8
799.85	16441.77
800.182	16369.46
800.513	16487.87
800.844	16230.93
801.175	16332.85
801.506	16340.3
801.837	16166.75
802.168	16179.18
802.499	16196.35
802.83	15973.53
803.161	15981.44
803.491	15934.21
803.822	15999.75
804.153	15903.48
804.483	15832.07
804.814	15700.32
805.145	15692.41
805.475	15693.77
805.805	15633.43
806.136	15648.35
806.466	15600.44
806.796	15608.57
807.126	15392.76
807.457	15456.94
807.787	15484.28
808.117	15336.49
808.447	15271.18
808.777	15400.22
809.107	15281.58
809.436	15166.32
809.766	15261.01
810.096	15214.46
810.426	15137.62
810.755	15105.31
811.085	15053.78
811.414	15118.64
811.744	14957.97
812.073	14860.57
812.403	14878.42
812.732	14741.48
813.061	14839.55
813.39	14679.33
813.719	14672.1
814.049	14801.59
814.378	14739.89
814.707	14677.98
815.036	14559.79
815.365	14597.53
815.693	14364.54
816.022	14402.5
816.351	14389.17
816.68	14350.98
817.008	14421.03
817.337	14241.38
817.665	14296.52
817.994	14284.77
818.322	14233.24
818.651	14154.83
818.979	14094.26
819.307	14250.42
819.636	14159.57
819.964	14073.47
820.292	14239.12
820.62	14042.96
820.948	14042.06
821.276	14125
821.604	13943.76
821.932	13981.72
822.259	13983.08
822.587	14026.92
822.915	14004.1
823.243	14055.39
823.57	13868.73
823.898	14001.61
824.225	13922.97
824.553	13948.73
824.88	14001.84
825.207	14003.19
825.535	13894.49
825.862	14030.31
826.189	13958.45
826.516	13965.9
826.843	14047.94
827.17	14022.85
827.497	14008.39
827.824	13944.21
828.151	14056.52
828.478	14001.38
828.805	14089.97
829.131	13891.1
829.458	13966.36
829.785	13893.59
830.111	13929.52
830.438	13960.48
830.764	13924.32
831.09	13933.14
831.417	13882.74
831.743	13949.63
832.069	13935.85
832.395	13839.58
832.722	13847.04
833.048	13901.27
833.374	13857.43
833.7	13789.19
834.026	13832.12
834.351	13824.21
834.677	13842.07
835.003	13883.87
835.329	13840.03
835.654	13772.24
835.98	13653.37
836.306	13785.57
836.631	13643.88
836.956	13690.88
837.282	13743.08
837.607	13636.87
837.932	13722.75
838.258	13772.91
838.583	13539.7
838.908	13568.63
839.233	13601.17
839.558	13582.41
839.883	13508.06
840.208	13418.35
840.533	13404.34
840.858	13407.73
841.182	13497.22
841.507	13418.35
841.832	13297
842.156	13331.57
842.481	13370.67
842.805	13346.49
843.13	13282.53
843.454	13187.85
843.778	13212.03
844.103	13118.02
844.427	13065.14
844.751	13087.96
845.075	13036.89
845.399	13050.67
845.723	12915.54
846.047	13038.02
846.371	12829.66
846.695	12797.35
847.019	12778.59
847.343	12737.24
847.666	12627.18
847.99	12608.65
848.313	12574.53
848.637	12509.22
848.96	12477.13
849.284	12452.95
849.607	12324.59
849.931	12274.87
850.254	12264.48
850.577	12239.62
850.9	12109.91
851.223	12080.76
851.546	12010.48
851.869	11987.42
852.192	11995.56
852.515	11867.88
852.838	11953.08
853.161	11880.76
853.483	11751.27
853.806	11788.56
854.129	11716.92
854.451	11666.08
854.774	11644.84
855.096	11584.05
855.419	11565.97
855.741	11566.87
856.063	11558.74
856.385	11458.4
856.708	11453.2
857.03	11367.78
857.352	11434.9
857.674	11318.74
857.996	11309.25
858.318	11271.51
858.64	11258.63
858.961	11232.42
859.283	11207.33
859.605	11122.36
859.926	11143.38
860.248	11122.59
860.57	11082.82
860.891	11024.51
861.212	10956.94
861.534	10952.42
861.855	10962.14
862.176	10908.36
862.498	10907.23
862.819	10919.43
863.14	10883.05
863.461	10864.97
863.782	10825.87
864.103	10821.35
864.424	10760.56
864.745	10716.05
865.065	10751.3
865.386	10691.64
865.707	10656.16
866.027	10682.83
866.348	10633.11
866.668	10744.97
866.989	10622.72
867.309	10565.54
867.63	10590.85
867.95	10538.65
868.27	10513.57
868.59	10492.77
868.91	10533.23
869.23	10482.83
869.55	10452.32
869.87	10466.56
870.19	10535.03
870.51	10437.18
870.83	10441.02
871.15	10358.09
871.469	10350.18
871.789	10413
872.109	10361.93
872.428	10265.44
872.748	10320.12
873.067	10335.94
873.386	10323.29
873.706	10276.28
874.025	10227.25
874.344	10139.79
874.663	10274.25
874.982	10164.42
875.301	10180.24
875.62	10154.03
875.939	10118.77
876.258	10101.6
876.577	10067.02
876.896	10146.57
877.214	10027.7
877.533	10095.05
877.852	10116.74
878.17	10085.1
878.489	10044.43
878.807	9962.39
879.125	9949.06
879.444	9898.44
879.762	9939.57
880.08	9949.96
880.398	9841.72
880.716	9961.04
881.034	9896.63
881.352	9872.45
881.67	9778.67
881.988	9835.84
882.306	9799.01
882.624	9773.47
882.941	9708.39
883.259	9617.09
883.577	9685.56
883.894	9663.42
884.212	9645.79
884.529	9654.6
884.846	9624.32
885.164	9558.34
885.481	9569.64
885.798	9543.65
886.115	9513.14
886.432	9473.82
886.75	9458.23
887.067	9464.33
887.383	9408.96
887.7	9448.73
888.017	9364.44
888.334	9396.53
888.651	9343.43
888.967	9291
889.284	9292.35
889.6	9236.31
889.917	9172.36
890.233	9201.96
890.55	9149.53
890.866	9102.53
891.182	9073.15
891.498	9097.56
891.815	9065.92
892.131	9079.03
892.447	9013.27
892.763	8994.51
893.079	9007.39
893.395	8933.27
893.71	8968.07
894.026	8880.84
894.342	8811.92
894.657	8797.68
894.973	8828.41
895.289	8780.28
895.604	8768.75
895.92	8616.67
896.235	8582.77
896.55	8667.96
896.865	8630.68
897.181	8578.93
897.496	8581.64
897.811	8537.57
898.126	8567.18
898.441	8450.12
898.756	8479.04
899.071	8368.31
899.386	8443.11
899.7	8380.97
900.015	8316.11
900.33	8228.2
900.644	8261.87
900.959	8286.51
901.273	8185.49
901.588	8172.16
901.902	8158.6
902.216	8114.31
902.531	8100.3
902.845	8039.05
903.159	8040.64
903.473	8010.81
903.787	7958.83
904.101	7947.31
904.415	7951.15
904.729	7879.74
905.042	7807.87
905.356	7805.16
905.67	7816.69
905.984	7797.03
906.297	7818.04
906.611	7685.84
906.924	7677.93
907.237	7680.19
907.551	7654.88
907.864	7638.16
908.177	7606.98
908.491	7567.2
908.804	7492.4
909.117	7418.96
909.43	7444.04
909.743	7375.57
910.056	7388.9
910.368	7382.57
910.681	7329.02
910.994	7332.18
911.307	7264.16
911.619	7152.98
911.932	7252.63
912.244	7140.77
912.557	7127.44
912.869	7062.58
913.181	7042.92
913.494	7111.17
913.806	7053.32
914.118	7000.21
914.43	6957.05
914.742	6945.07
915.054	6918.41
915.366	6873.66
915.678	6857.16
915.99	6846.09
916.302	6784.4
916.613	6756.83
916.925	6795.7
917.236	6784.62
917.548	6723.16
917.859	6693.1
918.171	6641.35
918.482	6570.62
918.794	6625.08
919.105	6577.17
919.416	6491.07
919.727	6472.09
920.038	6518.19
920.349	6405.88
920.66	6401.58
920.971	6425.09
921.282	6447.01
921.593	6322.49
921.903	6301.47
922.214	6219.89
922.525	6274.58
922.835	6237.75
923.146	6179.67
923.456	6209.72
923.767	6167.92
924.077	6114.58
924.387	6126.79
924.697	6059.22
925.008	6033.91
925.318	5996.17
925.628	6035.04
925.938	5944.87
926.248	5922.73
926.558	5914.82
926.867	5929.73
927.177	5914.36
927.487	5837.3
927.796	5811.99
928.106	5797.08
928.416	5759.57
928.725	5744.88
929.034	5636.86
929.344	5723.41
929.653	5676.4
929.962	5645.67
930.271	5621.04
930.581	5588.95
930.89	5568.84
931.199	5529.74
931.508	5529.29
931.817	5525.22
932.125	5467.6
932.434	5533.81
932.743	5457.65
933.051	5423.53
933.36	5363.19
933.669	5362.51
933.977	5310.54
934.286	5311.44
934.594	5322.74
934.902	5260.37
935.21	5226.25
935.519	5284.32
935.827	5212.46
936.135	5184.21
936.443	5145.57
936.751	5099.02
937.059	5149.19
937.367	5146.93
937.674	5092.01
937.982	5098.79
938.29	5063.99
938.597	5044.78
938.905	5015.4
939.213	4951.9
939.52	4932.7
939.827	4992.35
940.135	4907.39
940.442	4929.53
940.749	4841.17
941.056	4852.7
941.363	4874.17
941.67	4814.05
941.977	4745.58
942.284	4756.2
942.591	4773.38
942.898	4690.22
943.205	4697.45
943.511	4712.81
943.818	4701.29
944.125	4628.75
944.431	4620.84
944.738	4629.88
945.044	4590.56
945.35	4569.77
945.657	4543.1
945.963	4498.58
946.269	4504.01
946.575	4494.06
946.881	4473.05
947.187	4466.49
947.493	4439.6
947.799	4390.56
948.105	4382.65
948.41	4375.65
948.716	4360.73
949.022	4298.36
949.327	4375.65
949.633	4285.03
949.938	4306.95
950.244	4266.72
950.549	4244.8
950.854	4218.36
951.16	4193.73
951.465	4184.01
951.77	4131.81
952.075	4146.5
952.38	4124.81
952.685	4123.68
952.99	4073.51
953.294	4109.21
953.599	4075.32
953.904	4045.71
954.209	3984.47
954.513	4031.02
954.818	4000.74
955.122	3977.69
955.426	3958.48
955.731	3976.79
956.035	3934.98
956.339	3876.45
956.643	3877.58
956.948	3877.58
957.252	3859.96
957.556	3836.9
957.86	3805.04
958.163	3802.78
958.467	3729.11
958.771	3782.89
959.075	3768.21
959.378	3729.34
959.682	3731.37
959.985	3746.29
960.289	3689.56
960.592	3662.22
960.896	3652.95
961.199	3643.01
961.502	3635.1
961.805	3596.01
962.108	3610.24
962.411	3585.61
962.714	3543.35
963.017	3539.29
963.32	3534.31
963.623	3483.47
963.926	3512.17
964.228	3483.02
964.531	3474.65
964.833	3494.09
965.136	3450.7
965.438	3431.04
965.741	3415.9
966.043	3401.44
966.345	3357.82
966.648	3382
966.95	3366.86
967.252	3362.34
967.554	3349.46
967.856	3339.74
968.158	3302.68
968.46	3252.51
968.761	3296.58
969.063	3211.61
969.365	3205.73
969.666	3226.3
969.968	3232.85
970.269	3207.54
970.571	3187.43
970.872	3184.94
971.174	3155.57
971.475	3130.93
971.776	3111.27
972.077	3105.85
972.378	3129.13
972.679	3114.21
972.98	3105.62
973.281	3053.2
973.582	3075.57
973.883	3045.51
974.183	3006.64
974.484	2986.31
974.785	2989.47
975.085	2993.76
975.386	2971.16
975.686	2944.05
975.986	2910.6
976.287	2960.77
976.587	2918.51
976.887	2888.68
977.187	2896.36
977.487	2871.05
977.787	2864.73
978.087	2844.84
978.387	2862.92
978.687	2784.28
978.987	2829.93
979.286	2771.4
979.586	2808.91
979.885	2790.6
980.185	2746.54
980.484	2771.17
980.784	2766.65
981.083	2736.14
981.382	2721.45
981.682	2723.49
981.981	2685.07
982.28	2663.83
982.579	2702.92
982.878	2655.47
983.177	2649.37
983.475	2646.2
983.774	2616.37
984.073	2624.73
984.372	2577.73
984.67	2568.24
984.969	2520.78
985.267	2576.82
985.566	2571.85
985.864	2553.55
986.162	2551.74
986.461	2539.76
986.759	2504.06
987.057	2496.6
987.355	2476.49
987.653	2470.61
987.951	2465.19
988.249	2478.52
988.547	2400.11
988.844	2427.45
989.142	2403.95
989.44	2403.5
989.737	2383.84
990.035	2365.98
990.332	2387.68
990.63	2326.66
990.927	2368.24
991.224	2334.8
991.521	2355.36
991.819	2336.38
992.116	2300.67
992.413	2291.86
992.71	2279.21
993.006	2284.4
993.303	2255.7
993.6	2251.41
993.897	2236.04
994.193	2231.98
994.49	2238.53
994.787	2220
995.083	2208.92
995.379	2229.04
995.676	2183.61
995.972	2184.74
996.268	2129.15
996.565	2142.03
996.861	2126.67
997.157	2129.15
997.453	2115.82
997.749	2086.89
998.044	2079.89
998.34	2078.53
998.636	2045.99
998.932	2088.48
999.227	2041.92
999.523	2049.38
999.818	2020.46
1000.114	2012.55
1000.409	2016.84
1000.704	1989.95
1001	1977.74
1001.295	1960.57
1001.59	1958.99
1001.885	1967.58
1002.18	1956.95
1002.475	1930.29
1002.77	1936.39
1003.065	1914.7
1003.359	1873.34
1003.654	1890.29
1003.949	1887.13
1004.243	1871.76
1004.538	1860.91
1004.832	1893.68
1005.127	1828.6
1005.421	1844.19
1005.715	1825.66
1006.009	1835.38
1006.304	1810.07
1006.598	1777.3
1006.892	1795.83
1007.186	1776.62
1007.48	1755.6
1007.773	1733.68
1008.067	1727.36
1008.361	1740.46
1008.655	1742.95
1008.948	1705.66
1009.242	1709.96
1009.535	1694.36
1009.829	1718.99
1010.122	1670.18
1010.415	1660.69
1010.708	1677.64
1011.001	1677.87
1011.295	1614.36
1011.588	1615.72
1011.881	1610.07
1012.173	1619.34
1012.466	1577.08
1012.759	1613.01
1013.052	1603.74
1013.344	1582.73
1013.637	1558.55
1013.93	1542.28
1014.222	1555.61
1014.514	1523.75
1014.807	1516.74
1015.099	1532.56
1015.391	1510.19
1015.683	1510.86
1015.976	1501.37
1016.268	1509.96
1016.56	1501.6
1016.851	1460.7
1017.143	1440.36
1017.435	1452.79
1017.727	1402.84
1018.018	1459.11
1018.31	1392.68
1018.602	1409.85
1018.893	1419.12
1019.185	1393.81
1019.476	1391.55
1019.767	1353.58
1020.058	1329.63
1020.35	1348.83
1020.641	1311.77
1020.932	1334.82
1021.223	1363.98
1021.514	1327.14
1021.804	1316.29
1022.095	1305.9
1022.386	1287.37
1022.677	1323.75
1022.967	1290.31
1023.258	1287.37
1023.548	1288.72
1023.839	1259.35
1024.129	1262.06
1024.419	1241.49
1024.709	1236.75
1025	1223.87
1025.29	1221.15
1025.58	1221.61
1025.87	1218.44
1026.16	1192.91
1026.449	1191.1
1026.739	1190.42
1027.029	1177.77
1027.319	1134.83
1027.608	1162.4
1027.898	1146.81
1028.187	1163.53
1028.477	1135.28
1028.766	1149.97
1029.055	1133.02
1029.344	1097.32
1029.634	1111.55
1029.923	1109.97
1030.212	1100.93
1030.501	1068.16
1030.79	1083.3
1031.078	1083.08
1031.367	1053.93
1031.656	1039.24
1031.945	1039.01
1032.233	1030.2
1032.522	1041.27
1032.81	1056.64
1033.099	1012.57
1033.387	1024.1
1033.675	1006.47
1033.963	1008.5
1034.251	1008.28
1034.54	997.88
1034.828	988.17
1035.116	971.44
1035.403	996.08
1035.691	951.1
1035.979	976.87
1036.267	955.17
1036.554	949.3
1036.842	947.94
1037.129	950.65
1037.417	946.81
1037.704	912.91
1037.992	929.18
1038.279	925.12
1038.566	907.49
1038.853	907.49
1039.14	907.49
