Data from hue_200_FLMS001491_00050.txt Node
Date: Tue Feb 07 16:43:21 GMT 2017
User: dcchb
Spectrometer: FLMS00149
Trigger mode: 0
Integration Time (sec): 2.000000E-2
Scans to average: 10
Electric dark correction enabled: true
Nonlinearity correction enabled: false
Boxcar width: 0
XAxis mode: Wavelengths
Number of Pixels in Spectrum: 2048
>>>>>Begin Spectral Data<<<<<
341.393	-19.25
341.776	-19.25
342.16	-19.25
342.543	-71.68
342.927	-72.81
343.31	-70.1
343.693	-81.85
344.077	-69.19
344.46	-54.5
344.843	-56.31
345.226	-41.4
345.61	-29.42
345.993	-22.41
346.376	-15.64
346.759	8.77
347.142	41.54
347.525	58.94
347.908	77.7
348.291	67.3
348.674	84.7
349.057	101.88
349.44	135.55
349.823	153.63
350.206	151.82
350.588	197.24
350.971	213.29
351.354	220.29
351.737	248.09
352.119	247.41
352.502	255.32
352.884	252.83
353.267	279.95
353.65	274.53
354.032	269.56
354.414	294.19
354.797	291.02
355.179	316.11
355.562	327.86
355.944	325.37
356.326	338.71
356.709	346.16
357.091	333.06
357.473	335.54
357.855	340.29
358.238	352.72
358.62	327.41
359.002	340.06
359.384	332.6
359.766	329.21
360.148	341.87
360.53	303.9
360.912	327.41
361.294	330.12
361.676	349.78
362.057	313.85
362.439	333.96
362.821	310.68
363.203	312.49
363.584	307.29
363.966	329.21
364.348	326.73
364.729	326.73
365.111	314.3
365.493	313.62
365.874	322.21
366.256	317.69
366.637	316.56
367.019	343.45
367.4	308.42
367.781	303.45
368.163	305.94
368.544	317.24
368.925	295.32
369.306	318.14
369.688	309.1
370.069	302.1
370.45	328.08
370.831	307.97
371.212	314.3
371.593	339.38
371.974	300.06
372.355	309.55
372.736	307.07
373.117	324.47
373.498	320.85
373.879	319.95
374.26	312.27
374.641	312.49
375.021	312.49
375.402	320.85
375.783	324.69
376.163	319.95
376.544	326.28
376.925	335.54
377.305	334.41
377.686	344.81
378.066	320.4
378.447	338.48
378.827	328.54
379.208	319.72
379.588	319.95
379.968	332.6
380.349	335.99
380.729	317.01
381.109	325.15
381.489	347.07
381.87	335.32
382.25	346.84
382.63	315.43
383.01	360.85
383.39	353.62
383.77	345.26
384.15	327.18
384.53	356.78
384.91	358.37
385.29	356.11
385.67	345.26
386.049	369.21
386.429	353.62
386.809	346.62
387.189	357.01
387.568	355.88
387.948	344.81
388.328	339.84
388.707	378.7
389.087	380.74
389.466	366.73
389.846	369.44
390.225	364.92
390.605	361.53
390.984	377.8
391.363	370.8
391.743	358.37
392.122	373.28
392.501	369.89
392.881	383.22
393.26	369.67
393.639	375.09
394.018	375.31
394.397	379.16
394.776	384.81
395.155	395.43
395.534	388.65
395.913	364.69
396.292	413.05
396.671	398.14
397.05	401.98
397.429	395.65
397.808	408.76
398.186	405.6
398.565	412.15
398.944	415.99
399.323	404.69
399.701	413.51
400.08	427.97
400.458	413.51
400.837	416.22
401.215	418.93
401.594	419.38
401.972	439.04
402.351	433.62
402.729	431.13
403.107	434.52
403.486	435.88
403.864	438.36
404.242	458.02
404.62	450.57
404.999	483.56
405.377	465.26
405.755	474.3
406.133	462.09
406.511	472.71
406.889	481.53
407.267	484.46
407.645	503.9
408.023	503
408.401	467.97
408.779	521.3
409.156	500.74
409.534	512.49
409.912	517.91
410.29	546.61
410.667	538.02
411.045	563.11
411.422	556.33
411.8	556.78
412.178	581.19
412.555	588.42
412.933	588.64
413.31	607.85
413.687	597.91
414.065	630.22
414.442	657.34
414.819	660.96
415.197	667.51
415.574	677.23
415.951	677.91
416.328	709.32
416.705	708.87
417.082	717.45
417.46	740.28
417.837	724.23
418.214	730.56
418.591	742.31
418.967	748.19
419.344	768.3
419.721	762.65
420.098	779.37
420.475	785.93
420.852	792.25
421.228	819.15
421.605	837
421.982	855.53
422.358	845.13
422.735	880.16
423.111	861.63
423.488	908.18
423.864	901.63
424.241	953.38
424.617	947.96
424.994	972.59
425.37	992.25
425.746	1005.35
426.123	1031.34
426.499	1042.64
426.875	1046.48
427.251	1068.86
427.627	1082.19
428.003	1106.37
428.379	1102.75
428.756	1113.6
429.132	1135.97
429.507	1153.37
429.883	1145.24
430.259	1176.42
430.635	1182.07
431.011	1223.2
431.387	1244.44
431.763	1246.7
432.138	1264.33
432.514	1296.19
432.89	1293.48
433.265	1322.41
433.641	1347.27
434.016	1378.45
434.392	1404.21
434.767	1423.87
435.143	1467.94
435.518	1438.11
435.894	1502.97
436.269	1521.95
436.644	1540.26
437.02	1606.92
437.395	1589.29
437.77	1651.89
438.145	1646.92
438.52	1672.46
438.895	1718.1
439.271	1743.41
439.646	1778.67
440.021	1813.24
440.395	1842.17
440.77	1811.66
441.145	1852.79
441.52	1898.89
441.895	1912.68
442.27	1928.04
442.645	1962.39
443.019	1997.42
443.394	1953.35
443.769	2004.88
444.143	2008.94
444.518	2055.72
444.892	2051.88
445.267	2075.38
445.641	2098.89
446.016	2131.88
446.39	2160.58
446.764	2136.85
447.139	2169.17
447.513	2175.04
447.887	2222.72
448.262	2249.16
448.636	2274.93
449.01	2263.4
449.384	2290.74
449.758	2323.29
450.132	2363.96
450.506	2375.71
450.88	2367.58
451.254	2375.71
451.628	2447.8
452.002	2470.4
452.376	2469.27
452.75	2500.46
453.123	2531.42
453.497	2572.55
453.871	2590.4
454.244	2616.39
454.618	2645.54
454.992	2657.97
455.365	2681.7
455.739	2764.63
456.112	2747
456.486	2772.31
456.859	2816.15
457.232	2855.48
457.606	2874.01
457.979	2883.05
458.352	3003.49
458.725	3008.69
459.099	3024.96
459.472	3097.73
459.845	3093.44
460.218	3112.87
460.591	3182.7
460.964	3183.83
461.337	3236.48
461.71	3291.85
462.083	3309.25
462.456	3337.27
462.829	3357.84
463.201	3425.18
463.574	3429.7
463.947	3459.98
464.32	3566.87
464.692	3570.71
465.065	3593.99
465.438	3645.51
465.81	3728.22
466.183	3727.77
466.555	3833.3
466.928	3848.44
467.3	3870.14
467.672	3911.04
468.045	3984.71
468.417	4008.21
468.789	4046.4
469.161	4088.89
469.534	4139.74
469.906	4291.14
470.278	4252.73
470.65	4364.59
471.022	4440.07
471.394	4455.21
471.766	4516.22
472.138	4572.94
472.51	4638.71
472.882	4712.6
473.253	4740.4
473.625	4829.21
473.997	4822.66
474.369	4920.96
474.74	4925.7
475.112	5092.71
475.484	5149.2
475.855	5244.57
476.227	5276.88
476.598	5364.56
476.97	5485.24
477.341	5532.69
477.713	5611.11
478.084	5644.78
478.455	5758.22
478.827	5834.15
479.198	5988.73
479.569	5976.75
479.94	6159.12
480.311	6181.49
480.682	6322.5
481.053	6442.5
481.424	6544.64
481.795	6572.21
482.166	6680.69
482.537	6721.81
482.908	6904.41
483.279	6894.01
483.65	7059.21
484.021	7225.3
484.391	7205.42
484.762	7329.26
485.133	7356.83
485.503	7463.72
485.874	7625.75
486.244	7691.51
486.615	7851.5
486.985	7920.88
487.356	8014.21
487.726	8046.53
488.097	8183.25
488.467	8201.1
488.837	8419.17
489.207	8421.88
489.578	8541.43
489.948	8606.51
490.318	8778.03
490.688	8676.34
491.058	8934.41
491.428	8964.69
491.798	9063
492.168	9224.12
492.538	9176.67
492.908	9295.31
493.278	9393.16
493.648	9363.55
494.017	9523.32
494.387	9545.24
494.757	9568.52
495.126	9692.81
495.496	9705.47
495.866	9780.72
496.235	9911.79
496.605	9940.71
496.974	9982.29
497.344	10041.28
497.713	10074.27
498.082	10155.4
498.452	10145.23
498.821	10183.42
499.19	10210.08
499.559	10283.98
499.928	10365.56
500.298	10382.06
500.667	10472
501.036	10397.42
501.405	10505.44
501.774	10498.89
502.143	10579.34
502.512	10574.37
502.88	10643.07
503.249	10663.63
503.618	10737.08
503.987	10671.54
504.356	10754.7
504.724	10830.63
505.093	10830.86
505.462	10831.54
505.83	10878.99
506.199	10895.04
506.567	11092.55
506.936	11041.7
507.304	11105.2
507.672	11036.05
508.041	11192.88
508.409	11195.37
508.777	11270.17
509.145	11226.56
509.514	11151.75
509.882	11299.77
510.25	11281.69
510.618	11339.55
510.986	11325.31
511.354	11386.55
511.722	11445.98
512.09	11499.77
512.458	11409.15
512.826	11456.38
513.193	11615.25
513.561	11490.28
513.929	11486.66
514.297	11599.65
514.664	11689.82
515.032	11579.77
515.4	11667
515.767	11721.68
516.135	11702.47
516.502	11582.25
516.869	11734.34
517.237	11739.99
517.604	11711.06
517.972	11810.95
518.339	11827.9
518.706	11708.8
519.073	11786.54
519.44	11817.5
519.808	11853.43
520.175	11850.95
520.542	11915.12
520.909	11906.99
521.276	11824.96
521.643	11894.11
522.009	11960.77
522.376	11961.9
522.743	11966.42
523.11	12011.85
523.477	12053.43
523.843	12031.96
524.21	12090.71
524.577	12137.72
524.943	12097.72
525.31	12113.54
525.676	12137.49
526.043	12210.48
526.409	12145.4
526.776	12241.9
527.142	12158.28
527.508	12167.32
527.874	12238.73
528.241	12203.7
528.607	12163.25
528.973	12218.62
529.339	12103.82
529.705	12191.95
530.071	12193.54
530.437	12128.9
530.803	12172.29
531.169	12172.29
531.535	12095.68
531.901	12137.94
532.267	12032.41
532.632	12092.07
532.998	12041
533.364	12060.88
533.73	12098.85
534.095	12037.83
534.461	12046.42
534.826	11923.26
535.192	11970.49
535.557	11942.02
535.923	11867.67
536.288	11865.18
536.653	11805.75
537.019	11776.6
537.384	11717.16
537.749	11709.71
538.114	11644.17
538.479	11631.06
538.845	11565.98
539.21	11540.9
539.575	11517.62
539.94	11501.12
540.305	11566.89
540.67	11503.38
541.034	11415.48
541.399	11375.93
541.764	11290.06
542.129	11279.21
542.494	11302.71
542.858	11290.28
543.223	11157.63
543.587	11156.73
543.952	11032.89
544.316	11063.62
544.681	10930.97
545.045	10939.56
545.41	10935.94
545.774	10925.55
546.138	10836.73
546.503	10800.8
546.867	10622.96
547.231	10769.62
547.595	10677.64
547.959	10676.97
548.324	10522.84
548.688	10536.4
549.052	10454.6
549.416	10516.97
549.779	10465.67
550.143	10399.01
550.507	10384.32
550.871	10343.41
551.235	10274.49
551.599	10346.8
551.962	10295.96
552.326	10182.29
552.689	10185.23
553.053	10117.43
553.417	10123.76
553.78	10157.43
554.143	10068.17
554.507	10044.44
554.87	9961.05
555.234	9965.12
555.597	9882.41
555.96	9948.4
556.323	9872.69
556.686	9828.17
557.05	9884.9
557.413	9860.49
557.776	9855.29
558.139	9825.69
558.502	9744.11
558.865	9771.23
559.228	9768.97
559.59	9770.55
559.953	9709.98
560.316	9735.75
560.679	9778.91
561.041	9678.8
561.404	9670.44
561.767	9669.08
562.129	9653.94
562.492	9659.14
562.854	9648.29
563.217	9597.45
563.579	9624.79
563.941	9633.6
564.304	9641.96
564.666	9709.08
565.028	9633.83
565.39	9644.9
565.753	9611.46
566.115	9646.71
566.477	9650.55
566.839	9584.34
567.201	9700.72
567.563	9551.57
567.925	9693.94
568.287	9674.05
568.648	9648.29
569.01	9632.25
569.372	9615.3
569.734	9624.56
570.095	9647.61
570.457	9661.17
570.819	9733.04
571.18	9618.24
571.542	9725.35
571.903	9669.99
572.265	9676.31
572.626	9712.47
572.987	9649.2
573.349	9672.7
573.71	9709.53
574.071	9676.77
574.432	9644.22
574.794	9705.01
575.155	9759.02
575.516	9742.53
575.877	9684.9
576.238	9669.76
576.599	9747.5
576.96	9736.88
577.32	9717.67
577.681	9723.32
578.042	9742.98
578.403	9696.2
578.763	9691.45
579.124	9653.04
579.485	9716.31
579.845	9767.16
580.206	9749.98
580.566	9741.4
580.927	9706.37
581.287	9701.85
581.648	9702.98
582.008	9747.5
582.368	9680.16
582.728	9674.28
583.089	9639.48
583.449	9685.35
583.809	9686.71
584.169	9723.77
584.529	9655.75
584.889	9676.54
585.249	9629.53
585.609	9608.07
585.969	9641.96
586.329	9628.41
586.688	9640.61
587.048	9634.96
587.408	9587.28
587.768	9568.75
588.127	9579.59
588.487	9589.54
588.846	9708.85
589.206	9535.75
589.565	9615.07
589.925	9559.03
590.284	9581.63
590.643	9562.87
591.003	9620.04
591.362	9558.8
591.721	9547.5
592.08	9519.93
592.44	9568.29
592.799	9497.79
593.158	9582.76
593.517	9525.81
593.876	9575.98
594.235	9495.08
594.593	9511.12
594.952	9466.15
595.311	9469.99
595.67	9501.18
596.029	9490.1
596.387	9501.63
596.746	9517.45
597.104	9458.69
597.463	9449.43
597.822	9554.73
598.18	9425.92
598.538	9444
598.897	9465.92
599.255	9438.58
599.613	9498.92
599.972	9457.56
600.33	9411.24
600.688	9453.27
601.046	9415.76
601.404	9477.22
601.762	9436.09
602.12	9441.07
602.478	9465.25
602.836	9466.38
603.194	9397.9
603.552	9373.72
603.91	9382.31
604.268	9419.37
604.625	9433.38
604.983	9430.44
605.341	9370.33
605.698	9467.96
606.056	9468.86
606.413	9426.6
606.771	9446.26
607.128	9449.2
607.485	9340.95
607.843	9448.97
608.2	9507.28
608.557	9446.49
608.914	9388.41
609.272	9490.33
609.629	9469.09
609.986	9469.09
610.343	9504.57
610.7	9459.14
611.057	9463.89
611.414	9447.17
611.771	9513.83
612.127	9532.14
612.484	9482.65
612.841	9462.99
613.198	9438.13
613.554	9475.64
613.911	9514.74
614.267	9542.98
614.624	9567.16
614.98	9557.45
615.337	9573.72
615.693	9536.88
616.05	9566.03
616.406	9584.11
616.762	9529.2
617.118	9535.75
617.475	9540.95
617.831	9586.37
618.187	9617.11
618.543	9601.51
618.899	9680.38
619.255	9589.76
619.611	9579.82
619.967	9660.72
620.323	9582.76
620.678	9684.9
621.034	9615.07
621.39	9641.06
621.746	9601.74
622.101	9742.07
622.457	9547.5
622.812	9621.63
623.168	9644.9
623.523	9608.74
623.879	9681.06
624.234	9577.56
624.589	9660.72
624.945	9622.76
625.3	9632.92
625.655	9582.3
626.01	9641.29
626.365	9569.42
626.72	9542.31
627.075	9569.65
627.43	9555.86
627.785	9541.18
628.14	9583.21
628.495	9620.27
628.85	9534.17
629.205	9500.27
629.559	9614.62
629.914	9560.38
630.269	9573.04
630.623	9524.23
630.978	9494.4
631.332	9511.35
631.687	9495.98
632.041	9484
632.396	9495.75
632.75	9429.31
633.104	9412.82
633.459	9349.54
633.813	9354.74
634.167	9422.31
634.521	9388.86
634.875	9400.16
635.229	9434.74
635.583	9350.9
635.937	9342.99
636.291	9326.49
636.645	9335.98
636.999	9286.72
637.352	9335.53
637.706	9253.05
638.06	9269.32
638.413	9264.8
638.767	9190.22
639.121	9284.46
639.474	9184.12
639.828	9181.19
640.181	9274.06
640.534	9185.48
640.888	9196.78
641.241	9104.58
641.594	9161.75
641.947	9179.83
642.301	9162.2
642.654	9166.04
643.007	9261.86
643.36	9144.58
643.713	9143.9
644.066	9148.42
644.419	9077.69
644.771	9065.71
645.124	8945.26
645.477	9019.16
645.83	8914.75
646.182	8889.89
646.535	8815.55
646.888	8910.68
647.24	8828.43
647.593	8860.29
647.945	8850.8
648.298	8840.86
648.65	8789.11
649.002	8817.35
649.355	8871.36
649.707	8841.99
650.059	8884.92
650.411	8946.39
650.763	8951.81
651.115	9072.26
651.467	9038.36
651.819	9046.95
652.171	9074.52
652.523	9052.83
652.875	9004.69
653.227	8997.01
653.578	9042.88
653.93	9014.64
654.282	8963.56
654.633	8994.98
654.985	9030.23
655.337	9032.04
655.688	9081.98
656.039	9054.41
656.391	9008.31
656.742	9010.79
657.094	8969.44
657.445	9101.19
657.796	9047.63
658.147	9028.42
658.498	9080.4
658.849	9071.58
659.2	9039.95
659.551	8980.29
659.902	9050.57
660.253	9050.12
660.604	9021.87
660.955	9049.44
661.306	9054.18
661.656	9037.46
662.007	9076.33
662.358	9084.92
662.708	9111.36
663.059	9143.45
663.409	9038.14
663.76	9111.81
664.11	9177.34
664.461	9134.86
664.811	9126.05
665.161	9118.59
665.511	9075.2
665.862	9041.3
666.212	9096.22
666.562	9198.36
666.912	9135.31
667.262	9068.87
667.612	9104.13
667.962	9178.25
668.312	9173.95
668.662	9160.17
669.011	9115.2
669.361	9121.3
669.711	9125.82
670.06	9123.79
670.41	9102.77
670.76	9041.75
671.109	9123.56
671.459	9125.59
671.808	9097.12
672.157	9058.25
672.507	9105.93
672.856	9021.64
673.205	9084.01
673.554	9088.31
673.904	9052.6
674.253	9152.03
674.602	9055.99
674.951	8883.11
675.3	8874.07
675.649	9035.2
675.998	8988.87
676.346	8954.75
676.695	8995.2
677.044	8969.89
677.393	8974.64
677.741	8945.26
678.09	8918.59
678.438	8910.46
678.787	8873.17
679.135	8914.3
679.484	8873.62
679.832	8849.67
680.181	8766.05
680.529	8845.83
680.877	8774.42
681.225	8760.41
681.573	8841.08
681.922	8768.31
682.27	8765.15
682.618	8756.34
682.966	8701.65
683.314	8697.13
683.661	8715.66
684.009	8665.27
684.357	8709.56
684.705	8655.55
685.053	8658.26
685.4	8613.74
685.748	8509.34
686.095	8514.99
686.443	8519.28
686.79	8474.99
687.138	8518.83
687.485	8529
687.832	8417.82
688.18	8495.33
688.527	8418.49
688.874	8440.64
689.221	8368.78
689.568	8343.92
689.915	8346.63
690.262	8292.85
690.609	8288.33
690.956	8307.31
691.303	8252.85
691.65	8264.83
691.997	8200.19
692.344	8140.76
692.69	8149.57
693.037	8103.25
693.383	8056.92
693.73	8044.04
694.077	7948.68
694.423	7994.32
694.769	7957.94
695.116	7916.36
695.462	7885.17
695.808	7896.7
696.155	7857.15
696.501	7754.1
696.847	7790.49
697.193	7711.39
697.539	7765.63
697.885	7682.92
698.231	7663.48
698.577	7661.23
698.923	7590.94
699.269	7559.98
699.614	7551.85
699.96	7532.41
700.306	7510.72
700.651	7477.5
700.997	7472.98
701.342	7406.54
701.688	7346.21
702.033	7317.96
702.379	7346.88
702.724	7297.17
703.069	7317.05
703.415	7230.73
703.76	7200.67
704.105	7260.78
704.45	7204.29
704.795	7144.85
705.14	7087.45
705.485	7148.7
705.83	7083.61
706.175	7077.29
706.52	7027.34
706.865	7039.32
707.209	6966.1
707.554	7016.04
707.899	6991.41
708.243	7014.24
708.588	6951.87
708.932	6880.91
709.277	6847.46
709.621	6875.26
709.966	6838.65
710.31	6842.04
710.654	6769.05
710.998	6731.98
711.342	6739.89
711.687	6775.6
712.031	6718.2
712.375	6680.23
712.719	6686.11
713.063	6700.35
713.407	6690.63
713.75	6654.92
714.094	6673
714.438	6601.37
714.782	6602.72
715.125	6608.15
715.469	6619.9
715.812	6540.12
716.156	6549.84
716.499	6558.66
716.843	6518.2
717.186	6503.06
717.53	6546
717.873	6504.65
718.216	6551.2
718.559	6464.87
718.902	6430.97
719.246	6466.91
719.589	6485.89
719.932	6473.91
720.275	6435.04
720.617	6360.69
720.96	6401.15
721.303	6388.04
721.646	6404.53
721.989	6387.81
722.331	6433.46
722.674	6393.24
723.016	6389.85
723.359	6380.13
723.701	6408.38
724.044	6306.46
724.386	6307.81
724.729	6382.39
725.071	6357.3
725.413	6336.97
725.755	6362.5
726.097	6332.22
726.439	6304.42
726.782	6273.92
727.124	6368.38
727.465	6303.52
727.807	6288.83
728.149	6254.26
728.491	6258.78
728.833	6322.05
729.175	6358.66
729.516	6259
729.858	6239.12
730.199	6305.33
730.541	6296.52
730.882	6294.93
731.224	6335.38
731.565	6289.74
731.906	6267.36
732.248	6298.32
732.589	6277.53
732.93	6252.22
733.271	6260.13
733.612	6244.09
733.953	6348.72
734.294	6273.69
734.635	6276.4
734.976	6280.47
735.317	6257.87
735.658	6314.14
735.999	6303.52
736.339	6332.67
736.68	6311.66
737.021	6296.06
737.361	6306.91
737.702	6362.73
738.042	6362.28
738.383	6348.49
738.723	6350.3
739.063	6364.54
739.404	6352.33
739.744	6383.07
740.084	6365.44
740.424	6432.56
740.764	6362.5
741.104	6456.29
741.444	6425.33
741.784	6439.56
742.124	6466.45
742.464	6459.45
742.804	6492.89
743.143	6482.27
743.483	6537.64
743.823	6510.75
744.162	6531.54
744.502	6578.09
744.841	6595.49
745.181	6661.93
745.52	6703.74
745.86	6717.97
746.199	6776.05
746.538	6804.3
746.877	6853.34
747.216	6872.32
747.556	6905.54
747.895	6947.8
748.234	6996.61
748.573	6999.55
748.911	7101.69
749.25	7171.97
749.589	7166.1
749.928	7275.92
750.267	7352.98
750.605	7433.89
750.944	7452.87
751.283	7555.69
751.621	7635.46
751.96	7698.96
752.298	7784.84
752.636	7871.62
752.975	7924.72
753.313	8007.43
753.651	8123.36
753.989	8270.7
754.327	8461.43
754.666	8522.67
755.004	8681.31
755.342	8713.4
755.679	8897.35
756.017	8966.95
756.355	9188.19
756.693	9267.06
757.031	9506.37
757.368	9527.62
757.706	9717.44
758.044	9816.87
758.381	10082.63
758.719	10112.91
759.056	10393.81
759.394	10518.78
759.731	10583.63
760.068	10773.69
760.405	10982.49
760.743	11072.43
761.08	11322.6
761.417	11434.46
761.754	11558.3
762.091	11788.8
762.428	11876.93
762.765	12141.33
763.102	12407.77
763.438	12445.73
763.775	12611.83
764.112	12864.25
764.449	13139.73
764.785	13199.61
765.122	13284.35
765.458	13398.02
765.795	13554.86
766.131	13755.08
766.467	13901.74
766.804	13958.46
767.14	14211.79
767.476	14393.48
767.812	14455.17
768.148	14694.49
768.485	14669.18
768.821	14824.43
769.157	15140.35
769.492	15179.45
769.828	15255.6
770.164	15334.24
770.5	15517.52
770.836	15635.03
771.171	15700.79
771.507	15904.17
771.842	15877.28
772.178	16061.23
772.513	16093.77
772.849	16261.9
773.184	16303.26
773.519	16369.47
773.855	16512.29
774.19	16620.54
774.525	16617.6
774.86	16738.05
775.195	16843.36
775.53	16939.63
775.865	16859.63
776.2	17054.88
776.535	16909.57
776.87	17049.9
777.205	17064.37
777.539	17062.56
777.874	17216.68
778.209	17249.9
778.543	17283.57
778.878	17231.82
779.212	17294.42
779.547	17294.64
779.881	17476.79
780.215	17423.68
780.55	17447.41
780.884	17441.76
781.218	17364.47
781.552	17495.54
781.886	17547.07
782.22	17438.82
782.554	17431.82
782.888	17420.29
783.222	17419.16
783.556	17404.7
783.889	17471.81
784.223	17373.06
784.557	17368.99
784.89	17413.51
785.224	17364.47
785.557	17282.44
785.891	17356.79
786.224	17365.15
786.558	17310.91
786.891	17291.93
787.224	17304.36
787.557	17294.42
787.891	17235.21
788.224	17347.52
788.557	17278.15
788.89	17295.1
789.223	17321.54
789.556	17203.8
789.888	17239.73
790.221	17147.76
790.554	17089.45
790.887	17189.11
791.219	17001.54
791.552	17024.14
791.884	16971.71
792.217	17060.75
792.549	16987.08
792.882	16946.63
793.214	16880.64
793.546	16949.79
793.879	16797.71
794.211	16816.92
794.543	16881.1
794.875	16758.16
795.207	16875.67
795.539	16775.34
795.871	16785.05
796.203	16618.05
796.535	16609.92
796.867	16557.04
797.198	16483.82
797.53	16529.47
797.862	16490.82
798.193	16450.6
798.525	16377.61
798.856	16450.82
799.188	16358.4
799.519	16190.27
799.85	16183.03
800.182	16192.3
800.513	16232.98
800.844	16088.8
801.175	16192.3
801.506	16188.01
801.837	16005.41
802.168	16066.65
802.499	16012.64
802.83	15982.36
803.161	15887.22
803.491	15939.88
803.822	15903.27
804.153	15832.99
804.483	15721.58
804.814	15703.5
805.145	15721.8
805.475	15612.88
805.805	15565.2
806.136	15599.32
806.466	15623.5
806.796	15577.18
807.126	15448.82
807.457	15398.2
807.787	15457.4
808.117	15404.52
808.447	15335.6
808.777	15409.04
809.107	15282.95
809.436	15252.89
809.766	15280.91
810.096	15195.04
810.426	15134.93
810.755	15173.34
811.085	15120.46
811.414	15116.85
811.744	15047.7
812.073	14996.63
812.403	15058.09
812.732	15003.63
813.061	14914.82
813.39	14883.18
813.719	14858.55
814.049	14906.01
814.378	14886.8
814.707	14807.48
815.036	14739.01
815.365	14738.55
815.693	14682.74
816.022	14654.04
816.351	14607.03
816.68	14513.02
817.008	14594.15
817.337	14541.72
817.665	14522.06
817.994	14504.89
818.322	14476.87
818.651	14470.99
818.979	14349.86
819.307	14494.04
819.636	14351.22
819.964	14310.77
820.292	14413.14
820.62	14279.36
820.948	14243.2
821.276	14276.87
821.604	14221.5
821.932	14289.3
822.259	14339.24
822.587	14212.92
822.915	14279.36
823.243	14274.84
823.57	14212.92
823.898	14299.47
824.225	14223.09
824.553	14262.86
824.88	14213.37
825.207	14328.85
825.535	14291.33
825.862	14329.52
826.189	14306.93
826.516	14365.23
826.843	14411.33
827.17	14388.51
827.497	14362.97
827.824	14368.85
828.151	14333.82
828.478	14327.94
828.805	14323.2
829.131	14301.05
829.458	14288.4
829.785	14270.32
830.111	14325.91
830.438	14327.94
830.764	14404.55
831.09	14299.02
831.417	14238
831.743	14290.43
832.069	14226.25
832.395	14211.11
832.722	14343.08
833.048	14232.35
833.374	14260.6
833.7	14175.18
834.026	14263.54
834.351	14264.22
834.677	14290.2
835.003	14265.35
835.329	14216.98
835.654	14170.21
835.98	14072.81
836.306	14148.06
836.631	14039.59
836.956	14145.12
837.282	14184.9
837.607	14144.44
837.932	14060.6
838.258	14063.54
838.583	14058.8
838.908	13946.03
839.233	13982.87
839.558	13931.57
839.883	13894.06
840.208	13847.05
840.533	13853.38
840.858	13946.48
841.182	13825.13
841.507	13767.28
841.832	13752.14
842.156	13817.45
842.481	13751.69
842.805	13675.3
843.13	13694.51
843.454	13688.86
843.778	13593.27
844.103	13519.15
844.427	13571.35
844.751	13515.99
845.075	13491.58
845.399	13500.85
845.723	13373.39
846.047	13326.39
846.371	13274.86
846.695	13244.58
847.019	13195.09
847.343	13126.17
847.666	13110.12
847.99	13053.17
848.313	12980.63
848.637	12879.84
848.96	12943.35
849.284	12834.87
849.607	12744.26
849.931	12698.83
850.254	12623.35
850.577	12577.25
850.9	12505.62
851.223	12435.34
851.546	12408.22
851.869	12351.27
852.192	12412.29
852.515	12310.59
852.838	12306.3
853.161	12289.58
853.483	12288.9
853.806	12087.78
854.129	12102.92
854.451	12052.97
854.774	12025.63
855.096	11973.43
855.419	11946.31
855.741	11864.73
856.063	11860.89
856.385	11864.28
856.708	11782.25
857.03	11739.31
857.352	11730.72
857.674	11752.64
857.996	11717.84
858.318	11622.7
858.64	11674.23
858.961	11602.14
859.283	11466.77
859.605	11543.61
859.926	11554.68
860.248	11549.71
860.57	11415.25
860.891	11423.16
861.212	11401.69
861.534	11289.6
861.855	11264.52
862.176	11335.48
862.498	11328.02
862.819	11273.79
863.14	11262.94
863.461	11241.47
863.782	11149.72
864.103	11149.49
864.424	11154.24
864.745	11154.69
865.065	11118.54
865.386	11020.68
865.707	11019.1
866.027	10966.9
866.348	11116.5
866.668	10984.53
866.989	10969.61
867.309	10881.71
867.63	11045.09
867.95	10932.55
868.27	10931.42
868.59	10891.42
868.91	10891.42
869.23	10852.78
869.55	10781.14
869.87	10892.1
870.19	10825.21
870.51	10880.35
870.83	10825.66
871.15	10716.96
871.469	10751.31
871.789	10778.43
872.109	10789.96
872.428	10618.66
872.748	10636.51
873.067	10690.98
873.386	10651.88
873.706	10682.39
874.025	10584.54
874.344	10569.4
874.663	10571.88
874.982	10533.01
875.301	10526.69
875.62	10530.3
875.939	10502.73
876.258	10464.32
876.577	10486.46
876.896	10383.64
877.214	10420.02
877.533	10491.66
877.852	10373.02
878.17	10359.23
878.489	10383.64
878.807	10351.55
879.125	10333.47
879.444	10370.98
879.762	10241.04
880.08	10276.3
880.398	10215.06
880.716	10270.2
881.034	10220.48
881.352	10160.82
881.67	10154.04
881.988	10193.59
882.306	10130.99
882.624	10112.69
882.941	10095.96
883.259	10053.48
883.577	9991.11
883.894	10007.6
884.212	10028.62
884.529	10015.29
884.846	9912.24
885.164	9944.33
885.481	9915.18
885.798	9917.21
886.115	9799.93
886.432	9827.5
886.75	9836.31
887.067	9829.53
887.383	9706.82
887.7	9770.32
888.017	9751.79
888.334	9733.04
888.651	9703.66
888.967	9717.89
889.284	9627.28
889.6	9553.83
889.917	9582.98
890.233	9558.8
890.55	9611
890.866	9509.99
891.182	9455.53
891.498	9375.76
891.815	9402.65
892.131	9382.54
892.447	9364.01
892.763	9309.54
893.079	9315.19
893.395	9329.43
893.71	9268.87
894.026	9216.66
894.342	9254.86
894.657	9102.54
894.973	9140.06
895.289	9094.41
895.604	9029.1
895.92	9007.18
896.235	8972.83
896.55	8983
896.865	8927.41
897.181	8939.61
897.496	8915.66
897.811	8883.11
898.126	8848.76
898.441	8783.23
898.756	8785.49
899.071	8696.9
899.386	8691.25
899.7	8647.87
900.015	8551.15
900.33	8573.97
900.644	8556.57
900.959	8523.58
901.273	8487.87
901.588	8485.61
901.902	8423.46
902.216	8403.35
902.531	8376.91
902.845	8352.73
903.159	8336.91
903.473	8250.14
903.787	8247.65
904.101	8219.63
904.415	8218.5
904.729	8144.83
905.042	8113.64
905.356	8094.21
905.67	8051.27
905.984	8140.76
906.297	8049.69
906.611	7993.65
906.924	7912.74
907.237	7890.15
907.551	7973.99
907.864	7888.11
908.177	7827.77
908.491	7838.85
908.804	7743.26
909.117	7708.23
909.43	7667.33
909.743	7621.68
910.056	7653.99
910.368	7590.04
910.681	7539.42
910.994	7521.79
911.307	7500.78
911.619	7470.27
911.932	7410.16
912.244	7393.21
912.557	7375.58
912.869	7372.42
913.181	7277.73
913.494	7263.27
913.806	7236.15
914.118	7197.06
914.43	7167.9
914.742	7202.71
915.054	7154.12
915.366	7114.8
915.678	7112.76
915.99	7011.52
916.302	6961.36
916.613	6971.07
916.925	6961.58
917.236	6938.08
917.548	6887.46
917.859	6857.4
918.171	6800
918.482	6812.89
918.794	6792.1
919.105	6741.93
919.416	6704.19
919.727	6696.5
920.038	6674.81
920.349	6649.95
920.66	6618.31
920.971	6583.06
921.282	6628.94
921.593	6567.92
921.903	6520.92
922.214	6533.35
922.525	6460.8
922.835	6414.93
923.146	6440.69
923.456	6381.48
923.767	6439.79
924.077	6357.53
924.387	6292.67
924.697	6316.4
925.008	6280.24
925.318	6251.09
925.628	6259.91
925.938	6212.9
926.248	6146.01
926.558	6181.26
926.867	6094.03
927.177	6058.1
927.487	6076.63
927.796	6039.12
928.106	6036.18
928.416	6016.75
928.725	5955.28
929.034	5899.69
929.344	5909.41
929.653	5874.83
929.962	5848.39
930.271	5864.89
930.581	5837.54
930.89	5852.91
931.199	5782.18
931.508	5776.98
931.817	5731.78
932.125	5725
932.434	5736.3
932.743	5624.67
933.051	5613.6
933.36	5591.22
933.669	5635.06
933.977	5567.49
934.286	5539.92
934.594	5568.85
934.902	5525.46
935.21	5453.15
935.519	5469.42
935.827	5458.8
936.135	5390.78
936.443	5404.11
936.751	5374.51
937.059	5337.9
937.367	5328.86
937.674	5313.72
937.982	5321.4
938.29	5267.62
938.597	5262.19
938.905	5216.32
939.213	5211.12
939.52	5156.88
939.827	5175.19
940.135	5106.72
940.442	5096.77
940.749	5111.24
941.056	5086.6
941.363	5006.15
941.67	5032.59
941.977	4988.3
942.284	4891.13
942.591	4926.61
942.898	4888.42
943.205	4916.21
943.511	4880.96
943.818	4851.36
944.125	4840.28
944.431	4841.19
944.738	4829.89
945.044	4786.95
945.35	4790.79
945.657	4716.44
945.963	4690.91
946.269	4673.73
946.575	4667.86
946.881	4645.26
947.187	4627.18
947.493	4584.92
947.799	4643.23
948.105	4554.64
948.41	4571.59
948.716	4533.85
949.022	4518.03
949.327	4507.64
949.633	4458.15
949.938	4452.5
950.244	4449.56
950.549	4440.07
950.854	4426.51
951.16	4381.31
951.465	4383.35
951.77	4367.3
952.075	4363.01
952.38	4314.87
952.685	4334.53
952.99	4255.21
953.294	4235.1
953.599	4230.81
953.904	4216.8
954.209	4222.45
954.513	4165.95
954.818	4202.11
955.122	4146.52
955.426	4107.42
955.731	4141.32
956.035	4097.25
956.339	4087.31
956.643	4089.34
956.948	4061.55
957.252	4006.63
957.556	4021.77
957.86	3988.55
958.163	3994.65
958.467	3989.01
958.771	3917.82
959.075	3958.5
959.378	3949.01
959.682	3911.95
959.985	3849.12
960.289	3817.48
960.592	3854.32
960.896	3829.01
961.199	3809.35
961.502	3791.27
961.805	3753.53
962.108	3737.94
962.411	3745.17
962.714	3720.54
963.017	3719.86
963.32	3706.98
963.623	3717.83
963.926	3666.08
964.228	3628.56
964.531	3581.11
964.833	3639.41
965.136	3571.62
965.438	3576.59
965.741	3553.31
966.043	3545.4
966.345	3514.44
966.648	3526.64
966.95	3540.66
967.252	3518.74
967.554	3489.81
967.856	3438.96
968.158	3407.55
968.46	3453.43
968.761	3448.91
969.063	3413.65
969.365	3421.79
969.666	3415.91
969.968	3355.58
970.269	3329.14
970.571	3359.87
970.872	3332.98
971.174	3268.8
971.475	3264.05
971.776	3290.27
972.077	3241.91
972.378	3230.38
972.679	3242.36
972.98	3234.45
973.281	3215.69
973.582	3204.17
973.883	3153.55
974.183	3164.85
974.484	3154.68
974.785	3126.2
975.085	3140.44
975.386	3094.57
975.686	3069.48
975.986	3057.96
976.287	3062.93
976.587	3024.28
976.887	3043.95
977.187	3048.01
977.487	3046.66
977.787	2955.59
978.087	2995.13
978.387	2975.92
978.687	2935.25
978.987	2979.09
979.286	2946.32
979.586	2931.63
979.885	2872.42
980.185	2886.89
980.484	2870.84
980.784	2823.16
981.083	2828.58
981.382	2866.55
981.682	2845.98
981.981	2789.49
982.28	2802.37
982.579	2785.65
982.878	2802.6
983.177	2793.56
983.475	2770.05
983.774	2704.97
984.073	2737.74
984.372	2728.25
984.67	2681.92
984.969	2709.26
985.267	2666.55
985.566	2664.07
985.864	2654.58
986.162	2647.12
986.461	2646.67
986.759	2605.31
987.057	2636.05
987.355	2582.49
987.653	2591.98
987.951	2536.61
988.249	2557.4
988.547	2579.55
988.844	2542.26
989.142	2503.17
989.44	2528.25
989.737	2537.52
990.035	2487.8
990.332	2498.87
990.63	2482.38
990.927	2426.79
991.224	2468.59
991.521	2427.01
991.819	2407.8
992.116	2420.91
992.413	2402.61
992.71	2404.41
993.006	2391.08
993.303	2361.48
993.6	2363.51
993.897	2358.31
994.193	2359.9
994.49	2333.46
994.787	2305.21
995.083	2316.96
995.379	2301.14
995.676	2307.24
995.972	2285.77
996.268	2260.01
996.565	2237.19
996.861	2250.29
997.157	2223.63
997.453	2220.92
997.749	2214.59
998.044	2197.19
998.34	2198.32
998.636	2168.71
998.932	2168.94
999.227	2150.18
999.523	2132.78
999.818	2094.82
1000.114	2099.11
1000.409	2086
1000.704	2081.94
1001	2062.05
1001.295	2074.71
1001.59	2055.5
1001.885	2048.04
1002.18	2053.46
1002.475	2046.46
1002.77	2008.49
1003.065	1999
1003.359	1978.89
1003.654	1968.95
1003.949	1960.13
1004.243	1959.23
1004.538	1924.2
1004.832	1941.6
1005.127	1940.92
1005.421	1914.26
1005.715	1913.81
1006.009	1899.34
1006.304	1899.57
1006.598	1855.73
1006.892	1884.43
1007.186	1823.41
1007.48	1858.89
1007.773	1838.55
1008.067	1804.88
1008.361	1783.87
1008.655	1816.41
1008.948	1810.98
1009.242	1794.49
1009.535	1813.02
1009.829	1744.32
1010.122	1752.45
1010.415	1755.39
1010.708	1765.56
1011.001	1715.62
1011.295	1726.01
1011.588	1679.24
1011.881	1679.46
1012.173	1684.66
1012.466	1660.48
1012.759	1667.94
1013.052	1662.96
1013.344	1639.24
1013.637	1663.87
1013.93	1620.25
1014.222	1616.86
1014.514	1580.03
1014.807	1619.8
1015.099	1571.89
1015.391	1593.81
1015.683	1566.7
1015.976	1584.77
1016.268	1534.15
1016.56	1535.74
1016.851	1555.4
1017.143	1508.62
1017.435	1509.3
1017.727	1486.47
1018.018	1491.44
1018.31	1491.9
1018.602	1477.21
1018.893	1457.32
1019.185	1451.9
1019.476	1454.83
1019.767	1432.24
1020.058	1434.5
1020.35	1426.59
1020.641	1403.08
1020.932	1393.59
1021.223	1386.59
1021.514	1407.6
1021.804	1372.8
1022.095	1385.46
1022.386	1357.89
1022.677	1341.39
1022.967	1366.48
1023.258	1277.66
1023.548	1325.8
1023.839	1307.72
1024.129	1295.52
1024.419	1308.4
1024.709	1288.29
1025	1269.3
1025.29	1283.77
1025.58	1268.85
1025.87	1224.11
1026.16	1243.54
1026.449	1246.25
1026.739	1203.32
1027.029	1226.82
1027.319	1220.04
1027.608	1204.22
1027.898	1256.42
1028.187	1181.85
1028.477	1172.13
1028.766	1175.52
1029.055	1121.06
1029.344	1181.4
1029.634	1147.72
1029.923	1151.34
1030.212	1126.71
1030.501	1114.73
1030.79	1120.61
1031.078	1107.73
1031.367	1114.96
1031.656	1077.67
1031.945	1109.08
1032.233	1087.84
1032.522	1074.28
1032.81	1099.14
1033.099	1062.98
1033.387	1066.6
1033.675	1053.04
1033.963	1051.68
1034.251	1072.25
1034.54	1031.12
1034.828	1037.67
1035.116	1022.3
1035.403	1010.78
1035.691	999.93
1035.979	1012.13
1036.267	998.35
1036.554	1014.17
1036.842	986.6
1037.129	983.89
1037.417	982.53
1037.704	964.23
1037.992	989.31
1038.279	952.7
1038.566	949.09
1038.853	949.09
1039.14	949.09
